Data from 1983.PennyLincolnUp.Lamp.En5.5.200Scan.071819.P1_HRD10591_16-54-28-966.txt Node
Date: Thu Jul 18 16:54:28 EDT 2019
User: cochatt
Spectrometer: HR+D1059
Trigger mode: 1
Integration Time (sec): 1.000000E-1
Scans to average: 1
Electric dark correction enabled: true
Nonlinearity correction enabled: false
Boxcar width: 0
XAxis mode: Wavelengths
Number of Pixels in Spectrum: 2048
>>>>>Begin Spectral Data<<<<<
223.165	-8.94
223.4	-8.94
223.635	-8.94
223.869	-22.94
224.104	-18.94
224.338	-20.94
224.573	-23.94
224.808	-8.94
225.042	-1.94
225.277	-13.94
225.511	7.06
225.746	-3.94
225.98	9.06
226.215	17.06
226.449	11.06
226.683	36.06
226.918	14.06
227.152	30.06
227.387	39.06
227.621	38.06
227.856	37.06
228.09	46.06
228.324	42.06
228.559	61.06
228.793	58.06
229.027	91.06
229.262	92.06
229.496	113.06
229.73	142.06
229.964	134.06
230.199	125.06
230.433	93.06
230.667	107.06
230.901	106.06
231.136	111.06
231.37	116.06
231.604	93.06
231.838	101.06
232.072	116.06
232.306	109.06
232.541	112.06
232.775	115.06
233.009	100.06
233.243	111.06
233.477	114.06
233.711	110.06
233.945	98.06
234.179	111.06
234.413	107.06
234.647	95.06
234.881	117.06
235.115	126.06
235.349	114.06
235.583	118.06
235.817	120.06
236.051	115.06
236.285	120.06
236.519	109.06
236.753	122.06
236.987	138.06
237.221	177.06
237.455	202.06
237.689	182.06
237.922	122.06
238.156	126.06
238.39	124.06
238.624	116.06
238.858	119.06
239.091	130.06
239.325	116.06
239.559	118.06
239.793	128.06
240.027	119.06
240.26	146.06
240.494	145.06
240.728	155.06
240.961	137.06
241.195	135.06
241.429	148.06
241.662	140.06
241.896	134.06
242.13	110.06
242.363	126.06
242.597	132.06
242.83	142.06
243.064	136.06
243.298	119.06
243.531	136.06
243.765	135.06
243.998	127.06
244.232	115.06
244.465	125.06
244.699	149.06
244.932	127.06
245.166	148.06
245.399	131.06
245.633	138.06
245.866	142.06
246.099	133.06
246.333	143.06
246.566	144.06
246.8	138.06
247.033	159.06
247.266	144.06
247.5	159.06
247.733	151.06
247.966	160.06
248.2	150.06
248.433	163.06
248.666	162.06
248.899	196.06
249.133	195.06
249.366	186.06
249.599	182.06
249.832	169.06
250.066	184.06
250.299	167.06
250.532	164.06
250.765	196.06
250.998	213.06
251.231	226.06
251.465	205.06
251.698	192.06
251.931	178.06
252.164	172.06
252.397	197.06
252.63	177.06
252.863	183.06
253.096	201.06
253.329	212.06
253.562	205.06
253.795	213.06
254.028	182.06
254.261	205.06
254.494	201.06
254.727	246.06
254.96	256.06
255.193	247.06
255.426	206.06
255.659	210.06
255.892	204.06
256.124	217.06
256.357	225.06
256.59	203.06
256.823	207.06
257.056	189.06
257.289	182.06
257.521	197.06
257.754	188.06
257.987	199.06
258.22	210.06
258.452	194.06
258.685	199.06
258.918	211.06
259.151	194.06
259.383	194.06
259.616	204.06
259.849	194.06
260.081	235.06
260.314	242.06
260.547	240.06
260.779	217.06
261.012	199.06
261.244	219.06
261.477	222.06
261.71	207.06
261.942	201.06
262.175	207.06
262.407	225.06
262.64	203.06
262.872	189.06
263.105	213.06
263.337	198.06
263.57	206.06
263.802	187.06
264.035	203.06
264.267	198.06
264.499	195.06
264.732	192.06
264.964	212.06
265.197	212.06
265.429	194.06
265.661	203.06
265.894	208.06
266.126	208.06
266.358	211.06
266.591	221.06
266.823	208.06
267.055	217.06
267.287	212.06
267.52	207.06
267.752	209.06
267.984	210.06
268.216	195.06
268.448	212.06
268.681	230.06
268.913	242.06
269.145	207.06
269.377	258.06
269.609	236.06
269.841	250.06
270.073	249.06
270.306	265.06
270.538	299.06
270.77	298.06
271.002	284.06
271.234	290.06
271.466	280.06
271.698	298.06
271.93	288.06
272.162	292.06
272.394	310.06
272.626	284.06
272.858	271.06
273.09	248.06
273.322	250.06
273.553	252.06
273.785	250.06
274.017	258.06
274.249	245.06
274.481	260.06
274.713	253.06
274.945	246.06
275.176	242.06
275.408	234.06
275.64	263.06
275.872	250.06
276.104	244.06
276.335	246.06
276.567	250.06
276.799	271.06
277.031	286.06
277.262	304.06
277.494	282.06
277.726	278.06
277.957	268.06
278.189	266.06
278.421	239.06
278.652	256.06
278.884	249.06
279.115	242.06
279.347	242.06
279.579	241.06
279.81	230.06
280.042	252.06
280.273	255.06
280.505	234.06
280.736	245.06
280.968	255.06
281.199	251.06
281.431	245.06
281.662	259.06
281.894	235.06
282.125	258.06
282.356	272.06
282.588	287.06
282.819	297.06
283.051	269.06
283.282	246.06
283.513	227.06
283.745	268.06
283.976	253.06
284.207	249.06
284.439	254.06
284.67	258.06
284.901	262.06
285.132	244.06
285.364	248.06
285.595	254.06
285.826	265.06
286.057	257.06
286.288	250.06
286.52	249.06
286.751	253.06
286.982	250.06
287.213	247.06
287.444	266.06
287.675	257.06
287.906	265.06
288.138	299.06
288.369	262.06
288.6	282.06
288.831	267.06
289.062	260.06
289.293	255.06
289.524	273.06
289.755	289.06
289.986	292.06
290.217	263.06
290.448	286.06
290.679	250.06
290.91	263.06
291.141	257.06
291.371	256.06
291.602	246.06
291.833	258.06
292.064	276.06
292.295	260.06
292.526	245.06
292.757	260.06
292.987	264.06
293.218	266.06
293.449	245.06
293.68	271.06
293.91	255.06
294.141	264.06
294.372	273.06
294.603	264.06
294.833	260.06
295.064	258.06
295.295	277.06
295.525	278.06
295.756	271.06
295.987	273.06
296.217	284.06
296.448	312.06
296.679	280.06
296.909	272.06
297.14	264.06
297.37	261.06
297.601	296.06
297.831	267.06
298.062	287.06
298.292	270.06
298.523	272.06
298.753	268.06
298.984	288.06
299.214	279.06
299.445	275.06
299.675	292.06
299.905	283.06
300.136	290.06
300.366	287.06
300.597	288.06
300.827	292.06
301.057	288.06
301.288	307.06
301.518	308.06
301.748	294.06
301.979	309.06
302.209	297.06
302.439	314.06
302.669	310.06
302.9	284.06
303.13	297.06
303.36	297.06
303.59	280.06
303.82	310.06
304.051	314.06
304.281	308.06
304.511	287.06
304.741	294.06
304.971	306.06
305.201	286.06
305.431	274.06
305.661	286.06
305.891	284.06
306.121	311.06
306.352	301.06
306.582	306.06
306.812	304.06
307.042	309.06
307.272	308.06
307.502	313.06
307.731	308.06
307.961	299.06
308.191	290.06
308.421	298.06
308.651	301.06
308.881	295.06
309.111	336.06
309.341	330.06
309.571	331.06
309.8	337.06
310.03	347.06
310.26	347.06
310.49	350.06
310.72	349.06
310.949	367.06
311.179	348.06
311.409	340.06
311.639	342.06
311.868	350.06
312.098	348.06
312.328	362.06
312.557	367.06
312.787	385.06
313.017	370.06
313.246	345.06
313.476	340.06
313.706	346.06
313.935	355.06
314.165	370.06
314.394	371.06
314.624	379.06
314.853	357.06
315.083	345.06
315.312	346.06
315.542	333.06
315.771	332.06
316.001	336.06
316.23	336.06
316.46	330.06
316.689	361.06
316.919	352.06
317.148	370.06
317.377	372.06
317.607	349.06
317.836	356.06
318.065	339.06
318.295	332.06
318.524	340.06
318.753	352.06
318.983	325.06
319.212	357.06
319.441	364.06
319.67	363.06
319.9	365.06
320.129	342.06
320.358	333.06
320.587	343.06
320.816	377.06
321.046	388.06
321.275	377.06
321.504	394.06
321.733	390.06
321.962	391.06
322.191	395.06
322.42	410.06
322.649	440.06
322.878	430.06
323.108	436.06
323.337	453.06
323.566	489.06
323.795	527.06
324.024	583.06
324.253	728.06
324.482	1018.06
324.71	1544.06
324.939	2052.06
325.168	1717.06
325.397	938.06
325.626	631.06
325.855	518.06
326.084	486.06
326.313	479.06
326.542	474.06
326.77	522.06
326.999	648.06
327.228	932.06
327.457	1358.06
327.686	1538.06
327.914	1030.06
328.143	677.06
328.372	605.06
328.6	548.06
328.829	553.06
329.058	558.06
329.287	572.06
329.515	516.06
329.744	523.06
329.972	489.06
330.201	494.06
330.43	542.06
330.658	570.06
330.887	612.06
331.115	565.06
331.344	516.06
331.572	470.06
331.801	466.06
332.03	460.06
332.258	444.06
332.486	411.06
332.715	414.06
332.943	413.06
333.172	435.06
333.4	444.06
333.629	449.06
333.857	434.06
334.085	445.06
334.314	472.06
334.542	492.06
334.771	501.06
334.999	460.06
335.227	406.06
335.455	436.06
335.684	423.06
335.912	428.06
336.14	395.06
336.369	400.06
336.597	401.06
336.825	406.06
337.053	390.06
337.281	396.06
337.51	396.06
337.738	400.06
337.966	396.06
338.194	407.06
338.422	397.06
338.65	406.06
338.878	368.06
339.106	368.06
339.334	391.06
339.562	392.06
339.79	382.06
340.018	374.06
340.246	394.06
340.474	403.06
340.702	396.06
340.93	396.06
341.158	390.06
341.386	395.06
341.614	402.06
341.842	375.06
342.07	385.06
342.298	382.06
342.526	380.06
342.754	379.06
342.981	380.06
343.209	371.06
343.437	376.06
343.665	398.06
343.893	393.06
344.12	396.06
344.348	400.06
344.576	394.06
344.804	416.06
345.031	418.06
345.259	418.06
345.487	392.06
345.714	393.06
345.942	392.06
346.17	386.06
346.397	374.06
346.625	372.06
346.853	399.06
347.08	364.06
347.308	364.06
347.535	410.06
347.763	371.06
347.99	406.06
348.218	422.06
348.445	398.06
348.673	392.06
348.9	378.06
349.128	371.06
349.355	379.06
349.583	374.06
349.81	372.06
350.037	370.06
350.265	366.06
350.492	370.06
350.72	373.06
350.947	363.06
351.174	372.06
351.402	391.06
351.629	365.06
351.856	385.06
352.083	408.06
352.311	400.06
352.538	389.06
352.765	405.06
352.992	384.06
353.22	379.06
353.447	380.06
353.674	372.06
353.901	361.06
354.128	362.06
354.355	355.06
354.583	350.06
354.81	348.06
355.037	352.06
355.264	337.06
355.491	344.06
355.718	328.06
355.945	346.06
356.172	331.06
356.399	347.06
356.626	358.06
356.853	331.06
357.08	344.06
357.307	352.06
357.534	344.06
357.761	325.06
357.988	359.06
358.215	370.06
358.441	366.06
358.668	342.06
358.895	352.06
359.122	351.06
359.349	354.06
359.576	365.06
359.802	392.06
360.029	428.06
360.256	445.06
360.483	413.06
360.709	390.06
360.936	376.06
361.163	382.06
361.39	376.06
361.616	399.06
361.843	382.06
362.07	371.06
362.296	386.06
362.523	378.06
362.749	364.06
362.976	374.06
363.203	372.06
363.429	357.06
363.656	378.06
363.882	354.06
364.109	361.06
364.335	360.06
364.562	364.06
364.788	356.06
365.015	348.06
365.241	370.06
365.468	375.06
365.694	389.06
365.92	361.06
366.147	357.06
366.373	340.06
366.599	361.06
366.826	362.06
367.052	339.06
367.278	356.06
367.505	351.06
367.731	362.06
367.957	355.06
368.184	354.06
368.41	363.06
368.636	370.06
368.862	384.06
369.089	361.06
369.315	364.06
369.541	346.06
369.767	343.06
369.993	341.06
370.219	358.06
370.445	350.06
370.672	354.06
370.898	342.06
371.124	376.06
371.35	356.06
371.576	358.06
371.802	358.06
372.028	352.06
372.254	353.06
372.48	339.06
372.706	354.06
372.932	337.06
373.158	351.06
373.384	355.06
373.61	361.06
373.835	359.06
374.061	354.06
374.287	359.06
374.513	349.06
374.739	358.06
374.965	376.06
375.191	355.06
375.416	356.06
375.642	354.06
375.868	356.06
376.094	346.06
376.319	344.06
376.545	341.06
376.771	340.06
376.997	358.06
377.222	358.06
377.448	354.06
377.674	340.06
377.899	362.06
378.125	346.06
378.35	337.06
378.576	347.06
378.802	343.06
379.027	327.06
379.253	360.06
379.478	341.06
379.704	341.06
379.929	335.06
380.155	345.06
380.38	338.06
380.606	353.06
380.831	341.06
381.057	353.06
381.282	331.06
381.507	359.06
381.733	357.06
381.958	362.06
382.184	366.06
382.409	359.06
382.634	343.06
382.86	345.06
383.085	371.06
383.31	330.06
383.535	363.06
383.761	368.06
383.986	354.06
384.211	361.06
384.436	344.06
384.662	359.06
384.887	377.06
385.112	357.06
385.337	356.06
385.562	368.06
385.787	367.06
386.013	383.06
386.238	376.06
386.463	386.06
386.688	366.06
386.913	382.06
387.138	378.06
387.363	354.06
387.588	370.06
387.813	375.06
388.038	372.06
388.263	376.06
388.488	373.06
388.713	381.06
388.938	364.06
389.163	372.06
389.387	367.06
389.612	360.06
389.837	372.06
390.062	388.06
390.287	374.06
390.512	379.06
390.736	357.06
390.961	384.06
391.186	365.06
391.411	368.06
391.636	397.06
391.86	370.06
392.085	376.06
392.31	374.06
392.534	378.06
392.759	364.06
392.984	378.06
393.208	377.06
393.433	380.06
393.658	370.06
393.882	365.06
394.107	377.06
394.331	394.06
394.556	372.06
394.78	362.06
395.005	390.06
395.229	367.06
395.454	367.06
395.678	386.06
395.903	401.06
396.127	423.06
396.352	400.06
396.576	379.06
396.801	374.06
397.025	389.06
397.249	407.06
397.474	396.06
397.698	382.06
397.922	410.06
398.147	406.06
398.371	412.06
398.595	410.06
398.82	417.06
399.044	415.06
399.268	455.06
399.492	445.06
399.717	455.06
399.941	477.06
400.165	486.06
400.389	516.06
400.613	484.06
400.837	466.06
401.062	426.06
401.286	406.06
401.51	408.06
401.734	410.06
401.958	436.06
402.182	412.06
402.406	445.06
402.63	450.06
402.854	423.06
403.078	429.06
403.302	439.06
403.526	434.06
403.75	420.06
403.974	455.06
404.198	424.06
404.422	428.06
404.645	438.06
404.869	434.06
405.093	469.06
405.317	494.06
405.541	528.06
405.765	492.06
405.988	450.06
406.212	481.06
406.436	483.06
406.66	498.06
406.883	474.06
407.107	503.06
407.331	532.06
407.555	585.06
407.778	582.06
408.002	521.06
408.226	469.06
408.449	484.06
408.673	462.06
408.896	515.06
409.12	525.06
409.344	494.06
409.567	452.06
409.791	463.06
410.014	415.06
410.238	440.06
410.461	445.06
410.685	437.06
410.908	452.06
411.132	481.06
411.355	511.06
411.578	476.06
411.802	452.06
412.025	442.06
412.249	445.06
412.472	461.06
412.695	485.06
412.919	479.06
413.142	440.06
413.365	453.06
413.589	392.06
413.812	409.06
414.035	406.06
414.258	414.06
414.482	440.06
414.705	411.06
414.928	411.06
415.151	403.06
415.374	387.06
415.597	414.06
415.821	392.06
416.044	417.06
416.267	390.06
416.49	403.06
416.713	400.06
416.936	410.06
417.159	391.06
417.382	420.06
417.605	423.06
417.828	427.06
418.051	457.06
418.274	429.06
418.497	416.06
418.72	409.06
418.943	411.06
419.166	422.06
419.389	446.06
419.611	444.06
419.834	437.06
420.057	450.06
420.28	428.06
420.503	426.06
420.726	437.06
420.948	444.06
421.171	482.06
421.394	493.06
421.617	444.06
421.839	432.06
422.062	414.06
422.285	460.06
422.507	481.06
422.73	546.06
422.953	521.06
423.175	467.06
423.398	452.06
423.621	446.06
423.843	458.06
424.066	467.06
424.288	482.06
424.511	481.06
424.733	516.06
424.956	583.06
425.178	572.06
425.401	566.06
425.623	578.06
425.846	490.06
426.068	498.06
426.291	459.06
426.513	482.06
426.735	474.06
426.958	509.06
427.18	566.06
427.402	638.06
427.625	725.06
427.847	648.06
428.069	540.06
428.292	514.06
428.514	446.06
428.736	464.06
428.958	441.06
429.181	427.06
429.403	441.06
429.625	430.06
429.847	456.06
430.069	499.06
430.292	515.06
430.514	456.06
430.736	434.06
430.958	423.06
431.18	410.06
431.402	406.06
431.624	392.06
431.846	392.06
432.068	396.06
432.29	399.06
432.512	410.06
432.734	409.06
432.956	437.06
433.178	419.06
433.4	440.06
433.622	423.06
433.844	404.06
434.066	422.06
434.287	404.06
434.509	405.06
434.731	407.06
434.953	434.06
435.175	438.06
435.397	455.06
435.618	472.06
435.84	506.06
436.062	567.06
436.284	619.06
436.505	537.06
436.727	468.06
436.949	454.06
437.17	449.06
437.392	445.06
437.614	456.06
437.835	500.06
438.057	583.06
438.278	638.06
438.5	630.06
438.721	668.06
438.943	627.06
439.165	518.06
439.386	470.06
439.608	465.06
439.829	481.06
440.05	486.06
440.272	545.06
440.493	504.06
440.715	470.06
440.936	470.06
441.158	472.06
441.379	437.06
441.6	466.06
441.822	470.06
442.043	498.06
442.264	582.06
442.486	590.06
442.707	524.06
442.928	483.06
443.149	486.06
443.371	503.06
443.592	550.06
443.813	618.06
444.034	643.06
444.255	551.06
444.476	492.06
444.698	492.06
444.919	463.06
445.14	602.06
445.361	549.06
445.582	514.06
445.803	557.06
446.024	643.06
446.245	629.06
446.466	592.06
446.687	488.06
446.908	470.06
447.129	454.06
447.35	431.06
447.571	446.06
447.792	423.06
448.013	450.06
448.234	466.06
448.455	508.06
448.675	573.06
448.896	662.06
449.117	558.06
449.338	546.06
449.559	630.06
449.779	710.06
450	566.06
450.221	495.06
450.442	427.06
450.662	426.06
450.883	441.06
451.104	468.06
451.324	444.06
451.545	415.06
451.766	396.06
451.986	387.06
452.207	389.06
452.428	388.06
452.648	394.06
452.869	395.06
453.089	403.06
453.31	419.06
453.53	413.06
453.751	396.06
453.971	421.06
454.192	437.06
454.412	401.06
454.633	376.06
454.853	395.06
455.073	376.06
455.294	405.06
455.514	467.06
455.734	473.06
455.955	386.06
456.175	369.06
456.395	372.06
456.616	366.06
456.836	370.06
457.056	342.06
457.276	368.06
457.497	371.06
457.717	374.06
457.937	381.06
458.157	384.06
458.377	380.06
458.598	410.06
458.818	468.06
459.038	536.06
459.258	542.06
459.478	472.06
459.698	441.06
459.918	420.06
460.138	410.06
460.358	418.06
460.578	411.06
460.798	405.06
461.018	406.06
461.238	391.06
461.458	415.06
461.678	401.06
461.898	410.06
462.118	428.06
462.338	413.06
462.558	408.06
462.777	422.06
462.997	438.06
463.217	439.06
463.437	435.06
463.657	424.06
463.876	426.06
464.096	409.06
464.316	416.06
464.536	440.06
464.755	435.06
464.975	441.06
465.195	488.06
465.414	581.06
465.634	484.06
465.854	438.06
466.073	435.06
466.293	418.06
466.512	392.06
466.732	406.06
466.951	406.06
467.171	392.06
467.391	396.06
467.61	408.06
467.829	404.06
468.049	411.06
468.268	418.06
468.488	399.06
468.707	396.06
468.927	398.06
469.146	368.06
469.365	386.06
469.585	394.06
469.804	411.06
470.023	422.06
470.243	386.06
470.462	411.06
470.681	427.06
470.901	447.06
471.12	411.06
471.339	404.06
471.558	392.06
471.777	407.06
471.997	392.06
472.216	407.06
472.435	462.06
472.654	445.06
472.873	409.06
473.092	412.06
473.311	397.06
473.53	407.06
473.749	405.06
473.968	428.06
474.187	530.06
474.406	557.06
474.625	457.06
474.844	425.06
475.063	416.06
475.282	396.06
475.501	395.06
475.72	404.06
475.939	398.06
476.158	407.06
476.377	395.06
476.596	411.06
476.814	443.06
477.033	436.06
477.252	425.06
477.471	438.06
477.69	442.06
477.908	442.06
478.127	445.06
478.346	417.06
478.564	434.06
478.783	432.06
479.002	456.06
479.22	450.06
479.439	472.06
479.658	510.06
479.876	481.06
480.095	480.06
480.313	516.06
480.532	482.06
480.751	472.06
480.969	501.06
481.188	576.06
481.406	606.06
481.624	528.06
481.843	497.06
482.061	492.06
482.28	455.06
482.498	466.06
482.717	488.06
482.935	475.06
483.153	457.06
483.372	462.06
483.59	455.06
483.808	476.06
484.027	457.06
484.245	467.06
484.463	476.06
484.681	479.06
484.9	463.06
485.118	472.06
485.336	480.06
485.554	475.06
485.772	495.06
485.99	488.06
486.209	484.06
486.427	473.06
486.645	522.06
486.863	502.06
487.081	527.06
487.299	491.06
487.517	515.06
487.735	512.06
487.953	485.06
488.171	498.06
488.389	494.06
488.607	485.06
488.825	504.06
489.043	502.06
489.261	496.06
489.479	495.06
489.696	519.06
489.914	522.06
490.132	534.06
490.35	529.06
490.568	544.06
490.786	564.06
491.003	531.06
491.221	568.06
491.439	570.06
491.657	555.06
491.874	588.06
492.092	597.06
492.31	562.06
492.527	583.06
492.745	582.06
492.963	587.06
493.18	603.06
493.398	598.06
493.615	583.06
493.833	617.06
494.05	592.06
494.268	611.06
494.485	597.06
494.703	589.06
494.92	607.06
495.138	598.06
495.355	615.06
495.573	619.06
495.79	622.06
496.008	618.06
496.225	599.06
496.442	610.06
496.66	596.06
496.877	616.06
497.094	609.06
497.312	618.06
497.529	592.06
497.746	613.06
497.963	619.06
498.181	632.06
498.398	642.06
498.615	641.06
498.832	639.06
499.049	674.06
499.267	681.06
499.484	728.06
499.701	710.06
499.918	717.06
500.135	743.06
500.352	747.06
500.569	766.06
500.786	762.06
501.003	768.06
501.22	770.06
501.437	729.06
501.654	743.06
501.871	747.06
502.088	703.06
502.305	674.06
502.522	646.06
502.739	666.06
502.956	618.06
503.172	639.06
503.389	605.06
503.606	620.06
503.823	613.06
504.04	612.06
504.256	611.06
504.473	616.06
504.69	592.06
504.907	588.06
505.123	570.06
505.34	575.06
505.557	571.06
505.773	597.06
505.99	573.06
506.207	565.06
506.423	574.06
506.64	557.06
506.856	558.06
507.073	551.06
507.289	547.06
507.506	542.06
507.722	566.06
507.939	586.06
508.155	578.06
508.372	550.06
508.588	555.06
508.805	565.06
509.021	554.06
509.238	558.06
509.454	579.06
509.67	588.06
509.887	548.06
510.103	563.06
510.319	562.06
510.536	648.06
510.752	1213.06
510.968	941.06
511.184	596.06
511.401	554.06
511.617	534.06
511.833	541.06
512.049	520.06
512.265	530.06
512.481	529.06
512.698	506.06
512.914	551.06
513.13	539.06
513.346	526.06
513.562	528.06
513.778	518.06
513.994	520.06
514.21	539.06
514.426	592.06
514.642	644.06
514.858	644.06
515.074	694.06
515.29	863.06
515.506	1338.06
515.721	1069.06
515.937	660.06
516.153	615.06
516.369	602.06
516.585	563.06
516.801	555.06
517.016	531.06
517.232	516.06
517.448	551.06
517.664	534.06
517.879	544.06
518.095	528.06
518.311	547.06
518.527	521.06
518.742	543.06
518.958	537.06
519.173	542.06
519.389	509.06
519.605	521.06
519.82	544.06
520.036	547.06
520.251	570.06
520.467	598.06
520.682	597.06
520.898	611.06
521.113	613.06
521.329	667.06
521.544	808.06
521.76	1039.06
521.975	1843.06
522.19	1821.06
522.406	925.06
522.621	657.06
522.836	565.06
523.052	546.06
523.267	526.06
523.482	495.06
523.698	480.06
523.913	506.06
524.128	491.06
524.343	491.06
524.559	487.06
524.774	473.06
524.989	461.06
525.204	470.06
525.419	479.06
525.634	440.06
525.849	456.06
526.064	444.06
526.28	442.06
526.495	421.06
526.71	436.06
526.925	414.06
527.14	418.06
527.355	432.06
527.57	419.06
527.785	417.06
527.999	413.06
528.214	427.06
528.429	424.06
528.644	414.06
528.859	443.06
529.074	430.06
529.289	453.06
529.503	547.06
529.718	525.06
529.933	454.06
530.148	456.06
530.363	427.06
530.577	415.06
530.792	422.06
531.007	419.06
531.221	392.06
531.436	406.06
531.651	408.06
531.865	406.06
532.08	408.06
532.295	401.06
532.509	396.06
532.724	393.06
532.938	395.06
533.153	405.06
533.367	408.06
533.582	406.06
533.796	412.06
534.011	390.06
534.225	394.06
534.44	380.06
534.654	407.06
534.868	382.06
535.083	396.06
535.297	398.06
535.511	391.06
535.726	402.06
535.94	397.06
536.154	403.06
536.369	405.06
536.583	383.06
536.797	387.06
537.011	370.06
537.225	382.06
537.44	392.06
537.654	376.06
537.868	381.06
538.082	384.06
538.296	374.06
538.51	406.06
538.724	384.06
538.938	395.06
539.153	407.06
539.367	396.06
539.581	404.06
539.795	384.06
540.009	383.06
540.222	382.06
540.436	371.06
540.65	405.06
540.864	388.06
541.078	384.06
541.292	397.06
541.506	372.06
541.72	399.06
541.934	389.06
542.147	391.06
542.361	376.06
542.575	395.06
542.789	394.06
543.002	375.06
543.216	387.06
543.43	376.06
543.644	381.06
543.857	390.06
544.071	374.06
544.285	393.06
544.498	377.06
544.712	364.06
544.925	382.06
545.139	357.06
545.352	360.06
545.566	371.06
545.779	380.06
545.993	370.06
546.206	372.06
546.42	365.06
546.633	370.06
546.847	374.06
547.06	356.06
547.274	363.06
547.487	382.06
547.7	373.06
547.914	358.06
548.127	362.06
548.34	375.06
548.554	364.06
548.767	352.06
548.98	364.06
549.193	354.06
549.407	358.06
549.62	360.06
549.833	382.06
550.046	358.06
550.259	357.06
550.473	358.06
550.686	350.06
550.899	333.06
551.112	349.06
551.325	356.06
551.538	357.06
551.751	364.06
551.964	340.06
552.177	350.06
552.39	365.06
552.603	372.06
552.816	352.06
553.029	373.06
553.242	364.06
553.455	372.06
553.667	388.06
553.88	398.06
554.093	386.06
554.306	378.06
554.519	370.06
554.732	354.06
554.944	356.06
555.157	362.06
555.37	360.06
555.583	346.06
555.795	337.06
556.008	356.06
556.221	336.06
556.433	345.06
556.646	312.06
556.859	329.06
557.071	333.06
557.284	317.06
557.496	312.06
557.709	323.06
557.921	310.06
558.134	323.06
558.346	325.06
558.559	332.06
558.771	319.06
558.984	326.06
559.196	286.06
559.409	318.06
559.621	325.06
559.833	299.06
560.046	326.06
560.258	319.06
560.47	328.06
560.683	323.06
560.895	327.06
561.107	311.06
561.32	304.06
561.532	319.06
561.744	321.06
561.956	320.06
562.168	334.06
562.381	329.06
562.593	328.06
562.805	335.06
563.017	327.06
563.229	312.06
563.441	315.06
563.653	321.06
563.865	329.06
564.077	322.06
564.289	334.06
564.501	330.06
564.713	332.06
564.925	326.06
565.137	341.06
565.349	333.06
565.561	341.06
565.773	318.06
565.985	331.06
566.197	361.06
566.408	355.06
566.62	356.06
566.832	380.06
567.044	355.06
567.255	388.06
567.467	393.06
567.679	375.06
567.891	394.06
568.102	377.06
568.314	368.06
568.526	360.06
568.737	366.06
568.949	359.06
569.161	327.06
569.372	341.06
569.584	322.06
569.795	326.06
570.007	329.06
570.218	381.06
570.43	366.06
570.641	308.06
570.853	307.06
571.064	303.06
571.276	298.06
571.487	295.06
571.698	290.06
571.91	293.06
572.121	298.06
572.333	297.06
572.544	299.06
572.755	288.06
572.966	266.06
573.178	283.06
573.389	280.06
573.6	270.06
573.811	280.06
574.023	276.06
574.234	272.06
574.445	287.06
574.656	285.06
574.867	280.06
575.078	282.06
575.289	274.06
575.501	267.06
575.712	253.06
575.923	286.06
576.134	251.06
576.345	288.06
576.556	263.06
576.767	268.06
576.978	265.06
577.188	270.06
577.399	268.06
577.61	250.06
577.821	271.06
578.032	273.06
578.243	310.06
578.454	570.06
578.665	391.06
578.875	272.06
579.086	255.06
579.297	246.06
579.508	253.06
579.718	268.06
579.929	243.06
580.14	247.06
580.35	268.06
580.561	239.06
580.772	258.06
580.982	247.06
581.193	228.06
581.403	243.06
581.614	262.06
581.825	250.06
582.035	244.06
582.246	249.06
582.456	251.06
582.667	242.06
582.877	239.06
583.087	245.06
583.298	245.06
583.508	233.06
583.719	237.06
583.929	260.06
584.139	231.06
584.35	239.06
584.56	246.06
584.77	255.06
584.981	248.06
585.191	251.06
585.401	247.06
585.611	260.06
585.821	246.06
586.032	252.06
586.242	253.06
586.452	234.06
586.662	230.06
586.872	270.06
587.082	244.06
587.292	231.06
587.502	230.06
587.713	241.06
587.923	225.06
588.133	235.06
588.343	230.06
588.553	243.06
588.762	240.06
588.972	236.06
589.182	263.06
589.392	244.06
589.602	244.06
589.812	246.06
590.022	244.06
590.232	245.06
590.441	239.06
590.651	229.06
590.861	219.06
591.071	222.06
591.281	233.06
591.49	237.06
591.7	235.06
591.91	234.06
592.119	223.06
592.329	233.06
592.539	232.06
592.748	246.06
592.958	253.06
593.167	244.06
593.377	234.06
593.587	248.06
593.796	264.06
594.006	242.06
594.215	249.06
594.424	239.06
594.634	249.06
594.843	249.06
595.053	237.06
595.262	226.06
595.472	232.06
595.681	240.06
595.89	218.06
596.1	217.06
596.309	202.06
596.518	230.06
596.727	223.06
596.937	224.06
597.146	235.06
597.355	220.06
597.564	219.06
597.774	214.06
597.983	202.06
598.192	224.06
598.401	221.06
598.61	217.06
598.819	224.06
599.028	199.06
599.237	219.06
599.446	199.06
599.655	235.06
599.864	243.06
600.073	228.06
600.282	219.06
600.491	228.06
600.7	218.06
600.909	199.06
601.118	208.06
601.327	196.06
601.536	212.06
601.745	218.06
601.953	210.06
602.162	214.06
602.371	204.06
602.58	203.06
602.789	214.06
602.997	199.06
603.206	223.06
603.415	217.06
603.623	205.06
603.832	220.06
604.041	208.06
604.249	205.06
604.458	211.06
604.666	214.06
604.875	207.06
605.084	213.06
605.292	193.06
605.501	205.06
605.709	197.06
605.918	198.06
606.126	189.06
606.334	198.06
606.543	198.06
606.751	213.06
606.96	210.06
607.168	216.06
607.376	206.06
607.585	201.06
607.793	207.06
608.001	199.06
608.21	198.06
608.418	202.06
608.626	188.06
608.834	183.06
609.043	211.06
609.251	192.06
609.459	194.06
609.667	201.06
609.875	196.06
610.083	195.06
610.291	199.06
610.499	194.06
610.707	214.06
610.916	201.06
611.124	199.06
611.332	213.06
611.54	208.06
611.748	206.06
611.955	208.06
612.163	204.06
612.371	199.06
612.579	188.06
612.787	221.06
612.995	200.06
613.203	214.06
613.411	170.06
613.618	190.06
613.826	197.06
614.034	201.06
614.242	192.06
614.449	216.06
614.657	191.06
614.865	187.06
615.072	200.06
615.28	182.06
615.488	197.06
615.695	199.06
615.903	208.06
616.111	184.06
616.318	210.06
616.526	205.06
616.733	210.06
616.941	187.06
617.148	186.06
617.356	180.06
617.563	194.06
617.771	199.06
617.978	197.06
618.185	201.06
618.393	184.06
618.6	193.06
618.807	196.06
619.015	201.06
619.222	168.06
619.429	174.06
619.637	191.06
619.844	185.06
620.051	207.06
620.258	180.06
620.466	206.06
620.673	186.06
620.88	197.06
621.087	198.06
621.294	187.06
621.501	182.06
621.708	200.06
621.915	173.06
622.122	200.06
622.329	191.06
622.536	196.06
622.743	187.06
622.95	191.06
623.157	174.06
623.364	186.06
623.571	182.06
623.778	190.06
623.985	174.06
624.192	188.06
624.399	164.06
624.606	170.06
624.812	172.06
625.019	185.06
625.226	184.06
625.433	165.06
625.639	180.06
625.846	173.06
626.053	184.06
626.259	182.06
626.466	168.06
626.673	173.06
626.879	152.06
627.086	170.06
627.293	184.06
627.499	158.06
627.706	158.06
627.912	167.06
628.119	176.06
628.325	178.06
628.532	174.06
628.738	169.06
628.945	176.06
629.151	172.06
629.357	162.06
629.564	178.06
629.77	189.06
629.976	178.06
630.183	158.06
630.389	166.06
630.595	180.06
630.802	170.06
631.008	166.06
631.214	163.06
631.42	189.06
631.627	162.06
631.833	177.06
632.039	170.06
632.245	156.06
632.451	164.06
632.657	167.06
632.863	165.06
633.069	165.06
633.275	171.06
633.481	169.06
633.688	161.06
633.893	151.06
634.099	145.06
634.305	144.06
634.511	148.06
634.717	167.06
634.923	152.06
635.129	166.06
635.335	168.06
635.541	171.06
635.747	162.06
635.952	153.06
636.158	166.06
636.364	142.06
636.57	165.06
636.775	164.06
636.981	165.06
637.187	156.06
637.392	160.06
637.598	155.06
637.804	154.06
638.009	160.06
638.215	131.06
638.421	136.06
638.626	150.06
638.832	150.06
639.037	148.06
639.243	155.06
639.448	149.06
639.654	145.06
639.859	154.06
640.065	152.06
640.27	151.06
640.475	154.06
640.681	150.06
640.886	156.06
641.091	150.06
641.297	153.06
641.502	135.06
641.707	156.06
641.913	153.06
642.118	147.06
642.323	136.06
642.528	160.06
642.733	164.06
642.939	160.06
643.144	151.06
643.349	150.06
643.554	133.06
643.759	137.06
643.964	150.06
644.169	144.06
644.374	138.06
644.579	151.06
644.784	161.06
644.989	142.06
645.194	136.06
645.399	155.06
645.604	132.06
645.809	142.06
646.014	154.06
646.219	137.06
646.423	154.06
646.628	133.06
646.833	151.06
647.038	140.06
647.243	144.06
647.447	149.06
647.652	148.06
647.857	143.06
648.062	149.06
648.266	166.06
648.471	158.06
648.676	153.06
648.88	146.06
649.085	140.06
649.289	150.06
649.494	140.06
649.698	173.06
649.903	160.06
650.107	138.06
650.312	134.06
650.516	137.06
650.721	146.06
650.925	141.06
651.13	130.06
651.334	162.06
651.539	131.06
651.743	126.06
651.947	125.06
652.152	133.06
652.356	131.06
652.56	117.06
652.764	140.06
652.969	130.06
653.173	136.06
653.377	136.06
653.581	120.06
653.785	122.06
653.99	124.06
654.194	127.06
654.398	136.06
654.602	131.06
654.806	123.06
655.01	136.06
655.214	138.06
655.418	126.06
655.622	130.06
655.826	116.06
656.03	124.06
656.234	119.06
656.438	120.06
656.642	115.06
656.846	126.06
657.049	125.06
657.253	111.06
657.457	123.06
657.661	116.06
657.865	119.06
658.068	98.06
658.272	107.06
658.476	103.06
658.68	101.06
658.883	107.06
659.087	101.06
659.291	109.06
659.494	111.06
659.698	96.06
659.901	105.06
660.105	101.06
660.309	92.06
660.512	95.06
660.716	90.06
660.919	99.06
661.123	101.06
661.326	83.06
661.53	101.06
661.733	100.06
661.936	94.06
662.14	103.06
662.343	93.06
662.546	106.06
662.75	89.06
662.953	94.06
663.156	91.06
663.36	84.06
663.563	89.06
663.766	89.06
663.969	90.06
664.173	86.06
664.376	92.06
664.579	84.06
664.782	81.06
664.985	92.06
665.188	79.06
665.391	80.06
665.594	92.06
665.797	90.06
666	102.06
666.203	92.06
666.406	73.06
666.609	80.06
666.812	86.06
667.015	90.06
667.218	97.06
667.421	93.06
667.624	91.06
667.827	81.06
668.03	89.06
668.232	78.06
668.435	94.06
668.638	78.06
668.841	91.06
669.043	80.06
669.246	96.06
669.449	85.06
669.651	80.06
669.854	70.06
670.057	72.06
670.259	87.06
670.462	74.06
670.665	90.06
670.867	92.06
671.07	86.06
671.272	83.06
671.475	88.06
671.677	90.06
671.88	81.06
672.082	75.06
672.284	86.06
672.487	76.06
672.689	79.06
672.892	84.06
