Data from 1983.PennyLincolnUp.Lamp.En5.5.200Scan.071819.P1_HRD10591_16-54-29-966.txt Node
Date: Thu Jul 18 16:54:29 EDT 2019
User: cochatt
Spectrometer: HR+D1059
Trigger mode: 1
Integration Time (sec): 1.000000E-1
Scans to average: 1
Electric dark correction enabled: true
Nonlinearity correction enabled: false
Boxcar width: 0
XAxis mode: Wavelengths
Number of Pixels in Spectrum: 2048
>>>>>Begin Spectral Data<<<<<
223.165	-31.62
223.4	-31.62
223.635	-31.62
223.869	-19.62
224.104	-13.62
224.338	-9.62
224.573	-14.62
224.808	-11.62
225.042	-16.62
225.277	-5.62
225.511	-3.62
225.746	0.38
225.98	11.38
226.215	18.38
226.449	12.38
226.683	27.38
226.918	18.38
227.152	38.38
227.387	40.38
227.621	36.38
227.856	37.38
228.09	32.38
228.324	44.38
228.559	45.38
228.793	66.38
229.027	91.38
229.262	95.38
229.496	114.38
229.73	116.38
229.964	145.38
230.199	125.38
230.433	106.38
230.667	106.38
230.901	100.38
231.136	112.38
231.37	100.38
231.604	102.38
231.838	110.38
232.072	114.38
232.306	118.38
232.541	106.38
232.775	100.38
233.009	115.38
233.243	112.38
233.477	114.38
233.711	110.38
233.945	103.38
234.179	102.38
234.413	113.38
234.647	126.38
234.881	114.38
235.115	100.38
235.349	117.38
235.583	107.38
235.817	111.38
236.051	122.38
236.285	128.38
236.519	108.38
236.753	118.38
236.987	139.38
237.221	166.38
237.455	213.38
237.689	168.38
237.922	145.38
238.156	112.38
238.39	132.38
238.624	125.38
238.858	125.38
239.091	111.38
239.325	122.38
239.559	111.38
239.793	129.38
240.027	134.38
240.26	128.38
240.494	154.38
240.728	132.38
240.961	146.38
241.195	129.38
241.429	135.38
241.662	132.38
241.896	119.38
242.13	128.38
242.363	125.38
242.597	114.38
242.83	127.38
243.064	126.38
243.298	133.38
243.531	134.38
243.765	145.38
243.998	148.38
244.232	130.38
244.465	136.38
244.699	154.38
244.932	131.38
245.166	119.38
245.399	138.38
245.633	129.38
245.866	131.38
246.099	120.38
246.333	142.38
246.566	154.38
246.8	158.38
247.033	152.38
247.266	153.38
247.5	144.38
247.733	156.38
247.966	170.38
248.2	156.38
248.433	168.38
248.666	174.38
248.899	182.38
249.133	190.38
249.366	204.38
249.599	190.38
249.832	170.38
250.066	169.38
250.299	185.38
250.532	171.38
250.765	208.38
250.998	211.38
251.231	193.38
251.465	204.38
251.698	182.38
251.931	184.38
252.164	178.38
252.397	178.38
252.63	192.38
252.863	192.38
253.096	194.38
253.329	211.38
253.562	203.38
253.795	190.38
254.028	190.38
254.261	207.38
254.494	215.38
254.727	231.38
254.96	259.38
255.193	240.38
255.426	240.38
255.659	205.38
255.892	211.38
256.124	210.38
256.357	229.38
256.59	207.38
256.823	200.38
257.056	208.38
257.289	190.38
257.521	198.38
257.754	190.38
257.987	188.38
258.22	197.38
258.452	205.38
258.685	204.38
258.918	194.38
259.151	211.38
259.383	214.38
259.616	204.38
259.849	215.38
260.081	221.38
260.314	228.38
260.547	234.38
260.779	218.38
261.012	221.38
261.244	220.38
261.477	207.38
261.71	212.38
261.942	214.38
262.175	215.38
262.407	230.38
262.64	194.38
262.872	210.38
263.105	189.38
263.337	210.38
263.57	191.38
263.802	200.38
264.035	182.38
264.267	199.38
264.499	207.38
264.732	207.38
264.964	203.38
265.197	199.38
265.429	186.38
265.661	201.38
265.894	203.38
266.126	207.38
266.358	190.38
266.591	207.38
266.823	203.38
267.055	201.38
267.287	207.38
267.52	217.38
267.752	211.38
267.984	202.38
268.216	219.38
268.448	223.38
268.681	225.38
268.913	216.38
269.145	245.38
269.377	242.38
269.609	243.38
269.841	247.38
270.073	276.38
270.306	269.38
270.538	285.38
270.77	291.38
271.002	292.38
271.234	263.38
271.466	276.38
271.698	275.38
271.93	300.38
272.162	290.38
272.394	288.38
272.626	273.38
272.858	266.38
273.09	261.38
273.322	266.38
273.553	246.38
273.785	232.38
274.017	266.38
274.249	264.38
274.481	261.38
274.713	248.38
274.945	237.38
275.176	245.38
275.408	246.38
275.64	250.38
275.872	247.38
276.104	239.38
276.335	244.38
276.567	260.38
276.799	268.38
277.031	310.38
277.262	298.38
277.494	288.38
277.726	294.38
277.957	271.38
278.189	264.38
278.421	251.38
278.652	248.38
278.884	258.38
279.115	235.38
279.347	244.38
279.579	250.38
279.81	247.38
280.042	264.38
280.273	256.38
280.505	254.38
280.736	250.38
280.968	246.38
281.199	241.38
281.431	247.38
281.662	231.38
281.894	245.38
282.125	260.38
282.356	258.38
282.588	307.38
282.819	290.38
283.051	246.38
283.282	242.38
283.513	259.38
283.745	267.38
283.976	259.38
284.207	276.38
284.439	242.38
284.67	257.38
284.901	228.38
285.132	258.38
285.364	266.38
285.595	247.38
285.826	252.38
286.057	262.38
286.288	240.38
286.52	260.38
286.751	249.38
286.982	262.38
287.213	251.38
287.444	283.38
287.675	267.38
287.906	251.38
288.138	277.38
288.369	278.38
288.6	275.38
288.831	267.38
289.062	273.38
289.293	277.38
289.524	267.38
289.755	267.38
289.986	255.38
290.217	256.38
290.448	256.38
290.679	263.38
290.91	262.38
291.141	247.38
291.371	264.38
291.602	271.38
291.833	252.38
292.064	243.38
292.295	260.38
292.526	261.38
292.757	266.38
292.987	267.38
293.218	271.38
293.449	261.38
293.68	270.38
293.91	261.38
294.141	245.38
294.372	286.38
294.603	271.38
294.833	273.38
295.064	269.38
295.295	272.38
295.525	271.38
295.756	280.38
295.987	273.38
296.217	306.38
296.448	320.38
296.679	284.38
296.909	266.38
297.14	268.38
297.37	281.38
297.601	279.38
297.831	266.38
298.062	272.38
298.292	269.38
298.523	261.38
298.753	292.38
298.984	292.38
299.214	277.38
299.445	270.38
299.675	270.38
299.905	266.38
300.136	281.38
300.366	280.38
300.597	301.38
300.827	294.38
301.057	284.38
301.288	301.38
301.518	306.38
301.748	290.38
301.979	308.38
302.209	310.38
302.439	327.38
302.669	291.38
302.9	279.38
303.13	298.38
303.36	309.38
303.59	310.38
303.82	306.38
304.051	326.38
304.281	276.38
304.511	289.38
304.741	290.38
304.971	284.38
305.201	301.38
305.431	297.38
305.661	291.38
305.891	297.38
306.121	301.38
306.352	313.38
306.582	317.38
306.812	316.38
307.042	303.38
307.272	299.38
307.502	276.38
307.731	318.38
307.961	307.38
308.191	300.38
308.421	307.38
308.651	294.38
308.881	312.38
309.111	314.38
309.341	330.38
309.571	309.38
309.8	325.38
310.03	358.38
310.26	363.38
310.49	360.38
310.72	380.38
310.949	372.38
311.179	375.38
311.409	361.38
311.639	349.38
311.868	340.38
312.098	355.38
312.328	347.38
312.557	374.38
312.787	395.38
313.017	356.38
313.246	375.38
313.476	357.38
313.706	347.38
313.935	356.38
314.165	365.38
314.394	372.38
314.624	358.38
314.853	362.38
315.083	341.38
315.312	350.38
315.542	352.38
315.771	342.38
316.001	358.38
316.23	355.38
316.46	332.38
316.689	335.38
316.919	349.38
317.148	345.38
317.377	353.38
317.607	348.38
317.836	358.38
318.065	344.38
318.295	323.38
318.524	352.38
318.753	345.38
318.983	352.38
319.212	350.38
319.441	362.38
319.67	360.38
319.9	358.38
320.129	348.38
320.358	342.38
320.587	363.38
320.816	367.38
321.046	379.38
321.275	380.38
321.504	392.38
321.733	363.38
321.962	386.38
322.191	376.38
322.42	407.38
322.649	423.38
322.878	442.38
323.108	459.38
323.337	465.38
323.566	470.38
323.795	523.38
324.024	554.38
324.253	713.38
324.482	1004.38
324.71	1552.38
324.939	2121.38
325.168	1755.38
325.397	914.38
325.626	636.38
325.855	539.38
326.084	489.38
326.313	481.38
326.542	490.38
326.77	507.38
326.999	651.38
327.228	915.38
327.457	1322.38
327.686	1518.38
327.914	1039.38
328.143	689.38
328.372	640.38
328.6	588.38
328.829	550.38
329.058	582.38
329.287	585.38
329.515	552.38
329.744	496.38
329.972	480.38
330.201	491.38
330.43	536.38
330.658	564.38
330.887	606.38
331.115	579.38
331.344	490.38
331.572	454.38
331.801	468.38
332.03	460.38
332.258	444.38
332.486	419.38
332.715	410.38
332.943	422.38
333.172	420.38
333.4	432.38
333.629	430.38
333.857	440.38
334.085	459.38
334.314	475.38
334.542	497.38
334.771	518.38
334.999	465.38
335.227	436.38
335.455	422.38
335.684	422.38
335.912	401.38
336.14	406.38
336.369	404.38
336.597	399.38
336.825	406.38
337.053	401.38
337.281	377.38
337.51	388.38
337.738	402.38
337.966	398.38
338.194	422.38
338.422	411.38
338.65	401.38
338.878	388.38
339.106	384.38
339.334	397.38
339.562	409.38
339.79	386.38
340.018	413.38
340.246	392.38
340.474	380.38
340.702	391.38
340.93	366.38
341.158	378.38
341.386	372.38
341.614	388.38
341.842	409.38
342.07	394.38
342.298	392.38
342.526	374.38
342.754	378.38
342.981	380.38
343.209	361.38
343.437	384.38
343.665	376.38
343.893	400.38
344.12	400.38
344.348	404.38
344.576	382.38
344.804	393.38
345.031	391.38
345.259	408.38
345.487	418.38
345.714	382.38
345.942	394.38
346.17	379.38
346.397	376.38
346.625	375.38
346.853	369.38
347.08	372.38
347.308	404.38
347.535	377.38
347.763	391.38
347.99	390.38
348.218	382.38
348.445	395.38
348.673	358.38
348.9	375.38
349.128	374.38
349.355	371.38
349.583	374.38
349.81	365.38
350.037	377.38
350.265	345.38
350.492	344.38
350.72	365.38
350.947	396.38
351.174	373.38
351.402	358.38
351.629	380.38
351.856	392.38
352.083	378.38
352.311	396.38
352.538	413.38
352.765	400.38
352.992	392.38
353.22	386.38
353.447	374.38
353.674	364.38
353.901	355.38
354.128	350.38
354.355	364.38
354.583	360.38
354.81	348.38
355.037	348.38
355.264	352.38
355.491	340.38
355.718	333.38
355.945	338.38
356.172	356.38
356.399	335.38
356.626	341.38
356.853	330.38
357.08	333.38
357.307	340.38
357.534	327.38
357.761	332.38
357.988	357.38
358.215	344.38
358.441	354.38
358.668	354.38
358.895	360.38
359.122	356.38
359.349	350.38
359.576	382.38
359.802	399.38
360.029	432.38
360.256	460.38
360.483	416.38
360.709	402.38
360.936	378.38
361.163	373.38
361.39	378.38
361.616	379.38
361.843	376.38
362.07	376.38
362.296	387.38
362.523	404.38
362.749	384.38
362.976	387.38
363.203	375.38
363.429	367.38
363.656	364.38
363.882	373.38
364.109	372.38
364.335	361.38
364.562	364.38
364.788	373.38
365.015	360.38
365.241	359.38
365.468	380.38
365.694	364.38
365.92	362.38
366.147	351.38
366.373	363.38
366.599	328.38
366.826	346.38
367.052	346.38
367.278	337.38
367.505	369.38
367.731	372.38
367.957	343.38
368.184	358.38
368.41	357.38
368.636	371.38
368.862	365.38
369.089	382.38
369.315	360.38
369.541	350.38
369.767	346.38
369.993	328.38
370.219	347.38
370.445	362.38
370.672	361.38
370.898	348.38
371.124	358.38
371.35	342.38
371.576	349.38
371.802	353.38
372.028	330.38
372.254	351.38
372.48	352.38
372.706	353.38
372.932	342.38
373.158	353.38
373.384	352.38
373.61	340.38
373.835	353.38
374.061	334.38
374.287	357.38
374.513	354.38
374.739	358.38
374.965	345.38
375.191	352.38
375.416	364.38
375.642	339.38
375.868	365.38
376.094	360.38
376.319	340.38
376.545	354.38
376.771	356.38
376.997	346.38
377.222	359.38
377.448	371.38
377.674	351.38
377.899	333.38
378.125	330.38
378.35	335.38
378.576	344.38
378.802	335.38
379.027	326.38
379.253	344.38
379.478	360.38
379.704	352.38
379.929	356.38
380.155	340.38
380.38	335.38
380.606	342.38
380.831	358.38
381.057	372.38
381.282	363.38
381.507	336.38
381.733	353.38
381.958	368.38
382.184	343.38
382.409	372.38
382.634	344.38
382.86	363.38
383.085	348.38
383.31	364.38
383.535	362.38
383.761	354.38
383.986	364.38
384.211	354.38
384.436	365.38
384.662	374.38
384.887	374.38
385.112	371.38
385.337	364.38
385.562	369.38
385.787	374.38
386.013	381.38
386.238	371.38
386.463	374.38
386.688	367.38
386.913	379.38
387.138	378.38
387.363	370.38
387.588	375.38
387.813	360.38
388.038	362.38
388.263	386.38
388.488	375.38
388.713	375.38
388.938	400.38
389.163	377.38
389.387	356.38
389.612	364.38
389.837	360.38
390.062	357.38
390.287	339.38
390.512	372.38
390.736	366.38
390.961	377.38
391.186	375.38
391.411	372.38
391.636	381.38
391.86	373.38
392.085	384.38
392.31	374.38
392.534	397.38
392.759	377.38
392.984	367.38
393.208	374.38
393.433	363.38
393.658	373.38
393.882	366.38
394.107	380.38
394.331	368.38
394.556	368.38
394.78	370.38
395.005	390.38
395.229	385.38
395.454	380.38
395.678	382.38
395.903	387.38
396.127	406.38
396.352	415.38
396.576	386.38
396.801	381.38
397.025	386.38
397.249	386.38
397.474	397.38
397.698	404.38
397.922	388.38
398.147	401.38
398.371	427.38
398.595	416.38
398.82	380.38
399.044	435.38
399.268	423.38
399.492	439.38
399.717	475.38
399.941	483.38
400.165	506.38
400.389	521.38
400.613	469.38
400.837	421.38
401.062	430.38
401.286	437.38
401.51	419.38
401.734	423.38
401.958	421.38
402.182	416.38
402.406	461.38
402.63	458.38
402.854	426.38
403.078	436.38
403.302	417.38
403.526	442.38
403.75	441.38
403.974	428.38
404.198	397.38
404.422	451.38
404.645	447.38
404.869	441.38
405.093	447.38
405.317	491.38
405.541	511.38
405.765	470.38
405.988	458.38
406.212	488.38
406.436	491.38
406.66	486.38
406.883	490.38
407.107	484.38
407.331	515.38
407.555	575.38
407.778	572.38
408.002	520.38
408.226	479.38
408.449	471.38
408.673	496.38
408.896	495.38
409.12	522.38
409.344	504.38
409.567	454.38
409.791	444.38
410.014	438.38
410.238	444.38
410.461	434.38
410.685	439.38
410.908	445.38
411.132	482.38
411.355	479.38
411.578	482.38
411.802	447.38
412.025	456.38
412.249	452.38
412.472	459.38
412.695	477.38
412.919	474.38
413.142	446.38
413.365	414.38
413.589	413.38
413.812	424.38
414.035	443.38
414.258	430.38
414.482	398.38
414.705	408.38
414.928	398.38
415.151	400.38
415.374	413.38
415.597	410.38
415.821	396.38
416.044	417.38
416.267	413.38
416.49	403.38
416.713	411.38
416.936	399.38
417.159	415.38
417.382	396.38
417.605	428.38
417.828	431.38
418.051	427.38
418.274	421.38
418.497	416.38
418.72	413.38
418.943	411.38
419.166	431.38
419.389	445.38
419.611	434.38
419.834	443.38
420.057	437.38
420.28	427.38
420.503	435.38
420.726	442.38
420.948	450.38
421.171	485.38
421.394	476.38
421.617	439.38
421.839	440.38
422.062	443.38
422.285	441.38
422.507	500.38
422.73	550.38
422.953	523.38
423.175	456.38
423.398	455.38
423.621	462.38
423.843	491.38
424.066	457.38
424.288	458.38
424.511	486.38
424.733	508.38
424.956	589.38
425.178	542.38
425.401	552.38
425.623	583.38
425.846	506.38
426.068	470.38
426.291	480.38
426.513	455.38
426.735	458.38
426.958	496.38
427.18	577.38
427.402	688.38
427.625	740.38
427.847	664.38
428.069	583.38
428.292	528.38
428.514	484.38
428.736	463.38
428.958	432.38
429.181	418.38
429.403	419.38
429.625	458.38
429.847	448.38
430.069	512.38
430.292	506.38
430.514	450.38
430.736	440.38
430.958	420.38
431.18	434.38
431.402	422.38
431.624	387.38
431.846	408.38
432.068	404.38
432.29	399.38
432.512	406.38
432.734	430.38
432.956	401.38
433.178	441.38
433.4	429.38
433.622	417.38
433.844	412.38
434.066	410.38
434.287	416.38
434.509	396.38
434.731	417.38
434.953	423.38
435.175	428.38
435.397	463.38
435.618	470.38
435.84	508.38
436.062	585.38
436.284	602.38
436.505	501.38
436.727	477.38
436.949	450.38
437.17	444.38
437.392	432.38
437.614	446.38
437.835	495.38
438.057	553.38
438.278	635.38
438.5	612.38
438.721	692.38
438.943	662.38
439.165	522.38
439.386	488.38
439.608	475.38
439.829	510.38
440.05	497.38
440.272	531.38
440.493	505.38
440.715	465.38
440.936	441.38
441.158	434.38
441.379	412.38
441.6	447.38
441.822	488.38
442.043	515.38
442.264	586.38
442.486	626.38
442.707	535.38
442.928	476.38
443.149	479.38
443.371	529.38
443.592	544.38
443.813	619.38
444.034	636.38
444.255	542.38
444.476	482.38
444.698	455.38
444.919	446.38
445.14	593.38
445.361	548.38
445.582	525.38
445.803	545.38
446.024	632.38
446.245	673.38
446.466	585.38
446.687	511.38
446.908	450.38
447.129	444.38
447.35	457.38
447.571	446.38
447.792	429.38
448.013	434.38
448.234	471.38
448.455	524.38
448.675	586.38
448.896	640.38
449.117	575.38
449.338	548.38
449.559	611.38
449.779	685.38
450	574.38
450.221	482.38
450.442	468.38
450.662	435.38
450.883	445.38
451.104	459.38
451.324	461.38
451.545	413.38
451.766	409.38
451.986	380.38
452.207	407.38
452.428	395.38
452.648	382.38
452.869	398.38
453.089	405.38
453.31	414.38
453.53	417.38
453.751	384.38
453.971	396.38
454.192	418.38
454.412	386.38
454.633	400.38
454.853	400.38
455.073	399.38
455.294	435.38
455.514	477.38
455.734	452.38
455.955	415.38
456.175	375.38
456.395	354.38
456.616	392.38
456.836	390.38
457.056	391.38
457.276	365.38
457.497	354.38
457.717	372.38
457.937	386.38
458.157	378.38
458.377	391.38
458.598	402.38
458.818	474.38
459.038	543.38
459.258	514.38
459.478	454.38
459.698	411.38
459.918	404.38
460.138	414.38
460.358	411.38
460.578	410.38
460.798	408.38
461.018	404.38
461.238	406.38
461.458	409.38
461.678	393.38
461.898	404.38
462.118	412.38
462.338	421.38
462.558	411.38
462.777	413.38
462.997	412.38
463.217	424.38
463.437	430.38
463.657	435.38
463.876	442.38
464.096	432.38
464.316	448.38
464.536	420.38
464.755	440.38
464.975	456.38
465.195	494.38
465.414	584.38
465.634	518.38
465.854	464.38
466.073	432.38
466.293	414.38
466.512	412.38
466.732	388.38
466.951	399.38
467.171	395.38
467.391	386.38
467.61	402.38
467.829	419.38
468.049	412.38
468.268	418.38
468.488	421.38
468.707	408.38
468.927	397.38
469.146	385.38
469.365	389.38
469.585	394.38
469.804	392.38
470.023	414.38
470.243	416.38
470.462	418.38
470.681	440.38
470.901	426.38
471.12	401.38
471.339	399.38
471.558	421.38
471.777	413.38
471.997	405.38
472.216	384.38
472.435	466.38
472.654	440.38
472.873	397.38
473.092	400.38
473.311	397.38
473.53	386.38
473.749	409.38
473.968	461.38
474.187	526.38
474.406	540.38
474.625	454.38
474.844	422.38
475.063	422.38
475.282	410.38
475.501	392.38
475.72	421.38
475.939	412.38
476.158	422.38
476.377	410.38
476.596	388.38
476.814	414.38
477.033	429.38
477.252	425.38
477.471	427.38
477.69	420.38
477.908	412.38
478.127	414.38
478.346	437.38
478.564	435.38
478.783	454.38
479.002	458.38
479.22	470.38
479.439	470.38
479.658	472.38
479.876	485.38
480.095	514.38
480.313	507.38
480.532	503.38
480.751	486.38
480.969	491.38
481.188	564.38
481.406	585.38
481.624	514.38
481.843	491.38
482.061	473.38
482.28	495.38
482.498	479.38
482.717	472.38
482.935	480.38
483.153	466.38
483.372	484.38
483.59	471.38
483.808	462.38
484.027	463.38
484.245	466.38
484.463	487.38
484.681	481.38
484.9	463.38
485.118	486.38
485.336	456.38
485.554	486.38
485.772	483.38
485.99	472.38
486.209	484.38
486.427	493.38
486.645	512.38
486.863	545.38
487.081	535.38
487.299	509.38
487.517	516.38
487.735	487.38
487.953	503.38
488.171	522.38
488.389	496.38
488.607	519.38
488.825	522.38
489.043	534.38
489.261	520.38
489.479	519.38
489.696	502.38
489.914	518.38
490.132	525.38
490.35	541.38
490.568	545.38
490.786	558.38
491.003	546.38
491.221	575.38
491.439	573.38
491.657	577.38
491.874	601.38
492.092	609.38
492.31	612.38
492.527	611.38
492.745	580.38
492.963	582.38
493.18	599.38
493.398	599.38
493.615	605.38
493.833	611.38
494.05	631.38
494.268	593.38
494.485	599.38
494.703	606.38
494.92	599.38
495.138	616.38
495.355	583.38
495.573	610.38
495.79	611.38
496.008	606.38
496.225	611.38
496.442	625.38
496.66	596.38
496.877	570.38
497.094	599.38
497.312	621.38
497.529	620.38
497.746	635.38
497.963	632.38
498.181	659.38
498.398	632.38
498.615	647.38
498.832	664.38
499.049	660.38
499.267	685.38
499.484	710.38
499.701	717.38
499.918	713.38
500.135	773.38
500.352	783.38
500.569	789.38
500.786	790.38
501.003	806.38
501.22	756.38
501.437	724.38
501.654	765.38
501.871	732.38
502.088	715.38
502.305	693.38
502.522	690.38
502.739	655.38
502.956	639.38
503.172	645.38
503.389	626.38
503.606	614.38
503.823	629.38
504.04	643.38
504.256	599.38
504.473	596.38
504.69	596.38
504.907	588.38
505.123	581.38
505.34	601.38
505.557	571.38
505.773	593.38
505.99	576.38
506.207	580.38
506.423	562.38
506.64	571.38
506.856	572.38
507.073	537.38
507.289	562.38
507.506	566.38
507.722	580.38
507.939	589.38
508.155	591.38
508.372	557.38
508.588	542.38
508.805	548.38
509.021	575.38
509.238	559.38
509.454	571.38
509.67	572.38
509.887	563.38
510.103	570.38
510.319	565.38
510.536	670.38
510.752	1219.38
510.968	930.38
511.184	591.38
511.401	545.38
511.617	539.38
511.833	535.38
512.049	515.38
512.265	524.38
512.481	535.38
512.698	540.38
512.914	528.38
513.13	519.38
513.346	526.38
513.562	532.38
513.778	534.38
513.994	530.38
514.21	558.38
514.426	581.38
514.642	608.38
514.858	670.38
515.074	692.38
515.29	898.38
515.506	1387.38
515.721	1046.38
515.937	680.38
516.153	603.38
516.369	587.38
516.585	573.38
516.801	567.38
517.016	532.38
517.232	524.38
517.448	555.38
517.664	554.38
517.879	524.38
518.095	537.38
518.311	537.38
518.527	527.38
518.742	537.38
518.958	537.38
519.173	544.38
519.389	528.38
519.605	526.38
519.82	538.38
520.036	550.38
520.251	564.38
520.467	615.38
520.682	590.38
520.898	597.38
521.113	627.38
521.329	690.38
521.544	798.38
521.76	1058.38
521.975	1862.38
522.19	1800.38
522.406	908.38
522.621	659.38
522.836	546.38
523.052	524.38
523.267	505.38
523.482	493.38
523.698	491.38
523.913	483.38
524.128	490.38
524.343	489.38
524.559	471.38
524.774	474.38
524.989	469.38
525.204	466.38
525.419	458.38
525.634	460.38
525.849	458.38
526.064	439.38
526.28	429.38
526.495	434.38
526.71	416.38
526.925	430.38
527.14	427.38
527.355	427.38
527.57	407.38
527.785	421.38
527.999	437.38
528.214	409.38
528.429	428.38
528.644	432.38
528.859	428.38
529.074	440.38
529.289	463.38
529.503	554.38
529.718	506.38
529.933	461.38
530.148	432.38
530.363	417.38
530.577	420.38
530.792	427.38
531.007	406.38
531.221	407.38
531.436	416.38
531.651	405.38
531.865	408.38
532.08	398.38
532.295	422.38
532.509	383.38
532.724	393.38
532.938	410.38
533.153	396.38
533.367	418.38
533.582	404.38
533.796	392.38
534.011	381.38
534.225	400.38
534.44	408.38
534.654	411.38
534.868	412.38
535.083	398.38
535.297	376.38
535.511	393.38
535.726	427.38
535.94	392.38
536.154	398.38
536.369	391.38
536.583	394.38
536.797	382.38
537.011	392.38
537.225	396.38
537.44	394.38
537.654	392.38
537.868	382.38
538.082	375.38
538.296	374.38
538.51	396.38
538.724	379.38
538.938	391.38
539.153	373.38
539.367	409.38
539.581	381.38
539.795	389.38
540.009	382.38
540.222	391.38
540.436	387.38
540.65	389.38
540.864	396.38
541.078	390.38
541.292	387.38
541.506	388.38
541.72	399.38
541.934	379.38
542.147	387.38
542.361	387.38
542.575	382.38
542.789	379.38
543.002	371.38
543.216	382.38
543.43	394.38
543.644	382.38
543.857	392.38
544.071	380.38
544.285	392.38
544.498	384.38
544.712	394.38
544.925	387.38
545.139	371.38
545.352	367.38
545.566	366.38
545.779	363.38
545.993	374.38
546.206	384.38
546.42	379.38
546.633	379.38
546.847	352.38
547.06	362.38
547.274	376.38
547.487	382.38
547.7	355.38
547.914	356.38
548.127	377.38
548.34	362.38
548.554	349.38
548.767	358.38
548.98	352.38
549.193	363.38
549.407	356.38
549.62	374.38
549.833	351.38
550.046	366.38
550.259	361.38
550.473	342.38
550.686	346.38
550.899	356.38
551.112	359.38
551.325	359.38
551.538	350.38
551.751	337.38
551.964	347.38
552.177	343.38
552.39	356.38
552.603	354.38
552.816	360.38
553.029	360.38
553.242	364.38
553.455	358.38
553.667	378.38
553.88	371.38
554.093	391.38
554.306	391.38
554.519	356.38
554.732	347.38
554.944	355.38
555.157	367.38
555.37	346.38
555.583	337.38
555.795	333.38
556.008	344.38
556.221	341.38
556.433	329.38
556.646	341.38
556.859	326.38
557.071	317.38
557.284	331.38
557.496	314.38
557.709	314.38
557.921	325.38
558.134	340.38
558.346	330.38
558.559	322.38
558.771	310.38
558.984	318.38
559.196	317.38
559.409	329.38
559.621	316.38
559.833	335.38
560.046	318.38
560.258	309.38
560.47	301.38
560.683	318.38
560.895	315.38
561.107	320.38
561.32	333.38
561.532	317.38
561.744	334.38
561.956	311.38
562.168	322.38
562.381	332.38
562.593	332.38
562.805	338.38
563.017	307.38
563.229	320.38
563.441	320.38
563.653	320.38
563.865	345.38
564.077	317.38
564.289	330.38
564.501	324.38
564.713	342.38
564.925	328.38
565.137	336.38
565.349	345.38
565.561	336.38
565.773	350.38
565.985	340.38
566.197	344.38
566.408	342.38
566.62	352.38
566.832	364.38
567.044	362.38
567.255	367.38
567.467	362.38
567.679	390.38
567.891	362.38
568.102	366.38
568.314	369.38
568.526	362.38
568.737	366.38
568.949	339.38
569.161	336.38
569.372	326.38
569.584	331.38
569.795	312.38
570.007	318.38
570.218	387.38
570.43	376.38
570.641	321.38
570.853	332.38
571.064	297.38
571.276	293.38
571.487	291.38
571.698	322.38
571.91	282.38
572.121	292.38
572.333	295.38
572.544	286.38
572.755	276.38
572.966	278.38
573.178	285.38
573.389	299.38
573.6	279.38
573.811	288.38
574.023	280.38
574.234	269.38
574.445	272.38
574.656	283.38
574.867	283.38
575.078	278.38
575.289	268.38
575.501	287.38
575.712	266.38
575.923	270.38
576.134	251.38
576.345	273.38
576.556	254.38
576.767	256.38
576.978	271.38
577.188	261.38
577.399	256.38
577.61	269.38
577.821	262.38
578.032	261.38
578.243	319.38
578.454	570.38
578.665	392.38
578.875	293.38
579.086	276.38
579.297	275.38
579.508	234.38
579.718	270.38
579.929	245.38
580.14	250.38
580.35	268.38
580.561	252.38
580.772	266.38
580.982	262.38
581.193	259.38
581.403	262.38
581.614	250.38
581.825	253.38
582.035	251.38
582.246	235.38
582.456	244.38
582.667	237.38
582.877	250.38
583.087	256.38
583.298	239.38
583.508	252.38
583.719	244.38
583.929	238.38
584.139	229.38
584.35	228.38
584.56	256.38
584.77	239.38
584.981	228.38
585.191	259.38
585.401	251.38
585.611	230.38
585.821	244.38
586.032	233.38
586.242	260.38
586.452	247.38
586.662	238.38
586.872	251.38
587.082	231.38
587.292	234.38
587.502	239.38
587.713	232.38
587.923	243.38
588.133	218.38
588.343	237.38
588.553	237.38
588.762	254.38
588.972	230.38
589.182	235.38
589.392	239.38
589.602	240.38
589.812	248.38
590.022	251.38
590.232	230.38
590.441	234.38
590.651	245.38
590.861	232.38
591.071	244.38
591.281	238.38
591.49	250.38
591.7	237.38
591.91	258.38
592.119	239.38
592.329	266.38
592.539	251.38
592.748	262.38
592.958	244.38
593.167	260.38
593.377	253.38
593.587	270.38
593.796	244.38
594.006	244.38
594.215	238.38
594.424	256.38
594.634	243.38
594.843	235.38
595.053	249.38
595.262	240.38
595.472	248.38
595.681	222.38
595.89	232.38
596.1	232.38
596.309	221.38
596.518	218.38
596.727	232.38
596.937	238.38
597.146	223.38
597.355	215.38
597.564	224.38
597.774	216.38
597.983	227.38
598.192	220.38
598.401	204.38
598.61	207.38
598.819	214.38
599.028	204.38
599.237	209.38
599.446	215.38
599.655	214.38
599.864	226.38
600.073	203.38
600.282	222.38
600.491	201.38
600.7	204.38
600.909	214.38
601.118	220.38
601.327	210.38
601.536	210.38
601.745	207.38
601.953	215.38
602.162	218.38
602.371	215.38
602.58	188.38
602.789	194.38
602.997	199.38
603.206	213.38
603.415	207.38
603.623	219.38
603.832	207.38
604.041	203.38
604.249	212.38
604.458	208.38
604.666	197.38
604.875	207.38
605.084	220.38
605.292	196.38
605.501	206.38
605.709	201.38
605.918	213.38
606.126	204.38
606.334	193.38
606.543	202.38
606.751	205.38
606.96	209.38
607.168	202.38
607.376	207.38
607.585	220.38
607.793	204.38
608.001	214.38
608.21	206.38
608.418	187.38
608.626	199.38
608.834	205.38
609.043	198.38
609.251	196.38
609.459	198.38
609.667	214.38
609.875	197.38
610.083	209.38
610.291	198.38
610.499	208.38
610.707	191.38
610.916	182.38
611.124	208.38
611.332	208.38
611.54	203.38
611.748	196.38
611.955	200.38
612.163	187.38
612.371	213.38
612.579	213.38
612.787	196.38
612.995	195.38
613.203	219.38
613.411	189.38
613.618	201.38
613.826	195.38
614.034	180.38
614.242	198.38
614.449	203.38
614.657	203.38
614.865	195.38
615.072	201.38
615.28	208.38
615.488	196.38
615.695	199.38
615.903	208.38
616.111	181.38
616.318	189.38
616.526	190.38
616.733	181.38
616.941	192.38
617.148	190.38
617.356	194.38
617.563	195.38
617.771	205.38
617.978	211.38
618.185	198.38
618.393	203.38
618.6	192.38
618.807	181.38
619.015	201.38
619.222	183.38
619.429	168.38
619.637	182.38
619.844	190.38
620.051	191.38
620.258	194.38
620.466	206.38
620.673	185.38
620.88	183.38
621.087	178.38
621.294	191.38
621.501	172.38
621.708	182.38
621.915	187.38
622.122	199.38
622.329	192.38
622.536	183.38
622.743	196.38
622.95	194.38
623.157	171.38
623.364	197.38
623.571	182.38
623.778	182.38
623.985	171.38
624.192	166.38
624.399	188.38
624.606	182.38
624.812	166.38
625.019	179.38
625.226	175.38
625.433	171.38
625.639	158.38
625.846	175.38
626.053	170.38
626.259	166.38
626.466	185.38
626.673	188.38
626.879	171.38
627.086	162.38
627.293	167.38
627.499	169.38
627.706	174.38
627.912	177.38
628.119	167.38
628.325	164.38
628.532	172.38
628.738	170.38
628.945	157.38
629.151	170.38
629.357	174.38
629.564	163.38
629.77	164.38
629.976	154.38
630.183	160.38
630.389	163.38
630.595	164.38
630.802	185.38
631.008	163.38
631.214	149.38
631.42	174.38
631.627	189.38
631.833	156.38
632.039	150.38
632.245	168.38
632.451	150.38
632.657	161.38
632.863	172.38
633.069	172.38
633.275	166.38
633.481	140.38
633.688	157.38
633.893	164.38
634.099	140.38
634.305	152.38
634.511	144.38
634.717	149.38
634.923	147.38
635.129	153.38
635.335	159.38
635.541	144.38
635.747	150.38
635.952	142.38
636.158	162.38
636.364	167.38
636.57	170.38
636.775	152.38
636.981	156.38
637.187	167.38
637.392	162.38
637.598	136.38
637.804	150.38
638.009	144.38
638.215	161.38
638.421	137.38
638.626	162.38
638.832	161.38
639.037	142.38
639.243	147.38
639.448	154.38
639.654	152.38
639.859	152.38
640.065	155.38
640.27	157.38
640.475	167.38
640.681	142.38
640.886	148.38
641.091	151.38
641.297	139.38
641.502	144.38
641.707	153.38
641.913	154.38
642.118	151.38
642.323	158.38
642.528	145.38
642.733	149.38
642.939	147.38
643.144	145.38
643.349	145.38
643.554	139.38
643.759	141.38
643.964	140.38
644.169	149.38
644.374	157.38
644.579	133.38
644.784	149.38
644.989	127.38
645.194	144.38
645.399	148.38
645.604	146.38
645.809	134.38
646.014	149.38
646.219	136.38
646.423	146.38
646.628	145.38
646.833	142.38
647.038	159.38
647.243	136.38
647.447	143.38
647.652	128.38
647.857	149.38
648.062	138.38
648.266	142.38
648.471	151.38
648.676	152.38
648.88	151.38
649.085	136.38
649.289	138.38
649.494	160.38
649.698	160.38
649.903	165.38
650.107	154.38
650.312	141.38
650.516	150.38
650.721	149.38
650.925	135.38
651.13	140.38
651.334	147.38
651.539	146.38
651.743	128.38
651.947	133.38
652.152	126.38
652.356	129.38
652.56	134.38
652.764	128.38
652.969	132.38
653.173	128.38
653.377	124.38
653.581	118.38
653.785	125.38
653.99	133.38
654.194	147.38
654.398	118.38
654.602	130.38
654.806	116.38
655.01	139.38
655.214	130.38
655.418	122.38
655.622	131.38
655.826	142.38
656.03	125.38
656.234	132.38
656.438	124.38
656.642	112.38
656.846	119.38
657.049	108.38
657.253	122.38
657.457	130.38
657.661	122.38
657.865	110.38
658.068	115.38
658.272	108.38
658.476	110.38
658.68	112.38
658.883	91.38
659.087	98.38
659.291	102.38
659.494	98.38
659.698	100.38
659.901	96.38
660.105	103.38
660.309	96.38
660.512	102.38
660.716	90.38
660.919	91.38
661.123	90.38
661.326	103.38
661.53	96.38
661.733	94.38
661.936	103.38
662.14	73.38
662.343	79.38
662.546	95.38
662.75	95.38
662.953	83.38
663.156	79.38
663.36	81.38
663.563	85.38
663.766	77.38
663.969	87.38
664.173	88.38
664.376	78.38
664.579	83.38
664.782	84.38
664.985	97.38
665.188	95.38
665.391	76.38
665.594	85.38
665.797	86.38
666	80.38
666.203	86.38
666.406	82.38
666.609	87.38
666.812	74.38
667.015	82.38
667.218	78.38
667.421	78.38
667.624	72.38
667.827	88.38
668.03	93.38
668.232	87.38
668.435	82.38
668.638	80.38
668.841	74.38
669.043	88.38
669.246	97.38
669.449	94.38
669.651	88.38
669.854	71.38
670.057	74.38
670.259	85.38
670.462	94.38
670.665	83.38
670.867	93.38
671.07	84.38
671.272	79.38
671.475	83.38
671.677	96.38
671.88	74.38
672.082	80.38
672.284	84.38
672.487	86.38
672.689	91.38
672.892	78.38
