Data from 1983.PennyLincolnUp.Lamp.En5.5.200Scan.071819.P1_HRD10591_16-53-57-965.txt Node
Date: Thu Jul 18 16:53:57 EDT 2019
User: cochatt
Spectrometer: HR+D1059
Trigger mode: 1
Integration Time (sec): 1.000000E-1
Scans to average: 1
Electric dark correction enabled: true
Nonlinearity correction enabled: false
Boxcar width: 0
XAxis mode: Wavelengths
Number of Pixels in Spectrum: 2048
>>>>>Begin Spectral Data<<<<<
223.165	-20.12
223.4	-20.12
223.635	-20.12
223.869	-19.12
224.104	-2.12
224.338	-13.12
224.573	-9.12
224.808	-16.12
225.042	-8.12
225.277	-7.12
225.511	-10.12
225.746	-11.12
225.98	10.88
226.215	12.88
226.449	20.88
226.683	14.88
226.918	29.88
227.152	26.88
227.387	40.88
227.621	16.88
227.856	41.88
228.09	31.88
228.324	42.88
228.559	54.88
228.793	70.88
229.027	84.88
229.262	89.88
229.496	104.88
229.73	111.88
229.964	132.88
230.199	121.88
230.433	118.88
230.667	96.88
230.901	106.88
231.136	99.88
231.37	113.88
231.604	90.88
231.838	106.88
232.072	95.88
232.306	104.88
232.541	98.88
232.775	90.88
233.009	97.88
233.243	108.88
233.477	106.88
233.711	106.88
233.945	117.88
234.179	99.88
234.413	106.88
234.647	117.88
234.881	102.88
235.115	102.88
235.349	113.88
235.583	99.88
235.817	122.88
236.051	124.88
236.285	113.88
236.519	122.88
236.753	115.88
236.987	128.88
237.221	170.88
237.455	198.88
237.689	157.88
237.922	146.88
238.156	121.88
238.39	127.88
238.624	119.88
238.858	97.88
239.091	123.88
239.325	112.88
239.559	116.88
239.793	115.88
240.027	108.88
240.26	129.88
240.494	148.88
240.728	120.88
240.961	135.88
241.195	130.88
241.429	120.88
241.662	124.88
241.896	118.88
242.13	122.88
242.363	117.88
242.597	109.88
242.83	130.88
243.064	129.88
243.298	128.88
243.531	119.88
243.765	133.88
243.998	130.88
244.232	122.88
244.465	136.88
244.699	131.88
244.932	128.88
245.166	133.88
245.399	138.88
245.633	137.88
245.866	116.88
246.099	124.88
246.333	128.88
246.566	127.88
246.8	121.88
247.033	128.88
247.266	140.88
247.5	142.88
247.733	160.88
247.966	170.88
248.2	160.88
248.433	146.88
248.666	165.88
248.899	167.88
249.133	179.88
249.366	174.88
249.599	155.88
249.832	163.88
250.066	146.88
250.299	165.88
250.532	157.88
250.765	178.88
250.998	195.88
251.231	199.88
251.465	190.88
251.698	188.88
251.931	178.88
252.164	169.88
252.397	163.88
252.63	197.88
252.863	182.88
253.096	187.88
253.329	199.88
253.562	201.88
253.795	182.88
254.028	174.88
254.261	206.88
254.494	213.88
254.727	228.88
254.96	239.88
255.193	236.88
255.426	205.88
255.659	200.88
255.892	203.88
256.124	198.88
256.357	197.88
256.59	192.88
256.823	192.88
257.056	178.88
257.289	173.88
257.521	185.88
257.754	170.88
257.987	188.88
258.22	189.88
258.452	175.88
258.685	168.88
258.918	188.88
259.151	188.88
259.383	200.88
259.616	190.88
259.849	212.88
260.081	212.88
260.314	229.88
260.547	228.88
260.779	210.88
261.012	205.88
261.244	202.88
261.477	224.88
261.71	198.88
261.942	198.88
262.175	215.88
262.407	210.88
262.64	193.88
262.872	194.88
263.105	186.88
263.337	195.88
263.57	180.88
263.802	181.88
264.035	193.88
264.267	180.88
264.499	181.88
264.732	176.88
264.964	183.88
265.197	183.88
265.429	192.88
265.661	180.88
265.894	184.88
266.126	202.88
266.358	185.88
266.591	197.88
266.823	199.88
267.055	188.88
267.287	202.88
267.52	212.88
267.752	204.88
267.984	200.88
268.216	199.88
268.448	212.88
268.681	212.88
268.913	211.88
269.145	214.88
269.377	230.88
269.609	230.88
269.841	252.88
270.073	224.88
270.306	254.88
270.538	290.88
270.77	276.88
271.002	282.88
271.234	256.88
271.466	267.88
271.698	273.88
271.93	284.88
272.162	280.88
272.394	282.88
272.626	276.88
272.858	244.88
273.09	232.88
273.322	248.88
273.553	226.88
273.785	233.88
274.017	220.88
274.249	239.88
274.481	229.88
274.713	230.88
274.945	232.88
275.176	227.88
275.408	241.88
275.64	212.88
275.872	224.88
276.104	237.88
276.335	217.88
276.567	236.88
276.799	256.88
277.031	270.88
277.262	281.88
277.494	295.88
277.726	270.88
277.957	258.88
278.189	246.88
278.421	245.88
278.652	247.88
278.884	236.88
279.115	233.88
279.347	238.88
279.579	219.88
279.81	238.88
280.042	217.88
280.273	233.88
280.505	236.88
280.736	227.88
280.968	225.88
281.199	238.88
281.431	231.88
281.662	236.88
281.894	222.88
282.125	236.88
282.356	239.88
282.588	262.88
282.819	286.88
283.051	238.88
283.282	245.88
283.513	244.88
283.745	237.88
283.976	244.88
284.207	240.88
284.439	259.88
284.67	243.88
284.901	215.88
285.132	242.88
285.364	250.88
285.595	218.88
285.826	250.88
286.057	254.88
286.288	260.88
286.52	251.88
286.751	240.88
286.982	233.88
287.213	247.88
287.444	246.88
287.675	249.88
287.906	274.88
288.138	270.88
288.369	260.88
288.6	263.88
288.831	239.88
289.062	241.88
289.293	256.88
289.524	275.88
289.755	262.88
289.986	252.88
290.217	248.88
290.448	275.88
290.679	258.88
290.91	256.88
291.141	250.88
291.371	247.88
291.602	266.88
291.833	243.88
292.064	237.88
292.295	235.88
292.526	254.88
292.757	252.88
292.987	258.88
293.218	236.88
293.449	270.88
293.68	257.88
293.91	252.88
294.141	262.88
294.372	260.88
294.603	260.88
294.833	246.88
295.064	254.88
295.295	263.88
295.525	256.88
295.756	263.88
295.987	270.88
296.217	292.88
296.448	284.88
296.679	274.88
296.909	259.88
297.14	249.88
297.37	262.88
297.601	260.88
297.831	255.88
298.062	230.88
298.292	265.88
298.523	266.88
298.753	258.88
298.984	257.88
299.214	281.88
299.445	266.88
299.675	284.88
299.905	275.88
300.136	281.88
300.366	276.88
300.597	270.88
300.827	288.88
301.057	289.88
301.288	287.88
301.518	269.88
301.748	266.88
301.979	286.88
302.209	292.88
302.439	289.88
302.669	282.88
302.9	287.88
303.13	286.88
303.36	277.88
303.59	274.88
303.82	296.88
304.051	304.88
304.281	278.88
304.511	273.88
304.741	277.88
304.971	271.88
305.201	285.88
305.431	279.88
305.661	288.88
305.891	288.88
306.121	288.88
306.352	317.88
306.582	301.88
306.812	292.88
307.042	284.88
307.272	283.88
307.502	276.88
307.731	309.88
307.961	274.88
308.191	297.88
308.421	280.88
308.651	291.88
308.881	284.88
309.111	294.88
309.341	312.88
309.571	318.88
309.8	314.88
310.03	312.88
310.26	349.88
310.49	342.88
310.72	317.88
310.949	345.88
311.179	359.88
311.409	328.88
311.639	344.88
311.868	327.88
312.098	341.88
312.328	350.88
312.557	369.88
312.787	376.88
313.017	370.88
313.246	332.88
313.476	331.88
313.706	330.88
313.935	337.88
314.165	351.88
314.394	376.88
314.624	332.88
314.853	347.88
315.083	353.88
315.312	327.88
315.542	339.88
315.771	320.88
316.001	342.88
316.23	336.88
316.46	336.88
316.689	339.88
316.919	328.88
317.148	351.88
317.377	349.88
317.607	354.88
317.836	340.88
318.065	334.88
318.295	328.88
318.524	331.88
318.753	330.88
318.983	333.88
319.212	327.88
319.441	330.88
319.67	347.88
319.9	337.88
320.129	344.88
320.358	329.88
320.587	326.88
320.816	344.88
321.046	372.88
321.275	355.88
321.504	358.88
321.733	353.88
321.962	347.88
322.191	388.88
322.42	379.88
322.649	418.88
322.878	421.88
323.108	421.88
323.337	444.88
323.566	472.88
323.795	520.88
324.024	562.88
324.253	665.88
324.482	998.88
324.71	1481.88
324.939	1996.88
325.168	1622.88
325.397	891.88
325.626	617.88
325.855	505.88
326.084	469.88
326.313	449.88
326.542	466.88
326.77	528.88
326.999	615.88
327.228	861.88
327.457	1244.88
327.686	1462.88
327.914	972.88
328.143	650.88
328.372	578.88
328.6	542.88
328.829	534.88
329.058	529.88
329.287	553.88
329.515	482.88
329.744	441.88
329.972	467.88
330.201	465.88
330.43	519.88
330.658	525.88
330.887	568.88
331.115	544.88
331.344	480.88
331.572	442.88
331.801	439.88
332.03	452.88
332.258	427.88
332.486	404.88
332.715	396.88
332.943	385.88
333.172	392.88
333.4	405.88
333.629	404.88
333.857	394.88
334.085	424.88
334.314	409.88
334.542	446.88
334.771	452.88
334.999	414.88
335.227	400.88
335.455	401.88
335.684	397.88
335.912	397.88
336.14	397.88
336.369	373.88
336.597	396.88
336.825	402.88
337.053	400.88
337.281	374.88
337.51	385.88
337.738	403.88
337.966	391.88
338.194	404.88
338.422	393.88
338.65	373.88
338.878	391.88
339.106	368.88
339.334	380.88
339.562	366.88
339.79	374.88
340.018	373.88
340.246	371.88
340.474	385.88
340.702	394.88
340.93	366.88
341.158	368.88
341.386	383.88
341.614	387.88
341.842	360.88
342.07	378.88
342.298	369.88
342.526	344.88
342.754	354.88
342.981	357.88
343.209	344.88
343.437	382.88
343.665	374.88
343.893	366.88
344.12	377.88
344.348	378.88
344.576	362.88
344.804	384.88
345.031	390.88
345.259	389.88
345.487	388.88
345.714	389.88
345.942	357.88
346.17	358.88
346.397	366.88
346.625	358.88
346.853	353.88
347.08	353.88
347.308	376.88
347.535	372.88
347.763	381.88
347.99	360.88
348.218	364.88
348.445	377.88
348.673	378.88
348.9	377.88
349.128	370.88
349.355	336.88
349.583	350.88
349.81	336.88
350.037	335.88
350.265	361.88
350.492	353.88
350.72	374.88
350.947	368.88
351.174	376.88
351.402	392.88
351.629	364.88
351.856	366.88
352.083	372.88
352.311	368.88
352.538	408.88
352.765	377.88
352.992	375.88
353.22	362.88
353.447	370.88
353.674	347.88
353.901	353.88
354.128	328.88
354.355	326.88
354.583	341.88
354.81	336.88
355.037	338.88
355.264	337.88
355.491	336.88
355.718	334.88
355.945	318.88
356.172	318.88
356.399	310.88
356.626	334.88
356.853	332.88
357.08	330.88
357.307	336.88
357.534	328.88
357.761	335.88
357.988	339.88
358.215	339.88
358.441	325.88
358.668	350.88
358.895	353.88
359.122	327.88
359.349	359.88
359.576	369.88
359.802	380.88
360.029	406.88
360.256	407.88
360.483	407.88
360.709	385.88
360.936	360.88
361.163	338.88
361.39	366.88
361.616	355.88
361.843	352.88
362.07	356.88
362.296	331.88
362.523	386.88
362.749	365.88
362.976	342.88
363.203	348.88
363.429	334.88
363.656	350.88
363.882	356.88
364.109	348.88
364.335	333.88
364.562	339.88
364.788	337.88
365.015	353.88
365.241	348.88
365.468	351.88
365.694	355.88
365.92	356.88
366.147	342.88
366.373	350.88
366.599	355.88
366.826	349.88
367.052	326.88
367.278	334.88
367.505	344.88
367.731	325.88
367.957	337.88
368.184	347.88
368.41	353.88
368.636	354.88
368.862	354.88
369.089	359.88
369.315	328.88
369.541	345.88
369.767	350.88
369.993	344.88
370.219	328.88
370.445	333.88
370.672	335.88
370.898	330.88
371.124	340.88
371.35	341.88
371.576	322.88
371.802	338.88
372.028	324.88
372.254	324.88
372.48	349.88
372.706	346.88
372.932	331.88
373.158	322.88
373.384	339.88
373.61	344.88
373.835	331.88
374.061	319.88
374.287	361.88
374.513	329.88
374.739	347.88
374.965	345.88
375.191	324.88
375.416	340.88
375.642	340.88
375.868	359.88
376.094	347.88
376.319	340.88
376.545	326.88
376.771	335.88
376.997	328.88
377.222	350.88
377.448	337.88
377.674	343.88
377.899	325.88
378.125	317.88
378.35	324.88
378.576	327.88
378.802	332.88
379.027	334.88
379.253	345.88
379.478	333.88
379.704	315.88
379.929	338.88
380.155	334.88
380.38	343.88
380.606	326.88
380.831	327.88
381.057	337.88
381.282	341.88
381.507	347.88
381.733	328.88
381.958	336.88
382.184	353.88
382.409	366.88
382.634	347.88
382.86	353.88
383.085	338.88
383.31	337.88
383.535	343.88
383.761	351.88
383.986	360.88
384.211	345.88
384.436	346.88
384.662	358.88
384.887	344.88
385.112	347.88
385.337	351.88
385.562	335.88
385.787	358.88
386.013	364.88
386.238	380.88
386.463	348.88
386.688	383.88
386.913	353.88
387.138	364.88
387.363	373.88
387.588	354.88
387.813	366.88
388.038	354.88
388.263	353.88
388.488	370.88
388.713	359.88
388.938	354.88
389.163	370.88
389.387	355.88
389.612	354.88
389.837	353.88
390.062	344.88
390.287	367.88
390.512	349.88
390.736	334.88
390.961	370.88
391.186	351.88
391.411	368.88
391.636	347.88
391.86	374.88
392.085	376.88
392.31	374.88
392.534	341.88
392.759	370.88
392.984	378.88
393.208	366.88
393.433	352.88
393.658	341.88
393.882	356.88
394.107	352.88
394.331	345.88
394.556	356.88
394.78	357.88
395.005	344.88
395.229	364.88
395.454	360.88
395.678	386.88
395.903	378.88
396.127	393.88
396.352	422.88
396.576	373.88
396.801	357.88
397.025	356.88
397.249	355.88
397.474	380.88
397.698	383.88
397.922	377.88
398.147	406.88
398.371	399.88
398.595	396.88
398.82	400.88
399.044	399.88
399.268	429.88
399.492	413.88
399.717	446.88
399.941	468.88
400.165	482.88
400.389	490.88
400.613	456.88
400.837	433.88
401.062	398.88
401.286	408.88
401.51	402.88
401.734	401.88
401.958	424.88
402.182	431.88
402.406	422.88
402.63	414.88
402.854	424.88
403.078	410.88
403.302	409.88
403.526	422.88
403.75	412.88
403.974	382.88
404.198	423.88
404.422	424.88
404.645	441.88
404.869	432.88
405.093	452.88
405.317	488.88
405.541	481.88
405.765	448.88
405.988	444.88
406.212	453.88
406.436	471.88
406.66	486.88
406.883	462.88
407.107	471.88
407.331	489.88
407.555	558.88
407.778	544.88
408.002	521.88
408.226	471.88
408.449	455.88
408.673	471.88
408.896	468.88
409.12	485.88
409.344	451.88
409.567	440.88
409.791	438.88
410.014	433.88
410.238	415.88
410.461	412.88
410.685	422.88
410.908	452.88
411.132	465.88
411.355	480.88
411.578	458.88
411.802	422.88
412.025	424.88
412.249	401.88
412.472	437.88
412.695	437.88
412.919	437.88
413.142	417.88
413.365	416.88
413.589	407.88
413.812	386.88
414.035	379.88
414.258	400.88
414.482	398.88
414.705	405.88
414.928	404.88
415.151	410.88
415.374	397.88
415.597	389.88
415.821	391.88
416.044	386.88
416.267	402.88
416.49	391.88
416.713	392.88
416.936	386.88
417.159	376.88
417.382	377.88
417.605	396.88
417.828	414.88
418.051	414.88
418.274	406.88
418.497	401.88
418.72	403.88
418.943	398.88
419.166	415.88
419.389	402.88
419.611	419.88
419.834	404.88
420.057	409.88
420.28	416.88
420.503	401.88
420.726	407.88
420.948	409.88
421.171	468.88
421.394	446.88
421.617	445.88
421.839	443.88
422.062	434.88
422.285	438.88
422.507	467.88
422.73	495.88
422.953	490.88
423.175	448.88
423.398	431.88
423.621	413.88
423.843	448.88
424.066	438.88
424.288	448.88
424.511	453.88
424.733	485.88
424.956	565.88
425.178	554.88
425.401	537.88
425.623	548.88
425.846	476.88
426.068	462.88
426.291	442.88
426.513	452.88
426.735	461.88
426.958	475.88
427.18	534.88
427.402	640.88
427.625	713.88
427.847	621.88
428.069	532.88
428.292	479.88
428.514	464.88
428.736	438.88
428.958	446.88
429.181	403.88
429.403	416.88
429.625	438.88
429.847	446.88
430.069	505.88
430.292	525.88
430.514	425.88
430.736	425.88
430.958	402.88
431.18	421.88
431.402	430.88
431.624	393.88
431.846	378.88
432.068	408.88
432.29	400.88
432.512	410.88
432.734	418.88
432.956	416.88
433.178	387.88
433.4	400.88
433.622	400.88
433.844	417.88
434.066	390.88
434.287	384.88
434.509	377.88
434.731	425.88
434.953	393.88
435.175	433.88
435.397	454.88
435.618	446.88
435.84	477.88
436.062	553.88
436.284	589.88
436.505	518.88
436.727	481.88
436.949	424.88
437.17	431.88
437.392	414.88
437.614	422.88
437.835	453.88
438.057	535.88
438.278	612.88
438.5	623.88
438.721	639.88
438.943	632.88
439.165	503.88
439.386	445.88
439.608	441.88
439.829	466.88
440.05	460.88
440.272	508.88
440.493	486.88
440.715	451.88
440.936	419.88
441.158	432.88
441.379	416.88
441.6	435.88
441.822	448.88
442.043	494.88
442.264	549.88
442.486	559.88
442.707	483.88
442.928	479.88
443.149	473.88
443.371	481.88
443.592	526.88
443.813	598.88
444.034	628.88
444.255	528.88
444.476	465.88
444.698	453.88
444.919	435.88
445.14	560.88
445.361	524.88
445.582	480.88
445.803	543.88
446.024	626.88
446.245	607.88
446.466	561.88
446.687	482.88
446.908	441.88
447.129	449.88
447.35	403.88
447.571	412.88
447.792	401.88
448.013	424.88
448.234	443.88
448.455	493.88
448.675	583.88
448.896	642.88
449.117	551.88
449.338	532.88
449.559	580.88
449.779	665.88
450	524.88
450.221	472.88
450.442	440.88
450.662	432.88
450.883	414.88
451.104	435.88
451.324	436.88
451.545	414.88
451.766	372.88
451.986	368.88
452.207	380.88
452.428	355.88
452.648	386.88
452.869	383.88
453.089	390.88
453.31	376.88
453.53	393.88
453.751	376.88
453.971	386.88
454.192	434.88
454.412	391.88
454.633	398.88
454.853	372.88
455.073	372.88
455.294	373.88
455.514	443.88
455.734	433.88
455.955	377.88
456.175	354.88
456.395	357.88
456.616	352.88
456.836	345.88
457.056	380.88
457.276	350.88
457.497	366.88
457.717	370.88
457.937	360.88
458.157	380.88
458.377	376.88
458.598	379.88
458.818	458.88
459.038	537.88
459.258	513.88
459.478	432.88
459.698	388.88
459.918	382.88
460.138	395.88
460.358	403.88
460.578	386.88
460.798	398.88
461.018	405.88
461.238	412.88
461.458	400.88
461.678	372.88
461.898	410.88
462.118	400.88
462.338	384.88
462.558	417.88
462.777	450.88
462.997	433.88
463.217	416.88
463.437	402.88
463.657	393.88
463.876	418.88
464.096	438.88
464.316	425.88
464.536	425.88
464.755	391.88
464.975	421.88
465.195	489.88
465.414	571.88
465.634	487.88
465.854	434.88
466.073	418.88
466.293	403.88
466.512	390.88
466.732	375.88
466.951	382.88
467.171	376.88
467.391	380.88
467.61	392.88
467.829	404.88
468.049	410.88
468.268	393.88
468.488	382.88
468.707	366.88
468.927	402.88
469.146	359.88
469.365	373.88
469.585	373.88
469.804	400.88
470.023	395.88
470.243	396.88
470.462	401.88
470.681	415.88
470.901	408.88
471.12	383.88
471.339	384.88
471.558	377.88
471.777	389.88
471.997	396.88
472.216	394.88
472.435	413.88
472.654	406.88
472.873	380.88
473.092	374.88
473.311	388.88
473.53	395.88
473.749	372.88
473.968	437.88
474.187	512.88
474.406	524.88
474.625	416.88
474.844	409.88
475.063	386.88
475.282	400.88
475.501	398.88
475.72	407.88
475.939	393.88
476.158	409.88
476.377	416.88
476.596	414.88
476.814	406.88
477.033	416.88
477.252	426.88
477.471	409.88
477.69	430.88
477.908	406.88
478.127	422.88
478.346	419.88
478.564	413.88
478.783	431.88
479.002	432.88
479.22	441.88
479.439	465.88
479.658	466.88
479.876	465.88
480.095	489.88
480.313	501.88
480.532	476.88
480.751	462.88
480.969	482.88
481.188	520.88
481.406	553.88
481.624	487.88
481.843	461.88
482.061	463.88
482.28	440.88
482.498	459.88
482.717	460.88
482.935	448.88
483.153	469.88
483.372	447.88
483.59	448.88
483.808	442.88
484.027	437.88
484.245	449.88
484.463	453.88
484.681	445.88
484.9	453.88
485.118	438.88
485.336	453.88
485.554	461.88
485.772	461.88
485.99	476.88
486.209	457.88
486.427	469.88
486.645	480.88
486.863	510.88
487.081	505.88
487.299	474.88
487.517	496.88
487.735	482.88
487.953	494.88
488.171	484.88
488.389	472.88
488.607	474.88
488.825	471.88
489.043	478.88
489.261	498.88
489.479	492.88
489.696	501.88
489.914	512.88
490.132	493.88
490.35	506.88
490.568	524.88
490.786	530.88
491.003	514.88
491.221	530.88
491.439	538.88
491.657	547.88
491.874	565.88
492.092	577.88
492.31	557.88
492.527	559.88
492.745	553.88
492.963	560.88
493.18	571.88
493.398	563.88
493.615	576.88
493.833	578.88
494.05	573.88
494.268	574.88
494.485	582.88
494.703	597.88
494.92	576.88
495.138	566.88
495.355	568.88
495.573	572.88
495.79	572.88
496.008	583.88
496.225	564.88
496.442	582.88
496.66	576.88
496.877	578.88
497.094	560.88
497.312	566.88
497.529	596.88
497.746	585.88
497.963	592.88
498.181	617.88
498.398	596.88
498.615	642.88
498.832	642.88
499.049	656.88
499.267	657.88
499.484	650.88
499.701	672.88
499.918	707.88
500.135	720.88
500.352	727.88
500.569	746.88
500.786	775.88
501.003	752.88
501.22	741.88
501.437	727.88
501.654	702.88
501.871	715.88
502.088	714.88
502.305	664.88
502.522	650.88
502.739	633.88
502.956	602.88
503.172	624.88
503.389	596.88
503.606	598.88
503.823	585.88
504.04	598.88
504.256	584.88
504.473	573.88
504.69	564.88
504.907	574.88
505.123	590.88
505.34	576.88
505.557	552.88
505.773	553.88
505.99	549.88
506.207	559.88
506.423	562.88
506.64	548.88
506.856	558.88
507.073	550.88
507.289	520.88
507.506	546.88
507.722	560.88
507.939	562.88
508.155	572.88
508.372	527.88
508.588	519.88
508.805	527.88
509.021	509.88
509.238	521.88
509.454	556.88
509.67	530.88
509.887	501.88
510.103	540.88
510.319	558.88
510.536	661.88
510.752	1150.88
510.968	933.88
511.184	539.88
511.401	522.88
511.617	512.88
511.833	508.88
512.049	498.88
512.265	486.88
512.481	507.88
512.698	498.88
512.914	510.88
513.13	525.88
513.346	499.88
513.562	489.88
513.778	517.88
513.994	502.88
514.21	541.88
514.426	536.88
514.642	597.88
514.858	615.88
515.074	665.88
515.29	822.88
515.506	1328.88
515.721	1062.88
515.937	643.88
516.153	549.88
516.369	566.88
516.585	563.88
516.801	516.88
517.016	521.88
517.232	528.88
517.448	526.88
517.664	549.88
517.879	526.88
518.095	523.88
518.311	531.88
518.527	525.88
518.742	497.88
518.958	482.88
519.173	505.88
519.389	514.88
519.605	519.88
519.82	509.88
520.036	543.88
520.251	551.88
520.467	572.88
520.682	565.88
520.898	545.88
521.113	581.88
521.329	652.88
521.544	770.88
521.76	993.88
521.975	1770.88
522.19	1733.88
522.406	884.88
522.621	641.88
522.836	553.88
523.052	522.88
523.267	492.88
523.482	456.88
523.698	481.88
523.913	479.88
524.128	481.88
524.343	450.88
524.559	441.88
524.774	446.88
524.989	452.88
525.204	451.88
525.419	461.88
525.634	421.88
525.849	421.88
526.064	428.88
526.28	424.88
526.495	432.88
526.71	412.88
526.925	384.88
527.14	398.88
527.355	413.88
527.57	410.88
527.785	423.88
527.999	404.88
528.214	399.88
528.429	417.88
528.644	393.88
528.859	400.88
529.074	414.88
529.289	441.88
529.503	538.88
529.718	499.88
529.933	452.88
530.148	412.88
530.363	419.88
530.577	425.88
530.792	399.88
531.007	397.88
531.221	397.88
531.436	405.88
531.651	399.88
531.865	382.88
532.08	394.88
532.295	386.88
532.509	376.88
532.724	386.88
532.938	384.88
533.153	391.88
533.367	387.88
533.582	367.88
533.796	379.88
534.011	371.88
534.225	372.88
534.44	376.88
534.654	394.88
534.868	398.88
535.083	371.88
535.297	379.88
535.511	383.88
535.726	393.88
535.94	382.88
536.154	413.88
536.369	395.88
536.583	376.88
536.797	382.88
537.011	357.88
537.225	364.88
537.44	370.88
537.654	364.88
537.868	370.88
538.082	374.88
538.296	373.88
538.51	377.88
538.724	392.88
538.938	377.88
539.153	382.88
539.367	393.88
539.581	393.88
539.795	377.88
540.009	370.88
540.222	362.88
540.436	376.88
540.65	373.88
540.864	377.88
541.078	380.88
541.292	376.88
541.506	395.88
541.72	374.88
541.934	385.88
542.147	376.88
542.361	366.88
542.575	361.88
542.789	371.88
543.002	357.88
543.216	383.88
543.43	372.88
543.644	360.88
543.857	369.88
544.071	366.88
544.285	387.88
544.498	366.88
544.712	373.88
544.925	369.88
545.139	390.88
545.352	370.88
545.566	366.88
545.779	356.88
545.993	375.88
546.206	362.88
546.42	376.88
546.633	364.88
546.847	362.88
547.06	359.88
547.274	343.88
547.487	347.88
547.7	344.88
547.914	348.88
548.127	350.88
548.34	342.88
548.554	354.88
548.767	335.88
548.98	356.88
549.193	344.88
549.407	349.88
549.62	336.88
549.833	339.88
550.046	354.88
550.259	341.88
550.473	336.88
550.686	337.88
550.899	328.88
551.112	343.88
551.325	356.88
551.538	347.88
551.751	329.88
551.964	321.88
552.177	343.88
552.39	336.88
552.603	342.88
552.816	330.88
553.029	353.88
553.242	342.88
553.455	357.88
553.667	355.88
553.88	366.88
554.093	349.88
554.306	340.88
554.519	365.88
554.732	352.88
554.944	328.88
555.157	324.88
555.37	333.88
555.583	307.88
555.795	336.88
556.008	310.88
556.221	325.88
556.433	321.88
556.646	328.88
556.859	313.88
557.071	313.88
557.284	307.88
557.496	318.88
557.709	289.88
557.921	317.88
558.134	309.88
558.346	308.88
558.559	326.88
558.771	323.88
558.984	321.88
559.196	316.88
559.409	300.88
559.621	295.88
559.833	300.88
560.046	306.88
560.258	321.88
560.47	312.88
560.683	305.88
560.895	310.88
561.107	293.88
561.32	312.88
561.532	279.88
561.744	305.88
561.956	297.88
562.168	306.88
562.381	309.88
562.593	309.88
562.805	312.88
563.017	306.88
563.229	308.88
563.441	313.88
563.653	325.88
563.865	304.88
564.077	306.88
564.289	305.88
564.501	307.88
564.713	317.88
564.925	320.88
565.137	321.88
565.349	331.88
565.561	324.88
565.773	316.88
565.985	337.88
566.197	330.88
566.408	359.88
566.62	348.88
566.832	353.88
567.044	355.88
567.255	375.88
567.467	351.88
567.679	351.88
567.891	373.88
568.102	368.88
568.314	357.88
568.526	358.88
568.737	349.88
568.949	336.88
569.161	309.88
569.372	321.88
569.584	290.88
569.795	314.88
570.007	322.88
570.218	357.88
570.43	353.88
570.641	294.88
570.853	281.88
571.064	284.88
571.276	305.88
571.487	308.88
571.698	284.88
571.91	280.88
572.121	270.88
572.333	274.88
572.544	281.88
572.755	272.88
572.966	281.88
573.178	265.88
573.389	272.88
573.6	272.88
573.811	264.88
574.023	284.88
574.234	263.88
574.445	257.88
574.656	265.88
574.867	281.88
575.078	256.88
575.289	249.88
575.501	258.88
575.712	265.88
575.923	260.88
576.134	252.88
576.345	250.88
576.556	270.88
576.767	260.88
576.978	258.88
577.188	265.88
577.399	259.88
577.61	235.88
577.821	268.88
578.032	260.88
578.243	312.88
578.454	554.88
578.665	399.88
578.875	276.88
579.086	240.88
579.297	241.88
579.508	240.88
579.718	254.88
579.929	256.88
580.14	239.88
580.35	241.88
580.561	246.88
580.772	258.88
580.982	247.88
581.193	228.88
581.403	236.88
581.614	241.88
581.825	226.88
582.035	232.88
582.246	230.88
582.456	236.88
582.667	238.88
582.877	244.88
583.087	238.88
583.298	236.88
583.508	245.88
583.719	241.88
583.929	234.88
584.139	232.88
584.35	216.88
584.56	231.88
584.77	228.88
584.981	239.88
585.191	236.88
585.401	236.88
585.611	217.88
585.821	236.88
586.032	225.88
586.242	237.88
586.452	224.88
586.662	224.88
586.872	237.88
587.082	222.88
587.292	220.88
587.502	241.88
587.713	232.88
587.923	220.88
588.133	224.88
588.343	224.88
588.553	225.88
588.762	222.88
588.972	234.88
589.182	240.88
589.392	239.88
589.602	227.88
589.812	223.88
590.022	228.88
590.232	212.88
590.441	205.88
590.651	213.88
590.861	227.88
591.071	232.88
591.281	234.88
591.49	237.88
591.7	221.88
591.91	241.88
592.119	231.88
592.329	236.88
592.539	250.88
592.748	227.88
592.958	249.88
593.167	244.88
593.377	232.88
593.587	251.88
593.796	225.88
594.006	232.88
594.215	247.88
594.424	240.88
594.634	229.88
594.843	248.88
595.053	225.88
595.262	208.88
595.472	230.88
595.681	219.88
595.89	215.88
596.1	211.88
596.309	200.88
596.518	218.88
596.727	211.88
596.937	223.88
597.146	206.88
597.355	222.88
597.564	212.88
597.774	228.88
597.983	212.88
598.192	219.88
598.401	220.88
598.61	232.88
598.819	197.88
599.028	195.88
599.237	213.88
599.446	200.88
599.655	198.88
599.864	202.88
600.073	208.88
600.282	198.88
600.491	199.88
600.7	208.88
600.909	205.88
601.118	194.88
601.327	208.88
601.536	203.88
601.745	199.88
601.953	217.88
602.162	202.88
602.371	207.88
602.58	196.88
602.789	208.88
602.997	207.88
603.206	221.88
603.415	208.88
603.623	202.88
603.832	210.88
604.041	198.88
604.249	186.88
604.458	194.88
604.666	193.88
604.875	209.88
605.084	198.88
605.292	195.88
605.501	185.88
605.709	216.88
605.918	198.88
606.126	183.88
606.334	204.88
606.543	194.88
606.751	204.88
606.96	188.88
607.168	180.88
607.376	196.88
607.585	198.88
607.793	200.88
608.001	181.88
608.21	193.88
608.418	174.88
608.626	195.88
608.834	206.88
609.043	191.88
609.251	185.88
609.459	191.88
609.667	176.88
609.875	188.88
610.083	203.88
610.291	188.88
610.499	191.88
610.707	192.88
610.916	188.88
611.124	193.88
611.332	194.88
611.54	199.88
611.748	185.88
611.955	190.88
612.163	197.88
612.371	184.88
612.579	213.88
612.787	190.88
612.995	198.88
613.203	184.88
613.411	200.88
613.618	192.88
613.826	194.88
614.034	185.88
614.242	194.88
614.449	176.88
614.657	194.88
614.865	205.88
615.072	182.88
615.28	194.88
615.488	178.88
615.695	175.88
615.903	196.88
616.111	181.88
616.318	183.88
616.526	204.88
616.733	191.88
616.941	192.88
617.148	193.88
617.356	173.88
617.563	189.88
617.771	185.88
617.978	184.88
618.185	181.88
618.393	165.88
618.6	176.88
618.807	180.88
619.015	186.88
619.222	180.88
619.429	177.88
619.637	172.88
619.844	178.88
620.051	190.88
620.258	186.88
620.466	177.88
620.673	168.88
620.88	184.88
621.087	187.88
621.294	175.88
621.501	163.88
621.708	174.88
621.915	176.88
622.122	161.88
622.329	179.88
622.536	186.88
622.743	176.88
622.95	183.88
623.157	181.88
623.364	170.88
623.571	181.88
623.778	173.88
623.985	177.88
624.192	151.88
624.399	177.88
624.606	170.88
624.812	160.88
625.019	177.88
625.226	182.88
625.433	182.88
625.639	162.88
625.846	167.88
626.053	170.88
626.259	172.88
626.466	178.88
626.673	181.88
626.879	169.88
627.086	166.88
627.293	157.88
627.499	160.88
627.706	164.88
627.912	157.88
628.119	168.88
628.325	169.88
628.532	177.88
628.738	182.88
628.945	163.88
629.151	162.88
629.357	152.88
629.564	142.88
629.77	152.88
629.976	161.88
630.183	155.88
630.389	169.88
630.595	158.88
630.802	161.88
631.008	155.88
631.214	158.88
631.42	164.88
631.627	169.88
631.833	162.88
632.039	155.88
632.245	155.88
632.451	160.88
632.657	150.88
632.863	159.88
633.069	153.88
633.275	159.88
633.481	147.88
633.688	138.88
633.893	150.88
634.099	157.88
634.305	161.88
634.511	153.88
634.717	150.88
634.923	146.88
635.129	160.88
635.335	161.88
635.541	151.88
635.747	143.88
635.952	145.88
636.158	149.88
636.364	147.88
636.57	159.88
636.775	146.88
636.981	149.88
637.187	149.88
637.392	150.88
637.598	151.88
637.804	163.88
638.009	138.88
638.215	155.88
638.421	140.88
638.626	146.88
638.832	150.88
639.037	137.88
639.243	133.88
639.448	138.88
639.654	148.88
639.859	154.88
640.065	154.88
640.27	156.88
640.475	140.88
640.681	146.88
640.886	147.88
641.091	136.88
641.297	157.88
641.502	140.88
641.707	150.88
641.913	144.88
642.118	127.88
642.323	129.88
642.528	146.88
642.733	143.88
642.939	138.88
643.144	144.88
643.349	141.88
643.554	144.88
643.759	128.88
643.964	133.88
644.169	140.88
644.374	136.88
644.579	139.88
644.784	160.88
644.989	149.88
645.194	138.88
645.399	146.88
645.604	145.88
645.809	135.88
646.014	129.88
646.219	138.88
646.423	141.88
646.628	133.88
646.833	143.88
647.038	141.88
647.243	137.88
647.447	145.88
647.652	148.88
647.857	142.88
648.062	143.88
648.266	147.88
648.471	138.88
648.676	138.88
648.88	151.88
649.085	130.88
649.289	144.88
649.494	130.88
649.698	160.88
649.903	155.88
650.107	138.88
650.312	143.88
650.516	135.88
650.721	146.88
650.925	126.88
651.13	112.88
651.334	124.88
651.539	136.88
651.743	134.88
651.947	130.88
652.152	119.88
652.356	128.88
652.56	120.88
652.764	130.88
652.969	126.88
653.173	124.88
653.377	110.88
653.581	112.88
653.785	109.88
653.99	126.88
654.194	121.88
654.398	108.88
654.602	116.88
654.806	114.88
655.01	122.88
655.214	124.88
655.418	125.88
655.622	120.88
655.826	111.88
656.03	120.88
656.234	116.88
656.438	119.88
656.642	130.88
656.846	132.88
657.049	117.88
657.253	121.88
657.457	117.88
657.661	106.88
657.865	112.88
658.068	96.88
658.272	103.88
658.476	103.88
658.68	95.88
658.883	105.88
659.087	98.88
659.291	104.88
659.494	85.88
659.698	86.88
659.901	88.88
660.105	90.88
660.309	82.88
660.512	78.88
660.716	73.88
660.919	85.88
661.123	97.88
661.326	95.88
661.53	82.88
661.733	84.88
661.936	87.88
662.14	93.88
662.343	79.88
662.546	84.88
662.75	80.88
662.953	85.88
663.156	60.88
663.36	80.88
663.563	83.88
663.766	80.88
663.969	81.88
664.173	84.88
664.376	81.88
664.579	94.88
664.782	80.88
664.985	73.88
665.188	76.88
665.391	76.88
665.594	88.88
665.797	88.88
666	77.88
666.203	85.88
666.406	68.88
666.609	74.88
666.812	100.88
667.015	81.88
667.218	93.88
667.421	65.88
667.624	76.88
667.827	93.88
668.03	74.88
668.232	74.88
668.435	80.88
668.638	91.88
668.841	80.88
669.043	75.88
669.246	75.88
669.449	83.88
669.651	76.88
669.854	79.88
670.057	78.88
670.259	63.88
670.462	69.88
670.665	92.88
670.867	81.88
671.07	82.88
671.272	90.88
671.475	96.88
671.677	84.88
671.88	85.88
672.082	76.88
672.284	72.88
672.487	71.88
672.689	74.88
672.892	82.88
