Data from 1983.PennyLincolnUp.Lamp.En5.5.200Scan.071819.P1_HRD10591_16-54-43-966.txt Node
Date: Thu Jul 18 16:54:43 EDT 2019
User: cochatt
Spectrometer: HR+D1059
Trigger mode: 1
Integration Time (sec): 1.000000E-1
Scans to average: 1
Electric dark correction enabled: true
Nonlinearity correction enabled: false
Boxcar width: 0
XAxis mode: Wavelengths
Number of Pixels in Spectrum: 2048
>>>>>Begin Spectral Data<<<<<
223.165	-2.94
223.4	-2.94
223.635	-2.94
223.869	-8.94
224.104	-7.94
224.338	-7.94
224.573	-30.94
224.808	-2.94
225.042	-4.94
225.277	-1.94
225.511	-12.94
225.746	3.06
225.98	-12.94
226.215	15.06
226.449	6.06
226.683	16.06
226.918	36.06
227.152	18.06
227.387	21.06
227.621	47.06
227.856	42.06
228.09	59.06
228.324	32.06
228.559	53.06
228.793	59.06
229.027	84.06
229.262	98.06
229.496	126.06
229.73	135.06
229.964	139.06
230.199	128.06
230.433	106.06
230.667	107.06
230.901	98.06
231.136	103.06
231.37	119.06
231.604	99.06
231.838	114.06
232.072	108.06
232.306	122.06
232.541	112.06
232.775	121.06
233.009	107.06
233.243	114.06
233.477	107.06
233.711	111.06
233.945	110.06
234.179	121.06
234.413	119.06
234.647	112.06
234.881	121.06
235.115	131.06
235.349	127.06
235.583	122.06
235.817	110.06
236.051	117.06
236.285	119.06
236.519	127.06
236.753	110.06
236.987	141.06
237.221	185.06
237.455	213.06
237.689	167.06
237.922	133.06
238.156	132.06
238.39	137.06
238.624	127.06
238.858	130.06
239.091	128.06
239.325	119.06
239.559	109.06
239.793	126.06
240.027	141.06
240.26	153.06
240.494	151.06
240.728	154.06
240.961	142.06
241.195	137.06
241.429	146.06
241.662	143.06
241.896	127.06
242.13	138.06
242.363	141.06
242.597	124.06
242.83	145.06
243.064	128.06
243.298	121.06
243.531	140.06
243.765	140.06
243.998	148.06
244.232	132.06
244.465	131.06
244.699	145.06
244.932	129.06
245.166	140.06
245.399	136.06
245.633	139.06
245.866	145.06
246.099	135.06
246.333	151.06
246.566	133.06
246.8	142.06
247.033	154.06
247.266	144.06
247.5	141.06
247.733	165.06
247.966	169.06
248.2	174.06
248.433	177.06
248.666	182.06
248.899	174.06
249.133	200.06
249.366	191.06
249.599	186.06
249.832	182.06
250.066	177.06
250.299	172.06
250.532	185.06
250.765	185.06
250.998	213.06
251.231	208.06
251.465	212.06
251.698	197.06
251.931	188.06
252.164	202.06
252.397	198.06
252.63	190.06
252.863	190.06
253.096	202.06
253.329	217.06
253.562	206.06
253.795	201.06
254.028	200.06
254.261	221.06
254.494	222.06
254.727	229.06
254.96	258.06
255.193	265.06
255.426	242.06
255.659	222.06
255.892	227.06
256.124	223.06
256.357	240.06
256.59	228.06
256.823	215.06
257.056	213.06
257.289	205.06
257.521	204.06
257.754	194.06
257.987	208.06
258.22	190.06
258.452	202.06
258.685	197.06
258.918	188.06
259.151	200.06
259.383	189.06
259.616	220.06
259.849	218.06
260.081	232.06
260.314	241.06
260.547	245.06
260.779	231.06
261.012	206.06
261.244	204.06
261.477	232.06
261.71	210.06
261.942	223.06
262.175	233.06
262.407	231.06
262.64	217.06
262.872	199.06
263.105	204.06
263.337	189.06
263.57	205.06
263.802	214.06
264.035	206.06
264.267	198.06
264.499	195.06
264.732	203.06
264.964	204.06
265.197	199.06
265.429	204.06
265.661	210.06
265.894	204.06
266.126	206.06
266.358	205.06
266.591	206.06
266.823	203.06
267.055	220.06
267.287	201.06
267.52	193.06
267.752	217.06
267.984	211.06
268.216	230.06
268.448	226.06
268.681	231.06
268.913	229.06
269.145	239.06
269.377	257.06
269.609	279.06
269.841	264.06
270.073	259.06
270.306	280.06
270.538	281.06
270.77	291.06
271.002	272.06
271.234	287.06
271.466	304.06
271.698	288.06
271.93	298.06
272.162	303.06
272.394	306.06
272.626	297.06
272.858	274.06
273.09	272.06
273.322	247.06
273.553	238.06
273.785	264.06
274.017	253.06
274.249	251.06
274.481	257.06
274.713	254.06
274.945	261.06
275.176	250.06
275.408	256.06
275.64	250.06
275.872	257.06
276.104	265.06
276.335	250.06
276.567	273.06
276.799	284.06
277.031	286.06
277.262	291.06
277.494	314.06
277.726	300.06
277.957	269.06
278.189	255.06
278.421	241.06
278.652	250.06
278.884	281.06
279.115	240.06
279.347	247.06
279.579	253.06
279.81	251.06
280.042	251.06
280.273	271.06
280.505	256.06
280.736	235.06
280.968	255.06
281.199	251.06
281.431	234.06
281.662	258.06
281.894	244.06
282.125	263.06
282.356	257.06
282.588	295.06
282.819	300.06
283.051	271.06
283.282	253.06
283.513	249.06
283.745	285.06
283.976	270.06
284.207	271.06
284.439	273.06
284.67	277.06
284.901	272.06
285.132	280.06
285.364	253.06
285.595	281.06
285.826	257.06
286.057	272.06
286.288	261.06
286.52	275.06
286.751	263.06
286.982	278.06
287.213	281.06
287.444	259.06
287.675	275.06
287.906	286.06
288.138	285.06
288.369	282.06
288.6	267.06
288.831	281.06
289.062	280.06
289.293	260.06
289.524	274.06
289.755	252.06
289.986	253.06
290.217	258.06
290.448	261.06
290.679	278.06
290.91	275.06
291.141	254.06
291.371	265.06
291.602	263.06
291.833	267.06
292.064	250.06
292.295	278.06
292.526	279.06
292.757	268.06
292.987	274.06
293.218	282.06
293.449	267.06
293.68	261.06
293.91	273.06
294.141	270.06
294.372	270.06
294.603	274.06
294.833	282.06
295.064	281.06
295.295	288.06
295.525	293.06
295.756	297.06
295.987	292.06
296.217	315.06
296.448	311.06
296.679	288.06
296.909	263.06
297.14	282.06
297.37	280.06
297.601	282.06
297.831	275.06
298.062	263.06
298.292	265.06
298.523	279.06
298.753	274.06
298.984	269.06
299.214	271.06
299.445	293.06
299.675	281.06
299.905	294.06
300.136	297.06
300.366	282.06
300.597	285.06
300.827	309.06
301.057	313.06
301.288	328.06
301.518	295.06
301.748	289.06
301.979	313.06
302.209	322.06
302.439	301.06
302.669	288.06
302.9	313.06
303.13	307.06
303.36	303.06
303.59	309.06
303.82	318.06
304.051	317.06
304.281	298.06
304.511	281.06
304.741	294.06
304.971	309.06
305.201	313.06
305.431	313.06
305.661	327.06
305.891	305.06
306.121	323.06
306.352	306.06
306.582	313.06
306.812	313.06
307.042	301.06
307.272	310.06
307.502	315.06
307.731	309.06
307.961	306.06
308.191	322.06
308.421	302.06
308.651	305.06
308.881	328.06
309.111	314.06
309.341	331.06
309.571	332.06
309.8	335.06
310.03	330.06
310.26	350.06
310.49	352.06
310.72	364.06
310.949	385.06
311.179	384.06
311.409	375.06
311.639	357.06
311.868	379.06
312.098	371.06
312.328	360.06
312.557	367.06
312.787	387.06
313.017	386.06
313.246	370.06
313.476	354.06
313.706	346.06
313.935	361.06
314.165	373.06
314.394	382.06
314.624	363.06
314.853	359.06
315.083	351.06
315.312	335.06
315.542	342.06
315.771	329.06
316.001	325.06
316.23	343.06
316.46	364.06
316.689	373.06
316.919	367.06
317.148	377.06
317.377	368.06
317.607	359.06
317.836	362.06
318.065	369.06
318.295	358.06
318.524	345.06
318.753	347.06
318.983	369.06
319.212	350.06
319.441	357.06
319.67	377.06
319.9	370.06
320.129	357.06
320.358	364.06
320.587	376.06
320.816	389.06
321.046	374.06
321.275	379.06
321.504	378.06
321.733	390.06
321.962	404.06
322.191	403.06
322.42	403.06
322.649	411.06
322.878	445.06
323.108	455.06
323.337	474.06
323.566	488.06
323.795	513.06
324.024	601.06
324.253	714.06
324.482	1008.06
324.71	1494.06
324.939	2062.06
325.168	1647.06
325.397	915.06
325.626	641.06
325.855	536.06
326.084	478.06
326.313	473.06
326.542	503.06
326.77	553.06
326.999	653.06
327.228	902.06
327.457	1319.06
327.686	1486.06
327.914	1021.06
328.143	701.06
328.372	626.06
328.6	583.06
328.829	527.06
329.058	586.06
329.287	571.06
329.515	542.06
329.744	494.06
329.972	504.06
330.201	539.06
330.43	589.06
330.658	594.06
330.887	594.06
331.115	584.06
331.344	505.06
331.572	480.06
331.801	480.06
332.03	463.06
332.258	459.06
332.486	434.06
332.715	430.06
332.943	423.06
333.172	423.06
333.4	443.06
333.629	435.06
333.857	433.06
334.085	450.06
334.314	493.06
334.542	531.06
334.771	529.06
334.999	471.06
335.227	471.06
335.455	452.06
335.684	434.06
335.912	422.06
336.14	425.06
336.369	407.06
336.597	434.06
336.825	445.06
337.053	422.06
337.281	418.06
337.51	410.06
337.738	424.06
337.966	412.06
338.194	415.06
338.422	420.06
338.65	399.06
338.878	403.06
339.106	406.06
339.334	409.06
339.562	398.06
339.79	393.06
340.018	398.06
340.246	407.06
340.474	410.06
340.702	411.06
340.93	394.06
341.158	381.06
341.386	412.06
341.614	417.06
341.842	381.06
342.07	394.06
342.298	398.06
342.526	371.06
342.754	389.06
342.981	391.06
343.209	374.06
343.437	400.06
343.665	387.06
343.893	402.06
344.12	406.06
344.348	406.06
344.576	370.06
344.804	413.06
345.031	391.06
345.259	415.06
345.487	412.06
345.714	399.06
345.942	383.06
346.17	386.06
346.397	378.06
346.625	389.06
346.853	377.06
347.08	390.06
347.308	409.06
347.535	392.06
347.763	381.06
347.99	402.06
348.218	407.06
348.445	408.06
348.673	401.06
348.9	376.06
349.128	381.06
349.355	373.06
349.583	362.06
349.81	370.06
350.037	384.06
350.265	368.06
350.492	377.06
350.72	388.06
350.947	381.06
351.174	381.06
351.402	396.06
351.629	389.06
351.856	397.06
352.083	394.06
352.311	417.06
352.538	401.06
352.765	421.06
352.992	391.06
353.22	398.06
353.447	384.06
353.674	370.06
353.901	379.06
354.128	379.06
354.355	354.06
354.583	355.06
354.81	357.06
355.037	362.06
355.264	355.06
355.491	355.06
355.718	356.06
355.945	356.06
356.172	339.06
356.399	357.06
356.626	339.06
356.853	355.06
357.08	358.06
357.307	341.06
357.534	359.06
357.761	344.06
357.988	364.06
358.215	367.06
358.441	364.06
358.668	359.06
358.895	369.06
359.122	373.06
359.349	395.06
359.576	378.06
359.802	418.06
360.029	439.06
360.256	452.06
360.483	423.06
360.709	409.06
360.936	385.06
361.163	397.06
361.39	382.06
361.616	397.06
361.843	383.06
362.07	391.06
362.296	382.06
362.523	392.06
362.749	380.06
362.976	375.06
363.203	382.06
363.429	367.06
363.656	398.06
363.882	367.06
364.109	366.06
364.335	383.06
364.562	379.06
364.788	361.06
365.015	359.06
365.241	356.06
365.468	359.06
365.694	389.06
365.92	384.06
366.147	370.06
366.373	366.06
366.599	347.06
366.826	350.06
367.052	369.06
367.278	362.06
367.505	357.06
367.731	357.06
367.957	364.06
368.184	354.06
368.41	358.06
368.636	397.06
368.862	363.06
369.089	389.06
369.315	362.06
369.541	367.06
369.767	358.06
369.993	377.06
370.219	379.06
370.445	355.06
370.672	361.06
370.898	349.06
371.124	350.06
371.35	365.06
371.576	367.06
371.802	346.06
372.028	375.06
372.254	346.06
372.48	351.06
372.706	357.06
372.932	361.06
373.158	380.06
373.384	382.06
373.61	372.06
373.835	379.06
374.061	367.06
374.287	357.06
374.513	360.06
374.739	367.06
374.965	384.06
375.191	359.06
375.416	361.06
375.642	359.06
375.868	362.06
376.094	361.06
376.319	354.06
376.545	364.06
376.771	362.06
376.997	350.06
377.222	346.06
377.448	365.06
377.674	345.06
377.899	349.06
378.125	328.06
378.35	361.06
378.576	349.06
378.802	343.06
379.027	368.06
379.253	334.06
379.478	354.06
379.704	354.06
379.929	358.06
380.155	347.06
380.38	337.06
380.606	355.06
380.831	357.06
381.057	362.06
381.282	357.06
381.507	362.06
381.733	366.06
381.958	373.06
382.184	359.06
382.409	357.06
382.634	360.06
382.86	370.06
383.085	360.06
383.31	376.06
383.535	352.06
383.761	361.06
383.986	361.06
384.211	371.06
384.436	376.06
384.662	369.06
384.887	383.06
385.112	370.06
385.337	375.06
385.562	371.06
385.787	380.06
386.013	381.06
386.238	382.06
386.463	402.06
386.688	382.06
386.913	389.06
387.138	367.06
387.363	381.06
387.588	389.06
387.813	395.06
388.038	371.06
388.263	381.06
388.488	380.06
388.713	383.06
388.938	386.06
389.163	372.06
389.387	380.06
389.612	377.06
389.837	380.06
390.062	394.06
390.287	375.06
390.512	398.06
390.736	385.06
390.961	401.06
391.186	367.06
391.411	381.06
391.636	392.06
391.86	408.06
392.085	380.06
392.31	376.06
392.534	389.06
392.759	410.06
392.984	393.06
393.208	383.06
393.433	355.06
393.658	383.06
393.882	357.06
394.107	366.06
394.331	397.06
394.556	363.06
394.78	387.06
395.005	383.06
395.229	382.06
395.454	402.06
395.678	388.06
395.903	398.06
396.127	414.06
396.352	403.06
396.576	410.06
396.801	394.06
397.025	374.06
397.249	394.06
397.474	382.06
397.698	411.06
397.922	399.06
398.147	416.06
398.371	416.06
398.595	430.06
398.82	427.06
399.044	408.06
399.268	435.06
399.492	477.06
399.717	487.06
399.941	513.06
400.165	505.06
400.389	514.06
400.613	478.06
400.837	449.06
401.062	445.06
401.286	441.06
401.51	417.06
401.734	432.06
401.958	424.06
402.182	442.06
402.406	444.06
402.63	456.06
402.854	458.06
403.078	422.06
403.302	463.06
403.526	425.06
403.75	459.06
403.974	437.06
404.198	422.06
404.422	461.06
404.645	473.06
404.869	463.06
405.093	471.06
405.317	513.06
405.541	546.06
405.765	512.06
405.988	476.06
406.212	486.06
406.436	525.06
406.66	532.06
406.883	511.06
407.107	525.06
407.331	527.06
407.555	595.06
407.778	567.06
408.002	546.06
408.226	508.06
408.449	479.06
408.673	471.06
408.896	507.06
409.12	515.06
409.344	496.06
409.567	463.06
409.791	446.06
410.014	410.06
410.238	430.06
410.461	436.06
410.685	477.06
410.908	469.06
411.132	479.06
411.355	512.06
411.578	491.06
411.802	439.06
412.025	424.06
412.249	435.06
412.472	481.06
412.695	507.06
412.919	498.06
413.142	469.06
413.365	441.06
413.589	439.06
413.812	414.06
414.035	425.06
414.258	439.06
414.482	418.06
414.705	409.06
414.928	441.06
415.151	414.06
415.374	429.06
415.597	425.06
415.821	408.06
416.044	430.06
416.267	423.06
416.49	434.06
416.713	404.06
416.936	423.06
417.159	432.06
417.382	414.06
417.605	432.06
417.828	436.06
418.051	437.06
418.274	445.06
418.497	440.06
418.72	416.06
418.943	426.06
419.166	434.06
419.389	446.06
419.611	446.06
419.834	464.06
420.057	455.06
420.28	430.06
420.503	439.06
420.726	453.06
420.948	451.06
421.171	491.06
421.394	498.06
421.617	461.06
421.839	438.06
422.062	433.06
422.285	455.06
422.507	509.06
422.73	540.06
422.953	544.06
423.175	479.06
423.398	479.06
423.621	462.06
423.843	475.06
424.066	467.06
424.288	470.06
424.511	480.06
424.733	529.06
424.956	588.06
425.178	565.06
425.401	591.06
425.623	580.06
425.846	496.06
426.068	478.06
426.291	482.06
426.513	462.06
426.735	482.06
426.958	517.06
427.18	576.06
427.402	663.06
427.625	747.06
427.847	695.06
428.069	585.06
428.292	526.06
428.514	492.06
428.736	461.06
428.958	447.06
429.181	442.06
429.403	445.06
429.625	456.06
429.847	462.06
430.069	539.06
430.292	535.06
430.514	447.06
430.736	455.06
430.958	426.06
431.18	425.06
431.402	416.06
431.624	426.06
431.846	411.06
432.068	404.06
432.29	407.06
432.512	400.06
432.734	441.06
432.956	430.06
433.178	421.06
433.4	434.06
433.622	424.06
433.844	406.06
434.066	403.06
434.287	419.06
434.509	400.06
434.731	429.06
434.953	441.06
435.175	424.06
435.397	462.06
435.618	471.06
435.84	502.06
436.062	579.06
436.284	647.06
436.505	535.06
436.727	487.06
436.949	456.06
437.17	444.06
437.392	444.06
437.614	434.06
437.835	496.06
438.057	576.06
438.278	648.06
438.5	643.06
438.721	689.06
438.943	644.06
439.165	521.06
439.386	515.06
439.608	517.06
439.829	480.06
440.05	544.06
440.272	545.06
440.493	493.06
440.715	472.06
440.936	457.06
441.158	425.06
441.379	453.06
441.6	478.06
441.822	470.06
442.043	541.06
442.264	572.06
442.486	591.06
442.707	527.06
442.928	505.06
443.149	509.06
443.371	520.06
443.592	561.06
443.813	612.06
444.034	671.06
444.255	578.06
444.476	501.06
444.698	489.06
444.919	488.06
445.14	590.06
445.361	533.06
445.582	534.06
445.803	575.06
446.024	669.06
446.245	659.06
446.466	594.06
446.687	501.06
446.908	461.06
447.129	460.06
447.35	452.06
447.571	442.06
447.792	448.06
448.013	445.06
448.234	463.06
448.455	525.06
448.675	606.06
448.896	674.06
449.117	595.06
449.338	557.06
449.559	620.06
449.779	697.06
450	583.06
450.221	488.06
450.442	456.06
450.662	428.06
450.883	462.06
451.104	465.06
451.324	459.06
451.545	439.06
451.766	419.06
451.986	419.06
452.207	414.06
452.428	408.06
452.648	397.06
452.869	414.06
453.089	414.06
453.31	424.06
453.53	402.06
453.751	413.06
453.971	403.06
454.192	433.06
454.412	413.06
454.633	406.06
454.853	394.06
455.073	413.06
455.294	415.06
455.514	465.06
455.734	483.06
455.955	395.06
456.175	395.06
456.395	403.06
456.616	368.06
456.836	375.06
457.056	381.06
457.276	345.06
457.497	384.06
457.717	364.06
457.937	376.06
458.157	377.06
458.377	374.06
458.598	425.06
458.818	468.06
459.038	531.06
459.258	534.06
459.478	451.06
459.698	429.06
459.918	429.06
460.138	427.06
460.358	439.06
460.578	422.06
460.798	395.06
461.018	414.06
461.238	414.06
461.458	439.06
461.678	423.06
461.898	407.06
462.118	411.06
462.338	435.06
462.558	430.06
462.777	426.06
462.997	433.06
463.217	435.06
463.437	465.06
463.657	411.06
463.876	431.06
464.096	445.06
464.316	461.06
464.536	445.06
464.755	446.06
464.975	450.06
465.195	507.06
465.414	580.06
465.634	501.06
465.854	462.06
466.073	419.06
466.293	432.06
466.512	423.06
466.732	421.06
466.951	423.06
467.171	423.06
467.391	411.06
467.61	415.06
467.829	414.06
468.049	410.06
468.268	413.06
468.488	408.06
468.707	396.06
468.927	409.06
469.146	377.06
469.365	414.06
469.585	405.06
469.804	418.06
470.023	432.06
470.243	421.06
470.462	432.06
470.681	457.06
470.901	437.06
471.12	424.06
471.339	412.06
471.558	402.06
471.777	408.06
471.997	409.06
472.216	420.06
472.435	463.06
472.654	453.06
472.873	414.06
473.092	421.06
473.311	400.06
473.53	406.06
473.749	425.06
473.968	463.06
474.187	522.06
474.406	555.06
474.625	442.06
474.844	414.06
475.063	422.06
475.282	427.06
475.501	430.06
475.72	409.06
475.939	421.06
476.158	430.06
476.377	433.06
476.596	424.06
476.814	440.06
477.033	431.06
477.252	434.06
477.471	437.06
477.69	445.06
477.908	442.06
478.127	459.06
478.346	448.06
478.564	449.06
478.783	475.06
479.002	461.06
479.22	471.06
479.439	505.06
479.658	515.06
479.876	493.06
480.095	478.06
480.313	507.06
480.532	496.06
480.751	501.06
480.969	524.06
481.188	581.06
481.406	635.06
481.624	545.06
481.843	524.06
482.061	511.06
482.28	504.06
482.498	484.06
482.717	491.06
482.935	496.06
483.153	501.06
483.372	471.06
483.59	486.06
483.808	476.06
484.027	471.06
484.245	497.06
484.463	494.06
484.681	493.06
484.9	509.06
485.118	498.06
485.336	496.06
485.554	490.06
485.772	477.06
485.99	481.06
486.209	488.06
486.427	505.06
486.645	532.06
486.863	549.06
487.081	532.06
487.299	529.06
487.517	524.06
487.735	528.06
487.953	538.06
488.171	522.06
488.389	516.06
488.607	527.06
488.825	508.06
489.043	537.06
489.261	521.06
489.479	536.06
489.696	538.06
489.914	523.06
490.132	551.06
490.35	558.06
490.568	550.06
490.786	562.06
491.003	584.06
491.221	604.06
491.439	583.06
491.657	606.06
491.874	595.06
492.092	610.06
492.31	611.06
492.527	617.06
492.745	629.06
492.963	605.06
493.18	624.06
493.398	636.06
493.615	626.06
493.833	579.06
494.05	656.06
494.268	607.06
494.485	634.06
494.703	615.06
494.92	625.06
495.138	610.06
495.355	616.06
495.573	645.06
495.79	623.06
496.008	638.06
496.225	613.06
496.442	603.06
496.66	624.06
496.877	617.06
497.094	641.06
497.312	616.06
497.529	645.06
497.746	642.06
497.963	638.06
498.181	651.06
498.398	669.06
498.615	664.06
498.832	679.06
499.049	680.06
499.267	679.06
499.484	704.06
499.701	738.06
499.918	731.06
500.135	782.06
500.352	797.06
500.569	804.06
500.786	807.06
501.003	803.06
501.22	797.06
501.437	775.06
501.654	767.06
501.871	747.06
502.088	737.06
502.305	688.06
502.522	686.06
502.739	667.06
502.956	639.06
503.172	635.06
503.389	654.06
503.606	639.06
503.823	635.06
504.04	615.06
504.256	619.06
504.473	619.06
504.69	612.06
504.907	615.06
505.123	594.06
505.34	589.06
505.557	586.06
505.773	598.06
505.99	586.06
506.207	590.06
506.423	571.06
506.64	595.06
506.856	581.06
507.073	592.06
507.289	561.06
507.506	567.06
507.722	609.06
507.939	612.06
508.155	592.06
508.372	587.06
508.588	571.06
508.805	567.06
509.021	574.06
509.238	586.06
509.454	584.06
509.67	574.06
509.887	571.06
510.103	578.06
510.319	586.06
510.536	654.06
510.752	1206.06
510.968	935.06
511.184	602.06
511.401	571.06
511.617	557.06
511.833	548.06
512.049	539.06
512.265	552.06
512.481	532.06
512.698	551.06
512.914	529.06
513.13	523.06
513.346	542.06
513.562	545.06
513.778	551.06
513.994	556.06
514.21	542.06
514.426	595.06
514.642	634.06
514.858	653.06
515.074	693.06
515.29	872.06
515.506	1327.06
515.721	1071.06
515.937	685.06
516.153	632.06
516.369	559.06
516.585	570.06
516.801	566.06
517.016	565.06
517.232	516.06
517.448	556.06
517.664	568.06
517.879	560.06
518.095	552.06
518.311	540.06
518.527	539.06
518.742	531.06
518.958	537.06
519.173	543.06
519.389	538.06
519.605	546.06
519.82	539.06
520.036	565.06
520.251	586.06
520.467	621.06
520.682	601.06
520.898	622.06
521.113	641.06
521.329	691.06
521.544	774.06
521.76	1050.06
521.975	1795.06
522.19	1734.06
522.406	904.06
522.621	677.06
522.836	584.06
523.052	536.06
523.267	524.06
523.482	515.06
523.698	503.06
523.913	521.06
524.128	493.06
524.343	488.06
524.559	480.06
524.774	468.06
524.989	511.06
525.204	448.06
525.419	467.06
525.634	448.06
525.849	439.06
526.064	451.06
526.28	433.06
526.495	455.06
526.71	437.06
526.925	427.06
527.14	441.06
527.355	418.06
527.57	438.06
527.785	440.06
527.999	430.06
528.214	427.06
528.429	430.06
528.644	430.06
528.859	418.06
529.074	451.06
529.289	466.06
529.503	546.06
529.718	527.06
529.933	470.06
530.148	454.06
530.363	461.06
530.577	438.06
530.792	424.06
531.007	420.06
531.221	394.06
531.436	392.06
531.651	411.06
531.865	421.06
532.08	416.06
532.295	425.06
532.509	402.06
532.724	400.06
532.938	394.06
533.153	417.06
533.367	393.06
533.582	404.06
533.796	418.06
534.011	406.06
534.225	413.06
534.44	385.06
534.654	403.06
534.868	411.06
535.083	407.06
535.297	400.06
535.511	411.06
535.726	414.06
535.94	423.06
536.154	403.06
536.369	402.06
536.583	418.06
536.797	409.06
537.011	376.06
537.225	388.06
537.44	380.06
537.654	400.06
537.868	399.06
538.082	384.06
538.296	382.06
538.51	410.06
538.724	412.06
538.938	397.06
539.153	401.06
539.367	414.06
539.581	423.06
539.795	402.06
540.009	391.06
540.222	395.06
540.436	397.06
540.65	402.06
540.864	401.06
541.078	384.06
541.292	411.06
541.506	397.06
541.72	398.06
541.934	365.06
542.147	384.06
542.361	391.06
542.575	404.06
542.789	394.06
543.002	411.06
543.216	392.06
543.43	402.06
543.644	400.06
543.857	403.06
544.071	386.06
544.285	403.06
544.498	395.06
544.712	387.06
544.925	385.06
545.139	400.06
545.352	392.06
545.566	381.06
545.779	379.06
545.993	378.06
546.206	363.06
546.42	378.06
546.633	382.06
546.847	387.06
547.06	370.06
547.274	377.06
547.487	367.06
547.7	367.06
547.914	395.06
548.127	378.06
548.34	364.06
548.554	385.06
548.767	379.06
548.98	373.06
549.193	374.06
549.407	373.06
549.62	360.06
549.833	365.06
550.046	368.06
550.259	357.06
550.473	354.06
550.686	377.06
550.899	370.06
551.112	361.06
551.325	370.06
551.538	375.06
551.751	361.06
551.964	347.06
552.177	363.06
552.39	350.06
552.603	366.06
552.816	359.06
553.029	371.06
553.242	383.06
553.455	368.06
553.667	385.06
553.88	383.06
554.093	381.06
554.306	378.06
554.519	376.06
554.732	365.06
554.944	350.06
555.157	360.06
555.37	346.06
555.583	354.06
555.795	360.06
556.008	345.06
556.221	339.06
556.433	355.06
556.646	336.06
556.859	339.06
557.071	336.06
557.284	344.06
557.496	319.06
557.709	341.06
557.921	326.06
558.134	353.06
558.346	343.06
558.559	327.06
558.771	326.06
558.984	331.06
559.196	340.06
559.409	318.06
559.621	328.06
559.833	339.06
560.046	339.06
560.258	313.06
560.47	325.06
560.683	343.06
560.895	315.06
561.107	323.06
561.32	329.06
561.532	310.06
561.744	311.06
561.956	316.06
562.168	334.06
562.381	327.06
562.593	335.06
562.805	341.06
563.017	331.06
563.229	333.06
563.441	338.06
563.653	309.06
563.865	330.06
564.077	332.06
564.289	323.06
564.501	330.06
564.713	326.06
564.925	322.06
565.137	334.06
565.349	341.06
565.561	343.06
565.773	367.06
565.985	357.06
566.197	358.06
566.408	362.06
566.62	370.06
566.832	375.06
567.044	389.06
567.255	379.06
567.467	385.06
567.679	369.06
567.891	407.06
568.102	425.06
568.314	381.06
568.526	383.06
568.737	366.06
568.949	343.06
569.161	345.06
569.372	340.06
569.584	330.06
569.795	323.06
570.007	326.06
570.218	378.06
570.43	377.06
570.641	321.06
570.853	319.06
571.064	296.06
571.276	313.06
571.487	304.06
571.698	327.06
571.91	305.06
572.121	315.06
572.333	282.06
572.544	303.06
572.755	306.06
572.966	301.06
573.178	286.06
573.389	296.06
573.6	291.06
573.811	277.06
574.023	275.06
574.234	279.06
574.445	281.06
574.656	296.06
574.867	287.06
575.078	302.06
575.289	274.06
575.501	278.06
575.712	280.06
575.923	290.06
576.134	279.06
576.345	284.06
576.556	284.06
576.767	269.06
576.978	287.06
577.188	280.06
577.399	263.06
577.61	263.06
577.821	257.06
578.032	263.06
578.243	325.06
578.454	574.06
578.665	389.06
578.875	287.06
579.086	283.06
579.297	285.06
579.508	293.06
579.718	281.06
579.929	258.06
580.14	259.06
580.35	257.06
580.561	250.06
580.772	261.06
580.982	258.06
581.193	271.06
581.403	272.06
581.614	239.06
581.825	249.06
582.035	253.06
582.246	245.06
582.456	260.06
582.667	249.06
582.877	256.06
583.087	236.06
583.298	247.06
583.508	267.06
583.719	244.06
583.929	263.06
584.139	247.06
584.35	246.06
584.56	249.06
584.77	236.06
584.981	263.06
585.191	266.06
585.401	248.06
585.611	246.06
585.821	250.06
586.032	255.06
586.242	235.06
586.452	261.06
586.662	257.06
586.872	241.06
587.082	226.06
587.292	257.06
587.502	255.06
587.713	251.06
587.923	247.06
588.133	240.06
588.343	269.06
588.553	250.06
588.762	249.06
588.972	261.06
589.182	250.06
589.392	244.06
589.602	256.06
589.812	263.06
590.022	261.06
590.232	238.06
590.441	236.06
590.651	265.06
590.861	240.06
591.071	233.06
591.281	253.06
591.49	263.06
591.7	250.06
591.91	254.06
592.119	243.06
592.329	242.06
592.539	272.06
592.748	266.06
592.958	249.06
593.167	259.06
593.377	259.06
593.587	263.06
593.796	266.06
594.006	262.06
594.215	243.06
594.424	266.06
594.634	230.06
594.843	242.06
595.053	263.06
595.262	237.06
595.472	237.06
595.681	231.06
595.89	258.06
596.1	241.06
596.309	243.06
596.518	234.06
596.727	234.06
596.937	223.06
597.146	222.06
597.355	221.06
597.564	218.06
597.774	219.06
597.983	231.06
598.192	228.06
598.401	216.06
598.61	201.06
598.819	215.06
599.028	218.06
599.237	232.06
599.446	239.06
599.655	245.06
599.864	226.06
600.073	214.06
600.282	225.06
600.491	221.06
600.7	222.06
600.909	225.06
601.118	222.06
601.327	218.06
601.536	208.06
601.745	213.06
601.953	220.06
602.162	222.06
602.371	198.06
602.58	202.06
602.789	219.06
602.997	210.06
603.206	216.06
603.415	212.06
603.623	210.06
603.832	217.06
604.041	213.06
604.249	215.06
604.458	192.06
604.666	215.06
604.875	205.06
605.084	200.06
605.292	220.06
605.501	217.06
605.709	197.06
605.918	216.06
606.126	219.06
606.334	191.06
606.543	229.06
606.751	213.06
606.96	214.06
607.168	207.06
607.376	209.06
607.585	228.06
607.793	221.06
608.001	208.06
608.21	211.06
608.418	201.06
608.626	200.06
608.834	204.06
609.043	209.06
609.251	190.06
609.459	217.06
609.667	209.06
609.875	195.06
610.083	191.06
610.291	213.06
610.499	198.06
610.707	216.06
610.916	184.06
611.124	218.06
611.332	202.06
611.54	215.06
611.748	215.06
611.955	201.06
612.163	206.06
612.371	210.06
612.579	205.06
612.787	207.06
612.995	210.06
613.203	214.06
613.411	189.06
613.618	213.06
613.826	200.06
614.034	194.06
614.242	205.06
614.449	217.06
614.657	204.06
614.865	191.06
615.072	202.06
615.28	205.06
615.488	191.06
615.695	203.06
615.903	201.06
616.111	196.06
616.318	197.06
616.526	193.06
616.733	209.06
616.941	189.06
617.148	202.06
617.356	184.06
617.563	193.06
617.771	176.06
617.978	208.06
618.185	210.06
618.393	197.06
618.6	195.06
618.807	197.06
619.015	197.06
619.222	205.06
619.429	201.06
619.637	196.06
619.844	203.06
620.051	214.06
620.258	206.06
620.466	183.06
620.673	187.06
620.88	185.06
621.087	184.06
621.294	198.06
621.501	197.06
621.708	192.06
621.915	198.06
622.122	213.06
622.329	197.06
622.536	194.06
622.743	201.06
622.95	193.06
623.157	190.06
623.364	187.06
623.571	183.06
623.778	201.06
623.985	182.06
624.192	178.06
624.399	197.06
624.606	206.06
624.812	187.06
625.019	184.06
625.226	178.06
625.433	194.06
625.639	170.06
625.846	171.06
626.053	174.06
626.259	163.06
626.466	175.06
626.673	168.06
626.879	163.06
627.086	172.06
627.293	175.06
627.499	191.06
627.706	167.06
627.912	191.06
628.119	177.06
628.325	188.06
628.532	177.06
628.738	189.06
628.945	173.06
629.151	195.06
629.357	175.06
629.564	165.06
629.77	173.06
629.976	173.06
630.183	169.06
630.389	177.06
630.595	184.06
630.802	183.06
631.008	169.06
631.214	169.06
631.42	176.06
631.627	159.06
631.833	177.06
632.039	153.06
632.245	177.06
632.451	176.06
632.657	161.06
632.863	167.06
633.069	165.06
633.275	156.06
633.481	159.06
633.688	168.06
633.893	175.06
634.099	178.06
634.305	148.06
634.511	179.06
634.717	165.06
634.923	175.06
635.129	162.06
635.335	156.06
635.541	174.06
635.747	169.06
635.952	151.06
636.158	169.06
636.364	179.06
636.57	169.06
636.775	167.06
636.981	157.06
637.187	163.06
637.392	146.06
637.598	157.06
637.804	157.06
638.009	158.06
638.215	177.06
638.421	157.06
638.626	171.06
638.832	158.06
639.037	161.06
639.243	153.06
639.448	149.06
639.654	166.06
639.859	156.06
640.065	160.06
640.27	177.06
640.475	159.06
640.681	155.06
640.886	162.06
641.091	146.06
641.297	143.06
641.502	153.06
641.707	165.06
641.913	158.06
642.118	146.06
642.323	137.06
642.528	155.06
642.733	142.06
642.939	154.06
643.144	145.06
643.349	169.06
643.554	154.06
643.759	169.06
643.964	157.06
644.169	132.06
644.374	142.06
644.579	153.06
644.784	167.06
644.989	154.06
645.194	151.06
645.399	158.06
645.604	150.06
645.809	153.06
646.014	139.06
646.219	150.06
646.423	161.06
646.628	147.06
646.833	167.06
647.038	150.06
647.243	143.06
647.447	150.06
647.652	139.06
647.857	157.06
648.062	151.06
648.266	156.06
648.471	139.06
648.676	154.06
648.88	154.06
649.085	150.06
649.289	147.06
649.494	141.06
649.698	168.06
649.903	173.06
650.107	143.06
650.312	160.06
650.516	165.06
650.721	135.06
650.925	137.06
651.13	143.06
651.334	167.06
651.539	165.06
651.743	146.06
651.947	131.06
652.152	152.06
652.356	130.06
652.56	125.06
652.764	142.06
652.969	150.06
653.173	156.06
653.377	146.06
653.581	115.06
653.785	142.06
653.99	131.06
654.194	141.06
654.398	137.06
654.602	123.06
654.806	120.06
655.01	131.06
655.214	137.06
655.418	133.06
655.622	131.06
655.826	129.06
656.03	135.06
656.234	140.06
656.438	127.06
656.642	137.06
656.846	139.06
657.049	119.06
657.253	114.06
657.457	108.06
657.661	128.06
657.865	133.06
658.068	120.06
658.272	110.06
658.476	105.06
658.68	111.06
658.883	104.06
659.087	93.06
659.291	99.06
659.494	97.06
659.698	98.06
659.901	97.06
660.105	104.06
660.309	98.06
660.512	100.06
660.716	102.06
660.919	103.06
661.123	102.06
661.326	96.06
661.53	93.06
661.733	102.06
661.936	104.06
662.14	95.06
662.343	88.06
662.546	88.06
662.75	83.06
662.953	89.06
663.156	93.06
663.36	83.06
663.563	91.06
663.766	79.06
663.969	89.06
664.173	91.06
664.376	83.06
664.579	87.06
664.782	93.06
664.985	91.06
665.188	98.06
665.391	84.06
665.594	93.06
665.797	85.06
666	89.06
666.203	102.06
666.406	109.06
666.609	81.06
666.812	80.06
667.015	69.06
667.218	90.06
667.421	95.06
667.624	76.06
667.827	87.06
668.03	78.06
668.232	95.06
668.435	84.06
668.638	96.06
668.841	87.06
669.043	87.06
669.246	100.06
669.449	90.06
669.651	78.06
669.854	78.06
670.057	86.06
670.259	94.06
670.462	93.06
670.665	89.06
670.867	81.06
671.07	81.06
671.272	83.06
671.475	78.06
671.677	90.06
671.88	83.06
672.082	103.06
672.284	104.06
672.487	91.06
672.689	91.06
672.892	81.06
