Data from 1983.PennyLincolnUp.Lamp.En5.5.200Scan.071819.P1_HRD10591_16-54-06-965.txt Node
Date: Thu Jul 18 16:54:06 EDT 2019
User: cochatt
Spectrometer: HR+D1059
Trigger mode: 1
Integration Time (sec): 1.000000E-1
Scans to average: 1
Electric dark correction enabled: true
Nonlinearity correction enabled: false
Boxcar width: 0
XAxis mode: Wavelengths
Number of Pixels in Spectrum: 2048
>>>>>Begin Spectral Data<<<<<
223.165	-15.62
223.4	-15.62
223.635	-15.62
223.869	-21.62
224.104	-22.62
224.338	-9.62
224.573	-18.62
224.808	-15.62
225.042	-10.62
225.277	-4.62
225.511	-10.62
225.746	13.38
225.98	22.38
226.215	5.38
226.449	13.38
226.683	8.38
226.918	22.38
227.152	44.38
227.387	22.38
227.621	37.38
227.856	42.38
228.09	40.38
228.324	43.38
228.559	38.38
228.793	64.38
229.027	83.38
229.262	101.38
229.496	124.38
229.73	130.38
229.964	143.38
230.199	128.38
230.433	118.38
230.667	121.38
230.901	101.38
231.136	106.38
231.37	104.38
231.604	119.38
231.838	113.38
232.072	107.38
232.306	110.38
232.541	103.38
232.775	111.38
233.009	96.38
233.243	108.38
233.477	105.38
233.711	102.38
233.945	122.38
234.179	114.38
234.413	104.38
234.647	112.38
234.881	105.38
235.115	106.38
235.349	112.38
235.583	108.38
235.817	123.38
236.051	122.38
236.285	111.38
236.519	110.38
236.753	132.38
236.987	128.38
237.221	167.38
237.455	204.38
237.689	168.38
237.922	134.38
238.156	141.38
238.39	141.38
238.624	129.38
238.858	98.38
239.091	112.38
239.325	112.38
239.559	135.38
239.793	122.38
240.027	127.38
240.26	124.38
240.494	144.38
240.728	146.38
240.961	143.38
241.195	147.38
241.429	133.38
241.662	140.38
241.896	118.38
242.13	140.38
242.363	122.38
242.597	125.38
242.83	129.38
243.064	108.38
243.298	116.38
243.531	124.38
243.765	122.38
243.998	130.38
244.232	138.38
244.465	146.38
244.699	134.38
244.932	121.38
245.166	134.38
245.399	110.38
245.633	123.38
245.866	138.38
246.099	123.38
246.333	156.38
246.566	128.38
246.8	144.38
247.033	147.38
247.266	144.38
247.5	146.38
247.733	147.38
247.966	157.38
248.2	157.38
248.433	148.38
248.666	143.38
248.899	162.38
249.133	192.38
249.366	173.38
249.599	183.38
249.832	172.38
250.066	160.38
250.299	166.38
250.532	180.38
250.765	182.38
250.998	195.38
251.231	200.38
251.465	201.38
251.698	172.38
251.931	172.38
252.164	171.38
252.397	177.38
252.63	178.38
252.863	175.38
253.096	195.38
253.329	190.38
253.562	221.38
253.795	189.38
254.028	205.38
254.261	202.38
254.494	192.38
254.727	241.38
254.96	243.38
255.193	234.38
255.426	219.38
255.659	218.38
255.892	226.38
256.124	205.38
256.357	190.38
256.59	202.38
256.823	202.38
257.056	186.38
257.289	187.38
257.521	208.38
257.754	188.38
257.987	200.38
258.22	190.38
258.452	189.38
258.685	188.38
258.918	180.38
259.151	194.38
259.383	197.38
259.616	206.38
259.849	202.38
260.081	218.38
260.314	229.38
260.547	220.38
260.779	209.38
261.012	224.38
261.244	195.38
261.477	200.38
261.71	198.38
261.942	204.38
262.175	222.38
262.407	211.38
262.64	205.38
262.872	201.38
263.105	199.38
263.337	197.38
263.57	201.38
263.802	204.38
264.035	183.38
264.267	185.38
264.499	202.38
264.732	180.38
264.964	179.38
265.197	183.38
265.429	197.38
265.661	190.38
265.894	189.38
266.126	202.38
266.358	213.38
266.591	207.38
266.823	211.38
267.055	205.38
267.287	196.38
267.52	200.38
267.752	197.38
267.984	210.38
268.216	211.38
268.448	210.38
268.681	211.38
268.913	227.38
269.145	223.38
269.377	249.38
269.609	244.38
269.841	249.38
270.073	258.38
270.306	275.38
270.538	283.38
270.77	272.38
271.002	277.38
271.234	258.38
271.466	278.38
271.698	285.38
271.93	264.38
272.162	286.38
272.394	288.38
272.626	271.38
272.858	275.38
273.09	244.38
273.322	257.38
273.553	247.38
273.785	229.38
274.017	220.38
274.249	230.38
274.481	256.38
274.713	216.38
274.945	231.38
275.176	233.38
275.408	229.38
275.64	253.38
275.872	236.38
276.104	235.38
276.335	237.38
276.567	254.38
276.799	252.38
277.031	289.38
277.262	276.38
277.494	265.38
277.726	246.38
277.957	262.38
278.189	258.38
278.421	241.38
278.652	249.38
278.884	233.38
279.115	253.38
279.347	233.38
279.579	248.38
279.81	211.38
280.042	230.38
280.273	256.38
280.505	242.38
280.736	233.38
280.968	218.38
281.199	227.38
281.431	240.38
281.662	238.38
281.894	244.38
282.125	244.38
282.356	264.38
282.588	281.38
282.819	264.38
283.051	256.38
283.282	238.38
283.513	252.38
283.745	254.38
283.976	242.38
284.207	257.38
284.439	260.38
284.67	259.38
284.901	246.38
285.132	256.38
285.364	242.38
285.595	258.38
285.826	243.38
286.057	235.38
286.288	253.38
286.52	235.38
286.751	246.38
286.982	244.38
287.213	243.38
287.444	245.38
287.675	255.38
287.906	274.38
288.138	265.38
288.369	272.38
288.6	278.38
288.831	275.38
289.062	253.38
289.293	271.38
289.524	256.38
289.755	264.38
289.986	258.38
290.217	257.38
290.448	273.38
290.679	258.38
290.91	264.38
291.141	266.38
291.371	254.38
291.602	259.38
291.833	247.38
292.064	243.38
292.295	247.38
292.526	264.38
292.757	266.38
292.987	262.38
293.218	244.38
293.449	260.38
293.68	247.38
293.91	259.38
294.141	254.38
294.372	251.38
294.603	236.38
294.833	269.38
295.064	262.38
295.295	251.38
295.525	288.38
295.756	256.38
295.987	273.38
296.217	287.38
296.448	289.38
296.679	276.38
296.909	261.38
297.14	237.38
297.37	263.38
297.601	266.38
297.831	277.38
298.062	276.38
298.292	273.38
298.523	275.38
298.753	283.38
298.984	264.38
299.214	263.38
299.445	273.38
299.675	276.38
299.905	288.38
300.136	294.38
300.366	288.38
300.597	273.38
300.827	278.38
301.057	282.38
301.288	296.38
301.518	289.38
301.748	278.38
301.979	291.38
302.209	302.38
302.439	285.38
302.669	290.38
302.9	283.38
303.13	285.38
303.36	318.38
303.59	296.38
303.82	300.38
304.051	304.38
304.281	288.38
304.511	306.38
304.741	287.38
304.971	282.38
305.201	267.38
305.431	292.38
305.661	287.38
305.891	294.38
306.121	278.38
306.352	299.38
306.582	301.38
306.812	314.38
307.042	296.38
307.272	294.38
307.502	306.38
307.731	296.38
307.961	306.38
308.191	296.38
308.421	307.38
308.651	296.38
308.881	301.38
309.111	316.38
309.341	297.38
309.571	316.38
309.8	324.38
310.03	342.38
310.26	369.38
310.49	347.38
310.72	354.38
310.949	367.38
311.179	377.38
311.409	332.38
311.639	324.38
311.868	329.38
312.098	345.38
312.328	349.38
312.557	371.38
312.787	378.38
313.017	370.38
313.246	374.38
313.476	349.38
313.706	333.38
313.935	337.38
314.165	365.38
314.394	360.38
314.624	352.38
314.853	352.38
315.083	337.38
315.312	341.38
315.542	334.38
315.771	336.38
316.001	314.38
316.23	338.38
316.46	325.38
316.689	348.38
316.919	348.38
317.148	339.38
317.377	346.38
317.607	347.38
317.836	321.38
318.065	332.38
318.295	338.38
318.524	339.38
318.753	336.38
318.983	328.38
319.212	346.38
319.441	352.38
319.67	369.38
319.9	345.38
320.129	348.38
320.358	337.38
320.587	338.38
320.816	349.38
321.046	345.38
321.275	362.38
321.504	387.38
321.733	361.38
321.962	386.38
322.191	391.38
322.42	397.38
322.649	401.38
322.878	420.38
323.108	432.38
323.337	452.38
323.566	466.38
323.795	507.38
324.024	537.38
324.253	678.38
324.482	995.38
324.71	1501.38
324.939	1986.38
325.168	1629.38
325.397	894.38
325.626	590.38
325.855	510.38
326.084	503.38
326.313	450.38
326.542	480.38
326.77	518.38
326.999	626.38
327.228	892.38
327.457	1302.38
327.686	1484.38
327.914	999.38
328.143	689.38
328.372	592.38
328.6	569.38
328.829	538.38
329.058	566.38
329.287	553.38
329.515	476.38
329.744	462.38
329.972	466.38
330.201	485.38
330.43	498.38
330.658	553.38
330.887	566.38
331.115	553.38
331.344	484.38
331.572	430.38
331.801	429.38
332.03	428.38
332.258	424.38
332.486	404.38
332.715	400.38
332.943	406.38
333.172	396.38
333.4	397.38
333.629	410.38
333.857	416.38
334.085	394.38
334.314	444.38
334.542	467.38
334.771	458.38
334.999	446.38
335.227	414.38
335.455	389.38
335.684	386.38
335.912	386.38
336.14	389.38
336.369	396.38
336.597	384.38
336.825	403.38
337.053	387.38
337.281	379.38
337.51	386.38
337.738	406.38
337.966	386.38
338.194	404.38
338.422	391.38
338.65	383.38
338.878	386.38
339.106	358.38
339.334	373.38
339.562	376.38
339.79	363.38
340.018	370.38
340.246	366.38
340.474	388.38
340.702	396.38
340.93	379.38
341.158	369.38
341.386	369.38
341.614	377.38
341.842	371.38
342.07	384.38
342.298	383.38
342.526	384.38
342.754	358.38
342.981	358.38
343.209	343.38
343.437	376.38
343.665	364.38
343.893	387.38
344.12	363.38
344.348	376.38
344.576	390.38
344.804	400.38
345.031	392.38
345.259	396.38
345.487	375.38
345.714	374.38
345.942	372.38
346.17	359.38
346.397	346.38
346.625	368.38
346.853	374.38
347.08	366.38
347.308	362.38
347.535	368.38
347.763	368.38
347.99	386.38
348.218	392.38
348.445	371.38
348.673	388.38
348.9	382.38
349.128	358.38
349.355	361.38
349.583	369.38
349.81	357.38
350.037	363.38
350.265	350.38
350.492	369.38
350.72	350.38
350.947	368.38
351.174	390.38
351.402	378.38
351.629	388.38
351.856	372.38
352.083	382.38
352.311	404.38
352.538	401.38
352.765	370.38
352.992	370.38
353.22	345.38
353.447	366.38
353.674	353.38
353.901	340.38
354.128	355.38
354.355	362.38
354.583	354.38
354.81	348.38
355.037	330.38
355.264	352.38
355.491	339.38
355.718	340.38
355.945	352.38
356.172	338.38
356.399	342.38
356.626	331.38
356.853	332.38
357.08	331.38
357.307	343.38
357.534	332.38
357.761	330.38
357.988	336.38
358.215	334.38
358.441	355.38
358.668	339.38
358.895	328.38
359.122	349.38
359.349	365.38
359.576	384.38
359.802	391.38
360.029	424.38
360.256	432.38
360.483	403.38
360.709	380.38
360.936	377.38
361.163	356.38
361.39	376.38
361.616	363.38
361.843	368.38
362.07	350.38
362.296	375.38
362.523	372.38
362.749	363.38
362.976	346.38
363.203	353.38
363.429	353.38
363.656	346.38
363.882	349.38
364.109	345.38
364.335	351.38
364.562	344.38
364.788	344.38
365.015	334.38
365.241	350.38
365.468	355.38
365.694	351.38
365.92	366.38
366.147	364.38
366.373	349.38
366.599	345.38
366.826	339.38
367.052	337.38
367.278	324.38
367.505	357.38
367.731	360.38
367.957	353.38
368.184	343.38
368.41	348.38
368.636	370.38
368.862	382.38
369.089	362.38
369.315	343.38
369.541	341.38
369.767	341.38
369.993	353.38
370.219	345.38
370.445	349.38
370.672	341.38
370.898	340.38
371.124	337.38
371.35	334.38
371.576	341.38
371.802	361.38
372.028	345.38
372.254	328.38
372.48	345.38
372.706	330.38
372.932	355.38
373.158	325.38
373.384	342.38
373.61	356.38
373.835	361.38
374.061	344.38
374.287	354.38
374.513	349.38
374.739	346.38
374.965	370.38
375.191	342.38
375.416	349.38
375.642	338.38
375.868	342.38
376.094	337.38
376.319	340.38
376.545	350.38
376.771	344.38
376.997	337.38
377.222	328.38
377.448	335.38
377.674	337.38
377.899	334.38
378.125	347.38
378.35	331.38
378.576	344.38
378.802	332.38
379.027	325.38
379.253	320.38
379.478	330.38
379.704	334.38
379.929	332.38
380.155	347.38
380.38	352.38
380.606	329.38
380.831	341.38
381.057	334.38
381.282	331.38
381.507	324.38
381.733	326.38
381.958	327.38
382.184	336.38
382.409	334.38
382.634	341.38
382.86	331.38
383.085	353.38
383.31	344.38
383.535	344.38
383.761	340.38
383.986	350.38
384.211	347.38
384.436	338.38
384.662	348.38
384.887	345.38
385.112	332.38
385.337	339.38
385.562	356.38
385.787	365.38
386.013	363.38
386.238	364.38
386.463	376.38
386.688	361.38
386.913	373.38
387.138	378.38
387.363	382.38
387.588	358.38
387.813	368.38
388.038	361.38
388.263	354.38
388.488	368.38
388.713	346.38
388.938	381.38
389.163	355.38
389.387	365.38
389.612	358.38
389.837	363.38
390.062	355.38
390.287	359.38
390.512	345.38
390.736	361.38
390.961	375.38
391.186	359.38
391.411	358.38
391.636	365.38
391.86	376.38
392.085	372.38
392.31	378.38
392.534	378.38
392.759	379.38
392.984	359.38
393.208	364.38
393.433	363.38
393.658	354.38
393.882	358.38
394.107	374.38
394.331	363.38
394.556	358.38
394.78	381.38
395.005	362.38
395.229	374.38
395.454	390.38
395.678	359.38
395.903	387.38
396.127	384.38
396.352	407.38
396.576	365.38
396.801	352.38
397.025	356.38
397.249	394.38
397.474	368.38
397.698	377.38
397.922	398.38
398.147	385.38
398.371	397.38
398.595	392.38
398.82	388.38
399.044	404.38
399.268	422.38
399.492	441.38
399.717	450.38
399.941	464.38
400.165	484.38
400.389	476.38
400.613	469.38
400.837	417.38
401.062	403.38
401.286	414.38
401.51	400.38
401.734	406.38
401.958	409.38
402.182	410.38
402.406	458.38
402.63	436.38
402.854	424.38
403.078	430.38
403.302	420.38
403.526	439.38
403.75	420.38
403.974	420.38
404.198	413.38
404.422	421.38
404.645	408.38
404.869	414.38
405.093	462.38
405.317	466.38
405.541	498.38
405.765	467.38
405.988	447.38
406.212	452.38
406.436	460.38
406.66	461.38
406.883	459.38
407.107	478.38
407.331	508.38
407.555	554.38
407.778	575.38
408.002	490.38
408.226	471.38
408.449	482.38
408.673	452.38
408.896	466.38
409.12	506.38
409.344	496.38
409.567	431.38
409.791	416.38
410.014	413.38
410.238	422.38
410.461	431.38
410.685	427.38
410.908	443.38
411.132	462.38
411.355	462.38
411.578	462.38
411.802	426.38
412.025	425.38
412.249	419.38
412.472	429.38
412.695	461.38
412.919	453.38
413.142	406.38
413.365	398.38
413.589	424.38
413.812	410.38
414.035	379.38
414.258	407.38
414.482	404.38
414.705	399.38
414.928	392.38
415.151	398.38
415.374	406.38
415.597	388.38
415.821	395.38
416.044	383.38
416.267	412.38
416.49	397.38
416.713	383.38
416.936	379.38
417.159	403.38
417.382	380.38
417.605	393.38
417.828	419.38
418.051	434.38
418.274	428.38
418.497	412.38
418.72	420.38
418.943	399.38
419.166	423.38
419.389	423.38
419.611	421.38
419.834	427.38
420.057	418.38
420.28	420.38
420.503	404.38
420.726	421.38
420.948	431.38
421.171	472.38
421.394	484.38
421.617	428.38
421.839	396.38
422.062	406.38
422.285	442.38
422.507	458.38
422.73	539.38
422.953	523.38
423.175	453.38
423.398	437.38
423.621	414.38
423.843	449.38
424.066	465.38
424.288	466.38
424.511	462.38
424.733	492.38
424.956	567.38
425.178	548.38
425.401	546.38
425.623	545.38
425.846	476.38
426.068	479.38
426.291	436.38
426.513	455.38
426.735	453.38
426.958	487.38
427.18	549.38
427.402	648.38
427.625	710.38
427.847	625.38
428.069	543.38
428.292	511.38
428.514	459.38
428.736	426.38
428.958	426.38
429.181	431.38
429.403	394.38
429.625	440.38
429.847	455.38
430.069	497.38
430.292	501.38
430.514	417.38
430.736	410.38
430.958	396.38
431.18	399.38
431.402	384.38
431.624	380.38
431.846	402.38
432.068	393.38
432.29	390.38
432.512	389.38
432.734	416.38
432.956	399.38
433.178	408.38
433.4	425.38
433.622	389.38
433.844	399.38
434.066	400.38
434.287	413.38
434.509	392.38
434.731	404.38
434.953	418.38
435.175	438.38
435.397	437.38
435.618	452.38
435.84	483.38
436.062	546.38
436.284	586.38
436.505	542.38
436.727	450.38
436.949	440.38
437.17	403.38
437.392	408.38
437.614	428.38
437.835	474.38
438.057	547.38
438.278	608.38
438.5	607.38
438.721	657.38
438.943	618.38
439.165	515.38
439.386	458.38
439.608	455.38
439.829	476.38
440.05	479.38
440.272	502.38
440.493	478.38
440.715	448.38
440.936	458.38
441.158	426.38
441.379	431.38
441.6	438.38
441.822	461.38
442.043	487.38
442.264	561.38
442.486	584.38
442.707	504.38
442.928	458.38
443.149	455.38
443.371	501.38
443.592	516.38
443.813	604.38
444.034	624.38
444.255	534.38
444.476	469.38
444.698	452.38
444.919	464.38
445.14	560.38
445.361	482.38
445.582	490.38
445.803	526.38
446.024	614.38
446.245	625.38
446.466	590.38
446.687	473.38
446.908	466.38
447.129	453.38
447.35	431.38
447.571	416.38
447.792	437.38
448.013	423.38
448.234	458.38
448.455	473.38
448.675	584.38
448.896	634.38
449.117	570.38
449.338	533.38
449.559	610.38
449.779	661.38
450	541.38
450.221	461.38
450.442	441.38
450.662	420.38
450.883	430.38
451.104	444.38
451.324	421.38
451.545	448.38
451.766	414.38
451.986	370.38
452.207	377.38
452.428	380.38
452.648	375.38
452.869	398.38
453.089	388.38
453.31	410.38
453.53	394.38
453.751	365.38
453.971	388.38
454.192	400.38
454.412	404.38
454.633	405.38
454.853	390.38
455.073	384.38
455.294	394.38
455.514	437.38
455.734	436.38
455.955	385.38
456.175	368.38
456.395	338.38
456.616	372.38
456.836	351.38
457.056	350.38
457.276	354.38
457.497	360.38
457.717	361.38
457.937	349.38
458.157	365.38
458.377	377.38
458.598	399.38
458.818	463.38
459.038	545.38
459.258	503.38
459.478	457.38
459.698	404.38
459.918	388.38
460.138	401.38
460.358	374.38
460.578	386.38
460.798	400.38
461.018	408.38
461.238	393.38
461.458	388.38
461.678	384.38
461.898	402.38
462.118	394.38
462.338	406.38
462.558	417.38
462.777	425.38
462.997	425.38
463.217	430.38
463.437	406.38
463.657	422.38
463.876	418.38
464.096	435.38
464.316	412.38
464.536	442.38
464.755	427.38
464.975	420.38
465.195	499.38
465.414	562.38
465.634	501.38
465.854	452.38
466.073	432.38
466.293	403.38
466.512	404.38
466.732	385.38
466.951	384.38
467.171	379.38
467.391	391.38
467.61	397.38
467.829	412.38
468.049	420.38
468.268	392.38
468.488	398.38
468.707	368.38
468.927	356.38
469.146	362.38
469.365	369.38
469.585	394.38
469.804	380.38
470.023	380.38
470.243	383.38
470.462	404.38
470.681	420.38
470.901	420.38
471.12	397.38
471.339	385.38
471.558	384.38
471.777	409.38
471.997	390.38
472.216	402.38
472.435	427.38
472.654	391.38
472.873	388.38
473.092	371.38
473.311	412.38
473.53	396.38
473.749	420.38
473.968	446.38
474.187	528.38
474.406	500.38
474.625	434.38
474.844	410.38
475.063	382.38
475.282	387.38
475.501	384.38
475.72	409.38
475.939	391.38
476.158	411.38
476.377	394.38
476.596	402.38
476.814	404.38
477.033	414.38
477.252	429.38
477.471	410.38
477.69	435.38
477.908	408.38
478.127	438.38
478.346	428.38
478.564	406.38
478.783	432.38
479.002	438.38
479.22	459.38
479.439	451.38
479.658	461.38
479.876	505.38
480.095	475.38
480.313	489.38
480.532	463.38
480.751	457.38
480.969	498.38
481.188	518.38
481.406	541.38
481.624	496.38
481.843	468.38
482.061	453.38
482.28	485.38
482.498	453.38
482.717	442.38
482.935	450.38
483.153	461.38
483.372	459.38
483.59	454.38
483.808	447.38
484.027	448.38
484.245	470.38
484.463	473.38
484.681	497.38
484.9	468.38
485.118	453.38
485.336	460.38
485.554	473.38
485.772	469.38
485.99	476.38
486.209	473.38
486.427	502.38
486.645	493.38
486.863	509.38
487.081	512.38
487.299	493.38
487.517	466.38
487.735	510.38
487.953	481.38
488.171	485.38
488.389	478.38
488.607	484.38
488.825	487.38
489.043	488.38
489.261	507.38
489.479	487.38
489.696	491.38
489.914	498.38
490.132	511.38
490.35	523.38
490.568	505.38
490.786	533.38
491.003	523.38
491.221	539.38
491.439	547.38
491.657	548.38
491.874	569.38
492.092	578.38
492.31	571.38
492.527	585.38
492.745	590.38
492.963	566.38
493.18	564.38
493.398	615.38
493.615	598.38
493.833	591.38
494.05	572.38
494.268	576.38
494.485	563.38
494.703	576.38
494.92	582.38
495.138	597.38
495.355	592.38
495.573	547.38
495.79	588.38
496.008	589.38
496.225	592.38
496.442	587.38
496.66	586.38
496.877	585.38
497.094	580.38
497.312	598.38
497.529	636.38
497.746	599.38
497.963	619.38
498.181	631.38
498.398	624.38
498.615	629.38
498.832	642.38
499.049	643.38
499.267	676.38
499.484	654.38
499.701	682.38
499.918	708.38
500.135	730.38
500.352	741.38
500.569	758.38
500.786	737.38
501.003	742.38
501.22	760.38
501.437	740.38
501.654	695.38
501.871	713.38
502.088	696.38
502.305	667.38
502.522	666.38
502.739	633.38
502.956	605.38
503.172	624.38
503.389	609.38
503.606	609.38
503.823	612.38
504.04	594.38
504.256	575.38
504.473	592.38
504.69	585.38
504.907	564.38
505.123	562.38
505.34	556.38
505.557	557.38
505.773	575.38
505.99	568.38
506.207	565.38
506.423	549.38
506.64	555.38
506.856	564.38
507.073	544.38
507.289	544.38
507.506	553.38
507.722	556.38
507.939	572.38
508.155	566.38
508.372	533.38
508.588	548.38
508.805	522.38
509.021	545.38
509.238	570.38
509.454	556.38
509.67	531.38
509.887	536.38
510.103	538.38
510.319	564.38
510.536	678.38
510.752	1153.38
510.968	932.38
511.184	572.38
511.401	548.38
511.617	524.38
511.833	496.38
512.049	497.38
512.265	508.38
512.481	514.38
512.698	508.38
512.914	489.38
513.13	520.38
513.346	500.38
513.562	511.38
513.778	498.38
513.994	497.38
514.21	546.38
514.426	569.38
514.642	606.38
514.858	632.38
515.074	688.38
515.29	863.38
515.506	1358.38
515.721	1058.38
515.937	664.38
516.153	584.38
516.369	548.38
516.585	516.38
516.801	540.38
517.016	530.38
517.232	538.38
517.448	508.38
517.664	505.38
517.879	518.38
518.095	514.38
518.311	510.38
518.527	529.38
518.742	508.38
518.958	501.38
519.173	496.38
519.389	500.38
519.605	516.38
519.82	510.38
520.036	531.38
520.251	554.38
520.467	573.38
520.682	566.38
520.898	605.38
521.113	600.38
521.329	693.38
521.544	793.38
521.76	1010.38
521.975	1772.38
522.19	1798.38
522.406	877.38
522.621	632.38
522.836	546.38
523.052	550.38
523.267	509.38
523.482	484.38
523.698	472.38
523.913	465.38
524.128	465.38
524.343	465.38
524.559	440.38
524.774	469.38
524.989	457.38
525.204	446.38
525.419	477.38
525.634	435.38
525.849	434.38
526.064	437.38
526.28	421.38
526.495	424.38
526.71	413.38
526.925	405.38
527.14	383.38
527.355	418.38
527.57	390.38
527.785	415.38
527.999	395.38
528.214	397.38
528.429	411.38
528.644	415.38
528.859	394.38
529.074	403.38
529.289	452.38
529.503	516.38
529.718	521.38
529.933	455.38
530.148	409.38
530.363	407.38
530.577	405.38
530.792	413.38
531.007	407.38
531.221	414.38
531.436	394.38
531.651	406.38
531.865	376.38
532.08	393.38
532.295	389.38
532.509	417.38
532.724	400.38
532.938	389.38
533.153	373.38
533.367	401.38
533.582	389.38
533.796	369.38
534.011	386.38
534.225	407.38
534.44	375.38
534.654	390.38
534.868	378.38
535.083	382.38
535.297	377.38
535.511	373.38
535.726	396.38
535.94	408.38
536.154	389.38
536.369	392.38
536.583	382.38
536.797	384.38
537.011	372.38
537.225	370.38
537.44	355.38
537.654	369.38
537.868	365.38
538.082	373.38
538.296	380.38
538.51	372.38
538.724	382.38
538.938	391.38
539.153	392.38
539.367	388.38
539.581	407.38
539.795	394.38
540.009	384.38
540.222	371.38
540.436	375.38
540.65	360.38
540.864	368.38
541.078	376.38
541.292	400.38
541.506	374.38
541.72	365.38
541.934	385.38
542.147	372.38
542.361	374.38
542.575	363.38
542.789	349.38
543.002	362.38
543.216	375.38
543.43	381.38
543.644	385.38
543.857	370.38
544.071	381.38
544.285	356.38
544.498	358.38
544.712	368.38
544.925	358.38
545.139	364.38
545.352	353.38
545.566	372.38
545.779	346.38
545.993	365.38
546.206	373.38
546.42	378.38
546.633	349.38
546.847	362.38
547.06	370.38
547.274	354.38
547.487	349.38
547.7	365.38
547.914	343.38
548.127	348.38
548.34	348.38
548.554	341.38
548.767	356.38
548.98	360.38
549.193	357.38
549.407	341.38
549.62	347.38
549.833	359.38
550.046	352.38
550.259	334.38
550.473	355.38
550.686	342.38
550.899	357.38
551.112	358.38
551.325	337.38
551.538	354.38
551.751	348.38
551.964	335.38
552.177	347.38
552.39	334.38
552.603	351.38
552.816	344.38
553.029	356.38
553.242	361.38
553.455	353.38
553.667	366.38
553.88	357.38
554.093	369.38
554.306	359.38
554.519	344.38
554.732	344.38
554.944	338.38
555.157	336.38
555.37	345.38
555.583	340.38
555.795	343.38
556.008	323.38
556.221	330.38
556.433	322.38
556.646	321.38
556.859	329.38
557.071	310.38
557.284	328.38
557.496	324.38
557.709	326.38
557.921	328.38
558.134	313.38
558.346	310.38
558.559	306.38
558.771	325.38
558.984	311.38
559.196	306.38
559.409	333.38
559.621	321.38
559.833	315.38
560.046	306.38
560.258	310.38
560.47	290.38
560.683	305.38
560.895	314.38
561.107	297.38
561.32	308.38
561.532	306.38
561.744	311.38
561.956	326.38
562.168	314.38
562.381	308.38
562.593	309.38
562.805	306.38
563.017	312.38
563.229	315.38
563.441	299.38
563.653	314.38
563.865	308.38
564.077	329.38
564.289	307.38
564.501	317.38
564.713	326.38
564.925	325.38
565.137	318.38
565.349	334.38
565.561	325.38
565.773	331.38
565.985	332.38
566.197	328.38
566.408	345.38
566.62	343.38
566.832	364.38
567.044	376.38
567.255	351.38
567.467	386.38
567.679	363.38
567.891	374.38
568.102	376.38
568.314	368.38
568.526	365.38
568.737	352.38
568.949	330.38
569.161	333.38
569.372	331.38
569.584	324.38
569.795	308.38
570.007	316.38
570.218	353.38
570.43	342.38
570.641	282.38
570.853	290.38
571.064	297.38
571.276	272.38
571.487	289.38
571.698	294.38
571.91	281.38
572.121	262.38
572.333	270.38
572.544	284.38
572.755	260.38
572.966	269.38
573.178	276.38
573.389	283.38
573.6	266.38
573.811	282.38
574.023	261.38
574.234	264.38
574.445	282.38
574.656	271.38
574.867	281.38
575.078	270.38
575.289	246.38
575.501	270.38
575.712	252.38
575.923	254.38
576.134	243.38
576.345	260.38
576.556	272.38
576.767	241.38
576.978	258.38
577.188	260.38
577.399	257.38
577.61	263.38
577.821	278.38
578.032	250.38
578.243	270.38
578.454	554.38
578.665	392.38
578.875	263.38
579.086	253.38
579.297	250.38
579.508	253.38
579.718	246.38
579.929	258.38
580.14	254.38
580.35	244.38
580.561	256.38
580.772	253.38
580.982	237.38
581.193	239.38
581.403	248.38
581.614	235.38
581.825	230.38
582.035	245.38
582.246	243.38
582.456	237.38
582.667	228.38
582.877	230.38
583.087	220.38
583.298	234.38
583.508	249.38
583.719	231.38
583.929	237.38
584.139	232.38
584.35	248.38
584.56	228.38
584.77	233.38
584.981	231.38
585.191	226.38
585.401	242.38
585.611	232.38
585.821	249.38
586.032	245.38
586.242	243.38
586.452	245.38
586.662	224.38
586.872	220.38
587.082	244.38
587.292	211.38
587.502	234.38
587.713	246.38
587.923	230.38
588.133	240.38
588.343	249.38
588.553	228.38
588.762	250.38
588.972	255.38
589.182	240.38
589.392	233.38
589.602	218.38
589.812	236.38
590.022	242.38
590.232	235.38
590.441	242.38
590.651	224.38
590.861	212.38
591.071	233.38
591.281	222.38
591.49	233.38
591.7	245.38
591.91	239.38
592.119	225.38
592.329	237.38
592.539	236.38
592.748	263.38
592.958	255.38
593.167	235.38
593.377	249.38
593.587	258.38
593.796	247.38
594.006	249.38
594.215	243.38
594.424	226.38
594.634	262.38
594.843	226.38
595.053	258.38
595.262	237.38
595.472	232.38
595.681	231.38
595.89	236.38
596.1	215.38
596.309	229.38
596.518	223.38
596.727	216.38
596.937	226.38
597.146	209.38
597.355	245.38
597.564	225.38
597.774	217.38
597.983	200.38
598.192	210.38
598.401	208.38
598.61	213.38
598.819	221.38
599.028	197.38
599.237	210.38
599.446	212.38
599.655	207.38
599.864	213.38
600.073	214.38
600.282	209.38
600.491	208.38
600.7	202.38
600.909	212.38
601.118	218.38
601.327	221.38
601.536	182.38
601.745	199.38
601.953	206.38
602.162	210.38
602.371	198.38
602.58	206.38
602.789	209.38
602.997	210.38
603.206	204.38
603.415	213.38
603.623	209.38
603.832	204.38
604.041	191.38
604.249	199.38
604.458	193.38
604.666	188.38
604.875	193.38
605.084	184.38
605.292	202.38
605.501	198.38
605.709	203.38
605.918	202.38
606.126	191.38
606.334	198.38
606.543	209.38
606.751	190.38
606.96	196.38
607.168	199.38
607.376	190.38
607.585	198.38
607.793	190.38
608.001	205.38
608.21	201.38
608.418	193.38
608.626	205.38
608.834	186.38
609.043	204.38
609.251	203.38
609.459	190.38
609.667	190.38
609.875	188.38
610.083	182.38
610.291	192.38
610.499	201.38
610.707	206.38
610.916	173.38
611.124	194.38
611.332	204.38
611.54	196.38
611.748	194.38
611.955	194.38
612.163	188.38
612.371	179.38
612.579	197.38
612.787	188.38
612.995	203.38
613.203	188.38
613.411	198.38
613.618	187.38
613.826	181.38
614.034	190.38
614.242	190.38
614.449	190.38
614.657	177.38
614.865	191.38
615.072	193.38
615.28	187.38
615.488	182.38
615.695	205.38
615.903	178.38
616.111	193.38
616.318	196.38
616.526	194.38
616.733	189.38
616.941	200.38
617.148	205.38
617.356	216.38
617.563	215.38
617.771	172.38
617.978	194.38
618.185	198.38
618.393	177.38
618.6	174.38
618.807	188.38
619.015	186.38
619.222	184.38
619.429	198.38
619.637	190.38
619.844	187.38
620.051	186.38
620.258	200.38
620.466	190.38
620.673	165.38
620.88	164.38
621.087	169.38
621.294	180.38
621.501	177.38
621.708	180.38
621.915	187.38
622.122	187.38
622.329	191.38
622.536	173.38
622.743	178.38
622.95	182.38
623.157	173.38
623.364	172.38
623.571	168.38
623.778	177.38
623.985	182.38
624.192	166.38
624.399	179.38
624.606	185.38
624.812	190.38
625.019	186.38
625.226	168.38
625.433	195.38
625.639	173.38
625.846	172.38
626.053	166.38
626.259	181.38
626.466	163.38
626.673	173.38
626.879	166.38
627.086	162.38
627.293	177.38
627.499	180.38
627.706	171.38
627.912	175.38
628.119	163.38
628.325	181.38
628.532	180.38
628.738	173.38
628.945	173.38
629.151	150.38
629.357	169.38
629.564	166.38
629.77	180.38
629.976	152.38
630.183	179.38
630.389	166.38
630.595	165.38
630.802	163.38
631.008	165.38
631.214	165.38
631.42	175.38
631.627	172.38
631.833	152.38
632.039	157.38
632.245	159.38
632.451	146.38
632.657	154.38
632.863	152.38
633.069	163.38
633.275	181.38
633.481	159.38
633.688	164.38
633.893	164.38
634.099	148.38
634.305	150.38
634.511	147.38
634.717	156.38
634.923	131.38
635.129	139.38
635.335	149.38
635.541	151.38
635.747	156.38
635.952	149.38
636.158	150.38
636.364	157.38
636.57	148.38
636.775	157.38
636.981	137.38
637.187	170.38
637.392	140.38
637.598	138.38
637.804	167.38
638.009	153.38
638.215	149.38
638.421	145.38
638.626	161.38
638.832	157.38
639.037	150.38
639.243	149.38
639.448	153.38
639.654	148.38
639.859	158.38
640.065	145.38
640.27	153.38
640.475	142.38
640.681	146.38
640.886	155.38
641.091	140.38
641.297	138.38
641.502	150.38
641.707	151.38
641.913	153.38
642.118	156.38
642.323	149.38
642.528	154.38
642.733	134.38
642.939	148.38
643.144	129.38
643.349	132.38
643.554	143.38
643.759	133.38
643.964	133.38
644.169	140.38
644.374	141.38
644.579	150.38
644.784	157.38
644.989	159.38
645.194	159.38
645.399	151.38
645.604	145.38
645.809	142.38
646.014	131.38
646.219	152.38
646.423	137.38
646.628	139.38
646.833	133.38
647.038	151.38
647.243	151.38
647.447	148.38
647.652	137.38
647.857	135.38
648.062	154.38
648.266	135.38
648.471	154.38
648.676	135.38
648.88	156.38
649.085	152.38
649.289	146.38
649.494	147.38
649.698	168.38
649.903	148.38
650.107	153.38
650.312	123.38
650.516	142.38
650.721	139.38
650.925	136.38
651.13	125.38
651.334	125.38
651.539	135.38
651.743	130.38
651.947	130.38
652.152	130.38
652.356	129.38
652.56	117.38
652.764	117.38
652.969	119.38
653.173	120.38
653.377	110.38
653.581	126.38
653.785	120.38
653.99	132.38
654.194	121.38
654.398	128.38
654.602	129.38
654.806	109.38
655.01	128.38
655.214	134.38
655.418	125.38
655.622	120.38
655.826	126.38
656.03	123.38
656.234	114.38
656.438	137.38
656.642	119.38
656.846	130.38
657.049	130.38
657.253	134.38
657.457	112.38
657.661	104.38
657.865	124.38
658.068	120.38
658.272	116.38
658.476	112.38
658.68	99.38
658.883	109.38
659.087	107.38
659.291	113.38
659.494	113.38
659.698	92.38
659.901	89.38
660.105	91.38
660.309	104.38
660.512	101.38
660.716	90.38
660.919	88.38
661.123	93.38
661.326	90.38
661.53	99.38
661.733	104.38
661.936	84.38
662.14	96.38
662.343	84.38
662.546	91.38
662.75	104.38
662.953	87.38
663.156	86.38
663.36	82.38
663.563	79.38
663.766	94.38
663.969	79.38
664.173	81.38
664.376	88.38
664.579	84.38
664.782	79.38
664.985	87.38
665.188	83.38
665.391	77.38
665.594	79.38
665.797	80.38
666	76.38
666.203	100.38
666.406	85.38
666.609	64.38
666.812	79.38
667.015	93.38
667.218	88.38
667.421	72.38
667.624	85.38
667.827	91.38
668.03	79.38
668.232	73.38
668.435	88.38
668.638	83.38
668.841	94.38
669.043	77.38
669.246	83.38
669.449	92.38
669.651	76.38
669.854	87.38
670.057	70.38
670.259	75.38
670.462	93.38
670.665	92.38
670.867	78.38
671.07	90.38
671.272	98.38
671.475	88.38
671.677	89.38
671.88	65.38
672.082	72.38
672.284	84.38
672.487	83.38
672.689	84.38
672.892	82.38
