Data from 1983.PennyLincolnUp.Lamp.En5.5.200Scan.071819.P1_HRD10591_16-52-31-965.txt Node
Date: Thu Jul 18 16:52:31 EDT 2019
User: cochatt
Spectrometer: HR+D1059
Trigger mode: 1
Integration Time (sec): 1.000000E-1
Scans to average: 1
Electric dark correction enabled: true
Nonlinearity correction enabled: false
Boxcar width: 0
XAxis mode: Wavelengths
Number of Pixels in Spectrum: 2048
>>>>>Begin Spectral Data<<<<<
223.165	-17.94
223.4	-17.94
223.635	-17.94
223.869	-10.94
224.104	-21.94
224.338	-21.94
224.573	-14.94
224.808	-9.94
225.042	-6.94
225.277	-0.94
225.511	-6.94
225.746	0.06
225.98	14.06
226.215	16.06
226.449	23.06
226.683	27.06
226.918	12.06
227.152	20.06
227.387	32.06
227.621	38.06
227.856	43.06
228.09	44.06
228.324	57.06
228.559	51.06
228.793	55.06
229.027	91.06
229.262	97.06
229.496	97.06
229.73	119.06
229.964	138.06
230.199	118.06
230.433	106.06
230.667	107.06
230.901	106.06
231.136	102.06
231.37	111.06
231.604	112.06
231.838	101.06
232.072	109.06
232.306	94.06
232.541	117.06
232.775	108.06
233.009	93.06
233.243	114.06
233.477	106.06
233.711	108.06
233.945	106.06
234.179	114.06
234.413	116.06
234.647	94.06
234.881	109.06
235.115	98.06
235.349	105.06
235.583	113.06
235.817	108.06
236.051	114.06
236.285	115.06
236.519	116.06
236.753	127.06
236.987	134.06
237.221	167.06
237.455	180.06
237.689	148.06
237.922	121.06
238.156	120.06
238.39	120.06
238.624	115.06
238.858	118.06
239.091	114.06
239.325	119.06
239.559	106.06
239.793	110.06
240.027	134.06
240.26	126.06
240.494	145.06
240.728	132.06
240.961	134.06
241.195	123.06
241.429	139.06
241.662	124.06
241.896	126.06
242.13	127.06
242.363	118.06
242.597	121.06
242.83	139.06
243.064	120.06
243.298	115.06
243.531	126.06
243.765	117.06
243.998	130.06
244.232	136.06
244.465	143.06
244.699	136.06
244.932	145.06
245.166	131.06
245.399	121.06
245.633	114.06
245.866	104.06
246.099	138.06
246.333	134.06
246.566	134.06
246.8	144.06
247.033	149.06
247.266	157.06
247.5	138.06
247.733	147.06
247.966	165.06
248.2	158.06
248.433	146.06
248.666	145.06
248.899	172.06
249.133	173.06
249.366	187.06
249.599	167.06
249.832	166.06
250.066	164.06
250.299	163.06
250.532	166.06
250.765	169.06
250.998	181.06
251.231	190.06
251.465	181.06
251.698	150.06
251.931	154.06
252.164	158.06
252.397	175.06
252.63	163.06
252.863	175.06
253.096	188.06
253.329	191.06
253.562	182.06
253.795	169.06
254.028	203.06
254.261	192.06
254.494	188.06
254.727	193.06
254.96	246.06
255.193	233.06
255.426	211.06
255.659	197.06
255.892	204.06
256.124	213.06
256.357	182.06
256.59	175.06
256.823	172.06
257.056	167.06
257.289	195.06
257.521	207.06
257.754	188.06
257.987	184.06
258.22	186.06
258.452	192.06
258.685	184.06
258.918	184.06
259.151	200.06
259.383	179.06
259.616	189.06
259.849	189.06
260.081	216.06
260.314	208.06
260.547	222.06
260.779	213.06
261.012	201.06
261.244	196.06
261.477	198.06
261.71	201.06
261.942	199.06
262.175	216.06
262.407	202.06
262.64	186.06
262.872	184.06
263.105	186.06
263.337	186.06
263.57	186.06
263.802	175.06
264.035	184.06
264.267	178.06
264.499	187.06
264.732	186.06
264.964	195.06
265.197	184.06
265.429	197.06
265.661	178.06
265.894	190.06
266.126	178.06
266.358	200.06
266.591	190.06
266.823	195.06
267.055	195.06
267.287	198.06
267.52	182.06
267.752	200.06
267.984	193.06
268.216	210.06
268.448	204.06
268.681	183.06
268.913	208.06
269.145	211.06
269.377	236.06
269.609	248.06
269.841	232.06
270.073	217.06
270.306	237.06
270.538	261.06
270.77	268.06
271.002	244.06
271.234	265.06
271.466	271.06
271.698	276.06
271.93	278.06
272.162	262.06
272.394	259.06
272.626	240.06
272.858	249.06
273.09	242.06
273.322	232.06
273.553	239.06
273.785	215.06
274.017	240.06
274.249	228.06
274.481	222.06
274.713	215.06
274.945	216.06
275.176	222.06
275.408	231.06
275.64	235.06
275.872	225.06
276.104	234.06
276.335	217.06
276.567	243.06
276.799	270.06
277.031	238.06
277.262	278.06
277.494	268.06
277.726	262.06
277.957	231.06
278.189	228.06
278.421	228.06
278.652	234.06
278.884	226.06
279.115	223.06
279.347	222.06
279.579	234.06
279.81	213.06
280.042	219.06
280.273	214.06
280.505	228.06
280.736	229.06
280.968	227.06
281.199	218.06
281.431	236.06
281.662	239.06
281.894	227.06
282.125	252.06
282.356	245.06
282.588	247.06
282.819	244.06
283.051	232.06
283.282	231.06
283.513	241.06
283.745	223.06
283.976	245.06
284.207	221.06
284.439	256.06
284.67	233.06
284.901	223.06
285.132	244.06
285.364	242.06
285.595	250.06
285.826	227.06
286.057	250.06
286.288	252.06
286.52	238.06
286.751	236.06
286.982	244.06
287.213	260.06
287.444	239.06
287.675	228.06
287.906	250.06
288.138	246.06
288.369	251.06
288.6	275.06
288.831	252.06
289.062	237.06
289.293	250.06
289.524	239.06
289.755	242.06
289.986	251.06
290.217	240.06
290.448	258.06
290.679	253.06
290.91	237.06
291.141	262.06
291.371	234.06
291.602	242.06
291.833	241.06
292.064	230.06
292.295	262.06
292.526	246.06
292.757	240.06
292.987	249.06
293.218	232.06
293.449	246.06
293.68	239.06
293.91	247.06
294.141	243.06
294.372	246.06
294.603	229.06
294.833	270.06
295.064	237.06
295.295	242.06
295.525	258.06
295.756	264.06
295.987	272.06
296.217	262.06
296.448	273.06
296.679	252.06
296.909	235.06
297.14	245.06
297.37	253.06
297.601	246.06
297.831	258.06
298.062	250.06
298.292	258.06
298.523	245.06
298.753	263.06
298.984	242.06
299.214	266.06
299.445	248.06
299.675	269.06
299.905	269.06
300.136	259.06
300.366	276.06
300.597	252.06
300.827	263.06
301.057	270.06
301.288	276.06
301.518	266.06
301.748	263.06
301.979	281.06
302.209	279.06
302.439	275.06
302.669	246.06
302.9	264.06
303.13	297.06
303.36	288.06
303.59	276.06
303.82	292.06
304.051	291.06
304.281	279.06
304.511	279.06
304.741	267.06
304.971	285.06
305.201	272.06
305.431	270.06
305.661	268.06
305.891	283.06
306.121	261.06
306.352	270.06
306.582	273.06
306.812	289.06
307.042	289.06
307.272	293.06
307.502	279.06
307.731	278.06
307.961	268.06
308.191	284.06
308.421	279.06
308.651	291.06
308.881	281.06
309.111	292.06
309.341	288.06
309.571	295.06
309.8	299.06
310.03	307.06
310.26	281.06
310.49	322.06
310.72	306.06
310.949	330.06
311.179	343.06
311.409	324.06
311.639	312.06
311.868	319.06
312.098	299.06
312.328	320.06
312.557	329.06
312.787	334.06
313.017	357.06
313.246	306.06
313.476	324.06
313.706	321.06
313.935	318.06
314.165	332.06
314.394	334.06
314.624	329.06
314.853	308.06
315.083	314.06
315.312	321.06
315.542	320.06
315.771	295.06
316.001	308.06
316.23	303.06
316.46	306.06
316.689	338.06
316.919	327.06
317.148	340.06
317.377	314.06
317.607	294.06
317.836	312.06
318.065	322.06
318.295	300.06
318.524	319.06
318.753	325.06
318.983	330.06
319.212	323.06
319.441	323.06
319.67	336.06
319.9	319.06
320.129	318.06
320.358	324.06
320.587	315.06
320.816	333.06
321.046	334.06
321.275	331.06
321.504	329.06
321.733	333.06
321.962	327.06
322.191	349.06
322.42	351.06
322.649	366.06
322.878	371.06
323.108	380.06
323.337	416.06
323.566	406.06
323.795	428.06
324.024	474.06
324.253	546.06
324.482	775.06
324.71	1150.06
324.939	1522.06
325.168	1295.06
325.397	716.06
325.626	502.06
325.855	448.06
326.084	404.06
326.313	398.06
326.542	416.06
326.77	453.06
326.999	526.06
327.228	690.06
327.457	1025.06
327.686	1123.06
327.914	784.06
328.143	551.06
328.372	482.06
328.6	449.06
328.829	463.06
329.058	444.06
329.287	451.06
329.515	439.06
329.744	415.06
329.972	386.06
330.201	417.06
330.43	415.06
330.658	453.06
330.887	484.06
331.115	474.06
331.344	431.06
331.572	414.06
331.801	401.06
332.03	392.06
332.258	384.06
332.486	378.06
332.715	361.06
332.943	378.06
333.172	364.06
333.4	396.06
333.629	375.06
333.857	377.06
334.085	370.06
334.314	371.06
334.542	391.06
334.771	388.06
334.999	379.06
335.227	376.06
335.455	373.06
335.684	365.06
335.912	353.06
336.14	361.06
336.369	364.06
336.597	372.06
336.825	372.06
337.053	375.06
337.281	380.06
337.51	362.06
337.738	363.06
337.966	363.06
338.194	364.06
338.422	359.06
338.65	356.06
338.878	362.06
339.106	366.06
339.334	367.06
339.562	365.06
339.79	371.06
340.018	370.06
340.246	350.06
340.474	344.06
340.702	346.06
340.93	368.06
341.158	343.06
341.386	350.06
341.614	346.06
341.842	354.06
342.07	355.06
342.298	348.06
342.526	342.06
342.754	341.06
342.981	336.06
343.209	332.06
343.437	338.06
343.665	367.06
343.893	358.06
344.12	369.06
344.348	376.06
344.576	378.06
344.804	383.06
345.031	382.06
345.259	389.06
345.487	366.06
345.714	345.06
345.942	346.06
346.17	358.06
346.397	349.06
346.625	342.06
346.853	354.06
347.08	354.06
347.308	343.06
347.535	330.06
347.763	355.06
347.99	349.06
348.218	364.06
348.445	364.06
348.673	354.06
348.9	346.06
349.128	346.06
349.355	358.06
349.583	320.06
349.81	329.06
350.037	350.06
350.265	337.06
350.492	311.06
350.72	337.06
350.947	333.06
351.174	360.06
351.402	374.06
351.629	357.06
351.856	360.06
352.083	333.06
352.311	376.06
352.538	373.06
352.765	370.06
352.992	335.06
353.22	343.06
353.447	337.06
353.674	336.06
353.901	335.06
354.128	319.06
354.355	315.06
354.583	346.06
354.81	324.06
355.037	319.06
355.264	341.06
355.491	335.06
355.718	313.06
355.945	343.06
356.172	334.06
356.399	317.06
356.626	303.06
356.853	320.06
357.08	310.06
357.307	335.06
357.534	340.06
357.761	328.06
357.988	339.06
358.215	334.06
358.441	321.06
358.668	320.06
358.895	338.06
359.122	352.06
359.349	343.06
359.576	332.06
359.802	373.06
360.029	368.06
360.256	378.06
360.483	354.06
360.709	337.06
360.936	337.06
361.163	323.06
361.39	358.06
361.616	326.06
361.843	354.06
362.07	335.06
362.296	346.06
362.523	333.06
362.749	351.06
362.976	358.06
363.203	348.06
363.429	331.06
363.656	324.06
363.882	345.06
364.109	346.06
364.335	334.06
364.562	322.06
364.788	317.06
365.015	334.06
365.241	336.06
365.468	354.06
365.694	334.06
365.92	319.06
366.147	335.06
366.373	332.06
366.599	331.06
366.826	340.06
367.052	347.06
367.278	327.06
367.505	327.06
367.731	318.06
367.957	334.06
368.184	343.06
368.41	352.06
368.636	347.06
368.862	333.06
369.089	330.06
369.315	333.06
369.541	331.06
369.767	338.06
369.993	336.06
370.219	336.06
370.445	325.06
370.672	342.06
370.898	340.06
371.124	342.06
371.35	346.06
371.576	319.06
371.802	319.06
372.028	320.06
372.254	330.06
372.48	347.06
372.706	330.06
372.932	340.06
373.158	328.06
373.384	350.06
373.61	330.06
373.835	341.06
374.061	347.06
374.287	322.06
374.513	349.06
374.739	330.06
374.965	319.06
375.191	334.06
375.416	326.06
375.642	347.06
375.868	342.06
376.094	344.06
376.319	319.06
376.545	327.06
376.771	322.06
376.997	318.06
377.222	336.06
377.448	324.06
377.674	308.06
377.899	322.06
378.125	327.06
378.35	334.06
378.576	312.06
378.802	320.06
379.027	304.06
379.253	318.06
379.478	332.06
379.704	342.06
379.929	345.06
380.155	335.06
380.38	344.06
380.606	330.06
380.831	335.06
381.057	339.06
381.282	335.06
381.507	342.06
381.733	342.06
381.958	319.06
382.184	319.06
382.409	332.06
382.634	342.06
382.86	344.06
383.085	330.06
383.31	336.06
383.535	329.06
383.761	351.06
383.986	342.06
384.211	326.06
384.436	336.06
384.662	340.06
384.887	358.06
385.112	357.06
385.337	372.06
385.562	358.06
385.787	352.06
386.013	370.06
386.238	358.06
386.463	354.06
386.688	343.06
386.913	362.06
387.138	365.06
387.363	355.06
387.588	352.06
387.813	348.06
388.038	359.06
388.263	356.06
388.488	362.06
388.713	359.06
388.938	346.06
389.163	356.06
389.387	361.06
389.612	359.06
389.837	335.06
390.062	342.06
390.287	338.06
390.512	360.06
390.736	354.06
390.961	358.06
391.186	355.06
391.411	345.06
391.636	361.06
391.86	370.06
392.085	370.06
392.31	362.06
392.534	354.06
392.759	363.06
392.984	371.06
393.208	370.06
393.433	368.06
393.658	367.06
393.882	337.06
394.107	351.06
394.331	381.06
394.556	356.06
394.78	350.06
395.005	359.06
395.229	345.06
395.454	366.06
395.678	365.06
395.903	384.06
396.127	398.06
396.352	389.06
396.576	375.06
396.801	372.06
397.025	386.06
397.249	371.06
397.474	357.06
397.698	382.06
397.922	383.06
398.147	399.06
398.371	386.06
398.595	392.06
398.82	389.06
399.044	393.06
399.268	405.06
399.492	427.06
399.717	461.06
399.941	482.06
400.165	469.06
400.389	495.06
400.613	436.06
400.837	417.06
401.062	406.06
401.286	420.06
401.51	398.06
401.734	407.06
401.958	413.06
402.182	420.06
402.406	416.06
402.63	411.06
402.854	400.06
403.078	424.06
403.302	423.06
403.526	422.06
403.75	423.06
403.974	416.06
404.198	394.06
404.422	407.06
404.645	426.06
404.869	410.06
405.093	412.06
405.317	459.06
405.541	446.06
405.765	427.06
405.988	430.06
406.212	422.06
406.436	445.06
406.66	464.06
406.883	445.06
407.107	467.06
407.331	482.06
407.555	531.06
407.778	524.06
408.002	518.06
408.226	463.06
408.449	450.06
408.673	451.06
408.896	451.06
409.12	480.06
409.344	454.06
409.567	429.06
409.791	445.06
410.014	416.06
410.238	400.06
410.461	407.06
410.685	416.06
410.908	424.06
411.132	447.06
411.355	468.06
411.578	438.06
411.802	395.06
412.025	424.06
412.249	413.06
412.472	409.06
412.695	418.06
412.919	423.06
413.142	397.06
413.365	404.06
413.589	399.06
413.812	396.06
414.035	393.06
414.258	397.06
414.482	375.06
414.705	384.06
414.928	374.06
415.151	385.06
415.374	372.06
415.597	392.06
415.821	391.06
416.044	382.06
416.267	400.06
416.49	391.06
416.713	380.06
416.936	384.06
417.159	404.06
417.382	407.06
417.605	381.06
417.828	404.06
418.051	417.06
418.274	418.06
418.497	376.06
418.72	386.06
418.943	404.06
419.166	400.06
419.389	404.06
419.611	407.06
419.834	397.06
420.057	399.06
420.28	412.06
420.503	392.06
420.726	429.06
420.948	411.06
421.171	440.06
421.394	455.06
421.617	426.06
421.839	402.06
422.062	400.06
422.285	400.06
422.507	453.06
422.73	517.06
422.953	488.06
423.175	440.06
423.398	414.06
423.621	428.06
423.843	432.06
424.066	457.06
424.288	438.06
424.511	450.06
424.733	491.06
424.956	532.06
425.178	532.06
425.401	508.06
425.623	507.06
425.846	470.06
426.068	438.06
426.291	427.06
426.513	430.06
426.735	429.06
426.958	472.06
427.18	520.06
427.402	601.06
427.625	678.06
427.847	613.06
428.069	491.06
428.292	461.06
428.514	430.06
428.736	419.06
428.958	419.06
429.181	395.06
429.403	420.06
429.625	421.06
429.847	447.06
430.069	489.06
430.292	468.06
430.514	416.06
430.736	416.06
430.958	414.06
431.18	386.06
431.402	388.06
431.624	373.06
431.846	385.06
432.068	394.06
432.29	388.06
432.512	384.06
432.734	395.06
432.956	405.06
433.178	376.06
433.4	409.06
433.622	378.06
433.844	376.06
434.066	382.06
434.287	373.06
434.509	370.06
434.731	398.06
434.953	387.06
435.175	411.06
435.397	411.06
435.618	456.06
435.84	465.06
436.062	535.06
436.284	562.06
436.505	491.06
436.727	444.06
436.949	422.06
437.17	402.06
437.392	413.06
437.614	417.06
437.835	451.06
438.057	513.06
438.278	572.06
438.5	580.06
438.721	623.06
438.943	618.06
439.165	468.06
439.386	459.06
439.608	442.06
439.829	437.06
440.05	444.06
440.272	485.06
440.493	466.06
440.715	422.06
440.936	422.06
441.158	416.06
441.379	401.06
441.6	419.06
441.822	446.06
442.043	446.06
442.264	507.06
442.486	546.06
442.707	476.06
442.928	437.06
443.149	455.06
443.371	482.06
443.592	526.06
443.813	562.06
444.034	577.06
444.255	530.06
444.476	445.06
444.698	434.06
444.919	424.06
445.14	556.06
445.361	510.06
445.582	487.06
445.803	510.06
446.024	594.06
446.245	592.06
446.466	532.06
446.687	458.06
446.908	432.06
447.129	428.06
447.35	416.06
447.571	398.06
447.792	391.06
448.013	414.06
448.234	417.06
448.455	444.06
448.675	520.06
448.896	626.06
449.117	564.06
449.338	491.06
449.559	567.06
449.779	614.06
450	522.06
450.221	450.06
450.442	416.06
450.662	404.06
450.883	406.06
451.104	423.06
451.324	419.06
451.545	389.06
451.766	389.06
451.986	373.06
452.207	356.06
452.428	348.06
452.648	375.06
452.869	363.06
453.089	378.06
453.31	393.06
453.53	367.06
453.751	379.06
453.971	380.06
454.192	381.06
454.412	366.06
454.633	366.06
454.853	370.06
455.073	369.06
455.294	384.06
455.514	437.06
455.734	424.06
455.955	365.06
456.175	334.06
456.395	346.06
456.616	357.06
456.836	337.06
457.056	345.06
457.276	346.06
457.497	342.06
457.717	362.06
457.937	342.06
458.157	359.06
458.377	359.06
458.598	367.06
458.818	413.06
459.038	463.06
459.258	469.06
459.478	415.06
459.698	398.06
459.918	424.06
460.138	387.06
460.358	406.06
460.578	386.06
460.798	384.06
461.018	394.06
461.238	393.06
461.458	382.06
461.678	371.06
461.898	387.06
462.118	378.06
462.338	398.06
462.558	396.06
462.777	394.06
462.997	405.06
463.217	420.06
463.437	439.06
463.657	414.06
463.876	390.06
464.096	420.06
464.316	413.06
464.536	444.06
464.755	407.06
464.975	413.06
465.195	443.06
465.414	498.06
465.634	441.06
465.854	417.06
466.073	395.06
466.293	397.06
466.512	368.06
466.732	382.06
466.951	365.06
467.171	380.06
467.391	382.06
467.61	376.06
467.829	376.06
468.049	390.06
468.268	371.06
468.488	363.06
468.707	346.06
468.927	360.06
469.146	362.06
469.365	372.06
469.585	345.06
469.804	392.06
470.023	382.06
470.243	370.06
470.462	399.06
470.681	398.06
470.901	415.06
471.12	384.06
471.339	376.06
471.558	379.06
471.777	380.06
471.997	383.06
472.216	381.06
472.435	379.06
472.654	399.06
472.873	356.06
473.092	364.06
473.311	355.06
473.53	372.06
473.749	395.06
473.968	410.06
474.187	479.06
474.406	492.06
474.625	428.06
474.844	395.06
475.063	373.06
475.282	390.06
475.501	365.06
475.72	387.06
475.939	380.06
476.158	384.06
476.377	393.06
476.596	388.06
476.814	380.06
477.033	386.06
477.252	424.06
477.471	382.06
477.69	391.06
477.908	400.06
478.127	393.06
478.346	406.06
478.564	423.06
478.783	420.06
479.002	432.06
479.22	427.06
479.439	446.06
479.658	460.06
479.876	457.06
480.095	463.06
480.313	471.06
480.532	456.06
480.751	449.06
480.969	466.06
481.188	465.06
481.406	466.06
481.624	456.06
481.843	436.06
482.061	449.06
482.28	423.06
482.498	425.06
482.717	449.06
482.935	436.06
483.153	438.06
483.372	438.06
483.59	420.06
483.808	464.06
484.027	434.06
484.245	424.06
484.463	445.06
484.681	448.06
484.9	443.06
485.118	461.06
485.336	422.06
485.554	452.06
485.772	450.06
485.99	472.06
486.209	460.06
486.427	463.06
486.645	456.06
486.863	443.06
487.081	476.06
487.299	447.06
487.517	461.06
487.735	462.06
487.953	470.06
488.171	475.06
488.389	458.06
488.607	478.06
488.825	471.06
489.043	484.06
489.261	474.06
489.479	476.06
489.696	485.06
489.914	481.06
490.132	478.06
490.35	494.06
490.568	498.06
490.786	502.06
491.003	522.06
491.221	501.06
491.439	501.06
491.657	514.06
491.874	508.06
492.092	533.06
492.31	552.06
492.527	550.06
492.745	527.06
492.963	538.06
493.18	521.06
493.398	546.06
493.615	547.06
493.833	526.06
494.05	529.06
494.268	545.06
494.485	559.06
494.703	547.06
494.92	561.06
495.138	534.06
495.355	570.06
495.573	552.06
495.79	578.06
496.008	548.06
496.225	543.06
496.442	544.06
496.66	564.06
496.877	549.06
497.094	565.06
497.312	547.06
497.529	550.06
497.746	566.06
497.963	584.06
498.181	602.06
498.398	580.06
498.615	605.06
498.832	614.06
499.049	607.06
499.267	621.06
499.484	643.06
499.701	662.06
499.918	698.06
500.135	707.06
500.352	717.06
500.569	755.06
500.786	760.06
501.003	727.06
501.22	711.06
501.437	697.06
501.654	687.06
501.871	696.06
502.088	668.06
502.305	642.06
502.522	630.06
502.739	600.06
502.956	588.06
503.172	598.06
503.389	581.06
503.606	584.06
503.823	584.06
504.04	566.06
504.256	567.06
504.473	567.06
504.69	555.06
504.907	580.06
505.123	532.06
505.34	542.06
505.557	514.06
505.773	534.06
505.99	536.06
506.207	542.06
506.423	536.06
506.64	515.06
506.856	528.06
507.073	519.06
507.289	526.06
507.506	528.06
507.722	524.06
507.939	546.06
508.155	513.06
508.372	497.06
508.588	513.06
508.805	516.06
509.021	489.06
509.238	514.06
509.454	510.06
509.67	503.06
509.887	494.06
510.103	490.06
510.319	515.06
510.536	603.06
510.752	930.06
510.968	740.06
511.184	525.06
511.401	479.06
511.617	465.06
511.833	463.06
512.049	464.06
512.265	454.06
512.481	485.06
512.698	475.06
512.914	470.06
513.13	459.06
513.346	475.06
513.562	473.06
513.778	470.06
513.994	480.06
514.21	485.06
514.426	493.06
514.642	535.06
514.858	543.06
515.074	609.06
515.29	645.06
515.506	996.06
515.721	808.06
515.937	565.06
516.153	526.06
516.369	514.06
516.585	509.06
516.801	491.06
517.016	489.06
517.232	496.06
517.448	493.06
517.664	499.06
517.879	500.06
518.095	482.06
518.311	492.06
518.527	491.06
518.742	477.06
518.958	481.06
519.173	464.06
519.389	455.06
519.605	476.06
519.82	456.06
520.036	486.06
520.251	495.06
520.467	503.06
520.682	528.06
520.898	527.06
521.113	521.06
521.329	569.06
521.544	607.06
521.76	747.06
521.975	1281.06
522.19	1247.06
522.406	684.06
522.621	536.06
522.836	462.06
523.052	478.06
523.267	467.06
523.482	419.06
523.698	460.06
523.913	454.06
524.128	420.06
524.343	418.06
524.559	419.06
524.774	422.06
524.989	419.06
525.204	425.06
525.419	428.06
525.634	415.06
525.849	402.06
526.064	402.06
526.28	419.06
526.495	403.06
526.71	404.06
526.925	387.06
527.14	373.06
527.355	390.06
527.57	398.06
527.785	390.06
527.999	392.06
528.214	394.06
528.429	397.06
528.644	389.06
528.859	399.06
529.074	409.06
529.289	428.06
529.503	499.06
529.718	440.06
529.933	404.06
530.148	413.06
530.363	389.06
530.577	382.06
530.792	386.06
531.007	371.06
531.221	390.06
531.436	394.06
531.651	385.06
531.865	365.06
532.08	390.06
532.295	382.06
532.509	381.06
532.724	371.06
532.938	383.06
533.153	373.06
533.367	378.06
533.582	375.06
533.796	366.06
534.011	357.06
534.225	378.06
534.44	372.06
534.654	362.06
534.868	376.06
535.083	363.06
535.297	382.06
535.511	385.06
535.726	367.06
535.94	378.06
536.154	390.06
536.369	382.06
536.583	344.06
536.797	378.06
537.011	370.06
537.225	363.06
537.44	354.06
537.654	362.06
537.868	352.06
538.082	362.06
538.296	341.06
538.51	354.06
538.724	359.06
538.938	357.06
539.153	377.06
539.367	378.06
539.581	375.06
539.795	379.06
540.009	375.06
540.222	346.06
540.436	360.06
540.65	370.06
540.864	358.06
541.078	387.06
541.292	375.06
541.506	365.06
541.72	371.06
541.934	353.06
542.147	364.06
542.361	360.06
542.575	342.06
542.789	367.06
543.002	344.06
543.216	366.06
543.43	367.06
543.644	352.06
543.857	354.06
544.071	374.06
544.285	355.06
544.498	347.06
544.712	368.06
544.925	335.06
545.139	342.06
545.352	355.06
545.566	346.06
545.779	359.06
545.993	355.06
546.206	362.06
546.42	383.06
546.633	368.06
546.847	349.06
547.06	343.06
547.274	349.06
547.487	352.06
547.7	332.06
547.914	351.06
548.127	343.06
548.34	339.06
548.554	337.06
548.767	350.06
548.98	339.06
549.193	338.06
549.407	340.06
549.62	335.06
549.833	360.06
550.046	341.06
550.259	344.06
550.473	348.06
550.686	355.06
550.899	340.06
551.112	310.06
551.325	351.06
551.538	335.06
551.751	331.06
551.964	353.06
552.177	358.06
552.39	335.06
552.603	339.06
552.816	333.06
553.029	331.06
553.242	351.06
553.455	341.06
553.667	356.06
553.88	359.06
554.093	367.06
554.306	360.06
554.519	362.06
554.732	344.06
554.944	327.06
555.157	329.06
555.37	328.06
555.583	322.06
555.795	333.06
556.008	322.06
556.221	316.06
556.433	342.06
556.646	310.06
556.859	313.06
557.071	295.06
557.284	303.06
557.496	322.06
557.709	298.06
557.921	323.06
558.134	307.06
558.346	315.06
558.559	316.06
558.771	329.06
558.984	310.06
559.196	295.06
559.409	306.06
559.621	310.06
559.833	310.06
560.046	291.06
560.258	298.06
560.47	300.06
560.683	318.06
560.895	299.06
561.107	306.06
561.32	326.06
561.532	303.06
561.744	305.06
561.956	297.06
562.168	316.06
562.381	324.06
562.593	290.06
562.805	304.06
563.017	306.06
563.229	326.06
563.441	311.06
563.653	314.06
563.865	317.06
564.077	308.06
564.289	310.06
564.501	332.06
564.713	330.06
564.925	322.06
565.137	318.06
565.349	314.06
565.561	326.06
565.773	343.06
565.985	346.06
566.197	342.06
566.408	333.06
566.62	341.06
566.832	348.06
567.044	367.06
567.255	372.06
567.467	351.06
567.679	351.06
567.891	367.06
568.102	367.06
568.314	361.06
568.526	347.06
568.737	340.06
568.949	341.06
569.161	330.06
569.372	318.06
569.584	324.06
569.795	304.06
570.007	300.06
570.218	328.06
570.43	325.06
570.641	310.06
570.853	303.06
571.064	301.06
571.276	289.06
571.487	287.06
571.698	284.06
571.91	290.06
572.121	284.06
572.333	277.06
572.544	273.06
572.755	307.06
572.966	270.06
573.178	270.06
573.389	262.06
573.6	272.06
573.811	277.06
574.023	264.06
574.234	258.06
574.445	265.06
574.656	264.06
574.867	260.06
575.078	248.06
575.289	264.06
575.501	259.06
575.712	283.06
575.923	260.06
576.134	248.06
576.345	257.06
576.556	251.06
576.767	256.06
576.978	244.06
577.188	261.06
577.399	265.06
577.61	258.06
577.821	262.06
578.032	264.06
578.243	291.06
578.454	423.06
578.665	347.06
578.875	254.06
579.086	245.06
579.297	249.06
579.508	267.06
579.718	251.06
579.929	251.06
580.14	252.06
580.35	255.06
580.561	228.06
580.772	236.06
580.982	238.06
581.193	247.06
581.403	243.06
581.614	236.06
581.825	227.06
582.035	236.06
582.246	228.06
582.456	233.06
582.667	230.06
582.877	242.06
583.087	247.06
583.298	234.06
583.508	237.06
583.719	240.06
583.929	237.06
584.139	228.06
584.35	244.06
584.56	246.06
584.77	243.06
584.981	247.06
585.191	222.06
585.401	231.06
585.611	252.06
585.821	240.06
586.032	242.06
586.242	243.06
586.452	228.06
586.662	238.06
586.872	223.06
587.082	228.06
587.292	231.06
587.502	235.06
587.713	236.06
587.923	238.06
588.133	230.06
588.343	218.06
588.553	235.06
588.762	235.06
588.972	260.06
589.182	229.06
589.392	239.06
589.602	239.06
589.812	228.06
590.022	240.06
590.232	221.06
590.441	235.06
590.651	238.06
590.861	225.06
591.071	226.06
591.281	232.06
591.49	231.06
591.7	233.06
591.91	223.06
592.119	253.06
592.329	245.06
592.539	234.06
592.748	262.06
592.958	226.06
593.167	226.06
593.377	236.06
593.587	247.06
593.796	246.06
594.006	236.06
594.215	231.06
594.424	256.06
594.634	262.06
594.843	231.06
595.053	217.06
595.262	236.06
595.472	223.06
595.681	220.06
595.89	221.06
596.1	230.06
596.309	226.06
596.518	207.06
596.727	221.06
596.937	205.06
597.146	218.06
597.355	221.06
597.564	207.06
597.774	208.06
597.983	202.06
598.192	231.06
598.401	213.06
598.61	217.06
598.819	202.06
599.028	211.06
599.237	200.06
599.446	206.06
599.655	221.06
599.864	201.06
600.073	195.06
600.282	199.06
600.491	210.06
600.7	212.06
600.909	200.06
601.118	196.06
601.327	213.06
601.536	210.06
601.745	214.06
601.953	213.06
602.162	192.06
602.371	203.06
602.58	205.06
602.789	199.06
602.997	208.06
603.206	191.06
603.415	218.06
603.623	201.06
603.832	204.06
604.041	194.06
604.249	206.06
604.458	201.06
604.666	196.06
604.875	207.06
605.084	201.06
605.292	190.06
605.501	201.06
605.709	196.06
605.918	191.06
606.126	189.06
606.334	200.06
606.543	201.06
606.751	208.06
606.96	196.06
607.168	186.06
607.376	173.06
607.585	190.06
607.793	206.06
608.001	189.06
608.21	207.06
608.418	189.06
608.626	207.06
608.834	212.06
609.043	200.06
609.251	193.06
609.459	198.06
609.667	183.06
609.875	206.06
610.083	194.06
610.291	182.06
610.499	196.06
610.707	186.06
610.916	174.06
611.124	202.06
611.332	200.06
611.54	195.06
611.748	210.06
611.955	206.06
612.163	189.06
612.371	198.06
612.579	207.06
612.787	186.06
612.995	184.06
613.203	180.06
613.411	180.06
613.618	190.06
613.826	187.06
614.034	191.06
614.242	200.06
614.449	205.06
614.657	172.06
614.865	192.06
615.072	189.06
615.28	181.06
615.488	188.06
615.695	178.06
615.903	181.06
616.111	190.06
616.318	198.06
616.526	190.06
616.733	200.06
616.941	201.06
617.148	184.06
617.356	186.06
617.563	198.06
617.771	203.06
617.978	182.06
618.185	178.06
618.393	182.06
618.6	184.06
618.807	186.06
619.015	202.06
619.222	160.06
619.429	175.06
619.637	172.06
619.844	190.06
620.051	178.06
620.258	188.06
620.466	176.06
620.673	164.06
620.88	165.06
621.087	194.06
621.294	191.06
621.501	187.06
621.708	178.06
621.915	182.06
622.122	199.06
622.329	186.06
622.536	182.06
622.743	176.06
622.95	180.06
623.157	185.06
623.364	183.06
623.571	170.06
623.778	174.06
623.985	157.06
624.192	183.06
624.399	190.06
624.606	175.06
624.812	175.06
625.019	182.06
625.226	174.06
625.433	193.06
625.639	176.06
625.846	186.06
626.053	174.06
626.259	174.06
626.466	160.06
626.673	167.06
626.879	182.06
627.086	174.06
627.293	180.06
627.499	172.06
627.706	180.06
627.912	162.06
628.119	159.06
628.325	165.06
628.532	160.06
628.738	167.06
628.945	173.06
629.151	178.06
629.357	145.06
629.564	169.06
629.77	170.06
629.976	162.06
630.183	148.06
630.389	161.06
630.595	160.06
630.802	170.06
631.008	163.06
631.214	151.06
631.42	158.06
631.627	171.06
631.833	155.06
632.039	157.06
632.245	145.06
632.451	156.06
632.657	165.06
632.863	148.06
633.069	151.06
633.275	174.06
633.481	155.06
633.688	158.06
633.893	163.06
634.099	161.06
634.305	156.06
634.511	164.06
634.717	156.06
634.923	159.06
635.129	162.06
635.335	154.06
635.541	158.06
635.747	144.06
635.952	165.06
636.158	157.06
636.364	150.06
636.57	150.06
636.775	148.06
636.981	151.06
637.187	166.06
637.392	154.06
637.598	150.06
637.804	150.06
638.009	153.06
638.215	163.06
638.421	151.06
638.626	171.06
638.832	148.06
639.037	150.06
639.243	152.06
639.448	147.06
639.654	149.06
639.859	151.06
640.065	146.06
640.27	152.06
640.475	144.06
640.681	155.06
640.886	146.06
641.091	148.06
641.297	145.06
641.502	141.06
641.707	131.06
641.913	165.06
642.118	145.06
642.323	134.06
642.528	157.06
642.733	145.06
642.939	148.06
643.144	147.06
643.349	141.06
643.554	150.06
643.759	162.06
643.964	154.06
644.169	148.06
644.374	133.06
644.579	151.06
644.784	133.06
644.989	149.06
645.194	130.06
645.399	136.06
645.604	143.06
645.809	143.06
646.014	132.06
646.219	126.06
646.423	137.06
646.628	147.06
646.833	149.06
647.038	140.06
647.243	143.06
647.447	156.06
647.652	128.06
647.857	136.06
648.062	140.06
648.266	143.06
648.471	144.06
648.676	124.06
648.88	145.06
649.085	158.06
649.289	137.06
649.494	146.06
649.698	168.06
649.903	158.06
650.107	149.06
650.312	146.06
650.516	136.06
650.721	138.06
650.925	137.06
651.13	127.06
651.334	109.06
651.539	135.06
651.743	135.06
651.947	131.06
652.152	128.06
652.356	131.06
652.56	130.06
652.764	126.06
652.969	127.06
653.173	146.06
653.377	124.06
653.581	122.06
653.785	115.06
653.99	131.06
654.194	118.06
654.398	121.06
654.602	116.06
654.806	140.06
655.01	138.06
655.214	139.06
655.418	129.06
655.622	128.06
655.826	130.06
656.03	116.06
656.234	108.06
656.438	117.06
656.642	120.06
656.846	131.06
657.049	130.06
657.253	111.06
657.457	125.06
657.661	97.06
657.865	106.06
658.068	120.06
658.272	104.06
658.476	101.06
658.68	108.06
658.883	102.06
659.087	89.06
659.291	99.06
659.494	109.06
659.698	101.06
659.901	104.06
660.105	101.06
660.309	90.06
660.512	88.06
660.716	84.06
660.919	84.06
661.123	102.06
661.326	94.06
661.53	85.06
661.733	89.06
661.936	102.06
662.14	87.06
662.343	99.06
662.546	87.06
662.75	76.06
662.953	100.06
663.156	82.06
663.36	83.06
663.563	85.06
663.766	82.06
663.969	79.06
664.173	89.06
664.376	79.06
664.579	92.06
664.782	78.06
664.985	87.06
665.188	72.06
665.391	87.06
665.594	87.06
665.797	94.06
666	87.06
666.203	102.06
666.406	96.06
666.609	75.06
666.812	92.06
667.015	74.06
667.218	76.06
667.421	83.06
667.624	87.06
667.827	90.06
668.03	104.06
668.232	87.06
668.435	80.06
668.638	79.06
668.841	87.06
669.043	87.06
669.246	86.06
669.449	80.06
669.651	85.06
669.854	76.06
670.057	86.06
670.259	86.06
670.462	87.06
670.665	91.06
670.867	86.06
671.07	89.06
671.272	85.06
671.475	95.06
671.677	90.06
671.88	90.06
672.082	84.06
672.284	91.06
672.487	80.06
672.689	72.06
672.892	91.06
