Data from 1983.PennyLincolnUp.Lamp.En5.5.200Scan.071819.P1_HRD10591_16-52-13-964.txt Node
Date: Thu Jul 18 16:52:13 EDT 2019
User: cochatt
Spectrometer: HR+D1059
Trigger mode: 1
Integration Time (sec): 1.000000E-1
Scans to average: 1
Electric dark correction enabled: true
Nonlinearity correction enabled: false
Boxcar width: 0
XAxis mode: Wavelengths
Number of Pixels in Spectrum: 2048
>>>>>Begin Spectral Data<<<<<
223.165	-4.12
223.4	-4.12
223.635	-4.12
223.869	-12.12
224.104	-20.12
224.338	-27.12
224.573	-22.12
224.808	-11.12
225.042	-4.12
225.277	0.88
225.511	4.88
225.746	-0.12
225.98	-7.12
226.215	8.88
226.449	8.88
226.683	22.88
226.918	29.88
227.152	31.88
227.387	27.88
227.621	41.88
227.856	39.88
228.09	44.88
228.324	58.88
228.559	48.88
228.793	74.88
229.027	85.88
229.262	85.88
229.496	92.88
229.73	109.88
229.964	113.88
230.199	105.88
230.433	90.88
230.667	98.88
230.901	101.88
231.136	87.88
231.37	104.88
231.604	105.88
231.838	100.88
232.072	100.88
232.306	97.88
232.541	105.88
232.775	97.88
233.009	100.88
233.243	105.88
233.477	93.88
233.711	116.88
233.945	112.88
234.179	100.88
234.413	99.88
234.647	104.88
234.881	97.88
235.115	106.88
235.349	90.88
235.583	97.88
235.817	90.88
236.051	99.88
236.285	102.88
236.519	103.88
236.753	132.88
236.987	114.88
237.221	130.88
237.455	159.88
237.689	131.88
237.922	112.88
238.156	116.88
238.39	124.88
238.624	105.88
238.858	111.88
239.091	105.88
239.325	103.88
239.559	120.88
239.793	116.88
240.027	118.88
240.26	97.88
240.494	127.88
240.728	121.88
240.961	115.88
241.195	112.88
241.429	116.88
241.662	102.88
241.896	120.88
242.13	112.88
242.363	108.88
242.597	113.88
242.83	118.88
243.064	123.88
243.298	116.88
243.531	116.88
243.765	112.88
243.998	108.88
244.232	109.88
244.465	113.88
244.699	125.88
244.932	128.88
245.166	118.88
245.399	125.88
245.633	134.88
245.866	114.88
246.099	136.88
246.333	141.88
246.566	127.88
246.8	123.88
247.033	124.88
247.266	127.88
247.5	123.88
247.733	119.88
247.966	139.88
248.2	147.88
248.433	133.88
248.666	136.88
248.899	153.88
249.133	163.88
249.366	155.88
249.599	166.88
249.832	155.88
250.066	151.88
250.299	138.88
250.532	150.88
250.765	155.88
250.998	178.88
251.231	155.88
251.465	167.88
251.698	153.88
251.931	165.88
252.164	159.88
252.397	146.88
252.63	161.88
252.863	169.88
253.096	151.88
253.329	197.88
253.562	169.88
253.795	170.88
254.028	167.88
254.261	171.88
254.494	182.88
254.727	181.88
254.96	204.88
255.193	201.88
255.426	195.88
255.659	177.88
255.892	169.88
256.124	163.88
256.357	167.88
256.59	159.88
256.823	172.88
257.056	167.88
257.289	170.88
257.521	169.88
257.754	164.88
257.987	155.88
258.22	163.88
258.452	168.88
258.685	183.88
258.918	171.88
259.151	172.88
259.383	176.88
259.616	181.88
259.849	166.88
260.081	166.88
260.314	184.88
260.547	200.88
260.779	201.88
261.012	176.88
261.244	189.88
261.477	183.88
261.71	175.88
261.942	175.88
262.175	180.88
262.407	171.88
262.64	168.88
262.872	167.88
263.105	170.88
263.337	167.88
263.57	187.88
263.802	180.88
264.035	161.88
264.267	165.88
264.499	153.88
264.732	166.88
264.964	164.88
265.197	170.88
265.429	177.88
265.661	159.88
265.894	174.88
266.126	169.88
266.358	158.88
266.591	182.88
266.823	171.88
267.055	170.88
267.287	182.88
267.52	175.88
267.752	185.88
267.984	179.88
268.216	182.88
268.448	187.88
268.681	202.88
268.913	184.88
269.145	199.88
269.377	204.88
269.609	188.88
269.841	202.88
270.073	195.88
270.306	221.88
270.538	230.88
270.77	236.88
271.002	206.88
271.234	228.88
271.466	220.88
271.698	206.88
271.93	235.88
272.162	229.88
272.394	231.88
272.626	212.88
272.858	216.88
273.09	203.88
273.322	208.88
273.553	211.88
273.785	203.88
274.017	208.88
274.249	181.88
274.481	211.88
274.713	212.88
274.945	204.88
275.176	208.88
275.408	207.88
275.64	210.88
275.872	229.88
276.104	206.88
276.335	219.88
276.567	210.88
276.799	214.88
277.031	229.88
277.262	223.88
277.494	229.88
277.726	220.88
277.957	233.88
278.189	215.88
278.421	217.88
278.652	217.88
278.884	196.88
279.115	222.88
279.347	198.88
279.579	197.88
279.81	218.88
280.042	212.88
280.273	195.88
280.505	203.88
280.736	207.88
280.968	202.88
281.199	212.88
281.431	209.88
281.662	223.88
281.894	212.88
282.125	197.88
282.356	217.88
282.588	205.88
282.819	220.88
283.051	214.88
283.282	211.88
283.513	222.88
283.745	208.88
283.976	213.88
284.207	216.88
284.439	218.88
284.67	236.88
284.901	208.88
285.132	228.88
285.364	218.88
285.595	212.88
285.826	213.88
286.057	211.88
286.288	222.88
286.52	219.88
286.751	227.88
286.982	216.88
287.213	212.88
287.444	218.88
287.675	219.88
287.906	221.88
288.138	219.88
288.369	222.88
288.6	237.88
288.831	232.88
289.062	219.88
289.293	243.88
289.524	213.88
289.755	228.88
289.986	210.88
290.217	230.88
290.448	232.88
290.679	225.88
290.91	218.88
291.141	241.88
291.371	233.88
291.602	222.88
291.833	232.88
292.064	226.88
292.295	220.88
292.526	228.88
292.757	204.88
292.987	211.88
293.218	218.88
293.449	215.88
293.68	215.88
293.91	228.88
294.141	215.88
294.372	231.88
294.603	217.88
294.833	202.88
295.064	232.88
295.295	227.88
295.525	240.88
295.756	243.88
295.987	232.88
296.217	235.88
296.448	257.88
296.679	224.88
296.909	233.88
297.14	245.88
297.37	249.88
297.601	220.88
297.831	229.88
298.062	232.88
298.292	259.88
298.523	233.88
298.753	227.88
298.984	239.88
299.214	230.88
299.445	234.88
299.675	249.88
299.905	264.88
300.136	259.88
300.366	244.88
300.597	231.88
300.827	266.88
301.057	241.88
301.288	243.88
301.518	247.88
301.748	243.88
301.979	235.88
302.209	259.88
302.439	256.88
302.669	264.88
302.9	254.88
303.13	243.88
303.36	253.88
303.59	263.88
303.82	260.88
304.051	245.88
304.281	257.88
304.511	238.88
304.741	243.88
304.971	241.88
305.201	252.88
305.431	246.88
305.661	269.88
305.891	241.88
306.121	260.88
306.352	259.88
306.582	266.88
306.812	243.88
307.042	234.88
307.272	245.88
307.502	263.88
307.731	253.88
307.961	259.88
308.191	269.88
308.421	259.88
308.651	266.88
308.881	256.88
309.111	250.88
309.341	255.88
309.571	261.88
309.8	280.88
310.03	285.88
310.26	275.88
310.49	268.88
310.72	262.88
310.949	297.88
311.179	287.88
311.409	262.88
311.639	259.88
311.868	292.88
312.098	289.88
312.328	283.88
312.557	300.88
312.787	291.88
313.017	283.88
313.246	294.88
313.476	283.88
313.706	276.88
313.935	277.88
314.165	290.88
314.394	286.88
314.624	292.88
314.853	286.88
315.083	275.88
315.312	290.88
315.542	266.88
315.771	281.88
316.001	275.88
316.23	274.88
316.46	281.88
316.689	283.88
316.919	285.88
317.148	300.88
317.377	282.88
317.607	280.88
317.836	275.88
318.065	298.88
318.295	281.88
318.524	292.88
318.753	291.88
318.983	287.88
319.212	304.88
319.441	284.88
319.67	309.88
319.9	297.88
320.129	284.88
320.358	280.88
320.587	294.88
320.816	292.88
321.046	296.88
321.275	300.88
321.504	293.88
321.733	282.88
321.962	307.88
322.191	292.88
322.42	300.88
322.649	308.88
322.878	312.88
323.108	319.88
323.337	329.88
323.566	335.88
323.795	375.88
324.024	397.88
324.253	457.88
324.482	621.88
324.71	905.88
324.939	1174.88
325.168	998.88
325.397	546.88
325.626	413.88
325.855	355.88
326.084	340.88
326.313	340.88
326.542	326.88
326.77	371.88
326.999	401.88
327.228	549.88
327.457	791.88
327.686	872.88
327.914	584.88
328.143	443.88
328.372	385.88
328.6	389.88
328.829	375.88
329.058	369.88
329.287	379.88
329.515	371.88
329.744	346.88
329.972	327.88
330.201	340.88
330.43	357.88
330.658	385.88
330.887	399.88
331.115	385.88
331.344	364.88
331.572	371.88
331.801	329.88
332.03	345.88
332.258	331.88
332.486	315.88
332.715	322.88
332.943	323.88
333.172	325.88
333.4	333.88
333.629	353.88
333.857	344.88
334.085	326.88
334.314	348.88
334.542	339.88
334.771	353.88
334.999	342.88
335.227	324.88
335.455	321.88
335.684	333.88
335.912	337.88
336.14	325.88
336.369	329.88
336.597	332.88
336.825	336.88
337.053	319.88
337.281	352.88
337.51	322.88
337.738	327.88
337.966	328.88
338.194	325.88
338.422	330.88
338.65	327.88
338.878	326.88
339.106	326.88
339.334	318.88
339.562	309.88
339.79	310.88
340.018	323.88
340.246	329.88
340.474	320.88
340.702	331.88
340.93	327.88
341.158	311.88
341.386	312.88
341.614	320.88
341.842	335.88
342.07	307.88
342.298	309.88
342.526	321.88
342.754	324.88
342.981	301.88
343.209	316.88
343.437	312.88
343.665	316.88
343.893	320.88
344.12	344.88
344.348	331.88
344.576	328.88
344.804	307.88
345.031	323.88
345.259	327.88
345.487	335.88
345.714	319.88
345.942	308.88
346.17	315.88
346.397	313.88
346.625	323.88
346.853	310.88
347.08	319.88
347.308	306.88
347.535	313.88
347.763	315.88
347.99	309.88
348.218	320.88
348.445	317.88
348.673	308.88
348.9	315.88
349.128	314.88
349.355	293.88
349.583	295.88
349.81	297.88
350.037	284.88
350.265	320.88
350.492	296.88
350.72	284.88
350.947	315.88
351.174	324.88
351.402	324.88
351.629	320.88
351.856	327.88
352.083	312.88
352.311	319.88
352.538	300.88
352.765	322.88
352.992	344.88
353.22	304.88
353.447	312.88
353.674	300.88
353.901	307.88
354.128	282.88
354.355	302.88
354.583	290.88
354.81	298.88
355.037	292.88
355.264	280.88
355.491	298.88
355.718	304.88
355.945	294.88
356.172	289.88
356.399	287.88
356.626	304.88
356.853	293.88
357.08	279.88
357.307	306.88
357.534	308.88
357.761	299.88
357.988	289.88
358.215	283.88
358.441	279.88
358.668	309.88
358.895	296.88
359.122	300.88
359.349	296.88
359.576	307.88
359.802	319.88
360.029	326.88
360.256	331.88
360.483	311.88
360.709	313.88
360.936	323.88
361.163	292.88
361.39	301.88
361.616	312.88
361.843	298.88
362.07	309.88
362.296	323.88
362.523	315.88
362.749	320.88
362.976	299.88
363.203	314.88
363.429	285.88
363.656	305.88
363.882	312.88
364.109	276.88
364.335	279.88
364.562	288.88
364.788	287.88
365.015	297.88
365.241	292.88
365.468	296.88
365.694	295.88
365.92	308.88
366.147	319.88
366.373	319.88
366.599	306.88
366.826	297.88
367.052	316.88
367.278	303.88
367.505	303.88
367.731	292.88
367.957	298.88
368.184	297.88
368.41	291.88
368.636	301.88
368.862	301.88
369.089	305.88
369.315	312.88
369.541	309.88
369.767	307.88
369.993	299.88
370.219	309.88
370.445	285.88
370.672	296.88
370.898	293.88
371.124	297.88
371.35	310.88
371.576	307.88
371.802	310.88
372.028	298.88
372.254	300.88
372.48	316.88
372.706	312.88
372.932	329.88
373.158	306.88
373.384	303.88
373.61	299.88
373.835	296.88
374.061	310.88
374.287	306.88
374.513	317.88
374.739	329.88
374.965	305.88
375.191	301.88
375.416	325.88
375.642	309.88
375.868	311.88
376.094	295.88
376.319	300.88
376.545	296.88
376.771	307.88
376.997	291.88
377.222	292.88
377.448	292.88
377.674	293.88
377.899	305.88
378.125	297.88
378.35	298.88
378.576	295.88
378.802	304.88
379.027	312.88
379.253	312.88
379.478	315.88
379.704	313.88
379.929	312.88
380.155	315.88
380.38	315.88
380.606	308.88
380.831	307.88
381.057	322.88
381.282	311.88
381.507	312.88
381.733	323.88
381.958	308.88
382.184	294.88
382.409	322.88
382.634	314.88
382.86	320.88
383.085	309.88
383.31	321.88
383.535	340.88
383.761	303.88
383.986	307.88
384.211	319.88
384.436	304.88
384.662	313.88
384.887	333.88
385.112	333.88
385.337	333.88
385.562	327.88
385.787	341.88
386.013	339.88
386.238	320.88
386.463	333.88
386.688	348.88
386.913	334.88
387.138	323.88
387.363	329.88
387.588	321.88
387.813	333.88
388.038	323.88
388.263	324.88
388.488	320.88
388.713	328.88
388.938	320.88
389.163	325.88
389.387	314.88
389.612	318.88
389.837	337.88
390.062	339.88
390.287	332.88
390.512	324.88
390.736	345.88
390.961	325.88
391.186	325.88
391.411	321.88
391.636	329.88
391.86	338.88
392.085	337.88
392.31	329.88
392.534	337.88
392.759	325.88
392.984	326.88
393.208	327.88
393.433	321.88
393.658	324.88
393.882	339.88
394.107	329.88
394.331	324.88
394.556	327.88
394.78	335.88
395.005	332.88
395.229	335.88
395.454	342.88
395.678	333.88
395.903	346.88
396.127	349.88
396.352	330.88
396.576	343.88
396.801	347.88
397.025	332.88
397.249	341.88
397.474	359.88
397.698	357.88
397.922	357.88
398.147	357.88
398.371	376.88
398.595	369.88
398.82	367.88
399.044	375.88
399.268	379.88
399.492	404.88
399.717	421.88
399.941	449.88
400.165	437.88
400.389	426.88
400.613	415.88
400.837	381.88
401.062	372.88
401.286	392.88
401.51	362.88
401.734	359.88
401.958	374.88
402.182	377.88
402.406	381.88
402.63	389.88
402.854	361.88
403.078	369.88
403.302	367.88
403.526	364.88
403.75	364.88
403.974	380.88
404.198	363.88
404.422	377.88
404.645	384.88
404.869	387.88
405.093	392.88
405.317	411.88
405.541	397.88
405.765	410.88
405.988	394.88
406.212	394.88
406.436	381.88
406.66	421.88
406.883	421.88
407.107	420.88
407.331	449.88
407.555	499.88
407.778	470.88
408.002	426.88
408.226	396.88
408.449	407.88
408.673	423.88
408.896	428.88
409.12	463.88
409.344	417.88
409.567	402.88
409.791	409.88
410.014	373.88
410.238	385.88
410.461	383.88
410.685	371.88
410.908	388.88
411.132	413.88
411.355	425.88
411.578	396.88
411.802	371.88
412.025	381.88
412.249	375.88
412.472	379.88
412.695	386.88
412.919	395.88
413.142	364.88
413.365	373.88
413.589	385.88
413.812	380.88
414.035	357.88
414.258	379.88
414.482	364.88
414.705	363.88
414.928	367.88
415.151	364.88
415.374	372.88
415.597	359.88
415.821	375.88
416.044	353.88
416.267	364.88
416.49	359.88
416.713	355.88
416.936	362.88
417.159	357.88
417.382	350.88
417.605	359.88
417.828	392.88
418.051	371.88
418.274	377.88
418.497	369.88
418.72	360.88
418.943	357.88
419.166	359.88
419.389	385.88
419.611	395.88
419.834	384.88
420.057	383.88
420.28	355.88
420.503	358.88
420.726	370.88
420.948	377.88
421.171	405.88
421.394	438.88
421.617	383.88
421.839	351.88
422.062	374.88
422.285	391.88
422.507	408.88
422.73	475.88
422.953	426.88
423.175	396.88
423.398	415.88
423.621	393.88
423.843	409.88
424.066	414.88
424.288	390.88
424.511	387.88
424.733	443.88
424.956	477.88
425.178	466.88
425.401	488.88
425.623	486.88
425.846	421.88
426.068	401.88
426.291	357.88
426.513	385.88
426.735	394.88
426.958	424.88
427.18	469.88
427.402	531.88
427.625	579.88
427.847	510.88
428.069	431.88
428.292	401.88
428.514	372.88
428.736	381.88
428.958	371.88
429.181	370.88
429.403	374.88
429.625	369.88
429.847	386.88
430.069	428.88
430.292	412.88
430.514	407.88
430.736	369.88
430.958	365.88
431.18	339.88
431.402	360.88
431.624	355.88
431.846	339.88
432.068	360.88
432.29	349.88
432.512	367.88
432.734	363.88
432.956	364.88
433.178	358.88
433.4	368.88
433.622	352.88
433.844	339.88
434.066	357.88
434.287	343.88
434.509	359.88
434.731	358.88
434.953	357.88
435.175	376.88
435.397	385.88
435.618	405.88
435.84	422.88
436.062	461.88
436.284	512.88
436.505	435.88
436.727	409.88
436.949	375.88
437.17	352.88
437.392	369.88
437.614	364.88
437.835	403.88
438.057	462.88
438.278	504.88
438.5	513.88
438.721	562.88
438.943	543.88
439.165	428.88
439.386	390.88
439.608	401.88
439.829	401.88
440.05	420.88
440.272	432.88
440.493	395.88
440.715	377.88
440.936	375.88
441.158	383.88
441.379	361.88
441.6	365.88
441.822	381.88
442.043	427.88
442.264	465.88
442.486	506.88
442.707	453.88
442.928	382.88
443.149	386.88
443.371	402.88
443.592	429.88
443.813	503.88
444.034	555.88
444.255	470.88
444.476	409.88
444.698	406.88
444.919	417.88
445.14	534.88
445.361	461.88
445.582	432.88
445.803	467.88
446.024	507.88
446.245	531.88
446.466	479.88
446.687	438.88
446.908	402.88
447.129	395.88
447.35	382.88
447.571	367.88
447.792	358.88
448.013	356.88
448.234	376.88
448.455	408.88
448.675	481.88
448.896	539.88
449.117	479.88
449.338	447.88
449.559	525.88
449.779	578.88
450	465.88
450.221	406.88
450.442	371.88
450.662	365.88
450.883	370.88
451.104	385.88
451.324	348.88
451.545	332.88
451.766	346.88
451.986	329.88
452.207	315.88
452.428	339.88
452.648	348.88
452.869	338.88
453.089	332.88
453.31	349.88
453.53	341.88
453.751	339.88
453.971	339.88
454.192	357.88
454.412	352.88
454.633	322.88
454.853	326.88
455.073	328.88
455.294	361.88
455.514	380.88
455.734	388.88
455.955	331.88
456.175	305.88
456.395	321.88
456.616	305.88
456.836	325.88
457.056	295.88
457.276	318.88
457.497	325.88
457.717	315.88
457.937	330.88
458.157	312.88
458.377	323.88
458.598	335.88
458.818	369.88
459.038	403.88
459.258	417.88
459.478	388.88
459.698	364.88
459.918	350.88
460.138	367.88
460.358	357.88
460.578	362.88
460.798	361.88
461.018	371.88
461.238	362.88
461.458	352.88
461.678	356.88
461.898	363.88
462.118	350.88
462.338	361.88
462.558	363.88
462.777	376.88
462.997	371.88
463.217	391.88
463.437	403.88
463.657	379.88
463.876	376.88
464.096	381.88
464.316	377.88
464.536	380.88
464.755	384.88
464.975	385.88
465.195	411.88
465.414	435.88
465.634	387.88
465.854	360.88
466.073	362.88
466.293	349.88
466.512	343.88
466.732	330.88
466.951	355.88
467.171	339.88
467.391	347.88
467.61	327.88
467.829	360.88
468.049	353.88
468.268	330.88
468.488	349.88
468.707	322.88
468.927	342.88
469.146	322.88
469.365	344.88
469.585	345.88
469.804	344.88
470.023	336.88
470.243	343.88
470.462	346.88
470.681	357.88
470.901	349.88
471.12	363.88
471.339	349.88
471.558	356.88
471.777	351.88
471.997	346.88
472.216	348.88
472.435	341.88
472.654	340.88
472.873	340.88
473.092	322.88
473.311	345.88
473.53	332.88
473.749	343.88
473.968	369.88
474.187	439.88
474.406	424.88
474.625	375.88
474.844	365.88
475.063	344.88
475.282	337.88
475.501	353.88
475.72	346.88
475.939	347.88
476.158	349.88
476.377	364.88
476.596	372.88
476.814	364.88
477.033	361.88
477.252	379.88
477.471	354.88
477.69	387.88
477.908	364.88
478.127	361.88
478.346	379.88
478.564	404.88
478.783	396.88
479.002	395.88
479.22	398.88
479.439	406.88
479.658	408.88
479.876	401.88
480.095	404.88
480.313	401.88
480.532	407.88
480.751	409.88
480.969	423.88
481.188	407.88
481.406	433.88
481.624	426.88
481.843	390.88
482.061	397.88
482.28	393.88
482.498	394.88
482.717	395.88
482.935	402.88
483.153	380.88
483.372	393.88
483.59	400.88
483.808	401.88
484.027	391.88
484.245	412.88
484.463	400.88
484.681	400.88
484.9	414.88
485.118	400.88
485.336	409.88
485.554	414.88
485.772	423.88
485.99	412.88
486.209	440.88
486.427	397.88
486.645	415.88
486.863	432.88
487.081	419.88
487.299	421.88
487.517	431.88
487.735	443.88
487.953	426.88
488.171	429.88
488.389	436.88
488.607	447.88
488.825	403.88
489.043	442.88
489.261	429.88
489.479	412.88
489.696	411.88
489.914	435.88
490.132	449.88
490.35	434.88
490.568	463.88
490.786	462.88
491.003	450.88
491.221	467.88
491.439	478.88
491.657	470.88
491.874	479.88
492.092	468.88
492.31	478.88
492.527	489.88
492.745	486.88
492.963	484.88
493.18	483.88
493.398	495.88
493.615	484.88
493.833	489.88
494.05	480.88
494.268	488.88
494.485	496.88
494.703	475.88
494.92	474.88
495.138	496.88
495.355	481.88
495.573	518.88
495.79	514.88
496.008	488.88
496.225	481.88
496.442	521.88
496.66	504.88
496.877	517.88
497.094	509.88
497.312	519.88
497.529	525.88
497.746	513.88
497.963	526.88
498.181	547.88
498.398	536.88
498.615	540.88
498.832	572.88
499.049	581.88
499.267	602.88
499.484	595.88
499.701	625.88
499.918	641.88
500.135	664.88
500.352	680.88
500.569	695.88
500.786	717.88
501.003	699.88
501.22	668.88
501.437	678.88
501.654	617.88
501.871	613.88
502.088	612.88
502.305	596.88
502.522	577.88
502.739	570.88
502.956	555.88
503.172	516.88
503.389	526.88
503.606	516.88
503.823	526.88
504.04	499.88
504.256	513.88
504.473	519.88
504.69	507.88
504.907	508.88
505.123	499.88
505.34	481.88
505.557	496.88
505.773	482.88
505.99	476.88
506.207	472.88
506.423	474.88
506.64	482.88
506.856	456.88
507.073	441.88
507.289	461.88
507.506	489.88
507.722	455.88
507.939	452.88
508.155	467.88
508.372	429.88
508.588	450.88
508.805	466.88
509.021	449.88
509.238	449.88
509.454	457.88
509.67	451.88
509.887	451.88
510.103	447.88
510.319	449.88
510.536	526.88
510.752	739.88
510.968	600.88
511.184	459.88
511.401	441.88
511.617	435.88
511.833	421.88
512.049	415.88
512.265	444.88
512.481	428.88
512.698	421.88
512.914	438.88
513.13	431.88
513.346	426.88
513.562	405.88
513.778	415.88
513.994	420.88
514.21	411.88
514.426	443.88
514.642	487.88
514.858	465.88
515.074	485.88
515.29	560.88
515.506	743.88
515.721	656.88
515.937	473.88
516.153	447.88
516.369	453.88
516.585	443.88
516.801	444.88
517.016	457.88
517.232	454.88
517.448	448.88
517.664	444.88
517.879	452.88
518.095	447.88
518.311	441.88
518.527	416.88
518.742	428.88
518.958	427.88
519.173	447.88
519.389	444.88
519.605	429.88
519.82	428.88
520.036	427.88
520.251	427.88
520.467	452.88
520.682	455.88
520.898	439.88
521.113	448.88
521.329	481.88
521.544	506.88
521.76	611.88
521.975	911.88
522.19	891.88
522.406	541.88
522.621	459.88
522.836	416.88
523.052	421.88
523.267	404.88
523.482	410.88
523.698	398.88
523.913	417.88
524.128	397.88
524.343	375.88
524.559	385.88
524.774	380.88
524.989	376.88
525.204	367.88
525.419	378.88
525.634	363.88
525.849	375.88
526.064	389.88
526.28	379.88
526.495	363.88
526.71	337.88
526.925	364.88
527.14	364.88
527.355	372.88
527.57	367.88
527.785	377.88
527.999	347.88
528.214	363.88
528.429	348.88
528.644	363.88
528.859	377.88
529.074	377.88
529.289	363.88
529.503	403.88
529.718	402.88
529.933	380.88
530.148	371.88
530.363	351.88
530.577	344.88
530.792	340.88
531.007	379.88
531.221	355.88
531.436	357.88
531.651	368.88
531.865	337.88
532.08	345.88
532.295	359.88
532.509	353.88
532.724	328.88
532.938	355.88
533.153	351.88
533.367	336.88
533.582	352.88
533.796	367.88
534.011	353.88
534.225	360.88
534.44	335.88
534.654	348.88
534.868	345.88
535.083	337.88
535.297	340.88
535.511	347.88
535.726	362.88
535.94	361.88
536.154	339.88
536.369	341.88
536.583	337.88
536.797	356.88
537.011	349.88
537.225	341.88
537.44	324.88
537.654	323.88
537.868	328.88
538.082	324.88
538.296	334.88
538.51	341.88
538.724	333.88
538.938	339.88
539.153	329.88
539.367	339.88
539.581	345.88
539.795	352.88
540.009	336.88
540.222	339.88
540.436	346.88
540.65	352.88
540.864	326.88
541.078	346.88
541.292	353.88
541.506	355.88
541.72	349.88
541.934	343.88
542.147	340.88
542.361	343.88
542.575	341.88
542.789	343.88
543.002	339.88
543.216	339.88
543.43	323.88
543.644	343.88
543.857	339.88
544.071	332.88
544.285	341.88
544.498	340.88
544.712	339.88
544.925	350.88
545.139	334.88
545.352	325.88
545.566	339.88
545.779	329.88
545.993	332.88
546.206	324.88
546.42	331.88
546.633	334.88
546.847	341.88
547.06	329.88
547.274	324.88
547.487	315.88
547.7	332.88
547.914	309.88
548.127	313.88
548.34	330.88
548.554	299.88
548.767	327.88
548.98	317.88
549.193	349.88
549.407	332.88
549.62	329.88
549.833	322.88
550.046	309.88
550.259	309.88
550.473	328.88
550.686	332.88
550.899	317.88
551.112	319.88
551.325	329.88
551.538	331.88
551.751	320.88
551.964	310.88
552.177	323.88
552.39	325.88
552.603	323.88
552.816	319.88
553.029	318.88
553.242	324.88
553.455	328.88
553.667	322.88
553.88	332.88
554.093	340.88
554.306	319.88
554.519	328.88
554.732	321.88
554.944	313.88
555.157	315.88
555.37	325.88
555.583	291.88
555.795	293.88
556.008	307.88
556.221	297.88
556.433	302.88
556.646	293.88
556.859	286.88
557.071	287.88
557.284	307.88
557.496	303.88
557.709	292.88
557.921	294.88
558.134	289.88
558.346	275.88
558.559	311.88
558.771	291.88
558.984	282.88
559.196	293.88
559.409	275.88
559.621	268.88
559.833	295.88
560.046	290.88
560.258	297.88
560.47	287.88
560.683	297.88
560.895	276.88
561.107	299.88
561.32	277.88
561.532	295.88
561.744	275.88
561.956	276.88
562.168	279.88
562.381	282.88
562.593	290.88
562.805	294.88
563.017	281.88
563.229	280.88
563.441	289.88
563.653	281.88
563.865	275.88
564.077	304.88
564.289	309.88
564.501	307.88
564.713	293.88
564.925	283.88
565.137	307.88
565.349	313.88
565.561	325.88
565.773	313.88
565.985	309.88
566.197	324.88
566.408	337.88
566.62	344.88
566.832	352.88
567.044	344.88
567.255	333.88
567.467	343.88
567.679	353.88
567.891	359.88
568.102	358.88
568.314	344.88
568.526	330.88
568.737	329.88
568.949	319.88
569.161	306.88
569.372	295.88
569.584	311.88
569.795	287.88
570.007	283.88
570.218	294.88
570.43	302.88
570.641	276.88
570.853	287.88
571.064	291.88
571.276	265.88
571.487	258.88
571.698	283.88
571.91	289.88
572.121	277.88
572.333	288.88
572.544	268.88
572.755	257.88
572.966	275.88
573.178	254.88
573.389	265.88
573.6	245.88
573.811	253.88
574.023	244.88
574.234	267.88
574.445	255.88
574.656	255.88
574.867	240.88
575.078	242.88
575.289	244.88
575.501	255.88
575.712	253.88
575.923	254.88
576.134	247.88
576.345	250.88
576.556	242.88
576.767	244.88
576.978	239.88
577.188	245.88
577.399	229.88
577.61	232.88
577.821	232.88
578.032	242.88
578.243	263.88
578.454	356.88
578.665	303.88
578.875	263.88
579.086	224.88
579.297	221.88
579.508	242.88
579.718	221.88
579.929	239.88
580.14	233.88
580.35	229.88
580.561	231.88
580.772	234.88
580.982	220.88
581.193	234.88
581.403	230.88
581.614	240.88
581.825	234.88
582.035	233.88
582.246	252.88
582.456	235.88
582.667	220.88
582.877	222.88
583.087	223.88
583.298	205.88
583.508	230.88
583.719	229.88
583.929	228.88
584.139	234.88
584.35	221.88
584.56	219.88
584.77	232.88
584.981	230.88
585.191	217.88
585.401	222.88
585.611	221.88
585.821	233.88
586.032	219.88
586.242	217.88
586.452	211.88
586.662	234.88
586.872	215.88
587.082	229.88
587.292	239.88
587.502	217.88
587.713	220.88
587.923	228.88
588.133	227.88
588.343	216.88
588.553	233.88
588.762	217.88
588.972	236.88
589.182	228.88
589.392	234.88
589.602	231.88
589.812	226.88
590.022	217.88
590.232	219.88
590.441	198.88
590.651	212.88
590.861	220.88
591.071	219.88
591.281	217.88
591.49	226.88
591.7	235.88
591.91	230.88
592.119	213.88
592.329	217.88
592.539	215.88
592.748	233.88
592.958	221.88
593.167	213.88
593.377	208.88
593.587	239.88
593.796	224.88
594.006	215.88
594.215	218.88
594.424	225.88
594.634	219.88
594.843	219.88
595.053	226.88
595.262	220.88
595.472	230.88
595.681	223.88
595.89	210.88
596.1	204.88
596.309	205.88
596.518	198.88
596.727	208.88
596.937	218.88
597.146	208.88
597.355	207.88
597.564	202.88
597.774	202.88
597.983	204.88
598.192	216.88
598.401	197.88
598.61	205.88
598.819	197.88
599.028	204.88
599.237	219.88
599.446	213.88
599.655	199.88
599.864	206.88
600.073	190.88
600.282	188.88
600.491	201.88
600.7	171.88
600.909	191.88
601.118	193.88
601.327	195.88
601.536	179.88
601.745	186.88
601.953	194.88
602.162	196.88
602.371	192.88
602.58	194.88
602.789	192.88
602.997	212.88
603.206	187.88
603.415	168.88
603.623	205.88
603.832	181.88
604.041	175.88
604.249	188.88
604.458	202.88
604.666	193.88
604.875	196.88
605.084	181.88
605.292	184.88
605.501	176.88
605.709	192.88
605.918	194.88
606.126	197.88
606.334	183.88
606.543	175.88
606.751	194.88
606.96	175.88
607.168	179.88
607.376	180.88
607.585	189.88
607.793	184.88
608.001	194.88
608.21	191.88
608.418	195.88
608.626	183.88
608.834	177.88
609.043	195.88
609.251	186.88
609.459	182.88
609.667	179.88
609.875	177.88
610.083	204.88
610.291	183.88
610.499	173.88
610.707	183.88
610.916	178.88
611.124	188.88
611.332	191.88
611.54	186.88
611.748	194.88
611.955	175.88
612.163	189.88
612.371	195.88
612.579	185.88
612.787	192.88
612.995	180.88
613.203	185.88
613.411	188.88
613.618	195.88
613.826	182.88
614.034	185.88
614.242	192.88
614.449	186.88
614.657	188.88
614.865	178.88
615.072	181.88
615.28	193.88
615.488	192.88
615.695	185.88
615.903	188.88
616.111	175.88
616.318	162.88
616.526	175.88
616.733	183.88
616.941	185.88
617.148	171.88
617.356	184.88
617.563	177.88
617.771	181.88
617.978	187.88
618.185	188.88
618.393	185.88
618.6	189.88
618.807	185.88
619.015	184.88
619.222	183.88
619.429	182.88
619.637	177.88
619.844	172.88
620.051	189.88
620.258	161.88
620.466	182.88
620.673	168.88
620.88	177.88
621.087	171.88
621.294	171.88
621.501	187.88
621.708	167.88
621.915	180.88
622.122	149.88
622.329	165.88
622.536	171.88
622.743	181.88
622.95	176.88
623.157	172.88
623.364	175.88
623.571	182.88
623.778	177.88
623.985	171.88
624.192	179.88
624.399	181.88
624.606	151.88
624.812	175.88
625.019	161.88
625.226	181.88
625.433	169.88
625.639	175.88
625.846	165.88
626.053	149.88
626.259	157.88
626.466	162.88
626.673	156.88
626.879	152.88
627.086	164.88
627.293	155.88
627.499	156.88
627.706	169.88
627.912	165.88
628.119	162.88
628.325	164.88
628.532	168.88
628.738	171.88
628.945	158.88
629.151	159.88
629.357	164.88
629.564	175.88
629.77	159.88
629.976	152.88
630.183	149.88
630.389	162.88
630.595	135.88
630.802	166.88
631.008	148.88
631.214	163.88
631.42	151.88
631.627	155.88
631.833	160.88
632.039	155.88
632.245	150.88
632.451	133.88
632.657	135.88
632.863	150.88
633.069	149.88
633.275	147.88
633.481	129.88
633.688	164.88
633.893	151.88
634.099	149.88
634.305	159.88
634.511	157.88
634.717	157.88
634.923	145.88
635.129	143.88
635.335	163.88
635.541	147.88
635.747	129.88
635.952	133.88
636.158	149.88
636.364	148.88
636.57	141.88
636.775	140.88
636.981	132.88
637.187	148.88
637.392	162.88
637.598	155.88
637.804	137.88
638.009	148.88
638.215	147.88
638.421	132.88
638.626	139.88
638.832	137.88
639.037	141.88
639.243	145.88
639.448	155.88
639.654	145.88
639.859	139.88
640.065	127.88
640.27	139.88
640.475	135.88
640.681	132.88
640.886	145.88
641.091	143.88
641.297	153.88
641.502	131.88
641.707	131.88
641.913	141.88
642.118	142.88
642.323	139.88
642.528	156.88
642.733	137.88
642.939	137.88
643.144	132.88
643.349	138.88
643.554	131.88
643.759	137.88
643.964	135.88
644.169	127.88
644.374	128.88
644.579	140.88
644.784	159.88
644.989	144.88
645.194	139.88
645.399	140.88
645.604	141.88
645.809	128.88
646.014	133.88
646.219	126.88
646.423	148.88
646.628	140.88
646.833	150.88
647.038	119.88
647.243	143.88
647.447	132.88
647.652	145.88
647.857	151.88
648.062	141.88
648.266	139.88
648.471	144.88
648.676	145.88
648.88	147.88
649.085	141.88
649.289	144.88
649.494	165.88
649.698	144.88
649.903	155.88
650.107	142.88
650.312	142.88
650.516	121.88
650.721	136.88
650.925	147.88
651.13	149.88
651.334	130.88
651.539	114.88
651.743	123.88
651.947	120.88
652.152	139.88
652.356	125.88
652.56	132.88
652.764	134.88
652.969	137.88
653.173	117.88
653.377	111.88
653.581	120.88
653.785	127.88
653.99	117.88
654.194	115.88
654.398	106.88
654.602	106.88
654.806	109.88
655.01	121.88
655.214	128.88
655.418	124.88
655.622	122.88
655.826	128.88
656.03	117.88
656.234	117.88
656.438	125.88
656.642	122.88
656.846	128.88
657.049	119.88
657.253	121.88
657.457	113.88
657.661	105.88
657.865	106.88
658.068	98.88
658.272	93.88
658.476	97.88
658.68	103.88
658.883	108.88
659.087	86.88
659.291	82.88
659.494	112.88
659.698	87.88
659.901	92.88
660.105	87.88
660.309	88.88
660.512	92.88
660.716	77.88
660.919	72.88
661.123	102.88
661.326	96.88
661.53	88.88
661.733	95.88
661.936	89.88
662.14	88.88
662.343	87.88
662.546	84.88
662.75	96.88
662.953	100.88
663.156	87.88
663.36	87.88
663.563	72.88
663.766	75.88
663.969	83.88
664.173	81.88
664.376	91.88
664.579	85.88
664.782	91.88
664.985	98.88
665.188	93.88
665.391	91.88
665.594	82.88
665.797	83.88
666	67.88
666.203	80.88
666.406	67.88
666.609	76.88
666.812	71.88
667.015	62.88
667.218	83.88
667.421	77.88
667.624	82.88
667.827	75.88
668.03	61.88
668.232	81.88
668.435	80.88
668.638	95.88
668.841	72.88
669.043	74.88
669.246	81.88
669.449	76.88
669.651	91.88
669.854	79.88
670.057	82.88
670.259	81.88
670.462	76.88
670.665	79.88
670.867	77.88
671.07	62.88
671.272	72.88
671.475	85.88
671.677	85.88
671.88	74.88
672.082	85.88
672.284	94.88
672.487	89.88
672.689	76.88
672.892	89.88
