Data from 1983.PennyLincolnUp.Lamp.En5.5.200Scan.071819.P1_HRD10591_16-52-27-965.txt Node
Date: Thu Jul 18 16:52:27 EDT 2019
User: cochatt
Spectrometer: HR+D1059
Trigger mode: 1
Integration Time (sec): 1.000000E-1
Scans to average: 1
Electric dark correction enabled: true
Nonlinearity correction enabled: false
Boxcar width: 0
XAxis mode: Wavelengths
Number of Pixels in Spectrum: 2048
>>>>>Begin Spectral Data<<<<<
223.165	-26.12
223.4	-26.12
223.635	-26.12
223.869	-23.12
224.104	-21.12
224.338	-13.12
224.573	-1.12
224.808	-7.12
225.042	-12.12
225.277	3.88
225.511	-7.12
225.746	9.88
225.98	5.88
226.215	2.88
226.449	29.88
226.683	11.88
226.918	16.88
227.152	29.88
227.387	46.88
227.621	36.88
227.856	46.88
228.09	41.88
228.324	56.88
228.559	51.88
228.793	65.88
229.027	92.88
229.262	101.88
229.496	106.88
229.73	118.88
229.964	135.88
230.199	125.88
230.433	110.88
230.667	107.88
230.901	98.88
231.136	94.88
231.37	107.88
231.604	110.88
231.838	109.88
232.072	116.88
232.306	96.88
232.541	117.88
232.775	121.88
233.009	110.88
233.243	111.88
233.477	115.88
233.711	121.88
233.945	103.88
234.179	100.88
234.413	115.88
234.647	117.88
234.881	108.88
235.115	101.88
235.349	115.88
235.583	107.88
235.817	104.88
236.051	114.88
236.285	110.88
236.519	118.88
236.753	134.88
236.987	120.88
237.221	158.88
237.455	188.88
237.689	146.88
237.922	130.88
238.156	128.88
238.39	128.88
238.624	123.88
238.858	123.88
239.091	116.88
239.325	117.88
239.559	102.88
239.793	111.88
240.027	124.88
240.26	133.88
240.494	126.88
240.728	140.88
240.961	146.88
241.195	131.88
241.429	140.88
241.662	135.88
241.896	125.88
242.13	126.88
242.363	109.88
242.597	118.88
242.83	121.88
243.064	122.88
243.298	138.88
243.531	125.88
243.765	120.88
243.998	131.88
244.232	123.88
244.465	113.88
244.699	127.88
244.932	144.88
245.166	122.88
245.399	124.88
245.633	143.88
245.866	141.88
246.099	136.88
246.333	127.88
246.566	133.88
246.8	127.88
247.033	140.88
247.266	138.88
247.5	156.88
247.733	122.88
247.966	147.88
248.2	156.88
248.433	144.88
248.666	150.88
248.899	148.88
249.133	172.88
249.366	175.88
249.599	179.88
249.832	157.88
250.066	157.88
250.299	167.88
250.532	169.88
250.765	173.88
250.998	184.88
251.231	186.88
251.465	179.88
251.698	180.88
251.931	187.88
252.164	171.88
252.397	174.88
252.63	174.88
252.863	157.88
253.096	194.88
253.329	197.88
253.562	179.88
253.795	173.88
254.028	180.88
254.261	180.88
254.494	189.88
254.727	214.88
254.96	211.88
255.193	225.88
255.426	201.88
255.659	195.88
255.892	186.88
256.124	181.88
256.357	194.88
256.59	199.88
256.823	189.88
257.056	185.88
257.289	194.88
257.521	188.88
257.754	177.88
257.987	173.88
258.22	187.88
258.452	172.88
258.685	189.88
258.918	173.88
259.151	161.88
259.383	179.88
259.616	199.88
259.849	199.88
260.081	196.88
260.314	201.88
260.547	201.88
260.779	214.88
261.012	202.88
261.244	193.88
261.477	205.88
261.71	186.88
261.942	188.88
262.175	202.88
262.407	185.88
262.64	186.88
262.872	189.88
263.105	179.88
263.337	186.88
263.57	189.88
263.802	196.88
264.035	193.88
264.267	169.88
264.499	179.88
264.732	176.88
264.964	181.88
265.197	179.88
265.429	189.88
265.661	198.88
265.894	183.88
266.126	182.88
266.358	182.88
266.591	180.88
266.823	196.88
267.055	186.88
267.287	189.88
267.52	173.88
267.752	193.88
267.984	191.88
268.216	198.88
268.448	197.88
268.681	203.88
268.913	219.88
269.145	216.88
269.377	240.88
269.609	219.88
269.841	217.88
270.073	222.88
270.306	235.88
270.538	250.88
270.77	264.88
271.002	236.88
271.234	246.88
271.466	254.88
271.698	238.88
271.93	254.88
272.162	263.88
272.394	248.88
272.626	245.88
272.858	233.88
273.09	234.88
273.322	219.88
273.553	228.88
273.785	222.88
274.017	217.88
274.249	208.88
274.481	221.88
274.713	215.88
274.945	222.88
275.176	221.88
275.408	222.88
275.64	220.88
275.872	221.88
276.104	237.88
276.335	219.88
276.567	220.88
276.799	241.88
277.031	245.88
277.262	269.88
277.494	258.88
277.726	266.88
277.957	254.88
278.189	230.88
278.421	222.88
278.652	241.88
278.884	238.88
279.115	223.88
279.347	236.88
279.579	229.88
279.81	228.88
280.042	215.88
280.273	224.88
280.505	231.88
280.736	230.88
280.968	237.88
281.199	215.88
281.431	235.88
281.662	230.88
281.894	224.88
282.125	240.88
282.356	243.88
282.588	237.88
282.819	265.88
283.051	240.88
283.282	227.88
283.513	239.88
283.745	221.88
283.976	231.88
284.207	234.88
284.439	234.88
284.67	219.88
284.901	245.88
285.132	247.88
285.364	230.88
285.595	238.88
285.826	245.88
286.057	234.88
286.288	222.88
286.52	249.88
286.751	234.88
286.982	226.88
287.213	223.88
287.444	241.88
287.675	241.88
287.906	261.88
288.138	272.88
288.369	245.88
288.6	247.88
288.831	263.88
289.062	242.88
289.293	244.88
289.524	251.88
289.755	242.88
289.986	242.88
290.217	222.88
290.448	236.88
290.679	262.88
290.91	265.88
291.141	233.88
291.371	230.88
291.602	234.88
291.833	263.88
292.064	248.88
292.295	226.88
292.526	241.88
292.757	241.88
292.987	260.88
293.218	252.88
293.449	248.88
293.68	244.88
293.91	244.88
294.141	241.88
294.372	234.88
294.603	233.88
294.833	244.88
295.064	255.88
295.295	261.88
295.525	257.88
295.756	255.88
295.987	264.88
296.217	269.88
296.448	271.88
296.679	265.88
296.909	262.88
297.14	242.88
297.37	250.88
297.601	252.88
297.831	238.88
298.062	245.88
298.292	272.88
298.523	266.88
298.753	275.88
298.984	268.88
299.214	265.88
299.445	260.88
299.675	263.88
299.905	256.88
300.136	274.88
300.366	265.88
300.597	265.88
300.827	271.88
301.057	290.88
301.288	271.88
301.518	273.88
301.748	270.88
301.979	271.88
302.209	290.88
302.439	268.88
302.669	247.88
302.9	284.88
303.13	279.88
303.36	274.88
303.59	276.88
303.82	271.88
304.051	292.88
304.281	279.88
304.511	288.88
304.741	265.88
304.971	285.88
305.201	270.88
305.431	269.88
305.661	268.88
305.891	278.88
306.121	263.88
306.352	281.88
306.582	283.88
306.812	289.88
307.042	278.88
307.272	275.88
307.502	283.88
307.731	290.88
307.961	298.88
308.191	281.88
308.421	280.88
308.651	287.88
308.881	277.88
309.111	298.88
309.341	293.88
309.571	305.88
309.8	291.88
310.03	302.88
310.26	305.88
310.49	329.88
310.72	325.88
310.949	338.88
311.179	314.88
311.409	308.88
311.639	313.88
311.868	313.88
312.098	307.88
312.328	315.88
312.557	323.88
312.787	349.88
313.017	341.88
313.246	326.88
313.476	328.88
313.706	321.88
313.935	319.88
314.165	339.88
314.394	339.88
314.624	335.88
314.853	309.88
315.083	316.88
315.312	324.88
315.542	316.88
315.771	313.88
316.001	314.88
316.23	313.88
316.46	325.88
316.689	299.88
316.919	305.88
317.148	334.88
317.377	324.88
317.607	328.88
317.836	323.88
318.065	316.88
318.295	316.88
318.524	317.88
318.753	324.88
318.983	316.88
319.212	321.88
319.441	318.88
319.67	315.88
319.9	316.88
320.129	314.88
320.358	328.88
320.587	317.88
320.816	323.88
321.046	339.88
321.275	335.88
321.504	313.88
321.733	344.88
321.962	316.88
322.191	345.88
322.42	357.88
322.649	370.88
322.878	371.88
323.108	397.88
323.337	401.88
323.566	402.88
323.795	417.88
324.024	480.88
324.253	565.88
324.482	785.88
324.71	1128.88
324.939	1556.88
325.168	1294.88
325.397	699.88
325.626	505.88
325.855	436.88
326.084	400.88
326.313	399.88
326.542	416.88
326.77	449.88
326.999	522.88
327.228	707.88
327.457	1001.88
327.686	1151.88
327.914	773.88
328.143	542.88
328.372	481.88
328.6	455.88
328.829	454.88
329.058	449.88
329.287	467.88
329.515	429.88
329.744	396.88
329.972	410.88
330.201	414.88
330.43	412.88
330.658	446.88
330.887	479.88
331.115	468.88
331.344	422.88
331.572	403.88
331.801	402.88
332.03	397.88
332.258	389.88
332.486	384.88
332.715	365.88
332.943	373.88
333.172	347.88
333.4	381.88
333.629	367.88
333.857	381.88
334.085	385.88
334.314	381.88
334.542	370.88
334.771	380.88
334.999	375.88
335.227	363.88
335.455	384.88
335.684	349.88
335.912	369.88
336.14	371.88
336.369	377.88
336.597	371.88
336.825	375.88
337.053	354.88
337.281	339.88
337.51	354.88
337.738	359.88
337.966	351.88
338.194	358.88
338.422	364.88
338.65	361.88
338.878	342.88
339.106	359.88
339.334	344.88
339.562	389.88
339.79	357.88
340.018	357.88
340.246	364.88
340.474	369.88
340.702	369.88
340.93	357.88
341.158	357.88
341.386	362.88
341.614	377.88
341.842	350.88
342.07	354.88
342.298	352.88
342.526	331.88
342.754	335.88
342.981	339.88
343.209	338.88
343.437	351.88
343.665	361.88
343.893	358.88
344.12	374.88
344.348	358.88
344.576	358.88
344.804	362.88
345.031	342.88
345.259	378.88
345.487	370.88
345.714	344.88
345.942	351.88
346.17	347.88
346.397	364.88
346.625	351.88
346.853	372.88
347.08	352.88
347.308	349.88
347.535	341.88
347.763	365.88
347.99	340.88
348.218	340.88
348.445	361.88
348.673	374.88
348.9	340.88
349.128	335.88
349.355	333.88
349.583	327.88
349.81	332.88
350.037	333.88
350.265	339.88
350.492	329.88
350.72	326.88
350.947	355.88
351.174	357.88
351.402	346.88
351.629	347.88
351.856	338.88
352.083	346.88
352.311	362.88
352.538	353.88
352.765	352.88
352.992	356.88
353.22	361.88
353.447	345.88
353.674	346.88
353.901	341.88
354.128	316.88
354.355	321.88
354.583	329.88
354.81	330.88
355.037	343.88
355.264	309.88
355.491	322.88
355.718	325.88
355.945	319.88
356.172	321.88
356.399	321.88
356.626	321.88
356.853	328.88
357.08	326.88
357.307	310.88
357.534	331.88
357.761	329.88
357.988	330.88
358.215	322.88
358.441	317.88
358.668	315.88
358.895	334.88
359.122	346.88
359.349	330.88
359.576	343.88
359.802	354.88
360.029	376.88
360.256	365.88
360.483	369.88
360.709	327.88
360.936	342.88
361.163	341.88
361.39	349.88
361.616	349.88
361.843	329.88
362.07	315.88
362.296	333.88
362.523	337.88
362.749	345.88
362.976	355.88
363.203	347.88
363.429	354.88
363.656	335.88
363.882	325.88
364.109	319.88
364.335	326.88
364.562	323.88
364.788	321.88
365.015	338.88
365.241	314.88
365.468	337.88
365.694	333.88
365.92	333.88
366.147	316.88
366.373	317.88
366.599	324.88
366.826	317.88
367.052	329.88
367.278	323.88
367.505	339.88
367.731	329.88
367.957	342.88
368.184	315.88
368.41	338.88
368.636	339.88
368.862	349.88
369.089	342.88
369.315	339.88
369.541	342.88
369.767	332.88
369.993	334.88
370.219	335.88
370.445	327.88
370.672	320.88
370.898	319.88
371.124	324.88
371.35	340.88
371.576	329.88
371.802	318.88
372.028	340.88
372.254	323.88
372.48	316.88
372.706	324.88
372.932	328.88
373.158	339.88
373.384	337.88
373.61	313.88
373.835	322.88
374.061	327.88
374.287	338.88
374.513	323.88
374.739	337.88
374.965	336.88
375.191	333.88
375.416	329.88
375.642	342.88
375.868	327.88
376.094	325.88
376.319	325.88
376.545	313.88
376.771	349.88
376.997	331.88
377.222	335.88
377.448	301.88
377.674	322.88
377.899	323.88
378.125	327.88
378.35	338.88
378.576	309.88
378.802	326.88
379.027	334.88
379.253	327.88
379.478	317.88
379.704	328.88
379.929	333.88
380.155	331.88
380.38	315.88
380.606	317.88
380.831	324.88
381.057	360.88
381.282	326.88
381.507	336.88
381.733	331.88
381.958	339.88
382.184	344.88
382.409	328.88
382.634	342.88
382.86	338.88
383.085	333.88
383.31	335.88
383.535	325.88
383.761	334.88
383.986	334.88
384.211	335.88
384.436	348.88
384.662	343.88
384.887	348.88
385.112	357.88
385.337	349.88
385.562	363.88
385.787	355.88
386.013	356.88
386.238	349.88
386.463	347.88
386.688	354.88
386.913	347.88
387.138	346.88
387.363	363.88
387.588	348.88
387.813	358.88
388.038	347.88
388.263	339.88
388.488	346.88
388.713	364.88
388.938	363.88
389.163	364.88
389.387	341.88
389.612	357.88
389.837	360.88
390.062	354.88
390.287	367.88
390.512	340.88
390.736	344.88
390.961	369.88
391.186	346.88
391.411	349.88
391.636	381.88
391.86	347.88
392.085	354.88
392.31	380.88
392.534	340.88
392.759	368.88
392.984	370.88
393.208	326.88
393.433	359.88
393.658	359.88
393.882	352.88
394.107	357.88
394.331	356.88
394.556	367.88
394.78	364.88
395.005	364.88
395.229	360.88
395.454	362.88
395.678	382.88
395.903	357.88
396.127	381.88
396.352	369.88
396.576	369.88
396.801	378.88
397.025	371.88
397.249	360.88
397.474	377.88
397.698	387.88
397.922	383.88
398.147	390.88
398.371	398.88
398.595	399.88
398.82	398.88
399.044	390.88
399.268	432.88
399.492	439.88
399.717	445.88
399.941	472.88
400.165	475.88
400.389	465.88
400.613	419.88
400.837	429.88
401.062	405.88
401.286	410.88
401.51	409.88
401.734	421.88
401.958	410.88
402.182	389.88
402.406	408.88
402.63	413.88
402.854	397.88
403.078	417.88
403.302	398.88
403.526	422.88
403.75	400.88
403.974	421.88
404.198	405.88
404.422	397.88
404.645	391.88
404.869	415.88
405.093	409.88
405.317	440.88
405.541	456.88
405.765	443.88
405.988	420.88
406.212	411.88
406.436	432.88
406.66	453.88
406.883	451.88
407.107	448.88
407.331	514.88
407.555	523.88
407.778	511.88
408.002	478.88
408.226	464.88
408.449	449.88
408.673	459.88
408.896	475.88
409.12	505.88
409.344	482.88
409.567	441.88
409.791	433.88
410.014	404.88
410.238	413.88
410.461	424.88
410.685	420.88
410.908	425.88
411.132	471.88
411.355	475.88
411.578	447.88
411.802	403.88
412.025	418.88
412.249	405.88
412.472	403.88
412.695	418.88
412.919	414.88
413.142	396.88
413.365	397.88
413.589	393.88
413.812	381.88
414.035	386.88
414.258	404.88
414.482	390.88
414.705	384.88
414.928	383.88
415.151	385.88
415.374	387.88
415.597	396.88
415.821	397.88
416.044	395.88
416.267	400.88
416.49	400.88
416.713	385.88
416.936	393.88
417.159	394.88
417.382	413.88
417.605	376.88
417.828	383.88
418.051	408.88
418.274	393.88
418.497	383.88
418.72	379.88
418.943	381.88
419.166	391.88
419.389	426.88
419.611	413.88
419.834	405.88
420.057	417.88
420.28	417.88
420.503	397.88
420.726	386.88
420.948	416.88
421.171	450.88
421.394	466.88
421.617	403.88
421.839	402.88
422.062	404.88
422.285	430.88
422.507	445.88
422.73	520.88
422.953	467.88
423.175	427.88
423.398	411.88
423.621	403.88
423.843	428.88
424.066	425.88
424.288	437.88
424.511	457.88
424.733	482.88
424.956	546.88
425.178	509.88
425.401	527.88
425.623	543.88
425.846	470.88
426.068	440.88
426.291	422.88
426.513	444.88
426.735	433.88
426.958	475.88
427.18	518.88
427.402	598.88
427.625	653.88
427.847	588.88
428.069	493.88
428.292	450.88
428.514	425.88
428.736	409.88
428.958	414.88
429.181	412.88
429.403	406.88
429.625	399.88
429.847	440.88
430.069	467.88
430.292	483.88
430.514	412.88
430.736	413.88
430.958	406.88
431.18	387.88
431.402	377.88
431.624	381.88
431.846	380.88
432.068	383.88
432.29	381.88
432.512	397.88
432.734	380.88
432.956	393.88
433.178	386.88
433.4	393.88
433.622	393.88
433.844	383.88
434.066	373.88
434.287	378.88
434.509	398.88
434.731	375.88
434.953	403.88
435.175	433.88
435.397	412.88
435.618	429.88
435.84	470.88
436.062	526.88
436.284	561.88
436.505	471.88
436.727	445.88
436.949	422.88
437.17	403.88
437.392	414.88
437.614	412.88
437.835	459.88
438.057	509.88
438.278	571.88
438.5	569.88
438.721	610.88
438.943	591.88
439.165	479.88
439.386	466.88
439.608	443.88
439.829	442.88
440.05	433.88
440.272	476.88
440.493	483.88
440.715	421.88
440.936	396.88
441.158	405.88
441.379	426.88
441.6	425.88
441.822	437.88
442.043	468.88
442.264	506.88
442.486	567.88
442.707	467.88
442.928	427.88
443.149	450.88
443.371	455.88
443.592	497.88
443.813	577.88
444.034	566.88
444.255	493.88
444.476	456.88
444.698	434.88
444.919	438.88
445.14	568.88
445.361	509.88
445.582	483.88
445.803	509.88
446.024	568.88
446.245	575.88
446.466	540.88
446.687	455.88
446.908	420.88
447.129	405.88
447.35	398.88
447.571	413.88
447.792	403.88
448.013	415.88
448.234	426.88
448.455	456.88
448.675	551.88
448.896	604.88
449.117	500.88
449.338	482.88
449.559	571.88
449.779	634.88
450	519.88
450.221	470.88
450.442	434.88
450.662	399.88
450.883	389.88
451.104	400.88
451.324	381.88
451.545	371.88
451.766	372.88
451.986	385.88
452.207	374.88
452.428	353.88
452.648	361.88
452.869	374.88
453.089	361.88
453.31	383.88
453.53	350.88
453.751	380.88
453.971	370.88
454.192	383.88
454.412	379.88
454.633	360.88
454.853	363.88
455.073	350.88
455.294	386.88
455.514	430.88
455.734	393.88
455.955	364.88
456.175	337.88
456.395	347.88
456.616	317.88
456.836	340.88
457.056	341.88
457.276	346.88
457.497	343.88
457.717	346.88
457.937	326.88
458.157	339.88
458.377	345.88
458.598	378.88
458.818	406.88
459.038	463.88
459.258	485.88
459.478	407.88
459.698	386.88
459.918	377.88
460.138	390.88
460.358	391.88
460.578	400.88
460.798	391.88
461.018	397.88
461.238	391.88
461.458	399.88
461.678	399.88
461.898	399.88
462.118	400.88
462.338	397.88
462.558	366.88
462.777	397.88
462.997	407.88
463.217	423.88
463.437	433.88
463.657	404.88
463.876	387.88
464.096	416.88
464.316	414.88
464.536	410.88
464.755	426.88
464.975	402.88
465.195	449.88
465.414	474.88
465.634	444.88
465.854	397.88
466.073	406.88
466.293	369.88
466.512	378.88
466.732	351.88
466.951	375.88
467.171	358.88
467.391	379.88
467.61	375.88
467.829	382.88
468.049	377.88
468.268	355.88
468.488	357.88
468.707	366.88
468.927	372.88
469.146	381.88
469.365	376.88
469.585	361.88
469.804	373.88
470.023	383.88
470.243	377.88
470.462	387.88
470.681	400.88
470.901	401.88
471.12	391.88
471.339	393.88
471.558	379.88
471.777	375.88
471.997	378.88
472.216	378.88
472.435	389.88
472.654	378.88
472.873	377.88
473.092	361.88
473.311	358.88
473.53	380.88
473.749	360.88
473.968	400.88
474.187	483.88
474.406	491.88
474.625	414.88
474.844	414.88
475.063	383.88
475.282	358.88
475.501	393.88
475.72	383.88
475.939	381.88
476.158	371.88
476.377	389.88
476.596	395.88
476.814	387.88
477.033	395.88
477.252	394.88
477.471	399.88
477.69	399.88
477.908	420.88
478.127	414.88
478.346	411.88
478.564	425.88
478.783	418.88
479.002	407.88
479.22	429.88
479.439	437.88
479.658	455.88
479.876	466.88
480.095	459.88
480.313	477.88
480.532	468.88
480.751	438.88
480.969	443.88
481.188	458.88
481.406	444.88
481.624	453.88
481.843	427.88
482.061	445.88
482.28	426.88
482.498	428.88
482.717	410.88
482.935	437.88
483.153	432.88
483.372	426.88
483.59	442.88
483.808	421.88
484.027	414.88
484.245	432.88
484.463	445.88
484.681	440.88
484.9	443.88
485.118	443.88
485.336	446.88
485.554	439.88
485.772	466.88
485.99	441.88
486.209	463.88
486.427	454.88
486.645	458.88
486.863	466.88
487.081	472.88
487.299	469.88
487.517	467.88
487.735	456.88
487.953	457.88
488.171	468.88
488.389	479.88
488.607	461.88
488.825	456.88
489.043	462.88
489.261	463.88
489.479	480.88
489.696	468.88
489.914	466.88
490.132	485.88
490.35	500.88
490.568	465.88
490.786	486.88
491.003	487.88
491.221	526.88
491.439	528.88
491.657	525.88
491.874	517.88
492.092	519.88
492.31	525.88
492.527	542.88
492.745	555.88
492.963	547.88
493.18	519.88
493.398	545.88
493.615	545.88
493.833	536.88
494.05	526.88
494.268	540.88
494.485	540.88
494.703	528.88
494.92	527.88
495.138	546.88
495.355	541.88
495.573	554.88
495.79	565.88
496.008	545.88
496.225	545.88
496.442	541.88
496.66	554.88
496.877	545.88
497.094	554.88
497.312	561.88
497.529	567.88
497.746	565.88
497.963	579.88
498.181	604.88
498.398	576.88
498.615	598.88
498.832	627.88
499.049	622.88
499.267	637.88
499.484	643.88
499.701	686.88
499.918	684.88
500.135	725.88
500.352	750.88
500.569	736.88
500.786	719.88
501.003	745.88
501.22	723.88
501.437	697.88
501.654	661.88
501.871	704.88
502.088	645.88
502.305	653.88
502.522	622.88
502.739	585.88
502.956	615.88
503.172	570.88
503.389	573.88
503.606	579.88
503.823	582.88
504.04	572.88
504.256	570.88
504.473	534.88
504.69	551.88
504.907	541.88
505.123	554.88
505.34	535.88
505.557	541.88
505.773	543.88
505.99	523.88
506.207	518.88
506.423	519.88
506.64	515.88
506.856	523.88
507.073	510.88
507.289	495.88
507.506	513.88
507.722	509.88
507.939	512.88
508.155	503.88
508.372	504.88
508.588	485.88
508.805	502.88
509.021	501.88
509.238	519.88
509.454	496.88
509.67	498.88
509.887	478.88
510.103	506.88
510.319	479.88
510.536	581.88
510.752	921.88
510.968	753.88
511.184	501.88
511.401	487.88
511.617	476.88
511.833	478.88
512.049	486.88
512.265	453.88
512.481	468.88
512.698	479.88
512.914	455.88
513.13	463.88
513.346	468.88
513.562	454.88
513.778	470.88
513.994	479.88
514.21	491.88
514.426	491.88
514.642	523.88
514.858	538.88
515.074	569.88
515.29	653.88
515.506	994.88
515.721	810.88
515.937	569.88
516.153	521.88
516.369	522.88
516.585	502.88
516.801	488.88
517.016	487.88
517.232	475.88
517.448	473.88
517.664	509.88
517.879	508.88
518.095	494.88
518.311	480.88
518.527	469.88
518.742	473.88
518.958	474.88
519.173	481.88
519.389	484.88
519.605	456.88
519.82	450.88
520.036	503.88
520.251	486.88
520.467	519.88
520.682	504.88
520.898	531.88
521.113	533.88
521.329	574.88
521.544	613.88
521.76	782.88
521.975	1244.88
522.19	1256.88
522.406	701.88
522.621	528.88
522.836	480.88
523.052	439.88
523.267	467.88
523.482	431.88
523.698	429.88
523.913	456.88
524.128	445.88
524.343	438.88
524.559	419.88
524.774	390.88
524.989	399.88
525.204	439.88
525.419	399.88
525.634	404.88
525.849	391.88
526.064	400.88
526.28	412.88
526.495	399.88
526.71	402.88
526.925	395.88
527.14	387.88
527.355	367.88
527.57	378.88
527.785	397.88
527.999	358.88
528.214	409.88
528.429	389.88
528.644	407.88
528.859	394.88
529.074	389.88
529.289	413.88
529.503	461.88
529.718	436.88
529.933	416.88
530.148	413.88
530.363	400.88
530.577	379.88
530.792	394.88
531.007	372.88
531.221	365.88
531.436	396.88
531.651	373.88
531.865	366.88
532.08	375.88
532.295	373.88
532.509	386.88
532.724	371.88
532.938	352.88
533.153	377.88
533.367	386.88
533.582	354.88
533.796	379.88
534.011	374.88
534.225	374.88
534.44	376.88
534.654	375.88
534.868	366.88
535.083	365.88
535.297	384.88
535.511	377.88
535.726	382.88
535.94	395.88
536.154	381.88
536.369	367.88
536.583	365.88
536.797	379.88
537.011	362.88
537.225	354.88
537.44	362.88
537.654	358.88
537.868	349.88
538.082	353.88
538.296	358.88
538.51	366.88
538.724	356.88
538.938	387.88
539.153	365.88
539.367	381.88
539.581	370.88
539.795	359.88
540.009	369.88
540.222	351.88
540.436	377.88
540.65	355.88
540.864	365.88
541.078	374.88
541.292	346.88
541.506	361.88
541.72	364.88
541.934	362.88
542.147	346.88
542.361	338.88
542.575	358.88
542.789	350.88
543.002	349.88
543.216	347.88
543.43	377.88
543.644	366.88
543.857	358.88
544.071	348.88
544.285	364.88
544.498	357.88
544.712	353.88
544.925	348.88
545.139	341.88
545.352	353.88
545.566	340.88
545.779	360.88
545.993	347.88
546.206	331.88
546.42	335.88
546.633	346.88
546.847	349.88
547.06	352.88
547.274	340.88
547.487	341.88
547.7	337.88
547.914	343.88
548.127	350.88
548.34	337.88
548.554	348.88
548.767	349.88
548.98	346.88
549.193	327.88
549.407	325.88
549.62	357.88
549.833	345.88
550.046	343.88
550.259	325.88
550.473	335.88
550.686	328.88
550.899	350.88
551.112	341.88
551.325	332.88
551.538	340.88
551.751	324.88
551.964	342.88
552.177	326.88
552.39	331.88
552.603	346.88
552.816	348.88
553.029	338.88
553.242	340.88
553.455	343.88
553.667	354.88
553.88	358.88
554.093	338.88
554.306	338.88
554.519	329.88
554.732	328.88
554.944	340.88
555.157	315.88
555.37	311.88
555.583	319.88
555.795	331.88
556.008	341.88
556.221	318.88
556.433	322.88
556.646	319.88
556.859	309.88
557.071	314.88
557.284	320.88
557.496	298.88
557.709	325.88
557.921	329.88
558.134	299.88
558.346	317.88
558.559	325.88
558.771	310.88
558.984	311.88
559.196	289.88
559.409	319.88
559.621	307.88
559.833	288.88
560.046	291.88
560.258	307.88
560.47	301.88
560.683	305.88
560.895	287.88
561.107	301.88
561.32	297.88
561.532	277.88
561.744	303.88
561.956	290.88
562.168	291.88
562.381	295.88
562.593	309.88
562.805	306.88
563.017	314.88
563.229	315.88
563.441	297.88
563.653	294.88
563.865	303.88
564.077	310.88
564.289	315.88
564.501	317.88
564.713	293.88
564.925	319.88
565.137	322.88
565.349	313.88
565.561	307.88
565.773	335.88
565.985	326.88
566.197	331.88
566.408	358.88
566.62	348.88
566.832	351.88
567.044	363.88
567.255	351.88
567.467	353.88
567.679	387.88
567.891	386.88
568.102	361.88
568.314	358.88
568.526	342.88
568.737	333.88
568.949	330.88
569.161	321.88
569.372	326.88
569.584	307.88
569.795	309.88
570.007	324.88
570.218	331.88
570.43	325.88
570.641	292.88
570.853	286.88
571.064	309.88
571.276	289.88
571.487	289.88
571.698	303.88
571.91	295.88
572.121	274.88
572.333	293.88
572.544	285.88
572.755	279.88
572.966	269.88
573.178	267.88
573.389	249.88
573.6	263.88
573.811	247.88
574.023	280.88
574.234	269.88
574.445	269.88
574.656	266.88
574.867	275.88
575.078	267.88
575.289	263.88
575.501	250.88
575.712	247.88
575.923	260.88
576.134	237.88
576.345	246.88
576.556	267.88
576.767	254.88
576.978	266.88
577.188	264.88
577.399	279.88
577.61	259.88
577.821	251.88
578.032	261.88
578.243	281.88
578.454	436.88
578.665	354.88
578.875	255.88
579.086	249.88
579.297	251.88
579.508	251.88
579.718	247.88
579.929	239.88
580.14	220.88
580.35	231.88
580.561	251.88
580.772	241.88
580.982	246.88
581.193	244.88
581.403	226.88
581.614	243.88
581.825	229.88
582.035	241.88
582.246	239.88
582.456	251.88
582.667	253.88
582.877	221.88
583.087	259.88
583.298	243.88
583.508	236.88
583.719	231.88
583.929	247.88
584.139	246.88
584.35	221.88
584.56	224.88
584.77	223.88
584.981	250.88
585.191	242.88
585.401	230.88
585.611	234.88
585.821	225.88
586.032	215.88
586.242	238.88
586.452	234.88
586.662	235.88
586.872	232.88
587.082	227.88
587.292	232.88
587.502	225.88
587.713	242.88
587.923	220.88
588.133	224.88
588.343	242.88
588.553	222.88
588.762	254.88
588.972	238.88
589.182	233.88
589.392	264.88
589.602	253.88
589.812	267.88
590.022	230.88
590.232	241.88
590.441	250.88
590.651	220.88
590.861	223.88
591.071	229.88
591.281	229.88
591.49	220.88
591.7	222.88
591.91	242.88
592.119	246.88
592.329	239.88
592.539	217.88
592.748	234.88
592.958	228.88
593.167	238.88
593.377	251.88
593.587	230.88
593.796	229.88
594.006	237.88
594.215	250.88
594.424	214.88
594.634	223.88
594.843	230.88
595.053	231.88
595.262	233.88
595.472	231.88
595.681	233.88
595.89	242.88
596.1	244.88
596.309	233.88
596.518	219.88
596.727	202.88
596.937	223.88
597.146	207.88
597.355	218.88
597.564	220.88
597.774	232.88
597.983	213.88
598.192	199.88
598.401	215.88
598.61	208.88
598.819	204.88
599.028	207.88
599.237	204.88
599.446	205.88
599.655	201.88
599.864	222.88
600.073	200.88
600.282	219.88
600.491	188.88
600.7	204.88
600.909	185.88
601.118	216.88
601.327	219.88
601.536	196.88
601.745	199.88
601.953	211.88
602.162	192.88
602.371	187.88
602.58	196.88
602.789	201.88
602.997	200.88
603.206	206.88
603.415	210.88
603.623	177.88
603.832	210.88
604.041	197.88
604.249	200.88
604.458	199.88
604.666	191.88
604.875	189.88
605.084	174.88
605.292	207.88
605.501	200.88
605.709	178.88
605.918	163.88
606.126	175.88
606.334	196.88
606.543	193.88
606.751	197.88
606.96	191.88
607.168	188.88
607.376	197.88
607.585	181.88
607.793	179.88
608.001	202.88
608.21	206.88
608.418	201.88
608.626	204.88
608.834	205.88
609.043	185.88
609.251	187.88
609.459	182.88
609.667	187.88
609.875	206.88
610.083	187.88
610.291	194.88
610.499	196.88
610.707	191.88
610.916	202.88
611.124	191.88
611.332	187.88
611.54	209.88
611.748	201.88
611.955	195.88
612.163	208.88
612.371	182.88
612.579	203.88
612.787	176.88
612.995	203.88
613.203	196.88
613.411	181.88
613.618	202.88
613.826	188.88
614.034	194.88
614.242	199.88
614.449	186.88
614.657	206.88
614.865	210.88
615.072	179.88
615.28	172.88
615.488	198.88
615.695	204.88
615.903	170.88
616.111	205.88
616.318	196.88
616.526	196.88
616.733	195.88
616.941	181.88
617.148	179.88
617.356	187.88
617.563	181.88
617.771	196.88
617.978	170.88
618.185	197.88
618.393	174.88
618.6	188.88
618.807	179.88
619.015	175.88
619.222	203.88
619.429	173.88
619.637	174.88
619.844	179.88
620.051	200.88
620.258	193.88
620.466	187.88
620.673	174.88
620.88	189.88
621.087	168.88
621.294	181.88
621.501	181.88
621.708	180.88
621.915	187.88
622.122	173.88
622.329	185.88
622.536	190.88
622.743	188.88
622.95	166.88
623.157	200.88
623.364	179.88
623.571	171.88
623.778	186.88
623.985	189.88
624.192	181.88
624.399	182.88
624.606	173.88
624.812	159.88
625.019	182.88
625.226	171.88
625.433	177.88
625.639	178.88
625.846	171.88
626.053	151.88
626.259	163.88
626.466	174.88
626.673	153.88
626.879	160.88
627.086	173.88
627.293	161.88
627.499	179.88
627.706	180.88
627.912	155.88
628.119	186.88
628.325	164.88
628.532	156.88
628.738	173.88
628.945	171.88
629.151	180.88
629.357	177.88
629.564	163.88
629.77	168.88
629.976	149.88
630.183	153.88
630.389	166.88
630.595	152.88
630.802	154.88
631.008	152.88
631.214	163.88
631.42	164.88
631.627	174.88
631.833	168.88
632.039	151.88
632.245	146.88
632.451	173.88
632.657	157.88
632.863	155.88
633.069	141.88
633.275	169.88
633.481	148.88
633.688	161.88
633.893	159.88
634.099	153.88
634.305	146.88
634.511	147.88
634.717	149.88
634.923	161.88
635.129	166.88
635.335	158.88
635.541	158.88
635.747	138.88
635.952	158.88
636.158	165.88
636.364	150.88
636.57	146.88
636.775	148.88
636.981	135.88
637.187	161.88
637.392	147.88
637.598	151.88
637.804	147.88
638.009	157.88
638.215	125.88
638.421	142.88
638.626	153.88
638.832	159.88
639.037	147.88
639.243	135.88
639.448	145.88
639.654	147.88
639.859	144.88
640.065	138.88
640.27	154.88
640.475	148.88
640.681	140.88
640.886	153.88
641.091	157.88
641.297	154.88
641.502	144.88
641.707	163.88
641.913	155.88
642.118	139.88
642.323	154.88
642.528	139.88
642.733	153.88
642.939	143.88
643.144	131.88
643.349	137.88
643.554	146.88
643.759	123.88
643.964	145.88
644.169	139.88
644.374	138.88
644.579	148.88
644.784	129.88
644.989	140.88
645.194	146.88
645.399	137.88
645.604	137.88
645.809	146.88
646.014	137.88
646.219	131.88
646.423	149.88
646.628	139.88
646.833	151.88
647.038	142.88
647.243	137.88
647.447	144.88
647.652	143.88
647.857	151.88
648.062	150.88
648.266	144.88
648.471	157.88
648.676	142.88
648.88	145.88
649.085	150.88
649.289	131.88
649.494	141.88
649.698	151.88
649.903	162.88
650.107	138.88
650.312	142.88
650.516	142.88
650.721	147.88
650.925	121.88
651.13	123.88
651.334	127.88
651.539	131.88
651.743	124.88
651.947	126.88
652.152	135.88
652.356	126.88
652.56	133.88
652.764	143.88
652.969	126.88
653.173	120.88
653.377	140.88
653.581	107.88
653.785	126.88
653.99	137.88
654.194	117.88
654.398	115.88
654.602	129.88
654.806	129.88
655.01	131.88
655.214	123.88
655.418	124.88
655.622	115.88
655.826	124.88
656.03	121.88
656.234	120.88
656.438	121.88
656.642	100.88
656.846	129.88
657.049	115.88
657.253	108.88
657.457	112.88
657.661	116.88
657.865	111.88
658.068	103.88
658.272	96.88
658.476	95.88
658.68	103.88
658.883	114.88
659.087	100.88
659.291	88.88
659.494	92.88
659.698	104.88
659.901	105.88
660.105	88.88
660.309	89.88
660.512	91.88
660.716	92.88
660.919	104.88
661.123	100.88
661.326	93.88
661.53	100.88
661.733	89.88
661.936	85.88
662.14	92.88
662.343	85.88
662.546	88.88
662.75	92.88
662.953	87.88
663.156	79.88
663.36	93.88
663.563	86.88
663.766	77.88
663.969	67.88
664.173	89.88
664.376	86.88
664.579	82.88
664.782	75.88
664.985	82.88
665.188	83.88
665.391	77.88
665.594	83.88
665.797	84.88
666	78.88
666.203	85.88
666.406	78.88
666.609	91.88
666.812	93.88
667.015	96.88
667.218	70.88
667.421	80.88
667.624	79.88
667.827	85.88
668.03	81.88
668.232	71.88
668.435	79.88
668.638	87.88
668.841	99.88
669.043	88.88
669.246	94.88
669.449	64.88
669.651	71.88
669.854	80.88
670.057	83.88
670.259	85.88
670.462	76.88
670.665	82.88
670.867	77.88
671.07	78.88
671.272	79.88
671.475	92.88
671.677	81.88
671.88	83.88
672.082	94.88
672.284	87.88
672.487	85.88
672.689	83.88
672.892	79.88
