Data from 1983.PennyLincolnUp.Lamp.En5.5.200Scan.071819.P1_HRD10591_16-55-21-967.txt Node
Date: Thu Jul 18 16:55:21 EDT 2019
User: cochatt
Spectrometer: HR+D1059
Trigger mode: 1
Integration Time (sec): 1.000000E-1
Scans to average: 1
Electric dark correction enabled: true
Nonlinearity correction enabled: false
Boxcar width: 0
XAxis mode: Wavelengths
Number of Pixels in Spectrum: 2048
>>>>>Begin Spectral Data<<<<<
223.165	-13.12
223.4	-13.12
223.635	-13.12
223.869	-20.12
224.104	-21.12
224.338	-3.12
224.573	-8.12
224.808	-25.12
225.042	-20.12
225.277	0.88
225.511	-5.12
225.746	15.88
225.98	6.88
226.215	5.88
226.449	17.88
226.683	11.88
226.918	21.88
227.152	34.88
227.387	38.88
227.621	27.88
227.856	51.88
228.09	44.88
228.324	33.88
228.559	52.88
228.793	70.88
229.027	86.88
229.262	93.88
229.496	109.88
229.73	133.88
229.964	137.88
230.199	120.88
230.433	84.88
230.667	87.88
230.901	115.88
231.136	101.88
231.37	123.88
231.604	102.88
231.838	106.88
232.072	128.88
232.306	101.88
232.541	107.88
232.775	119.88
233.009	114.88
233.243	108.88
233.477	105.88
233.711	118.88
233.945	120.88
234.179	125.88
234.413	113.88
234.647	109.88
234.881	113.88
235.115	110.88
235.349	118.88
235.583	108.88
235.817	121.88
236.051	106.88
236.285	127.88
236.519	136.88
236.753	129.88
236.987	139.88
237.221	154.88
237.455	217.88
237.689	173.88
237.922	138.88
238.156	139.88
238.39	132.88
238.624	113.88
238.858	118.88
239.091	116.88
239.325	116.88
239.559	124.88
239.793	114.88
240.027	130.88
240.26	132.88
240.494	146.88
240.728	131.88
240.961	142.88
241.195	118.88
241.429	133.88
241.662	139.88
241.896	133.88
242.13	125.88
242.363	121.88
242.597	128.88
242.83	122.88
243.064	142.88
243.298	127.88
243.531	145.88
243.765	139.88
243.998	126.88
244.232	124.88
244.465	135.88
244.699	140.88
244.932	125.88
245.166	131.88
245.399	137.88
245.633	149.88
245.866	131.88
246.099	135.88
246.333	154.88
246.566	141.88
246.8	133.88
247.033	147.88
247.266	151.88
247.5	148.88
247.733	167.88
247.966	157.88
248.2	171.88
248.433	153.88
248.666	158.88
248.899	182.88
249.133	179.88
249.366	185.88
249.599	189.88
249.832	169.88
250.066	167.88
250.299	171.88
250.532	181.88
250.765	193.88
250.998	219.88
251.231	215.88
251.465	196.88
251.698	205.88
251.931	179.88
252.164	185.88
252.397	173.88
252.63	199.88
252.863	186.88
253.096	188.88
253.329	209.88
253.562	212.88
253.795	201.88
254.028	213.88
254.261	206.88
254.494	216.88
254.727	226.88
254.96	266.88
255.193	264.88
255.426	228.88
255.659	210.88
255.892	241.88
256.124	249.88
256.357	237.88
256.59	242.88
256.823	202.88
257.056	211.88
257.289	195.88
257.521	202.88
257.754	201.88
257.987	199.88
258.22	179.88
258.452	216.88
258.685	201.88
258.918	192.88
259.151	200.88
259.383	193.88
259.616	193.88
259.849	216.88
260.081	222.88
260.314	220.88
260.547	226.88
260.779	221.88
261.012	218.88
261.244	204.88
261.477	205.88
261.71	200.88
261.942	222.88
262.175	230.88
262.407	233.88
262.64	207.88
262.872	214.88
263.105	211.88
263.337	185.88
263.57	212.88
263.802	196.88
264.035	182.88
264.267	184.88
264.499	200.88
264.732	198.88
264.964	204.88
265.197	195.88
265.429	192.88
265.661	190.88
265.894	195.88
266.126	199.88
266.358	201.88
266.591	204.88
266.823	202.88
267.055	224.88
267.287	221.88
267.52	205.88
267.752	227.88
267.984	206.88
268.216	215.88
268.448	223.88
268.681	213.88
268.913	239.88
269.145	234.88
269.377	257.88
269.609	243.88
269.841	246.88
270.073	253.88
270.306	283.88
270.538	293.88
270.77	270.88
271.002	285.88
271.234	274.88
271.466	275.88
271.698	281.88
271.93	297.88
272.162	292.88
272.394	270.88
272.626	280.88
272.858	263.88
273.09	263.88
273.322	258.88
273.553	257.88
273.785	270.88
274.017	249.88
274.249	252.88
274.481	257.88
274.713	238.88
274.945	239.88
275.176	258.88
275.408	241.88
275.64	248.88
275.872	232.88
276.104	241.88
276.335	241.88
276.567	254.88
276.799	274.88
277.031	293.88
277.262	299.88
277.494	285.88
277.726	255.88
277.957	270.88
278.189	267.88
278.421	254.88
278.652	261.88
278.884	248.88
279.115	245.88
279.347	252.88
279.579	255.88
279.81	258.88
280.042	255.88
280.273	241.88
280.505	239.88
280.736	239.88
280.968	242.88
281.199	255.88
281.431	231.88
281.662	249.88
281.894	241.88
282.125	259.88
282.356	283.88
282.588	269.88
282.819	276.88
283.051	261.88
283.282	246.88
283.513	243.88
283.745	249.88
283.976	256.88
284.207	251.88
284.439	257.88
284.67	241.88
284.901	260.88
285.132	255.88
285.364	235.88
285.595	232.88
285.826	244.88
286.057	250.88
286.288	244.88
286.52	249.88
286.751	244.88
286.982	275.88
287.213	246.88
287.444	252.88
287.675	276.88
287.906	258.88
288.138	265.88
288.369	273.88
288.6	291.88
288.831	271.88
289.062	274.88
289.293	260.88
289.524	259.88
289.755	268.88
289.986	272.88
290.217	265.88
290.448	260.88
290.679	275.88
290.91	253.88
291.141	269.88
291.371	262.88
291.602	267.88
291.833	247.88
292.064	259.88
292.295	270.88
292.526	279.88
292.757	269.88
292.987	258.88
293.218	271.88
293.449	289.88
293.68	273.88
293.91	280.88
294.141	277.88
294.372	272.88
294.603	265.88
294.833	269.88
295.064	274.88
295.295	267.88
295.525	262.88
295.756	269.88
295.987	273.88
296.217	296.88
296.448	303.88
296.679	289.88
296.909	261.88
297.14	263.88
297.37	286.88
297.601	286.88
297.831	295.88
298.062	261.88
298.292	269.88
298.523	275.88
298.753	285.88
298.984	282.88
299.214	274.88
299.445	277.88
299.675	273.88
299.905	279.88
300.136	307.88
300.366	289.88
300.597	277.88
300.827	298.88
301.057	305.88
301.288	299.88
301.518	314.88
301.748	316.88
301.979	309.88
302.209	302.88
302.439	297.88
302.669	291.88
302.9	293.88
303.13	310.88
303.36	300.88
303.59	325.88
303.82	310.88
304.051	325.88
304.281	298.88
304.511	301.88
304.741	293.88
304.971	294.88
305.201	308.88
305.431	303.88
305.661	310.88
305.891	298.88
306.121	298.88
306.352	296.88
306.582	292.88
306.812	307.88
307.042	315.88
307.272	294.88
307.502	312.88
307.731	316.88
307.961	329.88
308.191	305.88
308.421	295.88
308.651	315.88
308.881	318.88
309.111	318.88
309.341	328.88
309.571	327.88
309.8	327.88
310.03	347.88
310.26	327.88
310.49	329.88
310.72	364.88
310.949	366.88
311.179	377.88
311.409	382.88
311.639	328.88
311.868	348.88
312.098	370.88
312.328	357.88
312.557	371.88
312.787	373.88
313.017	374.88
313.246	374.88
313.476	331.88
313.706	345.88
313.935	345.88
314.165	384.88
314.394	393.88
314.624	382.88
314.853	346.88
315.083	346.88
315.312	340.88
315.542	340.88
315.771	349.88
316.001	356.88
316.23	344.88
316.46	335.88
316.689	354.88
316.919	355.88
317.148	337.88
317.377	355.88
317.607	346.88
317.836	345.88
318.065	357.88
318.295	331.88
318.524	347.88
318.753	358.88
318.983	347.88
319.212	371.88
319.441	372.88
319.67	337.88
319.9	371.88
320.129	360.88
320.358	351.88
320.587	354.88
320.816	347.88
321.046	372.88
321.275	368.88
321.504	372.88
321.733	370.88
321.962	374.88
322.191	359.88
322.42	423.88
322.649	424.88
322.878	426.88
323.108	439.88
323.337	446.88
323.566	476.88
323.795	527.88
324.024	577.88
324.253	686.88
324.482	986.88
324.71	1477.88
324.939	1961.88
325.168	1640.88
325.397	896.88
325.626	613.88
325.855	537.88
326.084	484.88
326.313	468.88
326.542	499.88
326.77	535.88
326.999	673.88
327.228	892.88
327.457	1313.88
327.686	1493.88
327.914	988.88
328.143	684.88
328.372	648.88
328.6	593.88
328.829	561.88
329.058	566.88
329.287	576.88
329.515	539.88
329.744	503.88
329.972	508.88
330.201	558.88
330.43	606.88
330.658	637.88
330.887	613.88
331.115	582.88
331.344	492.88
331.572	469.88
331.801	478.88
332.03	472.88
332.258	424.88
332.486	424.88
332.715	450.88
332.943	430.88
333.172	435.88
333.4	431.88
333.629	438.88
333.857	430.88
334.085	470.88
334.314	551.88
334.542	604.88
334.771	625.88
334.999	508.88
335.227	461.88
335.455	437.88
335.684	420.88
335.912	402.88
336.14	407.88
336.369	421.88
336.597	421.88
336.825	427.88
337.053	412.88
337.281	394.88
337.51	405.88
337.738	391.88
337.966	413.88
338.194	413.88
338.422	407.88
338.65	394.88
338.878	381.88
339.106	385.88
339.334	383.88
339.562	365.88
339.79	398.88
340.018	384.88
340.246	402.88
340.474	417.88
340.702	383.88
340.93	400.88
341.158	377.88
341.386	392.88
341.614	399.88
341.842	393.88
342.07	390.88
342.298	383.88
342.526	378.88
342.754	377.88
342.981	373.88
343.209	365.88
343.437	365.88
343.665	390.88
343.893	365.88
344.12	387.88
344.348	404.88
344.576	391.88
344.804	407.88
345.031	409.88
345.259	398.88
345.487	405.88
345.714	396.88
345.942	374.88
346.17	394.88
346.397	372.88
346.625	376.88
346.853	368.88
347.08	374.88
347.308	391.88
347.535	388.88
347.763	383.88
347.99	389.88
348.218	408.88
348.445	385.88
348.673	409.88
348.9	382.88
349.128	380.88
349.355	375.88
349.583	362.88
349.81	353.88
350.037	371.88
350.265	357.88
350.492	371.88
350.72	369.88
350.947	372.88
351.174	386.88
351.402	387.88
351.629	374.88
351.856	385.88
352.083	399.88
352.311	401.88
352.538	394.88
352.765	389.88
352.992	382.88
353.22	380.88
353.447	386.88
353.674	393.88
353.901	356.88
354.128	369.88
354.355	358.88
354.583	357.88
354.81	346.88
355.037	334.88
355.264	361.88
355.491	359.88
355.718	343.88
355.945	361.88
356.172	344.88
356.399	351.88
356.626	330.88
356.853	342.88
357.08	344.88
357.307	333.88
357.534	365.88
357.761	349.88
357.988	342.88
358.215	359.88
358.441	363.88
358.668	373.88
358.895	371.88
359.122	361.88
359.349	365.88
359.576	397.88
359.802	404.88
360.029	422.88
360.256	435.88
360.483	426.88
360.709	376.88
360.936	393.88
361.163	357.88
361.39	385.88
361.616	372.88
361.843	379.88
362.07	379.88
362.296	379.88
362.523	372.88
362.749	377.88
362.976	356.88
363.203	361.88
363.429	360.88
363.656	360.88
363.882	381.88
364.109	357.88
364.335	369.88
364.562	376.88
364.788	355.88
365.015	355.88
365.241	365.88
365.468	369.88
365.694	357.88
365.92	362.88
366.147	356.88
366.373	363.88
366.599	363.88
366.826	361.88
367.052	362.88
367.278	374.88
367.505	361.88
367.731	352.88
367.957	365.88
368.184	366.88
368.41	356.88
368.636	386.88
368.862	372.88
369.089	369.88
369.315	356.88
369.541	355.88
369.767	357.88
369.993	332.88
370.219	361.88
370.445	349.88
370.672	348.88
370.898	352.88
371.124	348.88
371.35	376.88
371.576	364.88
371.802	342.88
372.028	342.88
372.254	340.88
372.48	364.88
372.706	358.88
372.932	354.88
373.158	355.88
373.384	361.88
373.61	373.88
373.835	358.88
374.061	343.88
374.287	338.88
374.513	338.88
374.739	365.88
374.965	351.88
375.191	343.88
375.416	338.88
375.642	345.88
375.868	340.88
376.094	350.88
376.319	340.88
376.545	333.88
376.771	345.88
376.997	338.88
377.222	351.88
377.448	369.88
377.674	350.88
377.899	352.88
378.125	355.88
378.35	327.88
378.576	342.88
378.802	359.88
379.027	350.88
379.253	339.88
379.478	342.88
379.704	340.88
379.929	349.88
380.155	358.88
380.38	357.88
380.606	361.88
380.831	360.88
381.057	361.88
381.282	356.88
381.507	356.88
381.733	335.88
381.958	354.88
382.184	345.88
382.409	338.88
382.634	374.88
382.86	361.88
383.085	356.88
383.31	349.88
383.535	354.88
383.761	355.88
383.986	344.88
384.211	342.88
384.436	359.88
384.662	353.88
384.887	360.88
385.112	359.88
385.337	372.88
385.562	377.88
385.787	363.88
386.013	369.88
386.238	388.88
386.463	385.88
386.688	374.88
386.913	371.88
387.138	358.88
387.363	382.88
387.588	353.88
387.813	381.88
388.038	389.88
388.263	368.88
388.488	367.88
388.713	373.88
388.938	385.88
389.163	366.88
389.387	358.88
389.612	362.88
389.837	377.88
390.062	353.88
390.287	383.88
390.512	359.88
390.736	364.88
390.961	367.88
391.186	392.88
391.411	373.88
391.636	376.88
391.86	387.88
392.085	384.88
392.31	379.88
392.534	375.88
392.759	382.88
392.984	372.88
393.208	360.88
393.433	391.88
393.658	370.88
393.882	369.88
394.107	367.88
394.331	381.88
394.556	366.88
394.78	373.88
395.005	380.88
395.229	381.88
395.454	372.88
395.678	380.88
395.903	374.88
396.127	389.88
396.352	411.88
396.576	381.88
396.801	380.88
397.025	402.88
397.249	388.88
397.474	397.88
397.698	377.88
397.922	402.88
398.147	438.88
398.371	424.88
398.595	396.88
398.82	424.88
399.044	419.88
399.268	417.88
399.492	464.88
399.717	464.88
399.941	484.88
400.165	494.88
400.389	500.88
400.613	482.88
400.837	453.88
401.062	431.88
401.286	428.88
401.51	425.88
401.734	436.88
401.958	405.88
402.182	430.88
402.406	449.88
402.63	454.88
402.854	424.88
403.078	435.88
403.302	439.88
403.526	422.88
403.75	451.88
403.974	447.88
404.198	426.88
404.422	463.88
404.645	459.88
404.869	444.88
405.093	461.88
405.317	537.88
405.541	528.88
405.765	501.88
405.988	471.88
406.212	486.88
406.436	517.88
406.66	511.88
406.883	493.88
407.107	481.88
407.331	516.88
407.555	575.88
407.778	549.88
408.002	523.88
408.226	501.88
408.449	486.88
408.673	491.88
408.896	501.88
409.12	515.88
409.344	499.88
409.567	443.88
409.791	427.88
410.014	437.88
410.238	440.88
410.461	436.88
410.685	434.88
410.908	449.88
411.132	491.88
411.355	510.88
411.578	466.88
411.802	441.88
412.025	434.88
412.249	455.88
412.472	488.88
412.695	531.88
412.919	516.88
413.142	490.88
413.365	441.88
413.589	431.88
413.812	434.88
414.035	437.88
414.258	429.88
414.482	405.88
414.705	407.88
414.928	417.88
415.151	417.88
415.374	414.88
415.597	390.88
415.821	417.88
416.044	416.88
416.267	398.88
416.49	419.88
416.713	415.88
416.936	425.88
417.159	411.88
417.382	411.88
417.605	420.88
417.828	416.88
418.051	437.88
418.274	413.88
418.497	416.88
418.72	411.88
418.943	417.88
419.166	429.88
419.389	419.88
419.611	437.88
419.834	451.88
420.057	455.88
420.28	451.88
420.503	444.88
420.726	462.88
420.948	462.88
421.171	465.88
421.394	485.88
421.617	460.88
421.839	445.88
422.062	434.88
422.285	434.88
422.507	472.88
422.73	543.88
422.953	531.88
423.175	443.88
423.398	446.88
423.621	454.88
423.843	461.88
424.066	477.88
424.288	470.88
424.511	485.88
424.733	520.88
424.956	561.88
425.178	554.88
425.401	583.88
425.623	582.88
425.846	499.88
426.068	474.88
426.291	484.88
426.513	457.88
426.735	476.88
426.958	490.88
427.18	566.88
427.402	667.88
427.625	716.88
427.847	639.88
428.069	613.88
428.292	531.88
428.514	474.88
428.736	466.88
428.958	460.88
429.181	439.88
429.403	425.88
429.625	441.88
429.847	467.88
430.069	531.88
430.292	518.88
430.514	447.88
430.736	430.88
430.958	423.88
431.18	428.88
431.402	405.88
431.624	404.88
431.846	409.88
432.068	404.88
432.29	405.88
432.512	415.88
432.734	414.88
432.956	437.88
433.178	431.88
433.4	440.88
433.622	434.88
433.844	401.88
434.066	413.88
434.287	422.88
434.509	399.88
434.731	429.88
434.953	428.88
435.175	430.88
435.397	457.88
435.618	449.88
435.84	517.88
436.062	587.88
436.284	625.88
436.505	519.88
436.727	476.88
436.949	477.88
437.17	442.88
437.392	429.88
437.614	455.88
437.835	477.88
438.057	540.88
438.278	605.88
438.5	604.88
438.721	637.88
438.943	616.88
439.165	521.88
439.386	492.88
439.608	498.88
439.829	503.88
440.05	491.88
440.272	524.88
440.493	485.88
440.715	455.88
440.936	432.88
441.158	439.88
441.379	429.88
441.6	443.88
441.822	462.88
442.043	505.88
442.264	555.88
442.486	600.88
442.707	524.88
442.928	478.88
443.149	497.88
443.371	509.88
443.592	551.88
443.813	609.88
444.034	650.88
444.255	541.88
444.476	492.88
444.698	494.88
444.919	474.88
445.14	548.88
445.361	523.88
445.582	491.88
445.803	550.88
446.024	647.88
446.245	634.88
446.466	597.88
446.687	497.88
446.908	475.88
447.129	428.88
447.35	437.88
447.571	441.88
447.792	423.88
448.013	431.88
448.234	460.88
448.455	491.88
448.675	600.88
448.896	653.88
449.117	535.88
449.338	534.88
449.559	623.88
449.779	687.88
450	561.88
450.221	481.88
450.442	455.88
450.662	428.88
450.883	435.88
451.104	462.88
451.324	421.88
451.545	404.88
451.766	410.88
451.986	385.88
452.207	398.88
452.428	387.88
452.648	391.88
452.869	391.88
453.089	390.88
453.31	404.88
453.53	405.88
453.751	398.88
453.971	403.88
454.192	431.88
454.412	403.88
454.633	394.88
454.853	385.88
455.073	374.88
455.294	412.88
455.514	477.88
455.734	467.88
455.955	400.88
456.175	374.88
456.395	373.88
456.616	374.88
456.836	357.88
457.056	378.88
457.276	364.88
457.497	361.88
457.717	363.88
457.937	371.88
458.157	375.88
458.377	385.88
458.598	418.88
458.818	450.88
459.038	556.88
459.258	539.88
459.478	470.88
459.698	429.88
459.918	411.88
460.138	413.88
460.358	397.88
460.578	394.88
460.798	409.88
461.018	426.88
461.238	396.88
461.458	415.88
461.678	398.88
461.898	407.88
462.118	411.88
462.338	408.88
462.558	441.88
462.777	414.88
462.997	441.88
463.217	434.88
463.437	438.88
463.657	440.88
463.876	419.88
464.096	426.88
464.316	436.88
464.536	438.88
464.755	436.88
464.975	462.88
465.195	497.88
465.414	547.88
465.634	485.88
465.854	447.88
466.073	400.88
466.293	419.88
466.512	391.88
466.732	414.88
466.951	398.88
467.171	412.88
467.391	405.88
467.61	401.88
467.829	400.88
468.049	412.88
468.268	419.88
468.488	419.88
468.707	411.88
468.927	385.88
469.146	371.88
469.365	377.88
469.585	382.88
469.804	411.88
470.023	403.88
470.243	406.88
470.462	393.88
470.681	443.88
470.901	420.88
471.12	405.88
471.339	410.88
471.558	420.88
471.777	414.88
471.997	411.88
472.216	429.88
472.435	506.88
472.654	468.88
472.873	407.88
473.092	437.88
473.311	410.88
473.53	419.88
473.749	442.88
473.968	473.88
474.187	541.88
474.406	531.88
474.625	460.88
474.844	428.88
475.063	404.88
475.282	411.88
475.501	422.88
475.72	427.88
475.939	411.88
476.158	420.88
476.377	405.88
476.596	406.88
476.814	436.88
477.033	439.88
477.252	445.88
477.471	434.88
477.69	450.88
477.908	465.88
478.127	431.88
478.346	458.88
478.564	439.88
478.783	451.88
479.002	443.88
479.22	447.88
479.439	484.88
479.658	469.88
479.876	510.88
480.095	478.88
480.313	533.88
480.532	499.88
480.751	492.88
480.969	553.88
481.188	649.88
481.406	735.88
481.624	588.88
481.843	521.88
482.061	504.88
482.28	511.88
482.498	491.88
482.717	498.88
482.935	486.88
483.153	471.88
483.372	492.88
483.59	496.88
483.808	481.88
484.027	480.88
484.245	480.88
484.463	488.88
484.681	476.88
484.9	497.88
485.118	507.88
485.336	485.88
485.554	491.88
485.772	495.88
485.99	489.88
486.209	474.88
486.427	506.88
486.645	502.88
486.863	513.88
487.081	539.88
487.299	516.88
487.517	513.88
487.735	515.88
487.953	506.88
488.171	505.88
488.389	511.88
488.607	519.88
488.825	513.88
489.043	515.88
489.261	513.88
489.479	523.88
489.696	518.88
489.914	532.88
490.132	528.88
490.35	520.88
490.568	543.88
490.786	547.88
491.003	555.88
491.221	558.88
491.439	595.88
491.657	600.88
491.874	607.88
492.092	598.88
492.31	614.88
492.527	603.88
492.745	614.88
492.963	617.88
493.18	644.88
493.398	634.88
493.615	612.88
493.833	623.88
494.05	608.88
494.268	603.88
494.485	623.88
494.703	611.88
494.92	622.88
495.138	616.88
495.355	589.88
495.573	618.88
495.79	600.88
496.008	633.88
496.225	611.88
496.442	605.88
496.66	604.88
496.877	617.88
497.094	606.88
497.312	617.88
497.529	627.88
497.746	635.88
497.963	633.88
498.181	640.88
498.398	652.88
498.615	658.88
498.832	656.88
499.049	662.88
499.267	685.88
499.484	694.88
499.701	724.88
499.918	733.88
500.135	741.88
500.352	806.88
500.569	811.88
500.786	781.88
501.003	781.88
501.22	766.88
501.437	784.88
501.654	743.88
501.871	743.88
502.088	725.88
502.305	693.88
502.522	658.88
502.739	656.88
502.956	635.88
503.172	628.88
503.389	618.88
503.606	631.88
503.823	629.88
504.04	613.88
504.256	595.88
504.473	580.88
504.69	591.88
504.907	625.88
505.123	601.88
505.34	571.88
505.557	558.88
505.773	580.88
505.99	576.88
506.207	577.88
506.423	582.88
506.64	572.88
506.856	557.88
507.073	572.88
507.289	556.88
507.506	563.88
507.722	586.88
507.939	572.88
508.155	549.88
508.372	577.88
508.588	571.88
508.805	523.88
509.021	563.88
509.238	557.88
509.454	573.88
509.67	547.88
509.887	556.88
510.103	567.88
510.319	559.88
510.536	666.88
510.752	1181.88
510.968	933.88
511.184	588.88
511.401	569.88
511.617	557.88
511.833	545.88
512.049	530.88
512.265	541.88
512.481	545.88
512.698	537.88
512.914	505.88
513.13	540.88
513.346	522.88
513.562	525.88
513.778	529.88
513.994	553.88
514.21	563.88
514.426	580.88
514.642	614.88
514.858	645.88
515.074	681.88
515.29	831.88
515.506	1316.88
515.721	981.88
515.937	665.88
516.153	598.88
516.369	573.88
516.585	533.88
516.801	545.88
517.016	535.88
517.232	530.88
517.448	524.88
517.664	552.88
517.879	537.88
518.095	536.88
518.311	523.88
518.527	525.88
518.742	522.88
518.958	508.88
519.173	533.88
519.389	518.88
519.605	528.88
519.82	524.88
520.036	555.88
520.251	538.88
520.467	582.88
520.682	581.88
520.898	609.88
521.113	630.88
521.329	647.88
521.544	767.88
521.76	1007.88
521.975	1698.88
522.19	1662.88
522.406	878.88
522.621	657.88
522.836	559.88
523.052	548.88
523.267	509.88
523.482	508.88
523.698	479.88
523.913	500.88
524.128	485.88
524.343	484.88
524.559	485.88
524.774	462.88
524.989	465.88
525.204	467.88
525.419	488.88
525.634	431.88
525.849	458.88
526.064	436.88
526.28	445.88
526.495	429.88
526.71	424.88
526.925	421.88
527.14	427.88
527.355	431.88
527.57	430.88
527.785	434.88
527.999	425.88
528.214	414.88
528.429	435.88
528.644	427.88
528.859	422.88
529.074	442.88
529.289	459.88
529.503	517.88
529.718	499.88
529.933	456.88
530.148	453.88
530.363	439.88
530.577	437.88
530.792	403.88
531.007	419.88
531.221	404.88
531.436	386.88
531.651	408.88
531.865	400.88
532.08	401.88
532.295	393.88
532.509	402.88
532.724	405.88
532.938	383.88
533.153	394.88
533.367	397.88
533.582	405.88
533.796	395.88
534.011	389.88
534.225	380.88
534.44	394.88
534.654	411.88
534.868	394.88
535.083	390.88
535.297	404.88
535.511	395.88
535.726	402.88
535.94	392.88
536.154	397.88
536.369	404.88
536.583	408.88
536.797	395.88
537.011	400.88
537.225	372.88
537.44	375.88
537.654	380.88
537.868	366.88
538.082	378.88
538.296	390.88
538.51	394.88
538.724	387.88
538.938	394.88
539.153	385.88
539.367	412.88
539.581	395.88
539.795	403.88
540.009	381.88
540.222	373.88
540.436	370.88
540.65	377.88
540.864	389.88
541.078	402.88
541.292	385.88
541.506	385.88
541.72	391.88
541.934	395.88
542.147	389.88
542.361	391.88
542.575	400.88
542.789	376.88
543.002	389.88
543.216	388.88
543.43	395.88
543.644	373.88
543.857	372.88
544.071	358.88
544.285	375.88
544.498	396.88
544.712	377.88
544.925	381.88
545.139	370.88
545.352	384.88
545.566	382.88
545.779	382.88
545.993	378.88
546.206	379.88
546.42	376.88
546.633	369.88
546.847	371.88
547.06	349.88
547.274	361.88
547.487	354.88
547.7	359.88
547.914	372.88
548.127	354.88
548.34	369.88
548.554	364.88
548.767	371.88
548.98	341.88
549.193	367.88
549.407	348.88
549.62	373.88
549.833	354.88
550.046	358.88
550.259	378.88
550.473	355.88
550.686	339.88
550.899	350.88
551.112	358.88
551.325	378.88
551.538	361.88
551.751	345.88
551.964	346.88
552.177	353.88
552.39	355.88
552.603	349.88
552.816	364.88
553.029	373.88
553.242	383.88
553.455	366.88
553.667	370.88
553.88	381.88
554.093	387.88
554.306	350.88
554.519	355.88
554.732	356.88
554.944	354.88
555.157	347.88
555.37	327.88
555.583	339.88
555.795	349.88
556.008	337.88
556.221	336.88
556.433	328.88
556.646	353.88
556.859	330.88
557.071	318.88
557.284	334.88
557.496	344.88
557.709	315.88
557.921	334.88
558.134	327.88
558.346	325.88
558.559	338.88
558.771	315.88
558.984	323.88
559.196	307.88
559.409	317.88
559.621	321.88
559.833	320.88
560.046	327.88
560.258	324.88
560.47	327.88
560.683	334.88
560.895	331.88
561.107	313.88
561.32	311.88
561.532	313.88
561.744	298.88
561.956	319.88
562.168	319.88
562.381	315.88
562.593	312.88
562.805	326.88
563.017	306.88
563.229	320.88
563.441	314.88
563.653	319.88
563.865	325.88
564.077	315.88
564.289	323.88
564.501	322.88
564.713	328.88
564.925	329.88
565.137	336.88
565.349	341.88
565.561	331.88
565.773	350.88
565.985	346.88
566.197	324.88
566.408	369.88
566.62	362.88
566.832	373.88
567.044	368.88
567.255	372.88
567.467	383.88
567.679	388.88
567.891	381.88
568.102	369.88
568.314	376.88
568.526	363.88
568.737	355.88
568.949	346.88
569.161	332.88
569.372	318.88
569.584	338.88
569.795	328.88
570.007	319.88
570.218	394.88
570.43	346.88
570.641	327.88
570.853	312.88
571.064	327.88
571.276	314.88
571.487	303.88
571.698	293.88
571.91	284.88
572.121	307.88
572.333	309.88
572.544	291.88
572.755	282.88
572.966	275.88
573.178	294.88
573.389	308.88
573.6	268.88
573.811	271.88
574.023	274.88
574.234	265.88
574.445	291.88
574.656	286.88
574.867	269.88
575.078	260.88
575.289	258.88
575.501	276.88
575.712	274.88
575.923	261.88
576.134	266.88
576.345	283.88
576.556	278.88
576.767	273.88
576.978	265.88
577.188	285.88
577.399	284.88
577.61	291.88
577.821	266.88
578.032	276.88
578.243	302.88
578.454	499.88
578.665	389.88
578.875	271.88
579.086	273.88
579.297	280.88
579.508	261.88
579.718	277.88
579.929	261.88
580.14	251.88
580.35	248.88
580.561	255.88
580.772	242.88
580.982	259.88
581.193	254.88
581.403	246.88
581.614	273.88
581.825	252.88
582.035	252.88
582.246	252.88
582.456	251.88
582.667	238.88
582.877	251.88
583.087	249.88
583.298	231.88
583.508	235.88
583.719	241.88
583.929	245.88
584.139	259.88
584.35	233.88
584.56	249.88
584.77	244.88
584.981	234.88
585.191	245.88
585.401	241.88
585.611	247.88
585.821	238.88
586.032	253.88
586.242	242.88
586.452	238.88
586.662	253.88
586.872	243.88
587.082	220.88
587.292	234.88
587.502	263.88
587.713	243.88
587.923	241.88
588.133	253.88
588.343	243.88
588.553	248.88
588.762	229.88
588.972	227.88
589.182	236.88
589.392	237.88
589.602	251.88
589.812	258.88
590.022	243.88
590.232	239.88
590.441	248.88
590.651	223.88
590.861	236.88
591.071	248.88
591.281	237.88
591.49	231.88
591.7	247.88
591.91	234.88
592.119	238.88
592.329	239.88
592.539	250.88
592.748	241.88
592.958	245.88
593.167	241.88
593.377	249.88
593.587	246.88
593.796	255.88
594.006	244.88
594.215	245.88
594.424	236.88
594.634	234.88
594.843	264.88
595.053	259.88
595.262	245.88
595.472	247.88
595.681	231.88
595.89	226.88
596.1	253.88
596.309	217.88
596.518	230.88
596.727	221.88
596.937	220.88
597.146	227.88
597.355	234.88
597.564	230.88
597.774	199.88
597.983	213.88
598.192	191.88
598.401	221.88
598.61	222.88
598.819	217.88
599.028	215.88
599.237	223.88
599.446	220.88
599.655	212.88
599.864	225.88
600.073	233.88
600.282	211.88
600.491	201.88
600.7	218.88
600.909	229.88
601.118	216.88
601.327	242.88
601.536	237.88
601.745	207.88
601.953	217.88
602.162	193.88
602.371	205.88
602.58	211.88
602.789	217.88
602.997	214.88
603.206	212.88
603.415	194.88
603.623	200.88
603.832	209.88
604.041	220.88
604.249	207.88
604.458	209.88
604.666	210.88
604.875	213.88
605.084	210.88
605.292	190.88
605.501	202.88
605.709	186.88
605.918	218.88
606.126	195.88
606.334	206.88
606.543	211.88
606.751	209.88
606.96	206.88
607.168	209.88
607.376	203.88
607.585	213.88
607.793	205.88
608.001	217.88
608.21	210.88
608.418	169.88
608.626	213.88
608.834	192.88
609.043	199.88
609.251	185.88
609.459	199.88
609.667	198.88
609.875	214.88
610.083	212.88
610.291	211.88
610.499	202.88
610.707	194.88
610.916	206.88
611.124	207.88
611.332	207.88
611.54	209.88
611.748	200.88
611.955	215.88
612.163	210.88
612.371	200.88
612.579	205.88
612.787	182.88
612.995	196.88
613.203	200.88
613.411	195.88
613.618	194.88
613.826	183.88
614.034	178.88
614.242	200.88
614.449	197.88
614.657	208.88
614.865	202.88
615.072	191.88
615.28	207.88
615.488	190.88
615.695	207.88
615.903	190.88
616.111	207.88
616.318	201.88
616.526	204.88
616.733	190.88
616.941	207.88
617.148	189.88
617.356	179.88
617.563	197.88
617.771	206.88
617.978	189.88
618.185	193.88
618.393	195.88
618.6	191.88
618.807	193.88
619.015	190.88
619.222	206.88
619.429	195.88
619.637	187.88
619.844	191.88
620.051	204.88
620.258	198.88
620.466	168.88
620.673	183.88
620.88	184.88
621.087	183.88
621.294	172.88
621.501	200.88
621.708	178.88
621.915	203.88
622.122	175.88
622.329	185.88
622.536	191.88
622.743	173.88
622.95	206.88
623.157	191.88
623.364	197.88
623.571	192.88
623.778	171.88
623.985	174.88
624.192	193.88
624.399	178.88
624.606	203.88
624.812	185.88
625.019	166.88
625.226	164.88
625.433	191.88
625.639	187.88
625.846	174.88
626.053	173.88
626.259	173.88
626.466	174.88
626.673	185.88
626.879	165.88
627.086	183.88
627.293	182.88
627.499	176.88
627.706	177.88
627.912	174.88
628.119	171.88
628.325	166.88
628.532	164.88
628.738	165.88
628.945	166.88
629.151	159.88
629.357	167.88
629.564	177.88
629.77	160.88
629.976	155.88
630.183	175.88
630.389	164.88
630.595	175.88
630.802	161.88
631.008	165.88
631.214	180.88
631.42	161.88
631.627	166.88
631.833	174.88
632.039	155.88
632.245	170.88
632.451	152.88
632.657	152.88
632.863	153.88
633.069	141.88
633.275	148.88
633.481	169.88
633.688	160.88
633.893	157.88
634.099	155.88
634.305	157.88
634.511	168.88
634.717	163.88
634.923	166.88
635.129	145.88
635.335	147.88
635.541	153.88
635.747	142.88
635.952	161.88
636.158	169.88
636.364	155.88
636.57	174.88
636.775	175.88
636.981	166.88
637.187	151.88
637.392	165.88
637.598	161.88
637.804	169.88
638.009	133.88
638.215	175.88
638.421	156.88
638.626	149.88
638.832	143.88
639.037	162.88
639.243	150.88
639.448	166.88
639.654	149.88
639.859	140.88
640.065	156.88
640.27	153.88
640.475	149.88
640.681	144.88
640.886	166.88
641.091	136.88
641.297	146.88
641.502	151.88
641.707	166.88
641.913	156.88
642.118	136.88
642.323	151.88
642.528	143.88
642.733	155.88
642.939	142.88
643.144	152.88
643.349	157.88
643.554	143.88
643.759	134.88
643.964	144.88
644.169	142.88
644.374	154.88
644.579	139.88
644.784	156.88
644.989	144.88
645.194	139.88
645.399	131.88
645.604	132.88
645.809	143.88
646.014	152.88
646.219	153.88
646.423	149.88
646.628	163.88
646.833	145.88
647.038	158.88
647.243	148.88
647.447	147.88
647.652	147.88
647.857	153.88
648.062	148.88
648.266	142.88
648.471	124.88
648.676	146.88
648.88	145.88
649.085	146.88
649.289	154.88
649.494	154.88
649.698	166.88
649.903	164.88
650.107	161.88
650.312	158.88
650.516	140.88
650.721	163.88
650.925	151.88
651.13	138.88
651.334	140.88
651.539	143.88
651.743	136.88
651.947	144.88
652.152	131.88
652.356	129.88
652.56	135.88
652.764	124.88
652.969	139.88
653.173	108.88
653.377	139.88
653.581	121.88
653.785	117.88
653.99	120.88
654.194	139.88
654.398	129.88
654.602	132.88
654.806	127.88
655.01	137.88
655.214	130.88
655.418	130.88
655.622	128.88
655.826	125.88
656.03	115.88
656.234	131.88
656.438	137.88
656.642	127.88
656.846	125.88
657.049	117.88
657.253	111.88
657.457	115.88
657.661	117.88
657.865	121.88
658.068	105.88
658.272	104.88
658.476	108.88
658.68	81.88
658.883	99.88
659.087	102.88
659.291	107.88
659.494	105.88
659.698	105.88
659.901	89.88
660.105	101.88
660.309	90.88
660.512	103.88
660.716	98.88
660.919	93.88
661.123	91.88
661.326	98.88
661.53	88.88
661.733	90.88
661.936	94.88
662.14	96.88
662.343	83.88
662.546	92.88
662.75	85.88
662.953	92.88
663.156	87.88
663.36	85.88
663.563	98.88
663.766	89.88
663.969	99.88
664.173	81.88
664.376	85.88
664.579	75.88
664.782	103.88
664.985	88.88
665.188	86.88
665.391	90.88
665.594	81.88
665.797	83.88
666	77.88
666.203	81.88
666.406	93.88
666.609	98.88
666.812	90.88
667.015	77.88
667.218	87.88
667.421	89.88
667.624	68.88
667.827	80.88
668.03	82.88
668.232	85.88
668.435	92.88
668.638	100.88
668.841	89.88
669.043	76.88
669.246	75.88
669.449	73.88
669.651	87.88
669.854	86.88
670.057	91.88
670.259	85.88
670.462	79.88
670.665	76.88
670.867	82.88
671.07	79.88
671.272	77.88
671.475	84.88
671.677	77.88
671.88	88.88
672.082	83.88
672.284	95.88
672.487	98.88
672.689	77.88
672.892	79.88
