Data from 1983.PennyLincolnUp.Lamp.En5.5.200Scan.071819.P1_HRD10591_16-54-36-966.txt Node
Date: Thu Jul 18 16:54:36 EDT 2019
User: cochatt
Spectrometer: HR+D1059
Trigger mode: 1
Integration Time (sec): 1.000000E-1
Scans to average: 1
Electric dark correction enabled: true
Nonlinearity correction enabled: false
Boxcar width: 0
XAxis mode: Wavelengths
Number of Pixels in Spectrum: 2048
>>>>>Begin Spectral Data<<<<<
223.165	-12.12
223.4	-12.12
223.635	-12.12
223.869	-22.12
224.104	-14.12
224.338	-8.12
224.573	-18.12
224.808	-11.12
225.042	-16.12
225.277	-11.12
225.511	-9.12
225.746	3.88
225.98	3.88
226.215	14.88
226.449	4.88
226.683	21.88
226.918	33.88
227.152	38.88
227.387	29.88
227.621	31.88
227.856	43.88
228.09	59.88
228.324	48.88
228.559	63.88
228.793	66.88
229.027	88.88
229.262	106.88
229.496	108.88
229.73	125.88
229.964	147.88
230.199	115.88
230.433	95.88
230.667	98.88
230.901	101.88
231.136	115.88
231.37	111.88
231.604	132.88
231.838	91.88
232.072	100.88
232.306	93.88
232.541	103.88
232.775	103.88
233.009	104.88
233.243	111.88
233.477	108.88
233.711	123.88
233.945	107.88
234.179	113.88
234.413	117.88
234.647	105.88
234.881	99.88
235.115	102.88
235.349	116.88
235.583	113.88
235.817	128.88
236.051	116.88
236.285	133.88
236.519	121.88
236.753	128.88
236.987	121.88
237.221	161.88
237.455	206.88
237.689	173.88
237.922	126.88
238.156	126.88
238.39	116.88
238.624	128.88
238.858	123.88
239.091	116.88
239.325	100.88
239.559	116.88
239.793	97.88
240.027	129.88
240.26	131.88
240.494	143.88
240.728	147.88
240.961	127.88
241.195	145.88
241.429	131.88
241.662	135.88
241.896	120.88
242.13	116.88
242.363	117.88
242.597	136.88
242.83	116.88
243.064	107.88
243.298	141.88
243.531	130.88
243.765	131.88
243.998	121.88
244.232	130.88
244.465	142.88
244.699	134.88
244.932	129.88
245.166	138.88
245.399	132.88
245.633	133.88
245.866	121.88
246.099	133.88
246.333	137.88
246.566	134.88
246.8	139.88
247.033	156.88
247.266	152.88
247.5	156.88
247.733	145.88
247.966	152.88
248.2	162.88
248.433	164.88
248.666	159.88
248.899	155.88
249.133	182.88
249.366	199.88
249.599	203.88
249.832	194.88
250.066	160.88
250.299	159.88
250.532	182.88
250.765	198.88
250.998	202.88
251.231	199.88
251.465	190.88
251.698	182.88
251.931	190.88
252.164	185.88
252.397	170.88
252.63	195.88
252.863	197.88
253.096	210.88
253.329	196.88
253.562	208.88
253.795	193.88
254.028	209.88
254.261	195.88
254.494	203.88
254.727	241.88
254.96	244.88
255.193	244.88
255.426	226.88
255.659	220.88
255.892	211.88
256.124	211.88
256.357	208.88
256.59	213.88
256.823	202.88
257.056	187.88
257.289	196.88
257.521	182.88
257.754	192.88
257.987	210.88
258.22	203.88
258.452	189.88
258.685	189.88
258.918	205.88
259.151	193.88
259.383	206.88
259.616	201.88
259.849	205.88
260.081	220.88
260.314	254.88
260.547	243.88
260.779	228.88
261.012	211.88
261.244	201.88
261.477	193.88
261.71	212.88
261.942	197.88
262.175	228.88
262.407	204.88
262.64	205.88
262.872	204.88
263.105	189.88
263.337	203.88
263.57	192.88
263.802	179.88
264.035	188.88
264.267	186.88
264.499	188.88
264.732	195.88
264.964	193.88
265.197	188.88
265.429	192.88
265.661	205.88
265.894	204.88
266.126	206.88
266.358	187.88
266.591	200.88
266.823	204.88
267.055	212.88
267.287	206.88
267.52	208.88
267.752	213.88
267.984	211.88
268.216	194.88
268.448	215.88
268.681	218.88
268.913	193.88
269.145	225.88
269.377	231.88
269.609	228.88
269.841	251.88
270.073	240.88
270.306	276.88
270.538	290.88
270.77	264.88
271.002	290.88
271.234	271.88
271.466	287.88
271.698	284.88
271.93	278.88
272.162	292.88
272.394	306.88
272.626	266.88
272.858	257.88
273.09	245.88
273.322	242.88
273.553	226.88
273.785	238.88
274.017	238.88
274.249	261.88
274.481	242.88
274.713	247.88
274.945	240.88
275.176	258.88
275.408	242.88
275.64	215.88
275.872	237.88
276.104	234.88
276.335	236.88
276.567	241.88
276.799	273.88
277.031	271.88
277.262	306.88
277.494	297.88
277.726	266.88
277.957	264.88
278.189	268.88
278.421	260.88
278.652	242.88
278.884	244.88
279.115	249.88
279.347	247.88
279.579	241.88
279.81	243.88
280.042	258.88
280.273	241.88
280.505	237.88
280.736	247.88
280.968	234.88
281.199	233.88
281.431	251.88
281.662	251.88
281.894	232.88
282.125	251.88
282.356	262.88
282.588	274.88
282.819	297.88
283.051	246.88
283.282	245.88
283.513	248.88
283.745	252.88
283.976	261.88
284.207	243.88
284.439	265.88
284.67	246.88
284.901	255.88
285.132	251.88
285.364	251.88
285.595	253.88
285.826	256.88
286.057	269.88
286.288	230.88
286.52	244.88
286.751	256.88
286.982	253.88
287.213	242.88
287.444	263.88
287.675	253.88
287.906	266.88
288.138	271.88
288.369	284.88
288.6	280.88
288.831	263.88
289.062	273.88
289.293	270.88
289.524	246.88
289.755	253.88
289.986	273.88
290.217	269.88
290.448	251.88
290.679	256.88
290.91	263.88
291.141	244.88
291.371	260.88
291.602	272.88
291.833	274.88
292.064	262.88
292.295	281.88
292.526	259.88
292.757	258.88
292.987	275.88
293.218	279.88
293.449	272.88
293.68	261.88
293.91	258.88
294.141	274.88
294.372	267.88
294.603	262.88
294.833	270.88
295.064	279.88
295.295	262.88
295.525	250.88
295.756	269.88
295.987	275.88
296.217	294.88
296.448	303.88
296.679	286.88
296.909	251.88
297.14	269.88
297.37	266.88
297.601	264.88
297.831	274.88
298.062	262.88
298.292	269.88
298.523	268.88
298.753	279.88
298.984	268.88
299.214	273.88
299.445	275.88
299.675	261.88
299.905	293.88
300.136	277.88
300.366	281.88
300.597	277.88
300.827	273.88
301.057	289.88
301.288	311.88
301.518	296.88
301.748	304.88
301.979	297.88
302.209	297.88
302.439	299.88
302.669	301.88
302.9	288.88
303.13	308.88
303.36	289.88
303.59	293.88
303.82	300.88
304.051	317.88
304.281	295.88
304.511	275.88
304.741	275.88
304.971	293.88
305.201	297.88
305.431	308.88
305.661	315.88
305.891	296.88
306.121	293.88
306.352	309.88
306.582	310.88
306.812	308.88
307.042	310.88
307.272	313.88
307.502	292.88
307.731	319.88
307.961	315.88
308.191	295.88
308.421	294.88
308.651	313.88
308.881	323.88
309.111	307.88
309.341	312.88
309.571	319.88
309.8	323.88
310.03	333.88
310.26	348.88
310.49	328.88
310.72	360.88
310.949	360.88
311.179	365.88
311.409	330.88
311.639	336.88
311.868	359.88
312.098	353.88
312.328	352.88
312.557	368.88
312.787	380.88
313.017	393.88
313.246	352.88
313.476	352.88
313.706	342.88
313.935	362.88
314.165	345.88
314.394	371.88
314.624	367.88
314.853	369.88
315.083	363.88
315.312	346.88
315.542	332.88
315.771	344.88
316.001	323.88
316.23	337.88
316.46	328.88
316.689	322.88
316.919	365.88
317.148	340.88
317.377	344.88
317.607	358.88
317.836	342.88
318.065	340.88
318.295	332.88
318.524	352.88
318.753	371.88
318.983	337.88
319.212	341.88
319.441	342.88
319.67	359.88
319.9	332.88
320.129	347.88
320.358	357.88
320.587	365.88
320.816	375.88
321.046	373.88
321.275	383.88
321.504	371.88
321.733	386.88
321.962	373.88
322.191	379.88
322.42	405.88
322.649	410.88
322.878	435.88
323.108	428.88
323.337	461.88
323.566	474.88
323.795	498.88
324.024	576.88
324.253	671.88
324.482	1000.88
324.71	1428.88
324.939	2040.88
325.168	1694.88
325.397	901.88
325.626	625.88
325.855	525.88
326.084	476.88
326.313	483.88
326.542	481.88
326.77	552.88
326.999	646.88
327.228	872.88
327.457	1313.88
327.686	1512.88
327.914	1014.88
328.143	707.88
328.372	615.88
328.6	572.88
328.829	539.88
329.058	563.88
329.287	565.88
329.515	520.88
329.744	488.88
329.972	491.88
330.201	511.88
330.43	552.88
330.658	583.88
330.887	614.88
331.115	577.88
331.344	489.88
331.572	448.88
331.801	439.88
332.03	449.88
332.258	449.88
332.486	416.88
332.715	411.88
332.943	416.88
333.172	421.88
333.4	419.88
333.629	447.88
333.857	456.88
334.085	440.88
334.314	444.88
334.542	509.88
334.771	518.88
334.999	468.88
335.227	422.88
335.455	389.88
335.684	403.88
335.912	411.88
336.14	379.88
336.369	404.88
336.597	409.88
336.825	409.88
337.053	400.88
337.281	394.88
337.51	402.88
337.738	407.88
337.966	402.88
338.194	417.88
338.422	415.88
338.65	402.88
338.878	395.88
339.106	375.88
339.334	394.88
339.562	368.88
339.79	370.88
340.018	404.88
340.246	393.88
340.474	381.88
340.702	383.88
340.93	379.88
341.158	391.88
341.386	397.88
341.614	390.88
341.842	388.88
342.07	388.88
342.298	380.88
342.526	369.88
342.754	377.88
342.981	369.88
343.209	369.88
343.437	374.88
343.665	377.88
343.893	380.88
344.12	379.88
344.348	383.88
344.576	407.88
344.804	389.88
345.031	410.88
345.259	415.88
345.487	396.88
345.714	389.88
345.942	383.88
346.17	369.88
346.397	395.88
346.625	363.88
346.853	374.88
347.08	379.88
347.308	376.88
347.535	394.88
347.763	406.88
347.99	396.88
348.218	380.88
348.445	403.88
348.673	377.88
348.9	376.88
349.128	362.88
349.355	375.88
349.583	355.88
349.81	353.88
350.037	359.88
350.265	354.88
350.492	368.88
350.72	377.88
350.947	372.88
351.174	384.88
351.402	377.88
351.629	387.88
351.856	379.88
352.083	361.88
352.311	383.88
352.538	391.88
352.765	397.88
352.992	384.88
353.22	390.88
353.447	391.88
353.674	391.88
353.901	357.88
354.128	333.88
354.355	345.88
354.583	364.88
354.81	349.88
355.037	350.88
355.264	341.88
355.491	344.88
355.718	356.88
355.945	346.88
356.172	339.88
356.399	345.88
356.626	349.88
356.853	345.88
357.08	343.88
357.307	333.88
357.534	328.88
357.761	333.88
357.988	331.88
358.215	338.88
358.441	345.88
358.668	345.88
358.895	360.88
359.122	347.88
359.349	351.88
359.576	385.88
359.802	395.88
360.029	467.88
360.256	459.88
360.483	406.88
360.709	386.88
360.936	373.88
361.163	374.88
361.39	370.88
361.616	381.88
361.843	368.88
362.07	379.88
362.296	380.88
362.523	362.88
362.749	375.88
362.976	378.88
363.203	379.88
363.429	363.88
363.656	372.88
363.882	351.88
364.109	377.88
364.335	362.88
364.562	356.88
364.788	342.88
365.015	352.88
365.241	369.88
365.468	350.88
365.694	353.88
365.92	360.88
366.147	356.88
366.373	351.88
366.599	350.88
366.826	341.88
367.052	345.88
367.278	369.88
367.505	355.88
367.731	369.88
367.957	343.88
368.184	363.88
368.41	361.88
368.636	378.88
368.862	369.88
369.089	351.88
369.315	354.88
369.541	343.88
369.767	346.88
369.993	348.88
370.219	364.88
370.445	346.88
370.672	362.88
370.898	348.88
371.124	354.88
371.35	347.88
371.576	353.88
371.802	339.88
372.028	342.88
372.254	345.88
372.48	343.88
372.706	371.88
372.932	335.88
373.158	337.88
373.384	345.88
373.61	374.88
373.835	343.88
374.061	335.88
374.287	348.88
374.513	360.88
374.739	346.88
374.965	346.88
375.191	355.88
375.416	353.88
375.642	340.88
375.868	346.88
376.094	346.88
376.319	334.88
376.545	329.88
376.771	338.88
376.997	361.88
377.222	362.88
377.448	344.88
377.674	349.88
377.899	344.88
378.125	325.88
378.35	352.88
378.576	350.88
378.802	345.88
379.027	333.88
379.253	337.88
379.478	340.88
379.704	338.88
379.929	348.88
380.155	348.88
380.38	355.88
380.606	357.88
380.831	356.88
381.057	329.88
381.282	338.88
381.507	330.88
381.733	344.88
381.958	329.88
382.184	343.88
382.409	340.88
382.634	353.88
382.86	347.88
383.085	352.88
383.31	353.88
383.535	358.88
383.761	344.88
383.986	349.88
384.211	333.88
384.436	356.88
384.662	346.88
384.887	356.88
385.112	353.88
385.337	376.88
385.562	374.88
385.787	370.88
386.013	398.88
386.238	377.88
386.463	371.88
386.688	353.88
386.913	345.88
387.138	373.88
387.363	374.88
387.588	372.88
387.813	369.88
388.038	364.88
388.263	361.88
388.488	365.88
388.713	362.88
388.938	370.88
389.163	383.88
389.387	373.88
389.612	357.88
389.837	373.88
390.062	376.88
390.287	374.88
390.512	364.88
390.736	373.88
390.961	371.88
391.186	370.88
391.411	372.88
391.636	348.88
391.86	361.88
392.085	388.88
392.31	391.88
392.534	386.88
392.759	371.88
392.984	380.88
393.208	381.88
393.433	368.88
393.658	354.88
393.882	374.88
394.107	379.88
394.331	353.88
394.556	375.88
394.78	363.88
395.005	371.88
395.229	357.88
395.454	364.88
395.678	358.88
395.903	385.88
396.127	400.88
396.352	385.88
396.576	407.88
396.801	369.88
397.025	398.88
397.249	372.88
397.474	373.88
397.698	406.88
397.922	380.88
398.147	405.88
398.371	417.88
398.595	422.88
398.82	403.88
399.044	448.88
399.268	433.88
399.492	442.88
399.717	460.88
399.941	469.88
400.165	525.88
400.389	501.88
400.613	461.88
400.837	440.88
401.062	428.88
401.286	413.88
401.51	440.88
401.734	405.88
401.958	403.88
402.182	404.88
402.406	442.88
402.63	436.88
402.854	444.88
403.078	433.88
403.302	452.88
403.526	435.88
403.75	421.88
403.974	420.88
404.198	418.88
404.422	426.88
404.645	438.88
404.869	448.88
405.093	448.88
405.317	487.88
405.541	499.88
405.765	483.88
405.988	447.88
406.212	492.88
406.436	484.88
406.66	512.88
406.883	485.88
407.107	473.88
407.331	505.88
407.555	567.88
407.778	554.88
408.002	508.88
408.226	481.88
408.449	456.88
408.673	454.88
408.896	500.88
409.12	499.88
409.344	475.88
409.567	459.88
409.791	450.88
410.014	432.88
410.238	437.88
410.461	434.88
410.685	447.88
410.908	445.88
411.132	469.88
411.355	504.88
411.578	468.88
411.802	436.88
412.025	444.88
412.249	432.88
412.472	453.88
412.695	468.88
412.919	468.88
413.142	443.88
413.365	418.88
413.589	423.88
413.812	429.88
414.035	395.88
414.258	405.88
414.482	405.88
414.705	403.88
414.928	395.88
415.151	396.88
415.374	419.88
415.597	399.88
415.821	407.88
416.044	415.88
416.267	411.88
416.49	401.88
416.713	399.88
416.936	407.88
417.159	385.88
417.382	408.88
417.605	415.88
417.828	415.88
418.051	434.88
418.274	411.88
418.497	420.88
418.72	431.88
418.943	403.88
419.166	407.88
419.389	449.88
419.611	439.88
419.834	429.88
420.057	429.88
420.28	422.88
420.503	415.88
420.726	429.88
420.948	424.88
421.171	472.88
421.394	477.88
421.617	436.88
421.839	412.88
422.062	421.88
422.285	443.88
422.507	467.88
422.73	541.88
422.953	521.88
423.175	465.88
423.398	463.88
423.621	448.88
423.843	451.88
424.066	465.88
424.288	455.88
424.511	458.88
424.733	517.88
424.956	567.88
425.178	567.88
425.401	532.88
425.623	528.88
425.846	472.88
426.068	482.88
426.291	476.88
426.513	439.88
426.735	464.88
426.958	500.88
427.18	553.88
427.402	680.88
427.625	730.88
427.847	648.88
428.069	575.88
428.292	486.88
428.514	482.88
428.736	450.88
428.958	438.88
429.181	441.88
429.403	412.88
429.625	403.88
429.847	459.88
430.069	518.88
430.292	496.88
430.514	459.88
430.736	432.88
430.958	424.88
431.18	389.88
431.402	411.88
431.624	391.88
431.846	409.88
432.068	397.88
432.29	415.88
432.512	410.88
432.734	431.88
432.956	430.88
433.178	452.88
433.4	433.88
433.622	421.88
433.844	406.88
434.066	417.88
434.287	415.88
434.509	411.88
434.731	427.88
434.953	417.88
435.175	421.88
435.397	471.88
435.618	468.88
435.84	465.88
436.062	557.88
436.284	607.88
436.505	528.88
436.727	482.88
436.949	435.88
437.17	441.88
437.392	439.88
437.614	436.88
437.835	483.88
438.057	561.88
438.278	639.88
438.5	635.88
438.721	666.88
438.943	631.88
439.165	520.88
439.386	464.88
439.608	483.88
439.829	484.88
440.05	499.88
440.272	557.88
440.493	486.88
440.715	460.88
440.936	455.88
441.158	441.88
441.379	443.88
441.6	452.88
441.822	460.88
442.043	507.88
442.264	541.88
442.486	583.88
442.707	501.88
442.928	485.88
443.149	492.88
443.371	487.88
443.592	544.88
443.813	589.88
444.034	626.88
444.255	519.88
444.476	451.88
444.698	465.88
444.919	471.88
445.14	584.88
445.361	533.88
445.582	504.88
445.803	549.88
446.024	625.88
446.245	643.88
446.466	576.88
446.687	491.88
446.908	461.88
447.129	444.88
447.35	436.88
447.571	447.88
447.792	424.88
448.013	433.88
448.234	465.88
448.455	484.88
448.675	571.88
448.896	652.88
449.117	555.88
449.338	565.88
449.559	635.88
449.779	688.88
450	569.88
450.221	444.88
450.442	432.88
450.662	436.88
450.883	467.88
451.104	442.88
451.324	455.88
451.545	443.88
451.766	410.88
451.986	406.88
452.207	373.88
452.428	373.88
452.648	374.88
452.869	376.88
453.089	405.88
453.31	404.88
453.53	371.88
453.751	388.88
453.971	391.88
454.192	423.88
454.412	392.88
454.633	385.88
454.853	393.88
455.073	379.88
455.294	416.88
455.514	459.88
455.734	443.88
455.955	394.88
456.175	377.88
456.395	359.88
456.616	361.88
456.836	359.88
457.056	363.88
457.276	359.88
457.497	377.88
457.717	380.88
457.937	384.88
458.157	385.88
458.377	393.88
458.598	407.88
458.818	440.88
459.038	531.88
459.258	519.88
459.478	455.88
459.698	422.88
459.918	396.88
460.138	389.88
460.358	409.88
460.578	407.88
460.798	411.88
461.018	409.88
461.238	397.88
461.458	409.88
461.678	394.88
461.898	411.88
462.118	389.88
462.338	410.88
462.558	420.88
462.777	431.88
462.997	423.88
463.217	453.88
463.437	440.88
463.657	413.88
463.876	425.88
464.096	425.88
464.316	436.88
464.536	438.88
464.755	461.88
464.975	458.88
465.195	517.88
465.414	604.88
465.634	499.88
465.854	418.88
466.073	417.88
466.293	405.88
466.512	417.88
466.732	413.88
466.951	381.88
467.171	385.88
467.391	387.88
467.61	410.88
467.829	395.88
468.049	415.88
468.268	405.88
468.488	401.88
468.707	380.88
468.927	376.88
469.146	371.88
469.365	379.88
469.585	364.88
469.804	399.88
470.023	411.88
470.243	408.88
470.462	413.88
470.681	419.88
470.901	435.88
471.12	391.88
471.339	375.88
471.558	396.88
471.777	417.88
471.997	388.88
472.216	408.88
472.435	435.88
472.654	439.88
472.873	423.88
473.092	396.88
473.311	396.88
473.53	409.88
473.749	410.88
473.968	443.88
474.187	539.88
474.406	532.88
474.625	456.88
474.844	426.88
475.063	405.88
475.282	387.88
475.501	394.88
475.72	405.88
475.939	403.88
476.158	418.88
476.377	395.88
476.596	416.88
476.814	421.88
477.033	445.88
477.252	434.88
477.471	418.88
477.69	446.88
477.908	459.88
478.127	424.88
478.346	425.88
478.564	429.88
478.783	431.88
479.002	445.88
479.22	463.88
479.439	457.88
479.658	503.88
479.876	491.88
480.095	495.88
480.313	532.88
480.532	480.88
480.751	490.88
480.969	511.88
481.188	563.88
481.406	623.88
481.624	520.88
481.843	494.88
482.061	479.88
482.28	492.88
482.498	464.88
482.717	457.88
482.935	462.88
483.153	485.88
483.372	464.88
483.59	473.88
483.808	457.88
484.027	457.88
484.245	461.88
484.463	469.88
484.681	481.88
484.9	475.88
485.118	469.88
485.336	485.88
485.554	461.88
485.772	483.88
485.99	483.88
486.209	466.88
486.427	479.88
486.645	502.88
486.863	505.88
487.081	532.88
487.299	525.88
487.517	506.88
487.735	507.88
487.953	492.88
488.171	505.88
488.389	491.88
488.607	504.88
488.825	524.88
489.043	505.88
489.261	507.88
489.479	500.88
489.696	523.88
489.914	517.88
490.132	535.88
490.35	524.88
490.568	535.88
490.786	544.88
491.003	548.88
491.221	571.88
491.439	550.88
491.657	556.88
491.874	569.88
492.092	578.88
492.31	602.88
492.527	595.88
492.745	604.88
492.963	591.88
493.18	583.88
493.398	602.88
493.615	605.88
493.833	600.88
494.05	599.88
494.268	596.88
494.485	610.88
494.703	584.88
494.92	593.88
495.138	593.88
495.355	595.88
495.573	607.88
495.79	596.88
496.008	593.88
496.225	594.88
496.442	610.88
496.66	611.88
496.877	620.88
497.094	610.88
497.312	587.88
497.529	599.88
497.746	625.88
497.963	610.88
498.181	663.88
498.398	647.88
498.615	645.88
498.832	645.88
499.049	655.88
499.267	675.88
499.484	671.88
499.701	729.88
499.918	722.88
500.135	733.88
500.352	795.88
500.569	802.88
500.786	771.88
501.003	769.88
501.22	758.88
501.437	754.88
501.654	739.88
501.871	739.88
502.088	696.88
502.305	716.88
502.522	663.88
502.739	633.88
502.956	621.88
503.172	620.88
503.389	628.88
503.606	621.88
503.823	626.88
504.04	609.88
504.256	597.88
504.473	586.88
504.69	583.88
504.907	586.88
505.123	574.88
505.34	577.88
505.557	561.88
505.773	553.88
505.99	573.88
506.207	544.88
506.423	556.88
506.64	557.88
506.856	572.88
507.073	551.88
507.289	559.88
507.506	548.88
507.722	577.88
507.939	581.88
508.155	555.88
508.372	553.88
508.588	552.88
508.805	517.88
509.021	543.88
509.238	559.88
509.454	561.88
509.67	562.88
509.887	559.88
510.103	546.88
510.319	584.88
510.536	672.88
510.752	1212.88
510.968	931.88
511.184	566.88
511.401	540.88
511.617	545.88
511.833	517.88
512.049	523.88
512.265	524.88
512.481	505.88
512.698	528.88
512.914	492.88
513.13	517.88
513.346	523.88
513.562	521.88
513.778	526.88
513.994	525.88
514.21	547.88
514.426	547.88
514.642	617.88
514.858	653.88
515.074	700.88
515.29	891.88
515.506	1366.88
515.721	1086.88
515.937	687.88
516.153	609.88
516.369	580.88
516.585	552.88
516.801	535.88
517.016	537.88
517.232	536.88
517.448	539.88
517.664	553.88
517.879	530.88
518.095	524.88
518.311	531.88
518.527	523.88
518.742	528.88
518.958	515.88
519.173	515.88
519.389	507.88
519.605	519.88
519.82	515.88
520.036	541.88
520.251	574.88
520.467	556.88
520.682	583.88
520.898	602.88
521.113	615.88
521.329	679.88
521.544	781.88
521.76	1048.88
521.975	1880.88
522.19	1783.88
522.406	892.88
522.621	643.88
522.836	560.88
523.052	553.88
523.267	495.88
523.482	497.88
523.698	490.88
523.913	476.88
524.128	468.88
524.343	471.88
524.559	473.88
524.774	443.88
524.989	452.88
525.204	438.88
525.419	468.88
525.634	447.88
525.849	443.88
526.064	417.88
526.28	427.88
526.495	410.88
526.71	424.88
526.925	418.88
527.14	422.88
527.355	417.88
527.57	425.88
527.785	426.88
527.999	434.88
528.214	407.88
528.429	419.88
528.644	418.88
528.859	438.88
529.074	436.88
529.289	447.88
529.503	549.88
529.718	486.88
529.933	446.88
530.148	445.88
530.363	431.88
530.577	440.88
530.792	406.88
531.007	404.88
531.221	439.88
531.436	403.88
531.651	411.88
531.865	404.88
532.08	389.88
532.295	379.88
532.509	400.88
532.724	371.88
532.938	391.88
533.153	388.88
533.367	412.88
533.582	396.88
533.796	403.88
534.011	381.88
534.225	391.88
534.44	386.88
534.654	387.88
534.868	371.88
535.083	375.88
535.297	397.88
535.511	404.88
535.726	403.88
535.94	396.88
536.154	403.88
536.369	379.88
536.583	378.88
536.797	375.88
537.011	392.88
537.225	361.88
537.44	375.88
537.654	377.88
537.868	375.88
538.082	380.88
538.296	385.88
538.51	402.88
538.724	380.88
538.938	378.88
539.153	377.88
539.367	398.88
539.581	399.88
539.795	372.88
540.009	394.88
540.222	375.88
540.436	375.88
540.65	376.88
540.864	391.88
541.078	391.88
541.292	392.88
541.506	386.88
541.72	389.88
541.934	388.88
542.147	384.88
542.361	376.88
542.575	387.88
542.789	379.88
543.002	376.88
543.216	386.88
543.43	386.88
543.644	375.88
543.857	396.88
544.071	383.88
544.285	376.88
544.498	378.88
544.712	373.88
544.925	385.88
545.139	382.88
545.352	364.88
545.566	375.88
545.779	378.88
545.993	384.88
546.206	348.88
546.42	362.88
546.633	360.88
546.847	346.88
547.06	360.88
547.274	357.88
547.487	369.88
547.7	337.88
547.914	356.88
548.127	353.88
548.34	349.88
548.554	375.88
548.767	364.88
548.98	355.88
549.193	348.88
549.407	362.88
549.62	364.88
549.833	355.88
550.046	371.88
550.259	357.88
550.473	349.88
550.686	356.88
550.899	343.88
551.112	356.88
551.325	334.88
551.538	354.88
551.751	347.88
551.964	347.88
552.177	345.88
552.39	342.88
552.603	365.88
552.816	347.88
553.029	345.88
553.242	347.88
553.455	362.88
553.667	376.88
553.88	385.88
554.093	365.88
554.306	354.88
554.519	342.88
554.732	353.88
554.944	359.88
555.157	347.88
555.37	348.88
555.583	323.88
555.795	347.88
556.008	330.88
556.221	323.88
556.433	332.88
556.646	327.88
556.859	328.88
557.071	327.88
557.284	321.88
557.496	322.88
557.709	331.88
557.921	317.88
558.134	324.88
558.346	315.88
558.559	319.88
558.771	315.88
558.984	335.88
559.196	304.88
559.409	308.88
559.621	304.88
559.833	300.88
560.046	295.88
560.258	319.88
560.47	300.88
560.683	311.88
560.895	307.88
561.107	312.88
561.32	325.88
561.532	319.88
561.744	312.88
561.956	324.88
562.168	323.88
562.381	307.88
562.593	309.88
562.805	314.88
563.017	331.88
563.229	318.88
563.441	316.88
563.653	333.88
563.865	325.88
564.077	303.88
564.289	322.88
564.501	327.88
564.713	311.88
564.925	332.88
565.137	326.88
565.349	337.88
565.561	311.88
565.773	362.88
565.985	333.88
566.197	353.88
566.408	338.88
566.62	356.88
566.832	363.88
567.044	356.88
567.255	357.88
567.467	388.88
567.679	386.88
567.891	376.88
568.102	374.88
568.314	360.88
568.526	348.88
568.737	355.88
568.949	333.88
569.161	340.88
569.372	332.88
569.584	319.88
569.795	309.88
570.007	341.88
570.218	369.88
570.43	335.88
570.641	298.88
570.853	303.88
571.064	298.88
571.276	291.88
571.487	298.88
571.698	301.88
571.91	278.88
572.121	276.88
572.333	308.88
572.544	277.88
572.755	304.88
572.966	288.88
573.178	271.88
573.389	283.88
573.6	289.88
573.811	283.88
574.023	272.88
574.234	280.88
574.445	267.88
574.656	277.88
574.867	269.88
575.078	277.88
575.289	283.88
575.501	291.88
575.712	274.88
575.923	267.88
576.134	261.88
576.345	267.88
576.556	267.88
576.767	260.88
576.978	263.88
577.188	267.88
577.399	277.88
577.61	257.88
577.821	279.88
578.032	265.88
578.243	311.88
578.454	555.88
578.665	372.88
578.875	275.88
579.086	282.88
579.297	257.88
579.508	266.88
579.718	264.88
579.929	270.88
580.14	257.88
580.35	258.88
580.561	224.88
580.772	257.88
580.982	245.88
581.193	252.88
581.403	248.88
581.614	264.88
581.825	256.88
582.035	248.88
582.246	246.88
582.456	261.88
582.667	243.88
582.877	240.88
583.087	252.88
583.298	249.88
583.508	250.88
583.719	247.88
583.929	265.88
584.139	241.88
584.35	243.88
584.56	251.88
584.77	236.88
584.981	236.88
585.191	253.88
585.401	241.88
585.611	239.88
585.821	242.88
586.032	239.88
586.242	220.88
586.452	241.88
586.662	247.88
586.872	225.88
587.082	237.88
587.292	220.88
587.502	229.88
587.713	243.88
587.923	241.88
588.133	233.88
588.343	224.88
588.553	248.88
588.762	237.88
588.972	239.88
589.182	229.88
589.392	261.88
589.602	225.88
589.812	236.88
590.022	249.88
590.232	227.88
590.441	226.88
590.651	234.88
590.861	220.88
591.071	217.88
591.281	242.88
591.49	236.88
591.7	242.88
591.91	247.88
592.119	239.88
592.329	232.88
592.539	255.88
592.748	252.88
592.958	246.88
593.167	231.88
593.377	229.88
593.587	237.88
593.796	239.88
594.006	241.88
594.215	240.88
594.424	237.88
594.634	245.88
594.843	251.88
595.053	233.88
595.262	243.88
595.472	235.88
595.681	234.88
595.89	236.88
596.1	231.88
596.309	225.88
596.518	226.88
596.727	220.88
596.937	223.88
597.146	225.88
597.355	206.88
597.564	216.88
597.774	213.88
597.983	230.88
598.192	235.88
598.401	224.88
598.61	200.88
598.819	218.88
599.028	217.88
599.237	195.88
599.446	212.88
599.655	221.88
599.864	213.88
600.073	202.88
600.282	217.88
600.491	203.88
600.7	205.88
600.909	205.88
601.118	207.88
601.327	219.88
601.536	210.88
601.745	218.88
601.953	201.88
602.162	211.88
602.371	200.88
602.58	214.88
602.789	211.88
602.997	213.88
603.206	203.88
603.415	202.88
603.623	196.88
603.832	201.88
604.041	206.88
604.249	200.88
604.458	203.88
604.666	199.88
604.875	204.88
605.084	201.88
605.292	205.88
605.501	211.88
605.709	202.88
605.918	199.88
606.126	211.88
606.334	191.88
606.543	204.88
606.751	204.88
606.96	193.88
607.168	193.88
607.376	200.88
607.585	201.88
607.793	195.88
608.001	204.88
608.21	189.88
608.418	205.88
608.626	191.88
608.834	184.88
609.043	202.88
609.251	194.88
609.459	192.88
609.667	194.88
609.875	179.88
610.083	187.88
610.291	174.88
610.499	200.88
610.707	205.88
610.916	212.88
611.124	200.88
611.332	196.88
611.54	197.88
611.748	211.88
611.955	196.88
612.163	211.88
612.371	187.88
612.579	213.88
612.787	200.88
612.995	191.88
613.203	196.88
613.411	203.88
613.618	187.88
613.826	197.88
614.034	195.88
614.242	195.88
614.449	208.88
614.657	188.88
614.865	186.88
615.072	185.88
615.28	192.88
615.488	194.88
615.695	209.88
615.903	175.88
616.111	192.88
616.318	184.88
616.526	191.88
616.733	210.88
616.941	193.88
617.148	202.88
617.356	196.88
617.563	200.88
617.771	190.88
617.978	186.88
618.185	188.88
618.393	187.88
618.6	193.88
618.807	193.88
619.015	214.88
619.222	187.88
619.429	178.88
619.637	187.88
619.844	184.88
620.051	187.88
620.258	190.88
620.466	177.88
620.673	173.88
620.88	187.88
621.087	181.88
621.294	191.88
621.501	202.88
621.708	190.88
621.915	176.88
622.122	173.88
622.329	172.88
622.536	190.88
622.743	183.88
622.95	178.88
623.157	162.88
623.364	181.88
623.571	158.88
623.778	164.88
623.985	187.88
624.192	187.88
624.399	192.88
624.606	179.88
624.812	165.88
625.019	191.88
625.226	184.88
625.433	185.88
625.639	180.88
625.846	172.88
626.053	179.88
626.259	187.88
626.466	183.88
626.673	175.88
626.879	166.88
627.086	179.88
627.293	168.88
627.499	175.88
627.706	168.88
627.912	182.88
628.119	162.88
628.325	177.88
628.532	189.88
628.738	173.88
628.945	149.88
629.151	182.88
629.357	163.88
629.564	170.88
629.77	181.88
629.976	165.88
630.183	155.88
630.389	165.88
630.595	153.88
630.802	170.88
631.008	165.88
631.214	165.88
631.42	160.88
631.627	171.88
631.833	169.88
632.039	176.88
632.245	177.88
632.451	176.88
632.657	165.88
632.863	182.88
633.069	165.88
633.275	163.88
633.481	140.88
633.688	169.88
633.893	159.88
634.099	149.88
634.305	149.88
634.511	153.88
634.717	177.88
634.923	148.88
635.129	160.88
635.335	162.88
635.541	150.88
635.747	152.88
635.952	133.88
636.158	140.88
636.364	146.88
636.57	167.88
636.775	174.88
636.981	148.88
637.187	148.88
637.392	150.88
637.598	157.88
637.804	157.88
638.009	138.88
638.215	138.88
638.421	152.88
638.626	142.88
638.832	161.88
639.037	141.88
639.243	158.88
639.448	152.88
639.654	170.88
639.859	145.88
640.065	137.88
640.27	155.88
640.475	148.88
640.681	146.88
640.886	140.88
641.091	139.88
641.297	153.88
641.502	138.88
641.707	149.88
641.913	157.88
642.118	145.88
642.323	139.88
642.528	147.88
642.733	155.88
642.939	152.88
643.144	136.88
643.349	149.88
643.554	156.88
643.759	141.88
643.964	161.88
644.169	149.88
644.374	134.88
644.579	137.88
644.784	136.88
644.989	165.88
645.194	148.88
645.399	152.88
645.604	135.88
645.809	151.88
646.014	140.88
646.219	146.88
646.423	141.88
646.628	146.88
646.833	154.88
647.038	152.88
647.243	152.88
647.447	155.88
647.652	141.88
647.857	138.88
648.062	141.88
648.266	150.88
648.471	148.88
648.676	138.88
648.88	153.88
649.085	131.88
649.289	133.88
649.494	147.88
649.698	178.88
649.903	173.88
650.107	148.88
650.312	143.88
650.516	129.88
650.721	140.88
650.925	132.88
651.13	135.88
651.334	133.88
651.539	125.88
651.743	125.88
651.947	137.88
652.152	143.88
652.356	118.88
652.56	136.88
652.764	144.88
652.969	120.88
653.173	129.88
653.377	108.88
653.581	118.88
653.785	121.88
653.99	128.88
654.194	127.88
654.398	122.88
654.602	120.88
654.806	121.88
655.01	127.88
655.214	124.88
655.418	112.88
655.622	119.88
655.826	124.88
656.03	130.88
656.234	122.88
656.438	143.88
656.642	117.88
656.846	131.88
657.049	119.88
657.253	111.88
657.457	120.88
657.661	105.88
657.865	111.88
658.068	106.88
658.272	107.88
658.476	96.88
658.68	95.88
658.883	91.88
659.087	80.88
659.291	96.88
659.494	97.88
659.698	111.88
659.901	104.88
660.105	88.88
660.309	94.88
660.512	93.88
660.716	83.88
660.919	92.88
661.123	91.88
661.326	92.88
661.53	87.88
661.733	89.88
661.936	82.88
662.14	79.88
662.343	99.88
662.546	80.88
662.75	75.88
662.953	79.88
663.156	81.88
663.36	90.88
663.563	76.88
663.766	88.88
663.969	92.88
664.173	86.88
664.376	75.88
664.579	80.88
664.782	95.88
664.985	90.88
665.188	84.88
665.391	63.88
665.594	86.88
665.797	86.88
666	77.88
666.203	86.88
666.406	75.88
666.609	67.88
666.812	87.88
667.015	81.88
667.218	98.88
667.421	72.88
667.624	80.88
667.827	84.88
668.03	83.88
668.232	81.88
668.435	66.88
668.638	75.88
668.841	67.88
669.043	85.88
669.246	86.88
669.449	79.88
669.651	87.88
669.854	85.88
670.057	68.88
670.259	64.88
670.462	75.88
670.665	82.88
670.867	82.88
671.07	91.88
671.272	81.88
671.475	85.88
671.677	84.88
671.88	94.88
672.082	110.88
672.284	95.88
672.487	76.88
672.689	79.88
672.892	90.88
