Data from 1983.PennyLincolnUp.Lamp.En5.5.200Scan.071819.P1_HRD10591_16-53-41-965.txt Node
Date: Thu Jul 18 16:53:41 EDT 2019
User: cochatt
Spectrometer: HR+D1059
Trigger mode: 1
Integration Time (sec): 1.000000E-1
Scans to average: 1
Electric dark correction enabled: true
Nonlinearity correction enabled: false
Boxcar width: 0
XAxis mode: Wavelengths
Number of Pixels in Spectrum: 2048
>>>>>Begin Spectral Data<<<<<
223.165	-14.31
223.4	-14.31
223.635	-14.31
223.869	-11.31
224.104	-22.31
224.338	9.69
224.573	-9.31
224.808	-5.31
225.042	-23.31
225.277	-19.31
225.511	-22.31
225.746	-15.31
225.98	12.69
226.215	10.69
226.449	25.69
226.683	20.69
226.918	35.69
227.152	27.69
227.387	25.69
227.621	32.69
227.856	36.69
228.09	49.69
228.324	49.69
228.559	52.69
228.793	68.69
229.027	94.69
229.262	103.69
229.496	107.69
229.73	123.69
229.964	140.69
230.199	128.69
230.433	113.69
230.667	114.69
230.901	125.69
231.136	107.69
231.37	114.69
231.604	108.69
231.838	112.69
232.072	112.69
232.306	112.69
232.541	117.69
232.775	103.69
233.009	116.69
233.243	99.69
233.477	122.69
233.711	126.69
233.945	124.69
234.179	121.69
234.413	123.69
234.647	102.69
234.881	115.69
235.115	110.69
235.349	113.69
235.583	117.69
235.817	120.69
236.051	125.69
236.285	122.69
236.519	109.69
236.753	113.69
236.987	142.69
237.221	170.69
237.455	213.69
237.689	161.69
237.922	142.69
238.156	136.69
238.39	126.69
238.624	118.69
238.858	112.69
239.091	123.69
239.325	126.69
239.559	133.69
239.793	123.69
240.027	127.69
240.26	145.69
240.494	142.69
240.728	150.69
240.961	152.69
241.195	130.69
241.429	134.69
241.662	136.69
241.896	125.69
242.13	127.69
242.363	118.69
242.597	124.69
242.83	136.69
243.064	128.69
243.298	128.69
243.531	139.69
243.765	128.69
243.998	136.69
244.232	126.69
244.465	123.69
244.699	140.69
244.932	137.69
245.166	131.69
245.399	129.69
245.633	140.69
245.866	137.69
246.099	168.69
246.333	150.69
246.566	144.69
246.8	147.69
247.033	135.69
247.266	142.69
247.5	140.69
247.733	169.69
247.966	180.69
248.2	170.69
248.433	171.69
248.666	161.69
248.899	182.69
249.133	186.69
249.366	209.69
249.599	174.69
249.832	182.69
250.066	171.69
250.299	171.69
250.532	164.69
250.765	174.69
250.998	197.69
251.231	196.69
251.465	202.69
251.698	205.69
251.931	174.69
252.164	169.69
252.397	193.69
252.63	186.69
252.863	214.69
253.096	202.69
253.329	214.69
253.562	208.69
253.795	192.69
254.028	198.69
254.261	201.69
254.494	208.69
254.727	224.69
254.96	254.69
255.193	243.69
255.426	221.69
255.659	197.69
255.892	210.69
256.124	206.69
256.357	220.69
256.59	189.69
256.823	187.69
257.056	176.69
257.289	201.69
257.521	207.69
257.754	216.69
257.987	208.69
258.22	188.69
258.452	191.69
258.685	193.69
258.918	194.69
259.151	209.69
259.383	190.69
259.616	199.69
259.849	219.69
260.081	223.69
260.314	245.69
260.547	231.69
260.779	231.69
261.012	237.69
261.244	213.69
261.477	230.69
261.71	215.69
261.942	196.69
262.175	222.69
262.407	223.69
262.64	218.69
262.872	197.69
263.105	210.69
263.337	200.69
263.57	199.69
263.802	196.69
264.035	208.69
264.267	200.69
264.499	199.69
264.732	181.69
264.964	203.69
265.197	176.69
265.429	202.69
265.661	189.69
265.894	192.69
266.126	206.69
266.358	204.69
266.591	192.69
266.823	217.69
267.055	212.69
267.287	231.69
267.52	207.69
267.752	221.69
267.984	207.69
268.216	225.69
268.448	210.69
268.681	215.69
268.913	221.69
269.145	250.69
269.377	265.69
269.609	248.69
269.841	254.69
270.073	244.69
270.306	268.69
270.538	285.69
270.77	304.69
271.002	290.69
271.234	266.69
271.466	283.69
271.698	270.69
271.93	298.69
272.162	296.69
272.394	310.69
272.626	288.69
272.858	257.69
273.09	248.69
273.322	253.69
273.553	246.69
273.785	248.69
274.017	236.69
274.249	241.69
274.481	250.69
274.713	239.69
274.945	257.69
275.176	236.69
275.408	219.69
275.64	226.69
275.872	232.69
276.104	242.69
276.335	247.69
276.567	244.69
276.799	267.69
277.031	287.69
277.262	298.69
277.494	286.69
277.726	285.69
277.957	261.69
278.189	272.69
278.421	274.69
278.652	267.69
278.884	233.69
279.115	242.69
279.347	240.69
279.579	266.69
279.81	240.69
280.042	237.69
280.273	234.69
280.505	252.69
280.736	249.69
280.968	245.69
281.199	238.69
281.431	261.69
281.662	236.69
281.894	244.69
282.125	240.69
282.356	265.69
282.588	290.69
282.819	278.69
283.051	245.69
283.282	238.69
283.513	249.69
283.745	245.69
283.976	256.69
284.207	264.69
284.439	269.69
284.67	264.69
284.901	262.69
285.132	237.69
285.364	254.69
285.595	256.69
285.826	268.69
286.057	255.69
286.288	251.69
286.52	249.69
286.751	250.69
286.982	253.69
287.213	229.69
287.444	251.69
287.675	264.69
287.906	283.69
288.138	290.69
288.369	282.69
288.6	265.69
288.831	285.69
289.062	267.69
289.293	268.69
289.524	265.69
289.755	274.69
289.986	246.69
290.217	261.69
290.448	281.69
290.679	258.69
290.91	270.69
291.141	248.69
291.371	257.69
291.602	253.69
291.833	271.69
292.064	260.69
292.295	249.69
292.526	278.69
292.757	264.69
292.987	280.69
293.218	271.69
293.449	276.69
293.68	248.69
293.91	278.69
294.141	268.69
294.372	263.69
294.603	260.69
294.833	265.69
295.064	288.69
295.295	278.69
295.525	278.69
295.756	278.69
295.987	274.69
296.217	314.69
296.448	310.69
296.679	285.69
296.909	254.69
297.14	268.69
297.37	299.69
297.601	281.69
297.831	278.69
298.062	284.69
298.292	267.69
298.523	290.69
298.753	277.69
298.984	260.69
299.214	279.69
299.445	295.69
299.675	292.69
299.905	293.69
300.136	281.69
300.366	271.69
300.597	288.69
300.827	284.69
301.057	299.69
301.288	296.69
301.518	302.69
301.748	303.69
301.979	301.69
302.209	292.69
302.439	306.69
302.669	316.69
302.9	293.69
303.13	279.69
303.36	300.69
303.59	296.69
303.82	306.69
304.051	309.69
304.281	302.69
304.511	290.69
304.741	279.69
304.971	292.69
305.201	300.69
305.431	300.69
305.661	304.69
305.891	300.69
306.121	286.69
306.352	296.69
306.582	302.69
306.812	303.69
307.042	315.69
307.272	302.69
307.502	305.69
307.731	317.69
307.961	304.69
308.191	291.69
308.421	305.69
308.651	308.69
308.881	314.69
309.111	308.69
309.341	311.69
309.571	321.69
309.8	326.69
310.03	344.69
310.26	337.69
310.49	342.69
310.72	365.69
310.949	378.69
311.179	377.69
311.409	347.69
311.639	336.69
311.868	361.69
312.098	360.69
312.328	346.69
312.557	364.69
312.787	365.69
313.017	381.69
313.246	371.69
313.476	360.69
313.706	348.69
313.935	360.69
314.165	345.69
314.394	381.69
314.624	378.69
314.853	360.69
315.083	359.69
315.312	336.69
315.542	336.69
315.771	331.69
316.001	338.69
316.23	343.69
316.46	360.69
316.689	357.69
316.919	340.69
317.148	374.69
317.377	360.69
317.607	331.69
317.836	344.69
318.065	340.69
318.295	349.69
318.524	344.69
318.753	348.69
318.983	359.69
319.212	325.69
319.441	357.69
319.67	340.69
319.9	354.69
320.129	374.69
320.358	345.69
320.587	360.69
320.816	358.69
321.046	375.69
321.275	379.69
321.504	353.69
321.733	374.69
321.962	374.69
322.191	391.69
322.42	385.69
322.649	408.69
322.878	436.69
323.108	435.69
323.337	457.69
323.566	483.69
323.795	520.69
324.024	555.69
324.253	688.69
324.482	1006.69
324.71	1449.69
324.939	1966.69
325.168	1591.69
325.397	876.69
325.626	596.69
325.855	529.69
326.084	486.69
326.313	464.69
326.542	458.69
326.77	533.69
326.999	625.69
327.228	852.69
327.457	1220.69
327.686	1437.69
327.914	974.69
328.143	672.69
328.372	597.69
328.6	545.69
328.829	536.69
329.058	546.69
329.287	525.69
329.515	494.69
329.744	470.69
329.972	452.69
330.201	467.69
330.43	474.69
330.658	530.69
330.887	573.69
331.115	550.69
331.344	480.69
331.572	447.69
331.801	432.69
332.03	441.69
332.258	430.69
332.486	415.69
332.715	422.69
332.943	407.69
333.172	407.69
333.4	431.69
333.629	407.69
333.857	425.69
334.085	424.69
334.314	454.69
334.542	450.69
334.771	456.69
334.999	433.69
335.227	415.69
335.455	405.69
335.684	396.69
335.912	387.69
336.14	395.69
336.369	407.69
336.597	429.69
336.825	409.69
337.053	407.69
337.281	389.69
337.51	388.69
337.738	410.69
337.966	396.69
338.194	394.69
338.422	406.69
338.65	386.69
338.878	383.69
339.106	390.69
339.334	386.69
339.562	367.69
339.79	394.69
340.018	403.69
340.246	400.69
340.474	394.69
340.702	383.69
340.93	391.69
341.158	386.69
341.386	382.69
341.614	367.69
341.842	392.69
342.07	380.69
342.298	397.69
342.526	379.69
342.754	357.69
342.981	386.69
343.209	376.69
343.437	377.69
343.665	377.69
343.893	374.69
344.12	411.69
344.348	397.69
344.576	390.69
344.804	374.69
345.031	402.69
345.259	409.69
345.487	378.69
345.714	381.69
345.942	373.69
346.17	384.69
346.397	380.69
346.625	384.69
346.853	373.69
347.08	390.69
347.308	388.69
347.535	393.69
347.763	394.69
347.99	372.69
348.218	397.69
348.445	397.69
348.673	388.69
348.9	366.69
349.128	382.69
349.355	384.69
349.583	364.69
349.81	377.69
350.037	348.69
350.265	359.69
350.492	358.69
350.72	342.69
350.947	366.69
351.174	378.69
351.402	404.69
351.629	396.69
351.856	390.69
352.083	389.69
352.311	390.69
352.538	380.69
352.765	394.69
352.992	388.69
353.22	385.69
353.447	380.69
353.674	368.69
353.901	376.69
354.128	341.69
354.355	354.69
354.583	353.69
354.81	376.69
355.037	344.69
355.264	342.69
355.491	358.69
355.718	345.69
355.945	352.69
356.172	330.69
356.399	340.69
356.626	356.69
356.853	354.69
357.08	336.69
357.307	355.69
357.534	331.69
357.761	346.69
357.988	340.69
358.215	348.69
358.441	363.69
358.668	359.69
358.895	354.69
359.122	369.69
359.349	377.69
359.576	372.69
359.802	398.69
360.029	424.69
360.256	441.69
360.483	429.69
360.709	386.69
360.936	369.69
361.163	372.69
361.39	371.69
361.616	361.69
361.843	365.69
362.07	350.69
362.296	376.69
362.523	380.69
362.749	383.69
362.976	373.69
363.203	367.69
363.429	362.69
363.656	365.69
363.882	363.69
364.109	369.69
364.335	373.69
364.562	363.69
364.788	343.69
365.015	388.69
365.241	350.69
365.468	362.69
365.694	366.69
365.92	377.69
366.147	362.69
366.373	350.69
366.599	340.69
366.826	343.69
367.052	357.69
367.278	353.69
367.505	346.69
367.731	359.69
367.957	342.69
368.184	365.69
368.41	376.69
368.636	372.69
368.862	361.69
369.089	348.69
369.315	344.69
369.541	363.69
369.767	349.69
369.993	352.69
370.219	365.69
370.445	365.69
370.672	331.69
370.898	334.69
371.124	342.69
371.35	347.69
371.576	362.69
371.802	364.69
372.028	355.69
372.254	348.69
372.48	362.69
372.706	346.69
372.932	355.69
373.158	346.69
373.384	360.69
373.61	348.69
373.835	356.69
374.061	370.69
374.287	364.69
374.513	349.69
374.739	366.69
374.965	347.69
375.191	335.69
375.416	365.69
375.642	381.69
375.868	360.69
376.094	357.69
376.319	354.69
376.545	333.69
376.771	349.69
376.997	345.69
377.222	357.69
377.448	325.69
377.674	365.69
377.899	330.69
378.125	342.69
378.35	349.69
378.576	348.69
378.802	346.69
379.027	343.69
379.253	375.69
379.478	372.69
379.704	358.69
379.929	350.69
380.155	340.69
380.38	345.69
380.606	374.69
380.831	351.69
381.057	361.69
381.282	359.69
381.507	358.69
381.733	342.69
381.958	345.69
382.184	345.69
382.409	375.69
382.634	346.69
382.86	355.69
383.085	364.69
383.31	362.69
383.535	345.69
383.761	359.69
383.986	363.69
384.211	366.69
384.436	373.69
384.662	370.69
384.887	364.69
385.112	370.69
385.337	370.69
385.562	364.69
385.787	374.69
386.013	385.69
386.238	390.69
386.463	398.69
386.688	374.69
386.913	358.69
387.138	359.69
387.363	357.69
387.588	379.69
387.813	376.69
388.038	393.69
388.263	380.69
388.488	376.69
388.713	384.69
388.938	390.69
389.163	366.69
389.387	380.69
389.612	375.69
389.837	369.69
390.062	386.69
390.287	362.69
390.512	376.69
390.736	353.69
390.961	378.69
391.186	376.69
391.411	381.69
391.636	383.69
391.86	380.69
392.085	379.69
392.31	385.69
392.534	388.69
392.759	379.69
392.984	376.69
393.208	378.69
393.433	379.69
393.658	377.69
393.882	395.69
394.107	389.69
394.331	369.69
394.556	349.69
394.78	358.69
395.005	386.69
395.229	380.69
395.454	378.69
395.678	378.69
395.903	400.69
396.127	400.69
396.352	407.69
396.576	390.69
396.801	392.69
397.025	401.69
397.249	385.69
397.474	382.69
397.698	393.69
397.922	398.69
398.147	442.69
398.371	394.69
398.595	428.69
398.82	424.69
399.044	433.69
399.268	429.69
399.492	454.69
399.717	472.69
399.941	471.69
400.165	502.69
400.389	503.69
400.613	468.69
400.837	441.69
401.062	440.69
401.286	431.69
401.51	430.69
401.734	442.69
401.958	428.69
402.182	414.69
402.406	437.69
402.63	432.69
402.854	443.69
403.078	432.69
403.302	428.69
403.526	443.69
403.75	426.69
403.974	448.69
404.198	425.69
404.422	455.69
404.645	434.69
404.869	457.69
405.093	459.69
405.317	491.69
405.541	486.69
405.765	455.69
405.988	459.69
406.212	458.69
406.436	477.69
406.66	510.69
406.883	495.69
407.107	500.69
407.331	521.69
407.555	576.69
407.778	570.69
408.002	538.69
408.226	481.69
408.449	479.69
408.673	464.69
408.896	473.69
409.12	526.69
409.344	510.69
409.567	462.69
409.791	465.69
410.014	443.69
410.238	452.69
410.461	453.69
410.685	437.69
410.908	450.69
411.132	447.69
411.355	502.69
411.578	481.69
411.802	436.69
412.025	421.69
412.249	436.69
412.472	436.69
412.695	478.69
412.919	467.69
413.142	429.69
413.365	422.69
413.589	429.69
413.812	429.69
414.035	418.69
414.258	411.69
414.482	413.69
414.705	433.69
414.928	431.69
415.151	400.69
415.374	415.69
415.597	378.69
415.821	399.69
416.044	413.69
416.267	415.69
416.49	414.69
416.713	406.69
416.936	412.69
417.159	422.69
417.382	424.69
417.605	413.69
417.828	428.69
418.051	452.69
418.274	441.69
418.497	408.69
418.72	420.69
418.943	405.69
419.166	422.69
419.389	447.69
419.611	424.69
419.834	440.69
420.057	437.69
420.28	439.69
420.503	428.69
420.726	462.69
420.948	462.69
421.171	476.69
421.394	504.69
421.617	471.69
421.839	436.69
422.062	413.69
422.285	433.69
422.507	508.69
422.73	560.69
422.953	549.69
423.175	468.69
423.398	456.69
423.621	449.69
423.843	454.69
424.066	479.69
424.288	460.69
424.511	472.69
424.733	508.69
424.956	567.69
425.178	552.69
425.401	573.69
425.623	574.69
425.846	511.69
426.068	467.69
426.291	469.69
426.513	442.69
426.735	469.69
426.958	510.69
427.18	572.69
427.402	649.69
427.625	718.69
427.847	639.69
428.069	555.69
428.292	508.69
428.514	464.69
428.736	441.69
428.958	445.69
429.181	421.69
429.403	443.69
429.625	453.69
429.847	449.69
430.069	533.69
430.292	514.69
430.514	452.69
430.736	460.69
430.958	426.69
431.18	441.69
431.402	414.69
431.624	413.69
431.846	422.69
432.068	395.69
432.29	393.69
432.512	412.69
432.734	408.69
432.956	404.69
433.178	407.69
433.4	426.69
433.622	427.69
433.844	431.69
434.066	421.69
434.287	420.69
434.509	404.69
434.731	445.69
434.953	432.69
435.175	451.69
435.397	442.69
435.618	475.69
435.84	495.69
436.062	557.69
436.284	617.69
436.505	498.69
436.727	476.69
436.949	458.69
437.17	433.69
437.392	436.69
437.614	446.69
437.835	465.69
438.057	557.69
438.278	637.69
438.5	632.69
438.721	677.69
438.943	645.69
439.165	541.69
439.386	494.69
439.608	464.69
439.829	480.69
440.05	498.69
440.272	515.69
440.493	486.69
440.715	454.69
440.936	440.69
441.158	446.69
441.379	449.69
441.6	454.69
441.822	468.69
442.043	500.69
442.264	566.69
442.486	601.69
442.707	512.69
442.928	456.69
443.149	495.69
443.371	497.69
443.592	535.69
443.813	610.69
444.034	637.69
444.255	548.69
444.476	501.69
444.698	472.69
444.919	462.69
445.14	574.69
445.361	546.69
445.582	508.69
445.803	547.69
446.024	633.69
446.245	650.69
446.466	580.69
446.687	500.69
446.908	478.69
447.129	431.69
447.35	424.69
447.571	428.69
447.792	447.69
448.013	442.69
448.234	459.69
448.455	485.69
448.675	594.69
448.896	646.69
449.117	594.69
449.338	537.69
449.559	605.69
449.779	670.69
450	565.69
450.221	484.69
450.442	450.69
450.662	450.69
450.883	441.69
451.104	438.69
451.324	439.69
451.545	428.69
451.766	420.69
451.986	381.69
452.207	381.69
452.428	391.69
452.648	393.69
452.869	410.69
453.089	415.69
453.31	422.69
453.53	386.69
453.751	397.69
453.971	385.69
454.192	418.69
454.412	421.69
454.633	394.69
454.853	401.69
455.073	390.69
455.294	427.69
455.514	456.69
455.734	450.69
455.955	388.69
456.175	378.69
456.395	359.69
456.616	369.69
456.836	350.69
457.056	372.69
457.276	372.69
457.497	401.69
457.717	351.69
457.937	390.69
458.157	376.69
458.377	393.69
458.598	396.69
458.818	469.69
459.038	544.69
459.258	538.69
459.478	450.69
459.698	409.69
459.918	421.69
460.138	425.69
460.358	422.69
460.578	422.69
460.798	405.69
461.018	413.69
461.238	413.69
461.458	408.69
461.678	416.69
461.898	432.69
462.118	421.69
462.338	400.69
462.558	423.69
462.777	421.69
462.997	461.69
463.217	431.69
463.437	453.69
463.657	437.69
463.876	442.69
464.096	447.69
464.316	436.69
464.536	446.69
464.755	452.69
464.975	452.69
465.195	498.69
465.414	575.69
465.634	493.69
465.854	466.69
466.073	431.69
466.293	385.69
466.512	411.69
466.732	406.69
466.951	410.69
467.171	407.69
467.391	391.69
467.61	405.69
467.829	398.69
468.049	417.69
468.268	407.69
468.488	394.69
468.707	396.69
468.927	375.69
469.146	377.69
469.365	406.69
469.585	388.69
469.804	405.69
470.023	412.69
470.243	396.69
470.462	437.69
470.681	425.69
470.901	425.69
471.12	409.69
471.339	399.69
471.558	394.69
471.777	420.69
471.997	398.69
472.216	386.69
472.435	425.69
472.654	397.69
472.873	395.69
473.092	426.69
473.311	424.69
473.53	414.69
473.749	422.69
473.968	459.69
474.187	529.69
474.406	540.69
474.625	451.69
474.844	424.69
475.063	421.69
475.282	426.69
475.501	417.69
475.72	429.69
475.939	409.69
476.158	431.69
476.377	428.69
476.596	431.69
476.814	429.69
477.033	415.69
477.252	435.69
477.471	429.69
477.69	415.69
477.908	431.69
478.127	450.69
478.346	439.69
478.564	442.69
478.783	452.69
479.002	446.69
479.22	462.69
479.439	475.69
479.658	495.69
479.876	490.69
480.095	506.69
480.313	515.69
480.532	508.69
480.751	497.69
480.969	516.69
481.188	495.69
481.406	508.69
481.624	484.69
481.843	471.69
482.061	470.69
482.28	464.69
482.498	475.69
482.717	470.69
482.935	473.69
483.153	479.69
483.372	467.69
483.59	482.69
483.808	464.69
484.027	454.69
484.245	470.69
484.463	488.69
484.681	476.69
484.9	454.69
485.118	490.69
485.336	468.69
485.554	465.69
485.772	467.69
485.99	482.69
486.209	471.69
486.427	486.69
486.645	498.69
486.863	532.69
487.081	502.69
487.299	495.69
487.517	510.69
487.735	504.69
487.953	516.69
488.171	509.69
488.389	528.69
488.607	499.69
488.825	498.69
489.043	509.69
489.261	512.69
489.479	521.69
489.696	500.69
489.914	508.69
490.132	545.69
490.35	524.69
490.568	489.69
490.786	524.69
491.003	553.69
491.221	548.69
491.439	548.69
491.657	560.69
491.874	567.69
492.092	557.69
492.31	586.69
492.527	556.69
492.745	587.69
492.963	590.69
493.18	594.69
493.398	601.69
493.615	615.69
493.833	602.69
494.05	609.69
494.268	580.69
494.485	576.69
494.703	591.69
494.92	604.69
495.138	600.69
495.355	615.69
495.573	601.69
495.79	582.69
496.008	602.69
496.225	590.69
496.442	580.69
496.66	599.69
496.877	606.69
497.094	608.69
497.312	602.69
497.529	619.69
497.746	623.69
497.963	619.69
498.181	652.69
498.398	640.69
498.615	650.69
498.832	648.69
499.049	672.69
499.267	674.69
499.484	709.69
499.701	724.69
499.918	711.69
500.135	739.69
500.352	791.69
500.569	791.69
500.786	812.69
501.003	773.69
501.22	777.69
501.437	729.69
501.654	715.69
501.871	753.69
502.088	693.69
502.305	677.69
502.522	673.69
502.739	645.69
502.956	636.69
503.172	629.69
503.389	617.69
503.606	632.69
503.823	640.69
504.04	622.69
504.256	617.69
504.473	620.69
504.69	590.69
504.907	614.69
505.123	581.69
505.34	590.69
505.557	599.69
505.773	600.69
505.99	569.69
506.207	572.69
506.423	562.69
506.64	598.69
506.856	559.69
507.073	536.69
507.289	552.69
507.506	546.69
507.722	574.69
507.939	593.69
508.155	576.69
508.372	575.69
508.588	557.69
508.805	545.69
509.021	559.69
509.238	562.69
509.454	569.69
509.67	554.69
509.887	541.69
510.103	532.69
510.319	575.69
510.536	640.69
510.752	1156.69
510.968	924.69
511.184	591.69
511.401	540.69
511.617	541.69
511.833	541.69
512.049	506.69
512.265	512.69
512.481	512.69
512.698	516.69
512.914	531.69
513.13	512.69
513.346	520.69
513.562	527.69
513.778	506.69
513.994	518.69
514.21	561.69
514.426	583.69
514.642	594.69
514.858	623.69
515.074	698.69
515.29	859.69
515.506	1336.69
515.721	1039.69
515.937	668.69
516.153	582.69
516.369	568.69
516.585	549.69
516.801	552.69
517.016	536.69
517.232	536.69
517.448	523.69
517.664	567.69
517.879	537.69
518.095	530.69
518.311	522.69
518.527	535.69
518.742	541.69
518.958	532.69
519.173	496.69
519.389	517.69
519.605	530.69
519.82	544.69
520.036	554.69
520.251	583.69
520.467	591.69
520.682	589.69
520.898	604.69
521.113	630.69
521.329	664.69
521.544	788.69
521.76	1004.69
521.975	1729.69
522.19	1698.69
522.406	873.69
522.621	640.69
522.836	556.69
523.052	533.69
523.267	518.69
523.482	505.69
523.698	478.69
523.913	502.69
524.128	471.69
524.343	464.69
524.559	459.69
524.774	433.69
524.989	465.69
525.204	465.69
525.419	479.69
525.634	462.69
525.849	450.69
526.064	452.69
526.28	446.69
526.495	433.69
526.71	426.69
526.925	423.69
527.14	429.69
527.355	438.69
527.57	424.69
527.785	410.69
527.999	412.69
528.214	414.69
528.429	414.69
528.644	429.69
528.859	420.69
529.074	446.69
529.289	458.69
529.503	540.69
529.718	520.69
529.933	428.69
530.148	444.69
530.363	420.69
530.577	416.69
530.792	404.69
531.007	411.69
531.221	407.69
531.436	409.69
531.651	403.69
531.865	401.69
532.08	390.69
532.295	376.69
532.509	407.69
532.724	394.69
532.938	423.69
533.153	409.69
533.367	412.69
533.582	415.69
533.796	389.69
534.011	417.69
534.225	399.69
534.44	385.69
534.654	405.69
534.868	379.69
535.083	409.69
535.297	402.69
535.511	402.69
535.726	424.69
535.94	436.69
536.154	407.69
536.369	378.69
536.583	399.69
536.797	383.69
537.011	382.69
537.225	375.69
537.44	406.69
537.654	397.69
537.868	377.69
538.082	393.69
538.296	367.69
538.51	392.69
538.724	404.69
538.938	379.69
539.153	390.69
539.367	393.69
539.581	406.69
539.795	388.69
540.009	385.69
540.222	370.69
540.436	376.69
540.65	405.69
540.864	390.69
541.078	386.69
541.292	388.69
541.506	390.69
541.72	378.69
541.934	407.69
542.147	386.69
542.361	398.69
542.575	401.69
542.789	360.69
543.002	375.69
543.216	392.69
543.43	390.69
543.644	370.69
543.857	371.69
544.071	388.69
544.285	378.69
544.498	377.69
544.712	382.69
544.925	365.69
545.139	388.69
545.352	369.69
545.566	382.69
545.779	377.69
545.993	383.69
546.206	380.69
546.42	378.69
546.633	384.69
546.847	364.69
547.06	359.69
547.274	350.69
547.487	364.69
547.7	377.69
547.914	378.69
548.127	362.69
548.34	348.69
548.554	364.69
548.767	372.69
548.98	388.69
549.193	366.69
549.407	357.69
549.62	365.69
549.833	362.69
550.046	364.69
550.259	365.69
550.473	370.69
550.686	378.69
550.899	359.69
551.112	351.69
551.325	336.69
551.538	338.69
551.751	353.69
551.964	363.69
552.177	366.69
552.39	357.69
552.603	366.69
552.816	356.69
553.029	354.69
553.242	370.69
553.455	384.69
553.667	369.69
553.88	365.69
554.093	375.69
554.306	372.69
554.519	373.69
554.732	367.69
554.944	376.69
555.157	347.69
555.37	347.69
555.583	350.69
555.795	335.69
556.008	345.69
556.221	330.69
556.433	341.69
556.646	348.69
556.859	330.69
557.071	330.69
557.284	320.69
557.496	336.69
557.709	324.69
557.921	334.69
558.134	329.69
558.346	329.69
558.559	328.69
558.771	338.69
558.984	321.69
559.196	337.69
559.409	331.69
559.621	346.69
559.833	304.69
560.046	327.69
560.258	333.69
560.47	314.69
560.683	317.69
560.895	320.69
561.107	325.69
561.32	328.69
561.532	324.69
561.744	319.69
561.956	321.69
562.168	312.69
562.381	315.69
562.593	328.69
562.805	332.69
563.017	342.69
563.229	348.69
563.441	334.69
563.653	311.69
563.865	323.69
564.077	318.69
564.289	335.69
564.501	341.69
564.713	346.69
564.925	341.69
565.137	358.69
565.349	353.69
565.561	319.69
565.773	341.69
565.985	344.69
566.197	334.69
566.408	347.69
566.62	365.69
566.832	374.69
567.044	395.69
567.255	377.69
567.467	369.69
567.679	388.69
567.891	374.69
568.102	400.69
568.314	393.69
568.526	383.69
568.737	372.69
568.949	357.69
569.161	332.69
569.372	312.69
569.584	326.69
569.795	315.69
570.007	325.69
570.218	383.69
570.43	361.69
570.641	306.69
570.853	305.69
571.064	320.69
571.276	315.69
571.487	308.69
571.698	304.69
571.91	301.69
572.121	274.69
572.333	308.69
572.544	304.69
572.755	285.69
572.966	266.69
573.178	280.69
573.389	254.69
573.6	274.69
573.811	273.69
574.023	276.69
574.234	270.69
574.445	294.69
574.656	276.69
574.867	269.69
575.078	286.69
575.289	272.69
575.501	273.69
575.712	274.69
575.923	273.69
576.134	256.69
576.345	288.69
576.556	273.69
576.767	265.69
576.978	256.69
577.188	282.69
577.399	284.69
577.61	271.69
577.821	250.69
578.032	266.69
578.243	303.69
578.454	548.69
578.665	370.69
578.875	271.69
579.086	264.69
579.297	269.69
579.508	269.69
579.718	276.69
579.929	270.69
580.14	256.69
580.35	268.69
580.561	261.69
580.772	252.69
580.982	240.69
581.193	251.69
581.403	273.69
581.614	264.69
581.825	244.69
582.035	248.69
582.246	258.69
582.456	236.69
582.667	238.69
582.877	262.69
583.087	250.69
583.298	244.69
583.508	250.69
583.719	256.69
583.929	263.69
584.139	252.69
584.35	237.69
584.56	246.69
584.77	243.69
584.981	245.69
585.191	258.69
585.401	229.69
585.611	233.69
585.821	248.69
586.032	236.69
586.242	252.69
586.452	238.69
586.662	244.69
586.872	245.69
587.082	244.69
587.292	244.69
587.502	244.69
587.713	253.69
587.923	256.69
588.133	244.69
588.343	229.69
588.553	231.69
588.762	255.69
588.972	245.69
589.182	229.69
589.392	240.69
589.602	256.69
589.812	234.69
590.022	234.69
590.232	232.69
590.441	238.69
590.651	245.69
590.861	239.69
591.071	260.69
591.281	239.69
591.49	246.69
591.7	260.69
591.91	230.69
592.119	233.69
592.329	261.69
592.539	247.69
592.748	249.69
592.958	257.69
593.167	261.69
593.377	261.69
593.587	259.69
593.796	249.69
594.006	254.69
594.215	258.69
594.424	244.69
594.634	245.69
594.843	260.69
595.053	234.69
595.262	222.69
595.472	250.69
595.681	252.69
595.89	233.69
596.1	248.69
596.309	227.69
596.518	248.69
596.727	216.69
596.937	224.69
597.146	235.69
597.355	237.69
597.564	224.69
597.774	225.69
597.983	199.69
598.192	229.69
598.401	216.69
598.61	210.69
598.819	224.69
599.028	216.69
599.237	216.69
599.446	244.69
599.655	224.69
599.864	207.69
600.073	215.69
600.282	209.69
600.491	207.69
600.7	217.69
600.909	220.69
601.118	206.69
601.327	213.69
601.536	219.69
601.745	226.69
601.953	218.69
602.162	211.69
602.371	224.69
602.58	209.69
602.789	210.69
602.997	212.69
603.206	217.69
603.415	207.69
603.623	214.69
603.832	201.69
604.041	202.69
604.249	210.69
604.458	201.69
604.666	203.69
604.875	201.69
605.084	206.69
605.292	205.69
605.501	204.69
605.709	208.69
605.918	200.69
606.126	206.69
606.334	202.69
606.543	204.69
606.751	201.69
606.96	198.69
607.168	199.69
607.376	209.69
607.585	200.69
607.793	194.69
608.001	202.69
608.21	205.69
608.418	205.69
608.626	212.69
608.834	209.69
609.043	221.69
609.251	188.69
609.459	193.69
609.667	200.69
609.875	194.69
610.083	202.69
610.291	210.69
610.499	194.69
610.707	220.69
610.916	203.69
611.124	209.69
611.332	216.69
611.54	214.69
611.748	209.69
611.955	198.69
612.163	196.69
612.371	206.69
612.579	203.69
612.787	200.69
612.995	198.69
613.203	193.69
613.411	197.69
613.618	199.69
613.826	202.69
614.034	191.69
614.242	194.69
614.449	199.69
614.657	198.69
614.865	199.69
615.072	193.69
615.28	193.69
615.488	198.69
615.695	198.69
615.903	206.69
616.111	213.69
616.318	209.69
616.526	206.69
616.733	204.69
616.941	202.69
617.148	194.69
617.356	196.69
617.563	205.69
617.771	195.69
617.978	183.69
618.185	197.69
618.393	201.69
618.6	177.69
618.807	188.69
619.015	190.69
619.222	187.69
619.429	187.69
619.637	198.69
619.844	199.69
620.051	186.69
620.258	191.69
620.466	204.69
620.673	197.69
620.88	186.69
621.087	186.69
621.294	186.69
621.501	190.69
621.708	203.69
621.915	200.69
622.122	185.69
622.329	198.69
622.536	191.69
622.743	188.69
622.95	186.69
623.157	196.69
623.364	184.69
623.571	194.69
623.778	177.69
623.985	209.69
624.192	180.69
624.399	199.69
624.606	180.69
624.812	189.69
625.019	183.69
625.226	192.69
625.433	197.69
625.639	190.69
625.846	182.69
626.053	173.69
626.259	166.69
626.466	184.69
626.673	191.69
626.879	175.69
627.086	193.69
627.293	186.69
627.499	166.69
627.706	180.69
627.912	187.69
628.119	174.69
628.325	167.69
628.532	169.69
628.738	176.69
628.945	183.69
629.151	189.69
629.357	177.69
629.564	168.69
629.77	174.69
629.976	190.69
630.183	167.69
630.389	168.69
630.595	178.69
630.802	162.69
631.008	177.69
631.214	169.69
631.42	171.69
631.627	171.69
631.833	172.69
632.039	183.69
632.245	154.69
632.451	161.69
632.657	154.69
632.863	155.69
633.069	186.69
633.275	159.69
633.481	167.69
633.688	153.69
633.893	178.69
634.099	173.69
634.305	160.69
634.511	177.69
634.717	158.69
634.923	160.69
635.129	173.69
635.335	161.69
635.541	157.69
635.747	153.69
635.952	172.69
636.158	168.69
636.364	152.69
636.57	147.69
636.775	154.69
636.981	162.69
637.187	149.69
637.392	160.69
637.598	153.69
637.804	156.69
638.009	156.69
638.215	160.69
638.421	143.69
638.626	153.69
638.832	158.69
639.037	154.69
639.243	153.69
639.448	152.69
639.654	154.69
639.859	146.69
640.065	156.69
640.27	144.69
640.475	167.69
640.681	154.69
640.886	134.69
641.091	144.69
641.297	150.69
641.502	139.69
641.707	164.69
641.913	161.69
642.118	150.69
642.323	160.69
642.528	146.69
642.733	151.69
642.939	156.69
643.144	147.69
643.349	155.69
643.554	156.69
643.759	158.69
643.964	153.69
644.169	168.69
644.374	153.69
644.579	146.69
644.784	168.69
644.989	140.69
645.194	148.69
645.399	153.69
645.604	147.69
645.809	141.69
646.014	160.69
646.219	153.69
646.423	143.69
646.628	150.69
646.833	155.69
647.038	143.69
647.243	153.69
647.447	143.69
647.652	150.69
647.857	162.69
648.062	157.69
648.266	135.69
648.471	140.69
648.676	156.69
648.88	160.69
649.085	156.69
649.289	153.69
649.494	155.69
649.698	156.69
649.903	166.69
650.107	142.69
650.312	160.69
650.516	134.69
650.721	143.69
650.925	141.69
651.13	146.69
651.334	146.69
651.539	135.69
651.743	150.69
651.947	141.69
652.152	140.69
652.356	145.69
652.56	139.69
652.764	133.69
652.969	132.69
653.173	145.69
653.377	126.69
653.581	122.69
653.785	124.69
653.99	127.69
654.194	136.69
654.398	131.69
654.602	127.69
654.806	120.69
655.01	145.69
655.214	129.69
655.418	135.69
655.622	138.69
655.826	147.69
656.03	134.69
656.234	128.69
656.438	132.69
656.642	128.69
656.846	128.69
657.049	129.69
657.253	106.69
657.457	127.69
657.661	113.69
657.865	125.69
658.068	123.69
658.272	104.69
658.476	108.69
658.68	121.69
658.883	100.69
659.087	94.69
659.291	104.69
659.494	105.69
659.698	87.69
659.901	107.69
660.105	97.69
660.309	105.69
660.512	92.69
660.716	93.69
660.919	90.69
661.123	88.69
661.326	83.69
661.53	100.69
661.733	101.69
661.936	91.69
662.14	85.69
662.343	102.69
662.546	85.69
662.75	73.69
662.953	82.69
663.156	97.69
663.36	82.69
663.563	95.69
663.766	94.69
663.969	93.69
664.173	100.69
664.376	96.69
664.579	95.69
664.782	85.69
664.985	77.69
665.188	81.69
665.391	80.69
665.594	81.69
665.797	96.69
666	102.69
666.203	87.69
666.406	88.69
666.609	81.69
666.812	87.69
667.015	75.69
667.218	79.69
667.421	82.69
667.624	77.69
667.827	93.69
668.03	93.69
668.232	82.69
668.435	89.69
668.638	92.69
668.841	81.69
669.043	83.69
669.246	90.69
669.449	81.69
669.651	83.69
669.854	92.69
670.057	93.69
670.259	100.69
670.462	80.69
670.665	93.69
670.867	86.69
671.07	93.69
671.272	99.69
671.475	90.69
671.677	88.69
671.88	86.69
672.082	92.69
672.284	77.69
672.487	79.69
672.689	92.69
672.892	86.69
