Data from 1983.PennyLincolnUp.Lamp.En5.5.200Scan.071819.P1_HRD10591_16-54-55-966.txt Node
Date: Thu Jul 18 16:54:55 EDT 2019
User: cochatt
Spectrometer: HR+D1059
Trigger mode: 1
Integration Time (sec): 1.000000E-1
Scans to average: 1
Electric dark correction enabled: true
Nonlinearity correction enabled: false
Boxcar width: 0
XAxis mode: Wavelengths
Number of Pixels in Spectrum: 2048
>>>>>Begin Spectral Data<<<<<
223.165	-29.62
223.4	-29.62
223.635	-29.62
223.869	-6.62
224.104	-7.62
224.338	-21.62
224.573	-14.62
224.808	-22.62
225.042	-2.62
225.277	1.38
225.511	-11.62
225.746	3.38
225.98	13.38
226.215	-2.62
226.449	25.38
226.683	13.38
226.918	22.38
227.152	40.38
227.387	38.38
227.621	37.38
227.856	44.38
228.09	49.38
228.324	52.38
228.559	51.38
228.793	65.38
229.027	88.38
229.262	99.38
229.496	116.38
229.73	119.38
229.964	141.38
230.199	122.38
230.433	114.38
230.667	113.38
230.901	107.38
231.136	108.38
231.37	99.38
231.604	106.38
231.838	111.38
232.072	97.38
232.306	116.38
232.541	113.38
232.775	88.38
233.009	105.38
233.243	113.38
233.477	106.38
233.711	106.38
233.945	96.38
234.179	110.38
234.413	124.38
234.647	107.38
234.881	117.38
235.115	117.38
235.349	114.38
235.583	122.38
235.817	107.38
236.051	128.38
236.285	124.38
236.519	126.38
236.753	132.38
236.987	146.38
237.221	178.38
237.455	215.38
237.689	179.38
237.922	162.38
238.156	141.38
238.39	130.38
238.624	134.38
238.858	115.38
239.091	123.38
239.325	118.38
239.559	116.38
239.793	112.38
240.027	124.38
240.26	135.38
240.494	147.38
240.728	132.38
240.961	136.38
241.195	124.38
241.429	138.38
241.662	137.38
241.896	133.38
242.13	117.38
242.363	122.38
242.597	123.38
242.83	132.38
243.064	144.38
243.298	128.38
243.531	116.38
243.765	129.38
243.998	131.38
244.232	130.38
244.465	152.38
244.699	146.38
244.932	140.38
245.166	120.38
245.399	140.38
245.633	136.38
245.866	135.38
246.099	135.38
246.333	124.38
246.566	123.38
246.8	134.38
247.033	151.38
247.266	142.38
247.5	148.38
247.733	157.38
247.966	161.38
248.2	151.38
248.433	152.38
248.666	152.38
248.899	170.38
249.133	177.38
249.366	199.38
249.599	191.38
249.832	187.38
250.066	174.38
250.299	174.38
250.532	197.38
250.765	200.38
250.998	205.38
251.231	220.38
251.465	206.38
251.698	192.38
251.931	181.38
252.164	168.38
252.397	187.38
252.63	193.38
252.863	199.38
253.096	216.38
253.329	213.38
253.562	210.38
253.795	201.38
254.028	195.38
254.261	204.38
254.494	220.38
254.727	254.38
254.96	262.38
255.193	256.38
255.426	249.38
255.659	224.38
255.892	232.38
256.124	214.38
256.357	233.38
256.59	216.38
256.823	199.38
257.056	211.38
257.289	205.38
257.521	194.38
257.754	189.38
257.987	191.38
258.22	196.38
258.452	205.38
258.685	185.38
258.918	184.38
259.151	191.38
259.383	206.38
259.616	211.38
259.849	219.38
260.081	214.38
260.314	225.38
260.547	252.38
260.779	233.38
261.012	205.38
261.244	215.38
261.477	214.38
261.71	214.38
261.942	234.38
262.175	240.38
262.407	214.38
262.64	203.38
262.872	193.38
263.105	207.38
263.337	205.38
263.57	201.38
263.802	190.38
264.035	204.38
264.267	196.38
264.499	185.38
264.732	196.38
264.964	212.38
265.197	189.38
265.429	202.38
265.661	206.38
265.894	198.38
266.126	195.38
266.358	206.38
266.591	195.38
266.823	204.38
267.055	212.38
267.287	207.38
267.52	203.38
267.752	205.38
267.984	209.38
268.216	212.38
268.448	214.38
268.681	221.38
268.913	228.38
269.145	229.38
269.377	241.38
269.609	252.38
269.841	254.38
270.073	242.38
270.306	263.38
270.538	315.38
270.77	298.38
271.002	297.38
271.234	280.38
271.466	298.38
271.698	306.38
271.93	290.38
272.162	289.38
272.394	280.38
272.626	262.38
272.858	266.38
273.09	264.38
273.322	249.38
273.553	252.38
273.785	254.38
274.017	232.38
274.249	250.38
274.481	243.38
274.713	252.38
274.945	266.38
275.176	244.38
275.408	242.38
275.64	237.38
275.872	254.38
276.104	246.38
276.335	265.38
276.567	245.38
276.799	256.38
277.031	279.38
277.262	288.38
277.494	295.38
277.726	269.38
277.957	264.38
278.189	273.38
278.421	271.38
278.652	258.38
278.884	247.38
279.115	231.38
279.347	242.38
279.579	239.38
279.81	258.38
280.042	249.38
280.273	254.38
280.505	260.38
280.736	254.38
280.968	250.38
281.199	248.38
281.431	269.38
281.662	256.38
281.894	231.38
282.125	261.38
282.356	258.38
282.588	289.38
282.819	278.38
283.051	269.38
283.282	250.38
283.513	244.38
283.745	265.38
283.976	255.38
284.207	272.38
284.439	253.38
284.67	254.38
284.901	250.38
285.132	273.38
285.364	269.38
285.595	250.38
285.826	274.38
286.057	256.38
286.288	247.38
286.52	251.38
286.751	262.38
286.982	269.38
287.213	265.38
287.444	271.38
287.675	262.38
287.906	286.38
288.138	288.38
288.369	287.38
288.6	297.38
288.831	293.38
289.062	278.38
289.293	267.38
289.524	248.38
289.755	271.38
289.986	277.38
290.217	261.38
290.448	261.38
290.679	275.38
290.91	244.38
291.141	262.38
291.371	271.38
291.602	270.38
291.833	259.38
292.064	286.38
292.295	258.38
292.526	268.38
292.757	278.38
292.987	300.38
293.218	258.38
293.449	268.38
293.68	272.38
293.91	256.38
294.141	267.38
294.372	268.38
294.603	266.38
294.833	293.38
295.064	271.38
295.295	280.38
295.525	296.38
295.756	286.38
295.987	289.38
296.217	275.38
296.448	316.38
296.679	277.38
296.909	291.38
297.14	263.38
297.37	257.38
297.601	282.38
297.831	280.38
298.062	268.38
298.292	273.38
298.523	273.38
298.753	285.38
298.984	282.38
299.214	273.38
299.445	286.38
299.675	292.38
299.905	287.38
300.136	314.38
300.366	290.38
300.597	285.38
300.827	283.38
301.057	289.38
301.288	288.38
301.518	309.38
301.748	296.38
301.979	274.38
302.209	307.38
302.439	300.38
302.669	285.38
302.9	293.38
303.13	267.38
303.36	289.38
303.59	301.38
303.82	323.38
304.051	334.38
304.281	272.38
304.511	292.38
304.741	300.38
304.971	317.38
305.201	294.38
305.431	302.38
305.661	297.38
305.891	321.38
306.121	296.38
306.352	304.38
306.582	308.38
306.812	309.38
307.042	317.38
307.272	306.38
307.502	306.38
307.731	309.38
307.961	315.38
308.191	306.38
308.421	318.38
308.651	299.38
308.881	312.38
309.111	314.38
309.341	315.38
309.571	324.38
309.8	329.38
310.03	332.38
310.26	352.38
310.49	336.38
310.72	374.38
310.949	390.38
311.179	385.38
311.409	360.38
311.639	353.38
311.868	362.38
312.098	372.38
312.328	392.38
312.557	379.38
312.787	379.38
313.017	361.38
313.246	378.38
313.476	344.38
313.706	337.38
313.935	361.38
314.165	358.38
314.394	365.38
314.624	368.38
314.853	361.38
315.083	364.38
315.312	360.38
315.542	341.38
315.771	331.38
316.001	338.38
316.23	358.38
316.46	343.38
316.689	349.38
316.919	355.38
317.148	373.38
317.377	368.38
317.607	355.38
317.836	356.38
318.065	339.38
318.295	342.38
318.524	345.38
318.753	338.38
318.983	372.38
319.212	352.38
319.441	366.38
319.67	377.38
319.9	363.38
320.129	362.38
320.358	350.38
320.587	340.38
320.816	369.38
321.046	376.38
321.275	376.38
321.504	372.38
321.733	381.38
321.962	401.38
322.191	420.38
322.42	414.38
322.649	451.38
322.878	444.38
323.108	452.38
323.337	465.38
323.566	469.38
323.795	520.38
324.024	544.38
324.253	708.38
324.482	1020.38
324.71	1554.38
324.939	2081.38
325.168	1727.38
325.397	946.38
325.626	629.38
325.855	541.38
326.084	503.38
326.313	500.38
326.542	504.38
326.77	561.38
326.999	661.38
327.228	899.38
327.457	1353.38
327.686	1530.38
327.914	1054.38
328.143	728.38
328.372	651.38
328.6	592.38
328.829	552.38
329.058	576.38
329.287	573.38
329.515	542.38
329.744	510.38
329.972	517.38
330.201	520.38
330.43	566.38
330.658	596.38
330.887	620.38
331.115	597.38
331.344	511.38
331.572	483.38
331.801	473.38
332.03	492.38
332.258	449.38
332.486	423.38
332.715	418.38
332.943	440.38
333.172	423.38
333.4	418.38
333.629	435.38
333.857	472.38
334.085	455.38
334.314	498.38
334.542	518.38
334.771	543.38
334.999	518.38
335.227	471.38
335.455	426.38
335.684	412.38
335.912	413.38
336.14	414.38
336.369	417.38
336.597	424.38
336.825	426.38
337.053	412.38
337.281	390.38
337.51	411.38
337.738	409.38
337.966	425.38
338.194	418.38
338.422	410.38
338.65	406.38
338.878	414.38
339.106	398.38
339.334	403.38
339.562	410.38
339.79	372.38
340.018	392.38
340.246	396.38
340.474	405.38
340.702	406.38
340.93	397.38
341.158	404.38
341.386	391.38
341.614	410.38
341.842	386.38
342.07	393.38
342.298	362.38
342.526	380.38
342.754	368.38
342.981	376.38
343.209	381.38
343.437	382.38
343.665	381.38
343.893	395.38
344.12	397.38
344.348	392.38
344.576	394.38
344.804	416.38
345.031	422.38
345.259	408.38
345.487	404.38
345.714	400.38
345.942	397.38
346.17	376.38
346.397	388.38
346.625	371.38
346.853	369.38
347.08	372.38
347.308	386.38
347.535	371.38
347.763	410.38
347.99	386.38
348.218	388.38
348.445	388.38
348.673	379.38
348.9	374.38
349.128	372.38
349.355	361.38
349.583	352.38
349.81	363.38
350.037	365.38
350.265	382.38
350.492	372.38
350.72	377.38
350.947	398.38
351.174	374.38
351.402	413.38
351.629	396.38
351.856	394.38
352.083	406.38
352.311	410.38
352.538	401.38
352.765	392.38
352.992	395.38
353.22	386.38
353.447	369.38
353.674	381.38
353.901	365.38
354.128	353.38
354.355	356.38
354.583	356.38
354.81	349.38
355.037	352.38
355.264	346.38
355.491	375.38
355.718	352.38
355.945	346.38
356.172	335.38
356.399	342.38
356.626	347.38
356.853	326.38
357.08	343.38
357.307	344.38
357.534	357.38
357.761	352.38
357.988	365.38
358.215	369.38
358.441	348.38
358.668	345.38
358.895	370.38
359.122	364.38
359.349	365.38
359.576	395.38
359.802	414.38
360.029	436.38
360.256	452.38
360.483	426.38
360.709	392.38
360.936	384.38
361.163	402.38
361.39	388.38
361.616	378.38
361.843	364.38
362.07	384.38
362.296	379.38
362.523	370.38
362.749	384.38
362.976	376.38
363.203	383.38
363.429	369.38
363.656	362.38
363.882	382.38
364.109	363.38
364.335	358.38
364.562	351.38
364.788	353.38
365.015	347.38
365.241	361.38
365.468	392.38
365.694	362.38
365.92	364.38
366.147	362.38
366.373	345.38
366.599	357.38
366.826	336.38
367.052	344.38
367.278	346.38
367.505	365.38
367.731	358.38
367.957	373.38
368.184	364.38
368.41	380.38
368.636	388.38
368.862	387.38
369.089	375.38
369.315	384.38
369.541	353.38
369.767	349.38
369.993	355.38
370.219	371.38
370.445	349.38
370.672	354.38
370.898	349.38
371.124	341.38
371.35	341.38
371.576	354.38
371.802	362.38
372.028	371.38
372.254	360.38
372.48	340.38
372.706	349.38
372.932	355.38
373.158	367.38
373.384	369.38
373.61	356.38
373.835	356.38
374.061	356.38
374.287	361.38
374.513	380.38
374.739	342.38
374.965	358.38
375.191	375.38
375.416	352.38
375.642	360.38
375.868	362.38
376.094	358.38
376.319	344.38
376.545	347.38
376.771	347.38
376.997	349.38
377.222	342.38
377.448	343.38
377.674	332.38
377.899	340.38
378.125	355.38
378.35	348.38
378.576	341.38
378.802	340.38
379.027	352.38
379.253	341.38
379.478	350.38
379.704	344.38
379.929	356.38
380.155	353.38
380.38	336.38
380.606	354.38
380.831	352.38
381.057	349.38
381.282	325.38
381.507	346.38
381.733	350.38
381.958	348.38
382.184	349.38
382.409	379.38
382.634	356.38
382.86	356.38
383.085	354.38
383.31	363.38
383.535	343.38
383.761	348.38
383.986	344.38
384.211	372.38
384.436	368.38
384.662	374.38
384.887	368.38
385.112	360.38
385.337	370.38
385.562	365.38
385.787	380.38
386.013	392.38
386.238	380.38
386.463	384.38
386.688	376.38
386.913	366.38
387.138	370.38
387.363	388.38
387.588	378.38
387.813	371.38
388.038	375.38
388.263	374.38
388.488	381.38
388.713	375.38
388.938	375.38
389.163	379.38
389.387	374.38
389.612	354.38
389.837	380.38
390.062	382.38
390.287	377.38
390.512	381.38
390.736	358.38
390.961	359.38
391.186	392.38
391.411	363.38
391.636	356.38
391.86	382.38
392.085	380.38
392.31	390.38
392.534	373.38
392.759	378.38
392.984	379.38
393.208	384.38
393.433	403.38
393.658	381.38
393.882	368.38
394.107	393.38
394.331	372.38
394.556	372.38
394.78	349.38
395.005	372.38
395.229	374.38
395.454	385.38
395.678	400.38
395.903	417.38
396.127	418.38
396.352	418.38
396.576	399.38
396.801	397.38
397.025	384.38
397.249	388.38
397.474	381.38
397.698	389.38
397.922	402.38
398.147	419.38
398.371	423.38
398.595	421.38
398.82	410.38
399.044	421.38
399.268	404.38
399.492	471.38
399.717	476.38
399.941	503.38
400.165	500.38
400.389	521.38
400.613	490.38
400.837	456.38
401.062	440.38
401.286	423.38
401.51	436.38
401.734	435.38
401.958	409.38
402.182	434.38
402.406	440.38
402.63	440.38
402.854	433.38
403.078	430.38
403.302	438.38
403.526	451.38
403.75	429.38
403.974	435.38
404.198	432.38
404.422	448.38
404.645	445.38
404.869	442.38
405.093	475.38
405.317	514.38
405.541	536.38
405.765	490.38
405.988	472.38
406.212	476.38
406.436	508.38
406.66	520.38
406.883	508.38
407.107	502.38
407.331	551.38
407.555	560.38
407.778	556.38
408.002	516.38
408.226	486.38
408.449	470.38
408.673	492.38
408.896	479.38
409.12	510.38
409.344	504.38
409.567	456.38
409.791	448.38
410.014	452.38
410.238	442.38
410.461	429.38
410.685	450.38
410.908	448.38
411.132	497.38
411.355	522.38
411.578	481.38
411.802	479.38
412.025	455.38
412.249	420.38
412.472	486.38
412.695	496.38
412.919	497.38
413.142	449.38
413.365	451.38
413.589	426.38
413.812	436.38
414.035	413.38
414.258	425.38
414.482	412.38
414.705	402.38
414.928	417.38
415.151	420.38
415.374	401.38
415.597	392.38
415.821	413.38
416.044	408.38
416.267	434.38
416.49	416.38
416.713	429.38
416.936	422.38
417.159	418.38
417.382	432.38
417.605	434.38
417.828	418.38
418.051	430.38
418.274	428.38
418.497	413.38
418.72	406.38
418.943	403.38
419.166	426.38
419.389	456.38
419.611	453.38
419.834	437.38
420.057	463.38
420.28	457.38
420.503	440.38
420.726	437.38
420.948	453.38
421.171	491.38
421.394	505.38
421.617	479.38
421.839	448.38
422.062	439.38
422.285	451.38
422.507	501.38
422.73	557.38
422.953	512.38
423.175	473.38
423.398	450.38
423.621	443.38
423.843	467.38
424.066	459.38
424.288	484.38
424.511	458.38
424.733	525.38
424.956	599.38
425.178	584.38
425.401	582.38
425.623	564.38
425.846	526.38
426.068	492.38
426.291	468.38
426.513	468.38
426.735	459.38
426.958	508.38
427.18	586.38
427.402	641.38
427.625	739.38
427.847	676.38
428.069	583.38
428.292	520.38
428.514	499.38
428.736	467.38
428.958	455.38
429.181	442.38
429.403	446.38
429.625	435.38
429.847	464.38
430.069	541.38
430.292	514.38
430.514	445.38
430.736	418.38
430.958	439.38
431.18	416.38
431.402	420.38
431.624	392.38
431.846	423.38
432.068	410.38
432.29	419.38
432.512	406.38
432.734	429.38
432.956	421.38
433.178	422.38
433.4	437.38
433.622	412.38
433.844	397.38
434.066	404.38
434.287	413.38
434.509	412.38
434.731	427.38
434.953	435.38
435.175	425.38
435.397	481.38
435.618	466.38
435.84	487.38
436.062	583.38
436.284	634.38
436.505	552.38
436.727	517.38
436.949	457.38
437.17	433.38
437.392	454.38
437.614	449.38
437.835	513.38
438.057	562.38
438.278	627.38
438.5	626.38
438.721	677.38
438.943	630.38
439.165	548.38
439.386	483.38
439.608	460.38
439.829	489.38
440.05	512.38
440.272	537.38
440.493	511.38
440.715	452.38
440.936	463.38
441.158	457.38
441.379	454.38
441.6	453.38
441.822	487.38
442.043	521.38
442.264	594.38
442.486	616.38
442.707	500.38
442.928	476.38
443.149	498.38
443.371	517.38
443.592	576.38
443.813	617.38
444.034	650.38
444.255	552.38
444.476	504.38
444.698	471.38
444.919	481.38
445.14	587.38
445.361	549.38
445.582	513.38
445.803	569.38
446.024	636.38
446.245	625.38
446.466	594.38
446.687	536.38
446.908	499.38
447.129	448.38
447.35	436.38
447.571	444.38
447.792	435.38
448.013	412.38
448.234	468.38
448.455	529.38
448.675	591.38
448.896	692.38
449.117	617.38
449.338	533.38
449.559	626.38
449.779	707.38
450	585.38
450.221	483.38
450.442	468.38
450.662	435.38
450.883	445.38
451.104	453.38
451.324	460.38
451.545	434.38
451.766	422.38
451.986	408.38
452.207	374.38
452.428	384.38
452.648	395.38
452.869	411.38
453.089	426.38
453.31	404.38
453.53	418.38
453.751	393.38
453.971	412.38
454.192	411.38
454.412	419.38
454.633	394.38
454.853	406.38
455.073	389.38
455.294	425.38
455.514	492.38
455.734	461.38
455.955	405.38
456.175	348.38
456.395	373.38
456.616	365.38
456.836	377.38
457.056	372.38
457.276	360.38
457.497	372.38
457.717	363.38
457.937	386.38
458.157	375.38
458.377	401.38
458.598	406.38
458.818	470.38
459.038	538.38
459.258	546.38
459.478	443.38
459.698	425.38
459.918	396.38
460.138	398.38
460.358	415.38
460.578	406.38
460.798	441.38
461.018	424.38
461.238	403.38
461.458	402.38
461.678	402.38
461.898	409.38
462.118	420.38
462.338	418.38
462.558	412.38
462.777	409.38
462.997	425.38
463.217	439.38
463.437	461.38
463.657	438.38
463.876	444.38
464.096	436.38
464.316	438.38
464.536	428.38
464.755	452.38
464.975	446.38
465.195	495.38
465.414	560.38
465.634	482.38
465.854	442.38
466.073	426.38
466.293	430.38
466.512	406.38
466.732	377.38
466.951	408.38
467.171	392.38
467.391	411.38
467.61	427.38
467.829	450.38
468.049	432.38
468.268	438.38
468.488	416.38
468.707	404.38
468.927	387.38
469.146	410.38
469.365	420.38
469.585	396.38
469.804	413.38
470.023	437.38
470.243	402.38
470.462	413.38
470.681	430.38
470.901	425.38
471.12	412.38
471.339	408.38
471.558	425.38
471.777	436.38
471.997	411.38
472.216	395.38
472.435	479.38
472.654	441.38
472.873	426.38
473.092	403.38
473.311	406.38
473.53	428.38
473.749	412.38
473.968	452.38
474.187	552.38
474.406	548.38
474.625	467.38
474.844	434.38
475.063	415.38
475.282	419.38
475.501	413.38
475.72	436.38
475.939	437.38
476.158	429.38
476.377	446.38
476.596	418.38
476.814	408.38
477.033	428.38
477.252	442.38
477.471	437.38
477.69	433.38
477.908	454.38
478.127	438.38
478.346	427.38
478.564	443.38
478.783	443.38
479.002	481.38
479.22	460.38
479.439	500.38
479.658	491.38
479.876	494.38
480.095	484.38
480.313	526.38
480.532	504.38
480.751	493.38
480.969	525.38
481.188	614.38
481.406	662.38
481.624	598.38
481.843	512.38
482.061	516.38
482.28	495.38
482.498	475.38
482.717	475.38
482.935	455.38
483.153	490.38
483.372	470.38
483.59	485.38
483.808	487.38
484.027	477.38
484.245	447.38
484.463	495.38
484.681	504.38
484.9	497.38
485.118	519.38
485.336	485.38
485.554	492.38
485.772	490.38
485.99	491.38
486.209	507.38
486.427	513.38
486.645	508.38
486.863	540.38
487.081	539.38
487.299	505.38
487.517	518.38
487.735	510.38
487.953	525.38
488.171	537.38
488.389	505.38
488.607	524.38
488.825	520.38
489.043	526.38
489.261	524.38
489.479	524.38
489.696	521.38
489.914	542.38
490.132	514.38
490.35	559.38
490.568	556.38
490.786	564.38
491.003	572.38
491.221	577.38
491.439	590.38
491.657	612.38
491.874	600.38
492.092	590.38
492.31	602.38
492.527	597.38
492.745	621.38
492.963	600.38
493.18	607.38
493.398	625.38
493.615	637.38
493.833	630.38
494.05	613.38
494.268	606.38
494.485	618.38
494.703	630.38
494.92	617.38
495.138	606.38
495.355	626.38
495.573	604.38
495.79	632.38
496.008	619.38
496.225	615.38
496.442	624.38
496.66	610.38
496.877	620.38
497.094	633.38
497.312	616.38
497.529	630.38
497.746	644.38
497.963	620.38
498.181	653.38
498.398	642.38
498.615	681.38
498.832	661.38
499.049	692.38
499.267	694.38
499.484	672.38
499.701	722.38
499.918	752.38
500.135	795.38
500.352	769.38
500.569	806.38
500.786	810.38
501.003	774.38
501.22	791.38
501.437	774.38
501.654	755.38
501.871	746.38
502.088	741.38
502.305	695.38
502.522	670.38
502.739	652.38
502.956	636.38
503.172	614.38
503.389	616.38
503.606	630.38
503.823	619.38
504.04	615.38
504.256	618.38
504.473	620.38
504.69	584.38
504.907	590.38
505.123	611.38
505.34	589.38
505.557	589.38
505.773	598.38
505.99	605.38
506.207	598.38
506.423	573.38
506.64	602.38
506.856	586.38
507.073	571.38
507.289	562.38
507.506	581.38
507.722	598.38
507.939	597.38
508.155	564.38
508.372	570.38
508.588	569.38
508.805	541.38
509.021	547.38
509.238	577.38
509.454	564.38
509.67	579.38
509.887	576.38
510.103	556.38
510.319	585.38
510.536	682.38
510.752	1206.38
510.968	941.38
511.184	600.38
511.401	565.38
511.617	568.38
511.833	554.38
512.049	540.38
512.265	531.38
512.481	510.38
512.698	542.38
512.914	548.38
513.13	516.38
513.346	535.38
513.562	535.38
513.778	532.38
513.994	548.38
514.21	572.38
514.426	563.38
514.642	616.38
514.858	649.38
515.074	683.38
515.29	854.38
515.506	1306.38
515.721	1068.38
515.937	696.38
516.153	607.38
516.369	555.38
516.585	543.38
516.801	532.38
517.016	511.38
517.232	552.38
517.448	544.38
517.664	568.38
517.879	570.38
518.095	547.38
518.311	530.38
518.527	534.38
518.742	511.38
518.958	524.38
519.173	525.38
519.389	545.38
519.605	535.38
519.82	540.38
520.036	573.38
520.251	591.38
520.467	606.38
520.682	583.38
520.898	587.38
521.113	627.38
521.329	671.38
521.544	804.38
521.76	1042.38
521.975	1803.38
522.19	1715.38
522.406	884.38
522.621	629.38
522.836	559.38
523.052	556.38
523.267	527.38
523.482	500.38
523.698	499.38
523.913	491.38
524.128	484.38
524.343	491.38
524.559	483.38
524.774	465.38
524.989	443.38
525.204	462.38
525.419	454.38
525.634	472.38
525.849	454.38
526.064	440.38
526.28	440.38
526.495	452.38
526.71	436.38
526.925	415.38
527.14	421.38
527.355	420.38
527.57	432.38
527.785	441.38
527.999	434.38
528.214	429.38
528.429	439.38
528.644	436.38
528.859	396.38
529.074	430.38
529.289	475.38
529.503	552.38
529.718	513.38
529.933	470.38
530.148	430.38
530.363	447.38
530.577	444.38
530.792	421.38
531.007	416.38
531.221	419.38
531.436	424.38
531.651	422.38
531.865	422.38
532.08	412.38
532.295	422.38
532.509	401.38
532.724	412.38
532.938	408.38
533.153	434.38
533.367	403.38
533.582	376.38
533.796	392.38
534.011	409.38
534.225	407.38
534.44	404.38
534.654	407.38
534.868	408.38
535.083	406.38
535.297	414.38
535.511	411.38
535.726	411.38
535.94	410.38
536.154	398.38
536.369	391.38
536.583	406.38
536.797	393.38
537.011	376.38
537.225	383.38
537.44	377.38
537.654	390.38
537.868	377.38
538.082	371.38
538.296	404.38
538.51	402.38
538.724	401.38
538.938	399.38
539.153	385.38
539.367	416.38
539.581	415.38
539.795	391.38
540.009	385.38
540.222	398.38
540.436	377.38
540.65	394.38
540.864	422.38
541.078	396.38
541.292	413.38
541.506	394.38
541.72	384.38
541.934	387.38
542.147	365.38
542.361	395.38
542.575	400.38
542.789	382.38
543.002	381.38
543.216	399.38
543.43	392.38
543.644	395.38
543.857	384.38
544.071	392.38
544.285	381.38
544.498	386.38
544.712	372.38
544.925	376.38
545.139	389.38
545.352	362.38
545.566	390.38
545.779	352.38
545.993	377.38
546.206	370.38
546.42	384.38
546.633	372.38
546.847	373.38
547.06	369.38
547.274	346.38
547.487	368.38
547.7	370.38
547.914	366.38
548.127	378.38
548.34	372.38
548.554	374.38
548.767	380.38
548.98	377.38
549.193	353.38
549.407	370.38
549.62	364.38
549.833	372.38
550.046	369.38
550.259	352.38
550.473	357.38
550.686	356.38
550.899	353.38
551.112	362.38
551.325	359.38
551.538	357.38
551.751	374.38
551.964	339.38
552.177	348.38
552.39	350.38
552.603	353.38
552.816	359.38
553.029	357.38
553.242	360.38
553.455	378.38
553.667	376.38
553.88	398.38
554.093	382.38
554.306	366.38
554.519	355.38
554.732	360.38
554.944	348.38
555.157	358.38
555.37	348.38
555.583	352.38
555.795	353.38
556.008	354.38
556.221	332.38
556.433	335.38
556.646	332.38
556.859	330.38
557.071	325.38
557.284	334.38
557.496	334.38
557.709	338.38
557.921	332.38
558.134	344.38
558.346	300.38
558.559	329.38
558.771	324.38
558.984	334.38
559.196	320.38
559.409	301.38
559.621	325.38
559.833	342.38
560.046	312.38
560.258	333.38
560.47	315.38
560.683	317.38
560.895	316.38
561.107	322.38
561.32	331.38
561.532	324.38
561.744	321.38
561.956	324.38
562.168	324.38
562.381	319.38
562.593	315.38
562.805	302.38
563.017	336.38
563.229	324.38
563.441	335.38
563.653	319.38
563.865	327.38
564.077	314.38
564.289	320.38
564.501	312.38
564.713	318.38
564.925	331.38
565.137	352.38
565.349	347.38
565.561	346.38
565.773	355.38
565.985	339.38
566.197	338.38
566.408	343.38
566.62	349.38
566.832	370.38
567.044	390.38
567.255	380.38
567.467	380.38
567.679	393.38
567.891	389.38
568.102	411.38
568.314	363.38
568.526	380.38
568.737	361.38
568.949	347.38
569.161	326.38
569.372	324.38
569.584	320.38
569.795	325.38
570.007	317.38
570.218	382.38
570.43	357.38
570.641	314.38
570.853	318.38
571.064	310.38
571.276	294.38
571.487	294.38
571.698	317.38
571.91	299.38
572.121	304.38
572.333	287.38
572.544	295.38
572.755	292.38
572.966	294.38
573.178	281.38
573.389	280.38
573.6	282.38
573.811	270.38
574.023	282.38
574.234	260.38
574.445	269.38
574.656	269.38
574.867	282.38
575.078	285.38
575.289	267.38
575.501	264.38
575.712	271.38
575.923	264.38
576.134	286.38
576.345	266.38
576.556	274.38
576.767	265.38
576.978	247.38
577.188	274.38
577.399	279.38
577.61	275.38
577.821	268.38
578.032	260.38
578.243	309.38
578.454	584.38
578.665	383.38
578.875	284.38
579.086	280.38
579.297	260.38
579.508	262.38
579.718	279.38
579.929	262.38
580.14	266.38
580.35	260.38
580.561	263.38
580.772	267.38
580.982	237.38
581.193	243.38
581.403	265.38
581.614	253.38
581.825	246.38
582.035	256.38
582.246	249.38
582.456	249.38
582.667	250.38
582.877	251.38
583.087	240.38
583.298	247.38
583.508	228.38
583.719	233.38
583.929	254.38
584.139	265.38
584.35	242.38
584.56	256.38
584.77	244.38
584.981	243.38
585.191	244.38
585.401	256.38
585.611	252.38
585.821	261.38
586.032	228.38
586.242	236.38
586.452	239.38
586.662	255.38
586.872	241.38
587.082	242.38
587.292	246.38
587.502	242.38
587.713	236.38
587.923	226.38
588.133	228.38
588.343	238.38
588.553	232.38
588.762	233.38
588.972	250.38
589.182	245.38
589.392	248.38
589.602	240.38
589.812	248.38
590.022	237.38
590.232	224.38
590.441	217.38
590.651	242.38
590.861	249.38
591.071	240.38
591.281	235.38
591.49	236.38
591.7	242.38
591.91	242.38
592.119	240.38
592.329	229.38
592.539	247.38
592.748	228.38
592.958	258.38
593.167	241.38
593.377	255.38
593.587	235.38
593.796	257.38
594.006	240.38
594.215	236.38
594.424	229.38
594.634	249.38
594.843	254.38
595.053	266.38
595.262	262.38
595.472	246.38
595.681	239.38
595.89	237.38
596.1	254.38
596.309	237.38
596.518	247.38
596.727	224.38
596.937	204.38
597.146	236.38
597.355	236.38
597.564	237.38
597.774	234.38
597.983	215.38
598.192	210.38
598.401	208.38
598.61	211.38
598.819	194.38
599.028	225.38
599.237	248.38
599.446	228.38
599.655	238.38
599.864	222.38
600.073	224.38
600.282	206.38
600.491	205.38
600.7	205.38
600.909	217.38
601.118	208.38
601.327	199.38
601.536	214.38
601.745	206.38
601.953	212.38
602.162	200.38
602.371	203.38
602.58	205.38
602.789	210.38
602.997	212.38
603.206	209.38
603.415	204.38
603.623	219.38
603.832	206.38
604.041	210.38
604.249	195.38
604.458	208.38
604.666	204.38
604.875	201.38
605.084	200.38
605.292	198.38
605.501	210.38
605.709	206.38
605.918	203.38
606.126	207.38
606.334	199.38
606.543	190.38
606.751	198.38
606.96	203.38
607.168	197.38
607.376	204.38
607.585	214.38
607.793	196.38
608.001	203.38
608.21	200.38
608.418	209.38
608.626	214.38
608.834	193.38
609.043	188.38
609.251	192.38
609.459	199.38
609.667	198.38
609.875	182.38
610.083	194.38
610.291	208.38
610.499	215.38
610.707	188.38
610.916	202.38
611.124	216.38
611.332	189.38
611.54	200.38
611.748	205.38
611.955	204.38
612.163	207.38
612.371	192.38
612.579	195.38
612.787	208.38
612.995	198.38
613.203	217.38
613.411	200.38
613.618	196.38
613.826	188.38
614.034	205.38
614.242	214.38
614.449	198.38
614.657	166.38
614.865	173.38
615.072	196.38
615.28	197.38
615.488	200.38
615.695	193.38
615.903	199.38
616.111	192.38
616.318	193.38
616.526	204.38
616.733	184.38
616.941	185.38
617.148	198.38
617.356	192.38
617.563	192.38
617.771	199.38
617.978	200.38
618.185	198.38
618.393	171.38
618.6	203.38
618.807	182.38
619.015	193.38
619.222	201.38
619.429	190.38
619.637	201.38
619.844	187.38
620.051	192.38
620.258	195.38
620.466	183.38
620.673	170.38
620.88	184.38
621.087	188.38
621.294	178.38
621.501	184.38
621.708	192.38
621.915	184.38
622.122	185.38
622.329	176.38
622.536	185.38
622.743	204.38
622.95	206.38
623.157	183.38
623.364	180.38
623.571	179.38
623.778	181.38
623.985	190.38
624.192	190.38
624.399	186.38
624.606	189.38
624.812	184.38
625.019	179.38
625.226	180.38
625.433	195.38
625.639	170.38
625.846	183.38
626.053	172.38
626.259	182.38
626.466	164.38
626.673	187.38
626.879	172.38
627.086	174.38
627.293	184.38
627.499	176.38
627.706	181.38
627.912	168.38
628.119	176.38
628.325	179.38
628.532	168.38
628.738	176.38
628.945	193.38
629.151	172.38
629.357	165.38
629.564	160.38
629.77	161.38
629.976	165.38
630.183	167.38
630.389	157.38
630.595	166.38
630.802	168.38
631.008	156.38
631.214	166.38
631.42	172.38
631.627	168.38
631.833	171.38
632.039	157.38
632.245	167.38
632.451	157.38
632.657	168.38
632.863	178.38
633.069	150.38
633.275	161.38
633.481	162.38
633.688	170.38
633.893	153.38
634.099	159.38
634.305	158.38
634.511	144.38
634.717	171.38
634.923	166.38
635.129	160.38
635.335	154.38
635.541	171.38
635.747	148.38
635.952	170.38
636.158	164.38
636.364	165.38
636.57	158.38
636.775	167.38
636.981	164.38
637.187	154.38
637.392	146.38
637.598	156.38
637.804	148.38
638.009	159.38
638.215	162.38
638.421	152.38
638.626	150.38
638.832	155.38
639.037	144.38
639.243	151.38
639.448	153.38
639.654	171.38
639.859	157.38
640.065	163.38
640.27	141.38
640.475	143.38
640.681	149.38
640.886	151.38
641.091	134.38
641.297	157.38
641.502	152.38
641.707	149.38
641.913	153.38
642.118	146.38
642.323	133.38
642.528	146.38
642.733	154.38
642.939	139.38
643.144	131.38
643.349	137.38
643.554	149.38
643.759	156.38
643.964	150.38
644.169	142.38
644.374	155.38
644.579	136.38
644.784	144.38
644.989	139.38
645.194	162.38
645.399	139.38
645.604	145.38
645.809	142.38
646.014	134.38
646.219	136.38
646.423	153.38
646.628	139.38
646.833	147.38
647.038	142.38
647.243	148.38
647.447	130.38
647.652	155.38
647.857	148.38
648.062	128.38
648.266	140.38
648.471	159.38
648.676	159.38
648.88	134.38
649.085	144.38
649.289	139.38
649.494	136.38
649.698	168.38
649.903	152.38
650.107	142.38
650.312	157.38
650.516	151.38
650.721	151.38
650.925	131.38
651.13	140.38
651.334	129.38
651.539	128.38
651.743	112.38
651.947	125.38
652.152	136.38
652.356	132.38
652.56	132.38
652.764	128.38
652.969	130.38
653.173	129.38
653.377	124.38
653.581	128.38
653.785	121.38
653.99	132.38
654.194	141.38
654.398	120.38
654.602	130.38
654.806	117.38
655.01	131.38
655.214	130.38
655.418	106.38
655.622	121.38
655.826	127.38
656.03	128.38
656.234	129.38
656.438	123.38
656.642	124.38
656.846	132.38
657.049	125.38
657.253	117.38
657.457	102.38
657.661	127.38
657.865	113.38
658.068	122.38
658.272	110.38
658.476	111.38
658.68	102.38
658.883	100.38
659.087	89.38
659.291	103.38
659.494	84.38
659.698	87.38
659.901	111.38
660.105	89.38
660.309	85.38
660.512	103.38
660.716	90.38
660.919	83.38
661.123	90.38
661.326	80.38
661.53	84.38
661.733	84.38
661.936	84.38
662.14	84.38
662.343	84.38
662.546	91.38
662.75	78.38
662.953	98.38
663.156	86.38
663.36	94.38
663.563	68.38
663.766	78.38
663.969	70.38
664.173	77.38
664.376	75.38
664.579	86.38
664.782	91.38
664.985	92.38
665.188	102.38
665.391	73.38
665.594	80.38
665.797	68.38
666	81.38
666.203	85.38
666.406	81.38
666.609	74.38
666.812	72.38
667.015	73.38
667.218	64.38
667.421	84.38
667.624	77.38
667.827	93.38
668.03	87.38
668.232	83.38
668.435	78.38
668.638	79.38
668.841	76.38
669.043	72.38
669.246	75.38
669.449	83.38
669.651	72.38
669.854	79.38
670.057	85.38
670.259	89.38
670.462	83.38
670.665	72.38
670.867	88.38
671.07	93.38
671.272	96.38
671.475	74.38
671.677	77.38
671.88	73.38
672.082	74.38
672.284	96.38
672.487	77.38
672.689	84.38
672.892	79.38
