Data from 1983.PennyLincolnUp.Lamp.En5.5.200Scan.071819.P1_HRD10591_16-54-03-965.txt Node
Date: Thu Jul 18 16:54:03 EDT 2019
User: cochatt
Spectrometer: HR+D1059
Trigger mode: 1
Integration Time (sec): 1.000000E-1
Scans to average: 1
Electric dark correction enabled: true
Nonlinearity correction enabled: false
Boxcar width: 0
XAxis mode: Wavelengths
Number of Pixels in Spectrum: 2048
>>>>>Begin Spectral Data<<<<<
223.165	-0.12
223.4	-0.12
223.635	-0.12
223.869	-14.12
224.104	-23.12
224.338	-12.12
224.573	-20.12
224.808	-18.12
225.042	-12.12
225.277	7.88
225.511	-1.12
225.746	-1.12
225.98	0.88
226.215	8.88
226.449	24.88
226.683	16.88
226.918	17.88
227.152	24.88
227.387	41.88
227.621	41.88
227.856	46.88
228.09	49.88
228.324	49.88
228.559	60.88
228.793	62.88
229.027	90.88
229.262	87.88
229.496	103.88
229.73	134.88
229.964	141.88
230.199	114.88
230.433	115.88
230.667	108.88
230.901	115.88
231.136	106.88
231.37	100.88
231.604	107.88
231.838	109.88
232.072	123.88
232.306	104.88
232.541	113.88
232.775	104.88
233.009	109.88
233.243	116.88
233.477	115.88
233.711	111.88
233.945	129.88
234.179	114.88
234.413	109.88
234.647	112.88
234.881	115.88
235.115	108.88
235.349	102.88
235.583	108.88
235.817	106.88
236.051	124.88
236.285	124.88
236.519	128.88
236.753	130.88
236.987	141.88
237.221	178.88
237.455	213.88
237.689	171.88
237.922	135.88
238.156	128.88
238.39	113.88
238.624	117.88
238.858	123.88
239.091	116.88
239.325	122.88
239.559	122.88
239.793	115.88
240.027	124.88
240.26	135.88
240.494	160.88
240.728	129.88
240.961	139.88
241.195	134.88
241.429	137.88
241.662	137.88
241.896	129.88
242.13	140.88
242.363	129.88
242.597	140.88
242.83	127.88
243.064	133.88
243.298	130.88
243.531	132.88
243.765	122.88
243.998	144.88
244.232	123.88
244.465	145.88
244.699	138.88
244.932	133.88
245.166	109.88
245.399	138.88
245.633	143.88
245.866	133.88
246.099	132.88
246.333	139.88
246.566	135.88
246.8	131.88
247.033	138.88
247.266	141.88
247.5	154.88
247.733	153.88
247.966	168.88
248.2	156.88
248.433	183.88
248.666	153.88
248.899	165.88
249.133	190.88
249.366	197.88
249.599	181.88
249.832	157.88
250.066	170.88
250.299	156.88
250.532	182.88
250.765	197.88
250.998	190.88
251.231	199.88
251.465	204.88
251.698	180.88
251.931	196.88
252.164	178.88
252.397	171.88
252.63	189.88
252.863	189.88
253.096	205.88
253.329	225.88
253.562	203.88
253.795	198.88
254.028	203.88
254.261	202.88
254.494	213.88
254.727	236.88
254.96	242.88
255.193	253.88
255.426	218.88
255.659	215.88
255.892	217.88
256.124	211.88
256.357	210.88
256.59	218.88
256.823	182.88
257.056	193.88
257.289	201.88
257.521	203.88
257.754	191.88
257.987	173.88
258.22	185.88
258.452	202.88
258.685	210.88
258.918	187.88
259.151	196.88
259.383	195.88
259.616	195.88
259.849	205.88
260.081	230.88
260.314	213.88
260.547	238.88
260.779	223.88
261.012	217.88
261.244	191.88
261.477	213.88
261.71	221.88
261.942	213.88
262.175	218.88
262.407	232.88
262.64	203.88
262.872	193.88
263.105	210.88
263.337	206.88
263.57	186.88
263.802	183.88
264.035	195.88
264.267	185.88
264.499	198.88
264.732	185.88
264.964	198.88
265.197	181.88
265.429	195.88
265.661	202.88
265.894	205.88
266.126	199.88
266.358	226.88
266.591	207.88
266.823	200.88
267.055	215.88
267.287	200.88
267.52	201.88
267.752	199.88
267.984	209.88
268.216	199.88
268.448	220.88
268.681	214.88
268.913	218.88
269.145	230.88
269.377	245.88
269.609	261.88
269.841	250.88
270.073	243.88
270.306	268.88
270.538	287.88
270.77	278.88
271.002	281.88
271.234	260.88
271.466	281.88
271.698	281.88
271.93	292.88
272.162	292.88
272.394	285.88
272.626	280.88
272.858	241.88
273.09	245.88
273.322	248.88
273.553	225.88
273.785	237.88
274.017	238.88
274.249	251.88
274.481	239.88
274.713	227.88
274.945	261.88
275.176	236.88
275.408	244.88
275.64	245.88
275.872	242.88
276.104	246.88
276.335	261.88
276.567	260.88
276.799	274.88
277.031	283.88
277.262	308.88
277.494	289.88
277.726	268.88
277.957	261.88
278.189	255.88
278.421	249.88
278.652	238.88
278.884	245.88
279.115	255.88
279.347	239.88
279.579	238.88
279.81	246.88
280.042	245.88
280.273	243.88
280.505	235.88
280.736	236.88
280.968	244.88
281.199	252.88
281.431	248.88
281.662	246.88
281.894	254.88
282.125	255.88
282.356	263.88
282.588	295.88
282.819	279.88
283.051	266.88
283.282	267.88
283.513	247.88
283.745	238.88
283.976	267.88
284.207	268.88
284.439	262.88
284.67	241.88
284.901	264.88
285.132	253.88
285.364	226.88
285.595	253.88
285.826	233.88
286.057	247.88
286.288	233.88
286.52	254.88
286.751	252.88
286.982	259.88
287.213	249.88
287.444	253.88
287.675	249.88
287.906	276.88
288.138	283.88
288.369	275.88
288.6	279.88
288.831	261.88
289.062	260.88
289.293	266.88
289.524	261.88
289.755	253.88
289.986	284.88
290.217	262.88
290.448	259.88
290.679	279.88
290.91	270.88
291.141	263.88
291.371	258.88
291.602	266.88
291.833	251.88
292.064	244.88
292.295	259.88
292.526	271.88
292.757	256.88
292.987	258.88
293.218	251.88
293.449	262.88
293.68	253.88
293.91	268.88
294.141	247.88
294.372	275.88
294.603	274.88
294.833	259.88
295.064	272.88
295.295	265.88
295.525	273.88
295.756	280.88
295.987	287.88
296.217	311.88
296.448	311.88
296.679	284.88
296.909	276.88
297.14	269.88
297.37	280.88
297.601	278.88
297.831	264.88
298.062	281.88
298.292	277.88
298.523	277.88
298.753	302.88
298.984	279.88
299.214	281.88
299.445	281.88
299.675	286.88
299.905	283.88
300.136	268.88
300.366	288.88
300.597	291.88
300.827	296.88
301.057	293.88
301.288	311.88
301.518	304.88
301.748	302.88
301.979	285.88
302.209	284.88
302.439	298.88
302.669	321.88
302.9	293.88
303.13	291.88
303.36	301.88
303.59	301.88
303.82	315.88
304.051	314.88
304.281	300.88
304.511	288.88
304.741	290.88
304.971	294.88
305.201	301.88
305.431	296.88
305.661	298.88
305.891	286.88
306.121	293.88
306.352	315.88
306.582	317.88
306.812	314.88
307.042	293.88
307.272	307.88
307.502	294.88
307.731	323.88
307.961	315.88
308.191	294.88
308.421	295.88
308.651	298.88
308.881	317.88
309.111	324.88
309.341	326.88
309.571	326.88
309.8	342.88
310.03	341.88
310.26	335.88
310.49	342.88
310.72	341.88
310.949	391.88
311.179	369.88
311.409	353.88
311.639	358.88
311.868	366.88
312.098	354.88
312.328	362.88
312.557	375.88
312.787	394.88
313.017	383.88
313.246	364.88
313.476	336.88
313.706	347.88
313.935	330.88
314.165	369.88
314.394	371.88
314.624	372.88
314.853	373.88
315.083	341.88
315.312	341.88
315.542	333.88
315.771	350.88
316.001	328.88
316.23	334.88
316.46	335.88
316.689	331.88
316.919	349.88
317.148	356.88
317.377	349.88
317.607	355.88
317.836	355.88
318.065	369.88
318.295	353.88
318.524	348.88
318.753	342.88
318.983	356.88
319.212	357.88
319.441	346.88
319.67	378.88
319.9	334.88
320.129	334.88
320.358	347.88
320.587	363.88
320.816	369.88
321.046	381.88
321.275	382.88
321.504	366.88
321.733	359.88
321.962	385.88
322.191	398.88
322.42	410.88
322.649	412.88
322.878	439.88
323.108	433.88
323.337	451.88
323.566	485.88
323.795	510.88
324.024	599.88
324.253	716.88
324.482	1043.88
324.71	1565.88
324.939	2117.88
325.168	1710.88
325.397	931.88
325.626	615.88
325.855	558.88
326.084	488.88
326.313	495.88
326.542	504.88
326.77	544.88
326.999	653.88
327.228	923.88
327.457	1347.88
327.686	1534.88
327.914	1051.88
328.143	703.88
328.372	590.88
328.6	579.88
328.829	561.88
329.058	568.88
329.287	573.88
329.515	524.88
329.744	482.88
329.972	483.88
330.201	483.88
330.43	551.88
330.658	549.88
330.887	598.88
331.115	563.88
331.344	492.88
331.572	469.88
331.801	456.88
332.03	432.88
332.258	436.88
332.486	420.88
332.715	406.88
332.943	415.88
333.172	412.88
333.4	411.88
333.629	429.88
333.857	444.88
334.085	435.88
334.314	433.88
334.542	484.88
334.771	466.88
334.999	421.88
335.227	426.88
335.455	397.88
335.684	395.88
335.912	403.88
336.14	393.88
336.369	393.88
336.597	408.88
336.825	430.88
337.053	399.88
337.281	394.88
337.51	397.88
337.738	399.88
337.966	392.88
338.194	384.88
338.422	409.88
338.65	399.88
338.878	398.88
339.106	380.88
339.334	409.88
339.562	369.88
339.79	374.88
340.018	379.88
340.246	380.88
340.474	405.88
340.702	376.88
340.93	387.88
341.158	385.88
341.386	397.88
341.614	380.88
341.842	396.88
342.07	389.88
342.298	369.88
342.526	373.88
342.754	365.88
342.981	377.88
343.209	374.88
343.437	371.88
343.665	361.88
343.893	376.88
344.12	383.88
344.348	407.88
344.576	392.88
344.804	390.88
345.031	398.88
345.259	407.88
345.487	383.88
345.714	393.88
345.942	371.88
346.17	374.88
346.397	377.88
346.625	376.88
346.853	378.88
347.08	372.88
347.308	366.88
347.535	381.88
347.763	394.88
347.99	383.88
348.218	406.88
348.445	403.88
348.673	392.88
348.9	381.88
349.128	375.88
349.355	364.88
349.583	371.88
349.81	375.88
350.037	362.88
350.265	337.88
350.492	360.88
350.72	363.88
350.947	378.88
351.174	394.88
351.402	380.88
351.629	389.88
351.856	394.88
352.083	402.88
352.311	409.88
352.538	405.88
352.765	418.88
352.992	399.88
353.22	385.88
353.447	376.88
353.674	374.88
353.901	356.88
354.128	349.88
354.355	350.88
354.583	338.88
354.81	342.88
355.037	330.88
355.264	326.88
355.491	348.88
355.718	348.88
355.945	363.88
356.172	338.88
356.399	348.88
356.626	332.88
356.853	342.88
357.08	345.88
357.307	332.88
357.534	334.88
357.761	345.88
357.988	338.88
358.215	344.88
358.441	347.88
358.668	355.88
358.895	341.88
359.122	356.88
359.349	348.88
359.576	378.88
359.802	406.88
360.029	434.88
360.256	444.88
360.483	435.88
360.709	381.88
360.936	376.88
361.163	373.88
361.39	361.88
361.616	395.88
361.843	399.88
362.07	378.88
362.296	377.88
362.523	381.88
362.749	364.88
362.976	369.88
363.203	358.88
363.429	334.88
363.656	365.88
363.882	346.88
364.109	352.88
364.335	353.88
364.562	362.88
364.788	365.88
365.015	347.88
365.241	342.88
365.468	363.88
365.694	364.88
365.92	362.88
366.147	363.88
366.373	359.88
366.599	362.88
366.826	364.88
367.052	366.88
367.278	338.88
367.505	324.88
367.731	342.88
367.957	326.88
368.184	356.88
368.41	364.88
368.636	372.88
368.862	364.88
369.089	365.88
369.315	331.88
369.541	372.88
369.767	349.88
369.993	364.88
370.219	364.88
370.445	341.88
370.672	341.88
370.898	348.88
371.124	324.88
371.35	353.88
371.576	342.88
371.802	354.88
372.028	350.88
372.254	351.88
372.48	349.88
372.706	341.88
372.932	375.88
373.158	350.88
373.384	352.88
373.61	356.88
373.835	362.88
374.061	356.88
374.287	373.88
374.513	365.88
374.739	351.88
374.965	361.88
375.191	341.88
375.416	360.88
375.642	349.88
375.868	360.88
376.094	353.88
376.319	341.88
376.545	355.88
376.771	342.88
376.997	339.88
377.222	324.88
377.448	331.88
377.674	362.88
377.899	334.88
378.125	340.88
378.35	356.88
378.576	351.88
378.802	362.88
379.027	336.88
379.253	343.88
379.478	323.88
379.704	350.88
379.929	356.88
380.155	346.88
380.38	357.88
380.606	329.88
380.831	360.88
381.057	360.88
381.282	346.88
381.507	348.88
381.733	349.88
381.958	374.88
382.184	345.88
382.409	359.88
382.634	353.88
382.86	362.88
383.085	343.88
383.31	371.88
383.535	359.88
383.761	349.88
383.986	372.88
384.211	369.88
384.436	360.88
384.662	367.88
384.887	398.88
385.112	369.88
385.337	379.88
385.562	357.88
385.787	387.88
386.013	389.88
386.238	394.88
386.463	379.88
386.688	375.88
386.913	366.88
387.138	385.88
387.363	362.88
387.588	373.88
387.813	353.88
388.038	388.88
388.263	371.88
388.488	372.88
388.713	363.88
388.938	371.88
389.163	355.88
389.387	375.88
389.612	351.88
389.837	363.88
390.062	364.88
390.287	367.88
390.512	380.88
390.736	371.88
390.961	368.88
391.186	355.88
391.411	379.88
391.636	379.88
391.86	398.88
392.085	391.88
392.31	362.88
392.534	365.88
392.759	377.88
392.984	381.88
393.208	377.88
393.433	365.88
393.658	359.88
393.882	372.88
394.107	375.88
394.331	369.88
394.556	375.88
394.78	390.88
395.005	362.88
395.229	359.88
395.454	391.88
395.678	373.88
395.903	388.88
396.127	405.88
396.352	407.88
396.576	378.88
396.801	361.88
397.025	366.88
397.249	382.88
397.474	386.88
397.698	402.88
397.922	425.88
398.147	451.88
398.371	412.88
398.595	411.88
398.82	405.88
399.044	426.88
399.268	440.88
399.492	435.88
399.717	462.88
399.941	468.88
400.165	517.88
400.389	516.88
400.613	465.88
400.837	434.88
401.062	456.88
401.286	425.88
401.51	430.88
401.734	433.88
401.958	417.88
402.182	418.88
402.406	462.88
402.63	446.88
402.854	452.88
403.078	424.88
403.302	433.88
403.526	437.88
403.75	455.88
403.974	427.88
404.198	431.88
404.422	442.88
404.645	424.88
404.869	442.88
405.093	453.88
405.317	493.88
405.541	503.88
405.765	484.88
405.988	462.88
406.212	467.88
406.436	492.88
406.66	504.88
406.883	490.88
407.107	495.88
407.331	515.88
407.555	563.88
407.778	578.88
408.002	511.88
408.226	497.88
408.449	487.88
408.673	465.88
408.896	486.88
409.12	515.88
409.344	479.88
409.567	463.88
409.791	453.88
410.014	439.88
410.238	408.88
410.461	439.88
410.685	426.88
410.908	450.88
411.132	478.88
411.355	491.88
411.578	463.88
411.802	430.88
412.025	429.88
412.249	422.88
412.472	434.88
412.695	455.88
412.919	467.88
413.142	441.88
413.365	414.88
413.589	425.88
413.812	431.88
414.035	402.88
414.258	414.88
414.482	418.88
414.705	410.88
414.928	382.88
415.151	422.88
415.374	414.88
415.597	392.88
415.821	397.88
416.044	417.88
416.267	411.88
416.49	420.88
416.713	378.88
416.936	403.88
417.159	412.88
417.382	406.88
417.605	395.88
417.828	424.88
418.051	426.88
418.274	424.88
418.497	429.88
418.72	420.88
418.943	402.88
419.166	415.88
419.389	438.88
419.611	434.88
419.834	447.88
420.057	447.88
420.28	430.88
420.503	426.88
420.726	449.88
420.948	436.88
421.171	474.88
421.394	488.88
421.617	449.88
421.839	424.88
422.062	437.88
422.285	416.88
422.507	492.88
422.73	540.88
422.953	518.88
423.175	473.88
423.398	450.88
423.621	452.88
423.843	474.88
424.066	476.88
424.288	466.88
424.511	460.88
424.733	537.88
424.956	579.88
425.178	578.88
425.401	563.88
425.623	566.88
425.846	507.88
426.068	475.88
426.291	466.88
426.513	463.88
426.735	488.88
426.958	499.88
427.18	575.88
427.402	664.88
427.625	742.88
427.847	656.88
428.069	552.88
428.292	515.88
428.514	476.88
428.736	467.88
428.958	449.88
429.181	444.88
429.403	434.88
429.625	442.88
429.847	477.88
430.069	523.88
430.292	527.88
430.514	445.88
430.736	437.88
430.958	418.88
431.18	421.88
431.402	413.88
431.624	413.88
431.846	411.88
432.068	407.88
432.29	410.88
432.512	407.88
432.734	417.88
432.956	414.88
433.178	435.88
433.4	439.88
433.622	424.88
433.844	406.88
434.066	409.88
434.287	399.88
434.509	383.88
434.731	407.88
434.953	426.88
435.175	443.88
435.397	459.88
435.618	473.88
435.84	514.88
436.062	567.88
436.284	607.88
436.505	536.88
436.727	483.88
436.949	431.88
437.17	428.88
437.392	443.88
437.614	445.88
437.835	474.88
438.057	558.88
438.278	639.88
438.5	641.88
438.721	661.88
438.943	643.88
439.165	512.88
439.386	488.88
439.608	477.88
439.829	471.88
440.05	499.88
440.272	538.88
440.493	506.88
440.715	461.88
440.936	449.88
441.158	446.88
441.379	430.88
441.6	453.88
441.822	476.88
442.043	503.88
442.264	580.88
442.486	586.88
442.707	521.88
442.928	480.88
443.149	499.88
443.371	501.88
443.592	573.88
443.813	619.88
444.034	640.88
444.255	554.88
444.476	486.88
444.698	460.88
444.919	463.88
445.14	575.88
445.361	547.88
445.582	501.88
445.803	574.88
446.024	643.88
446.245	637.88
446.466	585.88
446.687	513.88
446.908	481.88
447.129	457.88
447.35	436.88
447.571	455.88
447.792	444.88
448.013	447.88
448.234	446.88
448.455	519.88
448.675	595.88
448.896	657.88
449.117	585.88
449.338	559.88
449.559	631.88
449.779	679.88
450	550.88
450.221	492.88
450.442	438.88
450.662	431.88
450.883	458.88
451.104	476.88
451.324	458.88
451.545	433.88
451.766	407.88
451.986	398.88
452.207	392.88
452.428	392.88
452.648	392.88
452.869	414.88
453.089	399.88
453.31	412.88
453.53	411.88
453.751	401.88
453.971	398.88
454.192	437.88
454.412	421.88
454.633	418.88
454.853	382.88
455.073	415.88
455.294	422.88
455.514	485.88
455.734	450.88
455.955	399.88
456.175	361.88
456.395	371.88
456.616	382.88
456.836	364.88
457.056	358.88
457.276	370.88
457.497	359.88
457.717	369.88
457.937	360.88
458.157	371.88
458.377	379.88
458.598	421.88
458.818	459.88
459.038	545.88
459.258	549.88
459.478	478.88
459.698	421.88
459.918	413.88
460.138	405.88
460.358	408.88
460.578	405.88
460.798	419.88
461.018	385.88
461.238	422.88
461.458	398.88
461.678	437.88
461.898	409.88
462.118	399.88
462.338	412.88
462.558	406.88
462.777	417.88
462.997	442.88
463.217	445.88
463.437	450.88
463.657	445.88
463.876	441.88
464.096	431.88
464.316	434.88
464.536	429.88
464.755	437.88
464.975	471.88
465.195	498.88
465.414	582.88
465.634	488.88
465.854	458.88
466.073	435.88
466.293	403.88
466.512	389.88
466.732	409.88
466.951	390.88
467.171	399.88
467.391	395.88
467.61	420.88
467.829	417.88
468.049	407.88
468.268	425.88
468.488	380.88
468.707	382.88
468.927	391.88
469.146	394.88
469.365	383.88
469.585	372.88
469.804	398.88
470.023	414.88
470.243	422.88
470.462	418.88
470.681	469.88
470.901	443.88
471.12	437.88
471.339	397.88
471.558	419.88
471.777	414.88
471.997	383.88
472.216	389.88
472.435	425.88
472.654	419.88
472.873	395.88
473.092	397.88
473.311	410.88
473.53	402.88
473.749	416.88
473.968	441.88
474.187	534.88
474.406	525.88
474.625	433.88
474.844	431.88
475.063	392.88
475.282	391.88
475.501	404.88
475.72	427.88
475.939	421.88
476.158	414.88
476.377	403.88
476.596	415.88
476.814	441.88
477.033	415.88
477.252	431.88
477.471	449.88
477.69	423.88
477.908	436.88
478.127	459.88
478.346	423.88
478.564	446.88
478.783	451.88
479.002	455.88
479.22	470.88
479.439	459.88
479.658	484.88
479.876	492.88
480.095	488.88
480.313	493.88
480.532	504.88
480.751	494.88
480.969	487.88
481.188	527.88
481.406	565.88
481.624	493.88
481.843	478.88
482.061	477.88
482.28	498.88
482.498	454.88
482.717	476.88
482.935	463.88
483.153	474.88
483.372	469.88
483.59	461.88
483.808	471.88
484.027	477.88
484.245	468.88
484.463	481.88
484.681	493.88
484.9	462.88
485.118	497.88
485.336	472.88
485.554	485.88
485.772	494.88
485.99	471.88
486.209	472.88
486.427	481.88
486.645	510.88
486.863	534.88
487.081	527.88
487.299	524.88
487.517	494.88
487.735	520.88
487.953	484.88
488.171	503.88
488.389	510.88
488.607	501.88
488.825	508.88
489.043	510.88
489.261	497.88
489.479	506.88
489.696	516.88
489.914	507.88
490.132	529.88
490.35	538.88
490.568	534.88
490.786	535.88
491.003	556.88
491.221	567.88
491.439	569.88
491.657	557.88
491.874	581.88
492.092	562.88
492.31	579.88
492.527	587.88
492.745	581.88
492.963	597.88
493.18	589.88
493.398	586.88
493.615	588.88
493.833	585.88
494.05	582.88
494.268	622.88
494.485	602.88
494.703	597.88
494.92	587.88
495.138	615.88
495.355	582.88
495.573	602.88
495.79	618.88
496.008	594.88
496.225	601.88
496.442	585.88
496.66	586.88
496.877	606.88
497.094	589.88
497.312	597.88
497.529	616.88
497.746	613.88
497.963	625.88
498.181	651.88
498.398	648.88
498.615	643.88
498.832	664.88
499.049	667.88
499.267	696.88
499.484	699.88
499.701	704.88
499.918	718.88
500.135	765.88
500.352	800.88
500.569	795.88
500.786	806.88
501.003	781.88
501.22	770.88
501.437	755.88
501.654	743.88
501.871	756.88
502.088	726.88
502.305	689.88
502.522	689.88
502.739	661.88
502.956	630.88
503.172	603.88
503.389	629.88
503.606	605.88
503.823	644.88
504.04	620.88
504.256	610.88
504.473	582.88
504.69	594.88
504.907	606.88
505.123	600.88
505.34	579.88
505.557	574.88
505.773	565.88
505.99	595.88
506.207	572.88
506.423	580.88
506.64	574.88
506.856	567.88
507.073	571.88
507.289	572.88
507.506	581.88
507.722	602.88
507.939	592.88
508.155	588.88
508.372	554.88
508.588	540.88
508.805	556.88
509.021	546.88
509.238	579.88
509.454	594.88
509.67	563.88
509.887	556.88
510.103	557.88
510.319	573.88
510.536	682.88
510.752	1241.88
510.968	962.88
511.184	591.88
511.401	541.88
511.617	535.88
511.833	530.88
512.049	510.88
512.265	513.88
512.481	535.88
512.698	516.88
512.914	517.88
513.13	555.88
513.346	534.88
513.562	549.88
513.778	521.88
513.994	519.88
514.21	541.88
514.426	593.88
514.642	633.88
514.858	643.88
515.074	704.88
515.29	914.88
515.506	1413.88
515.721	1115.88
515.937	699.88
516.153	604.88
516.369	574.88
516.585	551.88
516.801	525.88
517.016	538.88
517.232	524.88
517.448	531.88
517.664	547.88
517.879	537.88
518.095	538.88
518.311	542.88
518.527	532.88
518.742	530.88
518.958	517.88
519.173	501.88
519.389	528.88
519.605	517.88
519.82	545.88
520.036	565.88
520.251	570.88
520.467	598.88
520.682	604.88
520.898	628.88
521.113	649.88
521.329	676.88
521.544	817.88
521.76	1055.88
521.975	1918.88
522.19	1827.88
522.406	946.88
522.621	647.88
522.836	575.88
523.052	536.88
523.267	506.88
523.482	508.88
523.698	495.88
523.913	506.88
524.128	494.88
524.343	471.88
524.559	461.88
524.774	469.88
524.989	473.88
525.204	438.88
525.419	464.88
525.634	462.88
525.849	450.88
526.064	439.88
526.28	447.88
526.495	434.88
526.71	440.88
526.925	437.88
527.14	437.88
527.355	430.88
527.57	440.88
527.785	435.88
527.999	414.88
528.214	425.88
528.429	411.88
528.644	421.88
528.859	435.88
529.074	420.88
529.289	472.88
529.503	573.88
529.718	545.88
529.933	469.88
530.148	451.88
530.363	420.88
530.577	430.88
530.792	425.88
531.007	435.88
531.221	424.88
531.436	415.88
531.651	403.88
531.865	392.88
532.08	406.88
532.295	384.88
532.509	393.88
532.724	409.88
532.938	402.88
533.153	405.88
533.367	392.88
533.582	394.88
533.796	403.88
534.011	400.88
534.225	397.88
534.44	377.88
534.654	389.88
534.868	409.88
535.083	397.88
535.297	402.88
535.511	397.88
535.726	411.88
535.94	415.88
536.154	402.88
536.369	391.88
536.583	417.88
536.797	386.88
537.011	363.88
537.225	381.88
537.44	379.88
537.654	391.88
537.868	381.88
538.082	387.88
538.296	403.88
538.51	384.88
538.724	401.88
538.938	388.88
539.153	385.88
539.367	406.88
539.581	412.88
539.795	379.88
540.009	390.88
540.222	390.88
540.436	361.88
540.65	381.88
540.864	392.88
541.078	391.88
541.292	410.88
541.506	387.88
541.72	394.88
541.934	373.88
542.147	385.88
542.361	381.88
542.575	375.88
542.789	376.88
543.002	370.88
543.216	378.88
543.43	394.88
543.644	399.88
543.857	378.88
544.071	383.88
544.285	391.88
544.498	365.88
544.712	366.88
544.925	380.88
545.139	365.88
545.352	362.88
545.566	356.88
545.779	356.88
545.993	375.88
546.206	363.88
546.42	371.88
546.633	377.88
546.847	351.88
547.06	369.88
547.274	366.88
547.487	356.88
547.7	375.88
547.914	381.88
548.127	346.88
548.34	381.88
548.554	375.88
548.767	371.88
548.98	349.88
549.193	348.88
549.407	360.88
549.62	361.88
549.833	350.88
550.046	372.88
550.259	350.88
550.473	375.88
550.686	360.88
550.899	344.88
551.112	358.88
551.325	338.88
551.538	358.88
551.751	350.88
551.964	334.88
552.177	355.88
552.39	342.88
552.603	347.88
552.816	373.88
553.029	369.88
553.242	366.88
553.455	361.88
553.667	376.88
553.88	390.88
554.093	353.88
554.306	374.88
554.519	374.88
554.732	353.88
554.944	367.88
555.157	359.88
555.37	335.88
555.583	340.88
555.795	335.88
556.008	329.88
556.221	333.88
556.433	332.88
556.646	337.88
556.859	337.88
557.071	316.88
557.284	339.88
557.496	317.88
557.709	332.88
557.921	325.88
558.134	309.88
558.346	318.88
558.559	319.88
558.771	325.88
558.984	322.88
559.196	305.88
559.409	312.88
559.621	325.88
559.833	317.88
560.046	305.88
560.258	329.88
560.47	320.88
560.683	317.88
560.895	324.88
561.107	326.88
561.32	321.88
561.532	324.88
561.744	322.88
561.956	325.88
562.168	293.88
562.381	309.88
562.593	316.88
562.805	337.88
563.017	319.88
563.229	322.88
563.441	319.88
563.653	321.88
563.865	322.88
564.077	329.88
564.289	330.88
564.501	320.88
564.713	337.88
564.925	323.88
565.137	322.88
565.349	354.88
565.561	320.88
565.773	347.88
565.985	345.88
566.197	368.88
566.408	348.88
566.62	353.88
566.832	355.88
567.044	366.88
567.255	369.88
567.467	377.88
567.679	376.88
567.891	370.88
568.102	375.88
568.314	379.88
568.526	367.88
568.737	363.88
568.949	351.88
569.161	340.88
569.372	327.88
569.584	307.88
569.795	314.88
570.007	315.88
570.218	381.88
570.43	362.88
570.641	318.88
570.853	316.88
571.064	289.88
571.276	301.88
571.487	294.88
571.698	301.88
571.91	296.88
572.121	302.88
572.333	284.88
572.544	296.88
572.755	277.88
572.966	272.88
573.178	301.88
573.389	298.88
573.6	281.88
573.811	281.88
574.023	276.88
574.234	270.88
574.445	274.88
574.656	258.88
574.867	279.88
575.078	269.88
575.289	280.88
575.501	282.88
575.712	266.88
575.923	265.88
576.134	272.88
576.345	277.88
576.556	273.88
576.767	264.88
576.978	291.88
577.188	271.88
577.399	279.88
577.61	259.88
577.821	258.88
578.032	287.88
578.243	335.88
578.454	601.88
578.665	409.88
578.875	294.88
579.086	269.88
579.297	272.88
579.508	252.88
579.718	257.88
579.929	249.88
580.14	243.88
580.35	238.88
580.561	259.88
580.772	261.88
580.982	241.88
581.193	263.88
581.403	261.88
581.614	221.88
581.825	234.88
582.035	244.88
582.246	263.88
582.456	260.88
582.667	251.88
582.877	241.88
583.087	261.88
583.298	245.88
583.508	255.88
583.719	251.88
583.929	245.88
584.139	252.88
584.35	245.88
584.56	247.88
584.77	246.88
584.981	243.88
585.191	230.88
585.401	235.88
585.611	222.88
585.821	243.88
586.032	226.88
586.242	245.88
586.452	225.88
586.662	226.88
586.872	238.88
587.082	243.88
587.292	230.88
587.502	245.88
587.713	241.88
587.923	254.88
588.133	241.88
588.343	242.88
588.553	255.88
588.762	248.88
588.972	234.88
589.182	243.88
589.392	247.88
589.602	247.88
589.812	245.88
590.022	246.88
590.232	230.88
590.441	218.88
590.651	236.88
590.861	228.88
591.071	257.88
591.281	250.88
591.49	235.88
591.7	237.88
591.91	259.88
592.119	238.88
592.329	236.88
592.539	225.88
592.748	253.88
592.958	261.88
593.167	234.88
593.377	257.88
593.587	261.88
593.796	252.88
594.006	254.88
594.215	276.88
594.424	245.88
594.634	244.88
594.843	227.88
595.053	213.88
595.262	245.88
595.472	241.88
595.681	229.88
595.89	231.88
596.1	222.88
596.309	242.88
596.518	231.88
596.727	231.88
596.937	244.88
597.146	232.88
597.355	233.88
597.564	218.88
597.774	217.88
597.983	224.88
598.192	217.88
598.401	219.88
598.61	215.88
598.819	203.88
599.028	214.88
599.237	209.88
599.446	204.88
599.655	221.88
599.864	214.88
600.073	198.88
600.282	209.88
600.491	203.88
600.7	210.88
600.909	229.88
601.118	198.88
601.327	209.88
601.536	210.88
601.745	209.88
601.953	201.88
602.162	204.88
602.371	213.88
602.58	203.88
602.789	209.88
602.997	219.88
603.206	217.88
603.415	204.88
603.623	204.88
603.832	210.88
604.041	203.88
604.249	195.88
604.458	209.88
604.666	218.88
604.875	212.88
605.084	205.88
605.292	200.88
605.501	201.88
605.709	215.88
605.918	189.88
606.126	192.88
606.334	213.88
606.543	192.88
606.751	208.88
606.96	204.88
607.168	202.88
607.376	212.88
607.585	207.88
607.793	206.88
608.001	209.88
608.21	218.88
608.418	211.88
608.626	195.88
608.834	201.88
609.043	205.88
609.251	184.88
609.459	199.88
609.667	201.88
609.875	198.88
610.083	193.88
610.291	208.88
610.499	198.88
610.707	206.88
610.916	192.88
611.124	212.88
611.332	206.88
611.54	190.88
611.748	213.88
611.955	207.88
612.163	190.88
612.371	205.88
612.579	203.88
612.787	193.88
612.995	201.88
613.203	201.88
613.411	184.88
613.618	202.88
613.826	203.88
614.034	187.88
614.242	200.88
614.449	199.88
614.657	194.88
614.865	199.88
615.072	203.88
615.28	198.88
615.488	178.88
615.695	180.88
615.903	185.88
616.111	199.88
616.318	192.88
616.526	189.88
616.733	199.88
616.941	210.88
617.148	199.88
617.356	191.88
617.563	199.88
617.771	192.88
617.978	182.88
618.185	194.88
618.393	181.88
618.6	191.88
618.807	194.88
619.015	197.88
619.222	188.88
619.429	171.88
619.637	197.88
619.844	197.88
620.051	184.88
620.258	188.88
620.466	171.88
620.673	168.88
620.88	181.88
621.087	180.88
621.294	179.88
621.501	197.88
621.708	165.88
621.915	198.88
622.122	190.88
622.329	194.88
622.536	177.88
622.743	179.88
622.95	195.88
623.157	194.88
623.364	176.88
623.571	181.88
623.778	196.88
623.985	180.88
624.192	185.88
624.399	179.88
624.606	189.88
624.812	182.88
625.019	179.88
625.226	174.88
625.433	180.88
625.639	185.88
625.846	190.88
626.053	174.88
626.259	160.88
626.466	182.88
626.673	194.88
626.879	167.88
627.086	182.88
627.293	181.88
627.499	182.88
627.706	166.88
627.912	171.88
628.119	178.88
628.325	187.88
628.532	170.88
628.738	174.88
628.945	161.88
629.151	171.88
629.357	155.88
629.564	177.88
629.77	159.88
629.976	145.88
630.183	165.88
630.389	165.88
630.595	189.88
630.802	177.88
631.008	177.88
631.214	172.88
631.42	158.88
631.627	181.88
631.833	172.88
632.039	162.88
632.245	164.88
632.451	167.88
632.657	158.88
632.863	172.88
633.069	163.88
633.275	166.88
633.481	141.88
633.688	154.88
633.893	147.88
634.099	161.88
634.305	149.88
634.511	159.88
634.717	154.88
634.923	151.88
635.129	170.88
635.335	151.88
635.541	159.88
635.747	156.88
635.952	147.88
636.158	149.88
636.364	161.88
636.57	154.88
636.775	158.88
636.981	153.88
637.187	164.88
637.392	177.88
637.598	158.88
637.804	131.88
638.009	147.88
638.215	143.88
638.421	146.88
638.626	144.88
638.832	157.88
639.037	145.88
639.243	149.88
639.448	142.88
639.654	147.88
639.859	157.88
640.065	132.88
640.27	156.88
640.475	161.88
640.681	147.88
640.886	155.88
641.091	167.88
641.297	152.88
641.502	161.88
641.707	151.88
641.913	148.88
642.118	164.88
642.323	132.88
642.528	151.88
642.733	140.88
642.939	155.88
643.144	153.88
643.349	149.88
643.554	146.88
643.759	165.88
643.964	133.88
644.169	148.88
644.374	154.88
644.579	151.88
644.784	128.88
644.989	129.88
645.194	149.88
645.399	125.88
645.604	150.88
645.809	151.88
646.014	149.88
646.219	139.88
646.423	147.88
646.628	144.88
646.833	151.88
647.038	144.88
647.243	149.88
647.447	152.88
647.652	160.88
647.857	149.88
648.062	140.88
648.266	149.88
648.471	144.88
648.676	142.88
648.88	155.88
649.085	175.88
649.289	144.88
649.494	135.88
649.698	167.88
649.903	171.88
650.107	157.88
650.312	165.88
650.516	138.88
650.721	141.88
650.925	150.88
651.13	141.88
651.334	132.88
651.539	140.88
651.743	126.88
651.947	133.88
652.152	133.88
652.356	115.88
652.56	123.88
652.764	124.88
652.969	135.88
653.173	127.88
653.377	127.88
653.581	114.88
653.785	117.88
653.99	111.88
654.194	129.88
654.398	137.88
654.602	138.88
654.806	126.88
655.01	133.88
655.214	125.88
655.418	127.88
655.622	130.88
655.826	133.88
656.03	133.88
656.234	118.88
656.438	122.88
656.642	127.88
656.846	129.88
657.049	107.88
657.253	129.88
657.457	119.88
657.661	110.88
657.865	110.88
658.068	117.88
658.272	105.88
658.476	100.88
658.68	111.88
658.883	108.88
659.087	85.88
659.291	91.88
659.494	94.88
659.698	95.88
659.901	96.88
660.105	94.88
660.309	91.88
660.512	78.88
660.716	100.88
660.919	97.88
661.123	80.88
661.326	90.88
661.53	99.88
661.733	95.88
661.936	90.88
662.14	88.88
662.343	90.88
662.546	95.88
662.75	81.88
662.953	75.88
663.156	100.88
663.36	87.88
663.563	87.88
663.766	93.88
663.969	71.88
664.173	79.88
664.376	72.88
664.579	79.88
664.782	76.88
664.985	81.88
665.188	94.88
665.391	86.88
665.594	90.88
665.797	88.88
666	78.88
666.203	88.88
666.406	76.88
666.609	85.88
666.812	79.88
667.015	78.88
667.218	98.88
667.421	90.88
667.624	86.88
667.827	83.88
668.03	93.88
668.232	70.88
668.435	91.88
668.638	84.88
668.841	87.88
669.043	82.88
669.246	85.88
669.449	76.88
669.651	82.88
669.854	72.88
670.057	77.88
670.259	90.88
670.462	87.88
670.665	86.88
670.867	92.88
671.07	74.88
671.272	74.88
671.475	105.88
671.677	83.88
671.88	79.88
672.082	83.88
672.284	95.88
672.487	82.88
672.689	75.88
672.892	82.88
