Data from 1983.PennyLincolnUp.Lamp.En5.5.200Scan.071819.P1_HRD10591_16-54-15-965.txt Node
Date: Thu Jul 18 16:54:15 EDT 2019
User: cochatt
Spectrometer: HR+D1059
Trigger mode: 1
Integration Time (sec): 1.000000E-1
Scans to average: 1
Electric dark correction enabled: true
Nonlinearity correction enabled: false
Boxcar width: 0
XAxis mode: Wavelengths
Number of Pixels in Spectrum: 2048
>>>>>Begin Spectral Data<<<<<
223.165	-22.12
223.4	-22.12
223.635	-22.12
223.869	-30.12
224.104	-18.12
224.338	-13.12
224.573	-23.12
224.808	-17.12
225.042	-2.12
225.277	-3.12
225.511	15.88
225.746	0.88
225.98	-2.12
226.215	11.88
226.449	10.88
226.683	28.88
226.918	27.88
227.152	34.88
227.387	25.88
227.621	21.88
227.856	32.88
228.09	56.88
228.324	55.88
228.559	58.88
228.793	54.88
229.027	77.88
229.262	80.88
229.496	109.88
229.73	131.88
229.964	133.88
230.199	125.88
230.433	93.88
230.667	85.88
230.901	106.88
231.136	106.88
231.37	99.88
231.604	106.88
231.838	102.88
232.072	112.88
232.306	120.88
232.541	100.88
232.775	112.88
233.009	102.88
233.243	110.88
233.477	105.88
233.711	95.88
233.945	100.88
234.179	102.88
234.413	118.88
234.647	95.88
234.881	111.88
235.115	110.88
235.349	111.88
235.583	115.88
235.817	106.88
236.051	119.88
236.285	115.88
236.519	123.88
236.753	122.88
236.987	118.88
237.221	157.88
237.455	198.88
237.689	157.88
237.922	131.88
238.156	125.88
238.39	119.88
238.624	103.88
238.858	101.88
239.091	118.88
239.325	119.88
239.559	129.88
239.793	112.88
240.027	120.88
240.26	144.88
240.494	122.88
240.728	145.88
240.961	113.88
241.195	127.88
241.429	127.88
241.662	120.88
241.896	128.88
242.13	137.88
242.363	125.88
242.597	122.88
242.83	131.88
243.064	125.88
243.298	117.88
243.531	125.88
243.765	125.88
243.998	116.88
244.232	133.88
244.465	135.88
244.699	129.88
244.932	138.88
245.166	137.88
245.399	137.88
245.633	129.88
245.866	133.88
246.099	138.88
246.333	134.88
246.566	138.88
246.8	118.88
247.033	139.88
247.266	137.88
247.5	144.88
247.733	149.88
247.966	153.88
248.2	155.88
248.433	146.88
248.666	162.88
248.899	161.88
249.133	179.88
249.366	176.88
249.599	171.88
249.832	177.88
250.066	153.88
250.299	152.88
250.532	151.88
250.765	183.88
250.998	186.88
251.231	195.88
251.465	191.88
251.698	182.88
251.931	177.88
252.164	174.88
252.397	170.88
252.63	165.88
252.863	195.88
253.096	189.88
253.329	206.88
253.562	190.88
253.795	200.88
254.028	210.88
254.261	210.88
254.494	200.88
254.727	228.88
254.96	242.88
255.193	233.88
255.426	225.88
255.659	201.88
255.892	213.88
256.124	202.88
256.357	207.88
256.59	218.88
256.823	197.88
257.056	181.88
257.289	187.88
257.521	182.88
257.754	186.88
257.987	184.88
258.22	189.88
258.452	190.88
258.685	181.88
258.918	189.88
259.151	182.88
259.383	197.88
259.616	197.88
259.849	203.88
260.081	226.88
260.314	224.88
260.547	239.88
260.779	199.88
261.012	203.88
261.244	217.88
261.477	200.88
261.71	193.88
261.942	197.88
262.175	199.88
262.407	212.88
262.64	205.88
262.872	184.88
263.105	183.88
263.337	190.88
263.57	176.88
263.802	206.88
264.035	198.88
264.267	182.88
264.499	176.88
264.732	185.88
264.964	169.88
265.197	189.88
265.429	200.88
265.661	197.88
265.894	185.88
266.126	184.88
266.358	191.88
266.591	186.88
266.823	199.88
267.055	190.88
267.287	205.88
267.52	195.88
267.752	202.88
267.984	199.88
268.216	185.88
268.448	225.88
268.681	201.88
268.913	231.88
269.145	224.88
269.377	251.88
269.609	234.88
269.841	210.88
270.073	264.88
270.306	263.88
270.538	280.88
270.77	280.88
271.002	257.88
271.234	243.88
271.466	273.88
271.698	273.88
271.93	279.88
272.162	285.88
272.394	273.88
272.626	264.88
272.858	252.88
273.09	245.88
273.322	259.88
273.553	229.88
273.785	226.88
274.017	217.88
274.249	226.88
274.481	244.88
274.713	249.88
274.945	222.88
275.176	237.88
275.408	234.88
275.64	239.88
275.872	225.88
276.104	231.88
276.335	234.88
276.567	239.88
276.799	254.88
277.031	258.88
277.262	274.88
277.494	283.88
277.726	268.88
277.957	245.88
278.189	242.88
278.421	225.88
278.652	230.88
278.884	230.88
279.115	223.88
279.347	226.88
279.579	233.88
279.81	224.88
280.042	208.88
280.273	228.88
280.505	223.88
280.736	229.88
280.968	235.88
281.199	218.88
281.431	229.88
281.662	221.88
281.894	222.88
282.125	254.88
282.356	257.88
282.588	273.88
282.819	271.88
283.051	239.88
283.282	221.88
283.513	235.88
283.745	221.88
283.976	242.88
284.207	250.88
284.439	252.88
284.67	241.88
284.901	229.88
285.132	241.88
285.364	233.88
285.595	251.88
285.826	244.88
286.057	246.88
286.288	241.88
286.52	256.88
286.751	237.88
286.982	229.88
287.213	238.88
287.444	237.88
287.675	252.88
287.906	248.88
288.138	247.88
288.369	274.88
288.6	273.88
288.831	246.88
289.062	250.88
289.293	252.88
289.524	245.88
289.755	239.88
289.986	249.88
290.217	240.88
290.448	244.88
290.679	255.88
290.91	255.88
291.141	259.88
291.371	252.88
291.602	251.88
291.833	244.88
292.064	264.88
292.295	248.88
292.526	254.88
292.757	263.88
292.987	251.88
293.218	242.88
293.449	235.88
293.68	268.88
293.91	261.88
294.141	232.88
294.372	227.88
294.603	235.88
294.833	247.88
295.064	249.88
295.295	255.88
295.525	257.88
295.756	257.88
295.987	269.88
296.217	286.88
296.448	278.88
296.679	278.88
296.909	243.88
297.14	275.88
297.37	258.88
297.601	251.88
297.831	286.88
298.062	260.88
298.292	275.88
298.523	264.88
298.753	269.88
298.984	266.88
299.214	278.88
299.445	267.88
299.675	271.88
299.905	285.88
300.136	266.88
300.366	266.88
300.597	260.88
300.827	281.88
301.057	261.88
301.288	268.88
301.518	269.88
301.748	286.88
301.979	259.88
302.209	262.88
302.439	288.88
302.669	277.88
302.9	282.88
303.13	306.88
303.36	290.88
303.59	276.88
303.82	320.88
304.051	273.88
304.281	281.88
304.511	289.88
304.741	285.88
304.971	273.88
305.201	281.88
305.431	279.88
305.661	289.88
305.891	270.88
306.121	296.88
306.352	300.88
306.582	301.88
306.812	280.88
307.042	269.88
307.272	309.88
307.502	282.88
307.731	275.88
307.961	297.88
308.191	287.88
308.421	287.88
308.651	294.88
308.881	304.88
309.111	311.88
309.341	298.88
309.571	301.88
309.8	323.88
310.03	321.88
310.26	320.88
310.49	320.88
310.72	344.88
310.949	355.88
311.179	362.88
311.409	346.88
311.639	336.88
311.868	329.88
312.098	330.88
312.328	342.88
312.557	342.88
312.787	339.88
313.017	341.88
313.246	352.88
313.476	334.88
313.706	327.88
313.935	349.88
314.165	327.88
314.394	358.88
314.624	355.88
314.853	350.88
315.083	334.88
315.312	333.88
315.542	333.88
315.771	319.88
316.001	329.88
316.23	325.88
316.46	329.88
316.689	326.88
316.919	330.88
317.148	341.88
317.377	331.88
317.607	346.88
317.836	344.88
318.065	334.88
318.295	313.88
318.524	329.88
318.753	340.88
318.983	320.88
319.212	323.88
319.441	311.88
319.67	340.88
319.9	329.88
320.129	338.88
320.358	340.88
320.587	345.88
320.816	344.88
321.046	349.88
321.275	351.88
321.504	352.88
321.733	333.88
321.962	371.88
322.191	362.88
322.42	378.88
322.649	387.88
322.878	427.88
323.108	424.88
323.337	450.88
323.566	443.88
323.795	481.88
324.024	557.88
324.253	675.88
324.482	949.88
324.71	1407.88
324.939	1898.88
325.168	1593.88
325.397	857.88
325.626	567.88
325.855	499.88
326.084	447.88
326.313	439.88
326.542	435.88
326.77	491.88
326.999	602.88
327.228	818.88
327.457	1242.88
327.686	1397.88
327.914	971.88
328.143	657.88
328.372	570.88
328.6	535.88
328.829	522.88
329.058	518.88
329.287	543.88
329.515	506.88
329.744	473.88
329.972	449.88
330.201	458.88
330.43	510.88
330.658	535.88
330.887	548.88
331.115	516.88
331.344	468.88
331.572	442.88
331.801	441.88
332.03	415.88
332.258	407.88
332.486	390.88
332.715	374.88
332.943	380.88
333.172	400.88
333.4	384.88
333.629	410.88
333.857	405.88
334.085	399.88
334.314	395.88
334.542	460.88
334.771	436.88
334.999	426.88
335.227	412.88
335.455	397.88
335.684	389.88
335.912	409.88
336.14	393.88
336.369	385.88
336.597	374.88
336.825	390.88
337.053	389.88
337.281	381.88
337.51	374.88
337.738	373.88
337.966	361.88
338.194	389.88
338.422	377.88
338.65	373.88
338.878	357.88
339.106	350.88
339.334	373.88
339.562	367.88
339.79	357.88
340.018	355.88
340.246	343.88
340.474	399.88
340.702	377.88
340.93	345.88
341.158	373.88
341.386	367.88
341.614	346.88
341.842	377.88
342.07	344.88
342.298	350.88
342.526	385.88
342.754	358.88
342.981	352.88
343.209	349.88
343.437	367.88
343.665	373.88
343.893	371.88
344.12	360.88
344.348	378.88
344.576	393.88
344.804	393.88
345.031	383.88
345.259	381.88
345.487	383.88
345.714	372.88
345.942	377.88
346.17	348.88
346.397	357.88
346.625	351.88
346.853	368.88
347.08	357.88
347.308	381.88
347.535	383.88
347.763	371.88
347.99	377.88
348.218	359.88
348.445	369.88
348.673	359.88
348.9	388.88
349.128	363.88
349.355	354.88
349.583	344.88
349.81	360.88
350.037	341.88
350.265	336.88
350.492	341.88
350.72	334.88
350.947	366.88
351.174	385.88
351.402	361.88
351.629	369.88
351.856	359.88
352.083	367.88
352.311	385.88
352.538	393.88
352.765	380.88
352.992	369.88
353.22	372.88
353.447	341.88
353.674	363.88
353.901	346.88
354.128	350.88
354.355	343.88
354.583	332.88
354.81	341.88
355.037	328.88
355.264	321.88
355.491	323.88
355.718	340.88
355.945	318.88
356.172	323.88
356.399	313.88
356.626	327.88
356.853	325.88
357.08	337.88
357.307	325.88
357.534	324.88
357.761	333.88
357.988	310.88
358.215	341.88
358.441	347.88
358.668	347.88
358.895	346.88
359.122	342.88
359.349	331.88
359.576	327.88
359.802	390.88
360.029	425.88
360.256	404.88
360.483	407.88
360.709	377.88
360.936	375.88
361.163	379.88
361.39	356.88
361.616	376.88
361.843	343.88
362.07	356.88
362.296	373.88
362.523	378.88
362.749	355.88
362.976	334.88
363.203	351.88
363.429	342.88
363.656	356.88
363.882	340.88
364.109	346.88
364.335	337.88
364.562	331.88
364.788	341.88
365.015	342.88
365.241	362.88
365.468	333.88
365.694	337.88
365.92	357.88
366.147	351.88
366.373	335.88
366.599	307.88
366.826	329.88
367.052	346.88
367.278	330.88
367.505	327.88
367.731	335.88
367.957	338.88
368.184	336.88
368.41	361.88
368.636	357.88
368.862	353.88
369.089	353.88
369.315	345.88
369.541	348.88
369.767	340.88
369.993	344.88
370.219	344.88
370.445	319.88
370.672	333.88
370.898	349.88
371.124	325.88
371.35	325.88
371.576	319.88
371.802	329.88
372.028	336.88
372.254	335.88
372.48	342.88
372.706	336.88
372.932	338.88
373.158	325.88
373.384	331.88
373.61	335.88
373.835	350.88
374.061	334.88
374.287	336.88
374.513	339.88
374.739	350.88
374.965	338.88
375.191	325.88
375.416	350.88
375.642	327.88
375.868	337.88
376.094	337.88
376.319	340.88
376.545	325.88
376.771	315.88
376.997	322.88
377.222	323.88
377.448	326.88
377.674	327.88
377.899	324.88
378.125	319.88
378.35	349.88
378.576	306.88
378.802	337.88
379.027	342.88
379.253	330.88
379.478	330.88
379.704	326.88
379.929	340.88
380.155	323.88
380.38	345.88
380.606	329.88
380.831	328.88
381.057	341.88
381.282	313.88
381.507	320.88
381.733	319.88
381.958	326.88
382.184	332.88
382.409	341.88
382.634	343.88
382.86	355.88
383.085	341.88
383.31	346.88
383.535	346.88
383.761	345.88
383.986	350.88
384.211	351.88
384.436	337.88
384.662	327.88
384.887	337.88
385.112	352.88
385.337	357.88
385.562	337.88
385.787	370.88
386.013	379.88
386.238	357.88
386.463	353.88
386.688	357.88
386.913	344.88
387.138	349.88
387.363	372.88
387.588	344.88
387.813	344.88
388.038	371.88
388.263	365.88
388.488	361.88
388.713	356.88
388.938	354.88
389.163	358.88
389.387	369.88
389.612	349.88
389.837	351.88
390.062	361.88
390.287	341.88
390.512	323.88
390.736	339.88
390.961	355.88
391.186	328.88
391.411	335.88
391.636	357.88
391.86	356.88
392.085	345.88
392.31	355.88
392.534	365.88
392.759	349.88
392.984	370.88
393.208	377.88
393.433	363.88
393.658	355.88
393.882	342.88
394.107	356.88
394.331	370.88
394.556	373.88
394.78	370.88
395.005	354.88
395.229	362.88
395.454	352.88
395.678	375.88
395.903	369.88
396.127	369.88
396.352	379.88
396.576	365.88
396.801	371.88
397.025	367.88
397.249	374.88
397.474	385.88
397.698	381.88
397.922	384.88
398.147	388.88
398.371	388.88
398.595	379.88
398.82	377.88
399.044	403.88
399.268	385.88
399.492	424.88
399.717	454.88
399.941	453.88
400.165	454.88
400.389	476.88
400.613	441.88
400.837	427.88
401.062	408.88
401.286	385.88
401.51	382.88
401.734	397.88
401.958	411.88
402.182	419.88
402.406	407.88
402.63	405.88
402.854	399.88
403.078	412.88
403.302	399.88
403.526	441.88
403.75	416.88
403.974	407.88
404.198	396.88
404.422	415.88
404.645	428.88
404.869	414.88
405.093	449.88
405.317	446.88
405.541	471.88
405.765	447.88
405.988	454.88
406.212	459.88
406.436	481.88
406.66	507.88
406.883	463.88
407.107	474.88
407.331	489.88
407.555	525.88
407.778	553.88
408.002	487.88
408.226	478.88
408.449	458.88
408.673	447.88
408.896	486.88
409.12	508.88
409.344	469.88
409.567	430.88
409.791	422.88
410.014	435.88
410.238	433.88
410.461	403.88
410.685	421.88
410.908	435.88
411.132	462.88
411.355	471.88
411.578	433.88
411.802	412.88
412.025	421.88
412.249	427.88
412.472	436.88
412.695	449.88
412.919	454.88
413.142	422.88
413.365	408.88
413.589	387.88
413.812	404.88
414.035	376.88
414.258	392.88
414.482	371.88
414.705	390.88
414.928	380.88
415.151	400.88
415.374	394.88
415.597	403.88
415.821	381.88
416.044	386.88
416.267	377.88
416.49	362.88
416.713	395.88
416.936	377.88
417.159	377.88
417.382	400.88
417.605	403.88
417.828	412.88
418.051	417.88
418.274	413.88
418.497	385.88
418.72	375.88
418.943	385.88
419.166	399.88
419.389	397.88
419.611	416.88
419.834	410.88
420.057	411.88
420.28	399.88
420.503	415.88
420.726	400.88
420.948	427.88
421.171	442.88
421.394	471.88
421.617	415.88
421.839	417.88
422.062	431.88
422.285	431.88
422.507	459.88
422.73	514.88
422.953	511.88
423.175	453.88
423.398	452.88
423.621	438.88
423.843	440.88
424.066	450.88
424.288	426.88
424.511	445.88
424.733	488.88
424.956	534.88
425.178	528.88
425.401	512.88
425.623	550.88
425.846	471.88
426.068	452.88
426.291	424.88
426.513	433.88
426.735	453.88
426.958	494.88
427.18	541.88
427.402	618.88
427.625	690.88
427.847	604.88
428.069	533.88
428.292	473.88
428.514	456.88
428.736	417.88
428.958	412.88
429.181	411.88
429.403	421.88
429.625	416.88
429.847	431.88
430.069	495.88
430.292	489.88
430.514	433.88
430.736	409.88
430.958	405.88
431.18	389.88
431.402	390.88
431.624	387.88
431.846	360.88
432.068	399.88
432.29	378.88
432.512	377.88
432.734	385.88
432.956	394.88
433.178	409.88
433.4	402.88
433.622	394.88
433.844	385.88
434.066	374.88
434.287	389.88
434.509	392.88
434.731	404.88
434.953	400.88
435.175	407.88
435.397	437.88
435.618	438.88
435.84	460.88
436.062	528.88
436.284	586.88
436.505	487.88
436.727	443.88
436.949	418.88
437.17	427.88
437.392	409.88
437.614	419.88
437.835	470.88
438.057	534.88
438.278	612.88
438.5	626.88
438.721	637.88
438.943	620.88
439.165	484.88
439.386	471.88
439.608	457.88
439.829	454.88
440.05	480.88
440.272	505.88
440.493	476.88
440.715	458.88
440.936	433.88
441.158	393.88
441.379	411.88
441.6	426.88
441.822	458.88
442.043	484.88
442.264	556.88
442.486	551.88
442.707	489.88
442.928	442.88
443.149	474.88
443.371	490.88
443.592	507.88
443.813	580.88
444.034	612.88
444.255	530.88
444.476	462.88
444.698	435.88
444.919	446.88
445.14	536.88
445.361	492.88
445.582	468.88
445.803	527.88
446.024	613.88
446.245	602.88
446.466	558.88
446.687	483.88
446.908	430.88
447.129	429.88
447.35	431.88
447.571	402.88
447.792	403.88
448.013	406.88
448.234	453.88
448.455	461.88
448.675	559.88
448.896	631.88
449.117	541.88
449.338	537.88
449.559	600.88
449.779	640.88
450	538.88
450.221	454.88
450.442	415.88
450.662	388.88
450.883	420.88
451.104	412.88
451.324	394.88
451.545	387.88
451.766	367.88
451.986	378.88
452.207	389.88
452.428	385.88
452.648	360.88
452.869	393.88
453.089	380.88
453.31	386.88
453.53	371.88
453.751	383.88
453.971	375.88
454.192	398.88
454.412	396.88
454.633	384.88
454.853	348.88
455.073	377.88
455.294	413.88
455.514	425.88
455.734	439.88
455.955	371.88
456.175	365.88
456.395	352.88
456.616	350.88
456.836	344.88
457.056	331.88
457.276	354.88
457.497	343.88
457.717	359.88
457.937	355.88
458.157	356.88
458.377	372.88
458.598	405.88
458.818	444.88
459.038	518.88
459.258	495.88
459.478	442.88
459.698	383.88
459.918	381.88
460.138	383.88
460.358	385.88
460.578	386.88
460.798	393.88
461.018	399.88
461.238	387.88
461.458	370.88
461.678	368.88
461.898	402.88
462.118	391.88
462.338	407.88
462.558	410.88
462.777	405.88
462.997	412.88
463.217	396.88
463.437	397.88
463.657	403.88
463.876	404.88
464.096	414.88
464.316	400.88
464.536	443.88
464.755	425.88
464.975	435.88
465.195	485.88
465.414	543.88
465.634	483.88
465.854	426.88
466.073	419.88
466.293	386.88
466.512	379.88
466.732	389.88
466.951	393.88
467.171	363.88
467.391	385.88
467.61	407.88
467.829	381.88
468.049	370.88
468.268	397.88
468.488	379.88
468.707	362.88
468.927	363.88
469.146	368.88
469.365	358.88
469.585	359.88
469.804	362.88
470.023	405.88
470.243	383.88
470.462	389.88
470.681	417.88
470.901	403.88
471.12	374.88
471.339	374.88
471.558	389.88
471.777	386.88
471.997	383.88
472.216	393.88
472.435	394.88
472.654	425.88
472.873	406.88
473.092	381.88
473.311	376.88
473.53	393.88
473.749	387.88
473.968	433.88
474.187	509.88
474.406	521.88
474.625	430.88
474.844	404.88
475.063	382.88
475.282	386.88
475.501	384.88
475.72	389.88
475.939	384.88
476.158	392.88
476.377	391.88
476.596	391.88
476.814	391.88
477.033	392.88
477.252	413.88
477.471	418.88
477.69	410.88
477.908	416.88
478.127	413.88
478.346	400.88
478.564	441.88
478.783	413.88
479.002	433.88
479.22	425.88
479.439	448.88
479.658	476.88
479.876	470.88
480.095	458.88
480.313	469.88
480.532	449.88
480.751	455.88
480.969	496.88
481.188	502.88
481.406	542.88
481.624	510.88
481.843	463.88
482.061	457.88
482.28	458.88
482.498	445.88
482.717	451.88
482.935	445.88
483.153	453.88
483.372	441.88
483.59	440.88
483.808	415.88
484.027	451.88
484.245	433.88
484.463	470.88
484.681	461.88
484.9	450.88
485.118	470.88
485.336	470.88
485.554	457.88
485.772	458.88
485.99	462.88
486.209	463.88
486.427	464.88
486.645	468.88
486.863	502.88
487.081	498.88
487.299	480.88
487.517	459.88
487.735	472.88
487.953	485.88
488.171	460.88
488.389	475.88
488.607	507.88
488.825	458.88
489.043	496.88
489.261	487.88
489.479	488.88
489.696	505.88
489.914	499.88
490.132	502.88
490.35	511.88
490.568	509.88
490.786	513.88
491.003	550.88
491.221	547.88
491.439	540.88
491.657	546.88
491.874	558.88
492.092	582.88
492.31	569.88
492.527	517.88
492.745	572.88
492.963	576.88
493.18	563.88
493.398	563.88
493.615	562.88
493.833	567.88
494.05	563.88
494.268	561.88
494.485	557.88
494.703	554.88
494.92	563.88
495.138	573.88
495.355	571.88
495.573	583.88
495.79	576.88
496.008	602.88
496.225	585.88
496.442	565.88
496.66	553.88
496.877	567.88
497.094	581.88
497.312	574.88
497.529	573.88
497.746	588.88
497.963	592.88
498.181	610.88
498.398	596.88
498.615	608.88
498.832	630.88
499.049	637.88
499.267	635.88
499.484	667.88
499.701	670.88
499.918	712.88
500.135	719.88
500.352	752.88
500.569	747.88
500.786	742.88
501.003	737.88
501.22	725.88
501.437	700.88
501.654	703.88
501.871	698.88
502.088	683.88
502.305	643.88
502.522	621.88
502.739	608.88
502.956	609.88
503.172	575.88
503.389	571.88
503.606	623.88
503.823	601.88
504.04	569.88
504.256	554.88
504.473	576.88
504.69	568.88
504.907	578.88
505.123	557.88
505.34	550.88
505.557	520.88
505.773	538.88
505.99	561.88
506.207	538.88
506.423	533.88
506.64	512.88
506.856	523.88
507.073	535.88
507.289	518.88
507.506	524.88
507.722	583.88
507.939	570.88
508.155	543.88
508.372	537.88
508.588	529.88
508.805	496.88
509.021	531.88
509.238	523.88
509.454	527.88
509.67	564.88
509.887	515.88
510.103	523.88
510.319	560.88
510.536	630.88
510.752	1122.88
510.968	899.88
511.184	565.88
511.401	524.88
511.617	519.88
511.833	512.88
512.049	505.88
512.265	513.88
512.481	505.88
512.698	497.88
512.914	486.88
513.13	480.88
513.346	480.88
513.562	494.88
513.778	513.88
513.994	517.88
514.21	546.88
514.426	539.88
514.642	592.88
514.858	612.88
515.074	669.88
515.29	806.88
515.506	1269.88
515.721	1025.88
515.937	636.88
516.153	562.88
516.369	563.88
516.585	537.88
516.801	507.88
517.016	514.88
517.232	480.88
517.448	484.88
517.664	499.88
517.879	499.88
518.095	495.88
518.311	521.88
518.527	483.88
518.742	477.88
518.958	491.88
519.173	509.88
519.389	515.88
519.605	494.88
519.82	510.88
520.036	529.88
520.251	528.88
520.467	569.88
520.682	560.88
520.898	561.88
521.113	601.88
521.329	645.88
521.544	753.88
521.76	992.88
521.975	1701.88
522.19	1669.88
522.406	867.88
522.621	613.88
522.836	542.88
523.052	522.88
523.267	490.88
523.482	478.88
523.698	469.88
523.913	445.88
524.128	470.88
524.343	450.88
524.559	462.88
524.774	435.88
524.989	429.88
525.204	435.88
525.419	456.88
525.634	420.88
525.849	423.88
526.064	414.88
526.28	436.88
526.495	415.88
526.71	394.88
526.925	414.88
527.14	399.88
527.355	396.88
527.57	405.88
527.785	384.88
527.999	387.88
528.214	407.88
528.429	397.88
528.644	403.88
528.859	400.88
529.074	417.88
529.289	433.88
529.503	539.88
529.718	508.88
529.933	435.88
530.148	421.88
530.363	416.88
530.577	396.88
530.792	388.88
531.007	380.88
531.221	391.88
531.436	375.88
531.651	381.88
531.865	392.88
532.08	375.88
532.295	384.88
532.509	373.88
532.724	380.88
532.938	386.88
533.153	390.88
533.367	380.88
533.582	381.88
533.796	372.88
534.011	384.88
534.225	369.88
534.44	357.88
534.654	359.88
534.868	360.88
535.083	371.88
535.297	377.88
535.511	388.88
535.726	396.88
535.94	385.88
536.154	372.88
536.369	372.88
536.583	381.88
536.797	361.88
537.011	347.88
537.225	363.88
537.44	370.88
537.654	366.88
537.868	346.88
538.082	373.88
538.296	368.88
538.51	362.88
538.724	377.88
538.938	372.88
539.153	364.88
539.367	377.88
539.581	367.88
539.795	387.88
540.009	373.88
540.222	373.88
540.436	388.88
540.65	362.88
540.864	374.88
541.078	379.88
541.292	384.88
541.506	367.88
541.72	380.88
541.934	344.88
542.147	349.88
542.361	352.88
542.575	354.88
542.789	346.88
543.002	369.88
543.216	362.88
543.43	362.88
543.644	376.88
543.857	379.88
544.071	370.88
544.285	360.88
544.498	377.88
544.712	356.88
544.925	345.88
545.139	371.88
545.352	338.88
545.566	335.88
545.779	359.88
545.993	356.88
546.206	349.88
546.42	343.88
546.633	349.88
546.847	350.88
547.06	344.88
547.274	334.88
547.487	368.88
547.7	350.88
547.914	354.88
548.127	359.88
548.34	343.88
548.554	336.88
548.767	346.88
548.98	354.88
549.193	342.88
549.407	349.88
549.62	347.88
549.833	338.88
550.046	340.88
550.259	323.88
550.473	314.88
550.686	338.88
550.899	343.88
551.112	341.88
551.325	331.88
551.538	331.88
551.751	322.88
551.964	322.88
552.177	337.88
552.39	323.88
552.603	328.88
552.816	351.88
553.029	330.88
553.242	347.88
553.455	345.88
553.667	342.88
553.88	367.88
554.093	351.88
554.306	346.88
554.519	347.88
554.732	349.88
554.944	335.88
555.157	318.88
555.37	325.88
555.583	314.88
555.795	335.88
556.008	315.88
556.221	328.88
556.433	313.88
556.646	323.88
556.859	309.88
557.071	306.88
557.284	315.88
557.496	305.88
557.709	319.88
557.921	304.88
558.134	298.88
558.346	307.88
558.559	289.88
558.771	295.88
558.984	302.88
559.196	302.88
559.409	314.88
559.621	307.88
559.833	294.88
560.046	293.88
560.258	295.88
560.47	296.88
560.683	293.88
560.895	290.88
561.107	296.88
561.32	290.88
561.532	296.88
561.744	312.88
561.956	303.88
562.168	309.88
562.381	294.88
562.593	299.88
562.805	300.88
563.017	305.88
563.229	285.88
563.441	314.88
563.653	282.88
563.865	305.88
564.077	298.88
564.289	300.88
564.501	313.88
564.713	309.88
564.925	320.88
565.137	322.88
565.349	315.88
565.561	307.88
565.773	343.88
565.985	337.88
566.197	332.88
566.408	325.88
566.62	343.88
566.832	348.88
567.044	341.88
567.255	357.88
567.467	354.88
567.679	357.88
567.891	357.88
568.102	351.88
568.314	362.88
568.526	352.88
568.737	325.88
568.949	325.88
569.161	346.88
569.372	317.88
569.584	299.88
569.795	296.88
570.007	317.88
570.218	356.88
570.43	328.88
570.641	291.88
570.853	281.88
571.064	287.88
571.276	272.88
571.487	299.88
571.698	285.88
571.91	290.88
572.121	281.88
572.333	273.88
572.544	262.88
572.755	290.88
572.966	262.88
573.178	266.88
573.389	257.88
573.6	261.88
573.811	279.88
574.023	261.88
574.234	267.88
574.445	255.88
574.656	274.88
574.867	253.88
575.078	257.88
575.289	263.88
575.501	262.88
575.712	256.88
575.923	265.88
576.134	263.88
576.345	255.88
576.556	261.88
576.767	247.88
576.978	271.88
577.188	238.88
577.399	229.88
577.61	256.88
577.821	267.88
578.032	260.88
578.243	303.88
578.454	541.88
578.665	368.88
578.875	246.88
579.086	253.88
579.297	248.88
579.508	239.88
579.718	233.88
579.929	248.88
580.14	250.88
580.35	226.88
580.561	259.88
580.772	263.88
580.982	223.88
581.193	223.88
581.403	250.88
581.614	245.88
581.825	233.88
582.035	247.88
582.246	211.88
582.456	238.88
582.667	242.88
582.877	237.88
583.087	237.88
583.298	232.88
583.508	226.88
583.719	226.88
583.929	241.88
584.139	231.88
584.35	246.88
584.56	224.88
584.77	234.88
584.981	251.88
585.191	228.88
585.401	227.88
585.611	216.88
585.821	210.88
586.032	225.88
586.242	216.88
586.452	225.88
586.662	215.88
586.872	221.88
587.082	231.88
587.292	241.88
587.502	221.88
587.713	230.88
587.923	238.88
588.133	242.88
588.343	224.88
588.553	214.88
588.762	233.88
588.972	233.88
589.182	226.88
589.392	213.88
589.602	237.88
589.812	230.88
590.022	252.88
590.232	211.88
590.441	209.88
590.651	225.88
590.861	210.88
591.071	217.88
591.281	223.88
591.49	222.88
591.7	231.88
591.91	222.88
592.119	225.88
592.329	228.88
592.539	220.88
592.748	227.88
592.958	222.88
593.167	241.88
593.377	230.88
593.587	242.88
593.796	238.88
594.006	230.88
594.215	223.88
594.424	232.88
594.634	219.88
594.843	236.88
595.053	215.88
595.262	220.88
595.472	226.88
595.681	219.88
595.89	210.88
596.1	220.88
596.309	218.88
596.518	215.88
596.727	207.88
596.937	233.88
597.146	237.88
597.355	207.88
597.564	194.88
597.774	202.88
597.983	200.88
598.192	210.88
598.401	202.88
598.61	212.88
598.819	207.88
599.028	190.88
599.237	203.88
599.446	211.88
599.655	192.88
599.864	200.88
600.073	193.88
600.282	210.88
600.491	207.88
600.7	207.88
600.909	202.88
601.118	210.88
601.327	199.88
601.536	194.88
601.745	219.88
601.953	201.88
602.162	210.88
602.371	199.88
602.58	189.88
602.789	207.88
602.997	194.88
603.206	195.88
603.415	203.88
603.623	198.88
603.832	209.88
604.041	193.88
604.249	210.88
604.458	208.88
604.666	196.88
604.875	201.88
605.084	183.88
605.292	201.88
605.501	190.88
605.709	203.88
605.918	188.88
606.126	199.88
606.334	205.88
606.543	187.88
606.751	191.88
606.96	180.88
607.168	208.88
607.376	183.88
607.585	197.88
607.793	198.88
608.001	199.88
608.21	194.88
608.418	191.88
608.626	166.88
608.834	167.88
609.043	189.88
609.251	178.88
609.459	200.88
609.667	186.88
609.875	210.88
610.083	215.88
610.291	196.88
610.499	185.88
610.707	183.88
610.916	186.88
611.124	194.88
611.332	187.88
611.54	183.88
611.748	203.88
611.955	198.88
612.163	199.88
612.371	174.88
612.579	194.88
612.787	182.88
612.995	187.88
613.203	202.88
613.411	197.88
613.618	181.88
613.826	191.88
614.034	183.88
614.242	196.88
614.449	184.88
614.657	173.88
614.865	174.88
615.072	175.88
615.28	181.88
615.488	179.88
615.695	193.88
615.903	189.88
616.111	182.88
616.318	185.88
616.526	185.88
616.733	185.88
616.941	161.88
617.148	185.88
617.356	188.88
617.563	199.88
617.771	188.88
617.978	169.88
618.185	167.88
618.393	169.88
618.6	176.88
618.807	177.88
619.015	178.88
619.222	193.88
619.429	168.88
619.637	183.88
619.844	189.88
620.051	173.88
620.258	191.88
620.466	189.88
620.673	167.88
620.88	183.88
621.087	160.88
621.294	170.88
621.501	185.88
621.708	179.88
621.915	179.88
622.122	167.88
622.329	175.88
622.536	184.88
622.743	154.88
622.95	171.88
623.157	189.88
623.364	183.88
623.571	176.88
623.778	191.88
623.985	179.88
624.192	177.88
624.399	165.88
624.606	194.88
624.812	179.88
625.019	166.88
625.226	189.88
625.433	167.88
625.639	168.88
625.846	170.88
626.053	155.88
626.259	157.88
626.466	172.88
626.673	166.88
626.879	170.88
627.086	176.88
627.293	161.88
627.499	176.88
627.706	162.88
627.912	170.88
628.119	174.88
628.325	166.88
628.532	156.88
628.738	144.88
628.945	160.88
629.151	170.88
629.357	154.88
629.564	168.88
629.77	163.88
629.976	151.88
630.183	154.88
630.389	175.88
630.595	163.88
630.802	156.88
631.008	151.88
631.214	148.88
631.42	160.88
631.627	147.88
631.833	145.88
632.039	147.88
632.245	168.88
632.451	173.88
632.657	160.88
632.863	157.88
633.069	154.88
633.275	155.88
633.481	144.88
633.688	171.88
633.893	164.88
634.099	158.88
634.305	142.88
634.511	152.88
634.717	153.88
634.923	139.88
635.129	149.88
635.335	137.88
635.541	137.88
635.747	158.88
635.952	165.88
636.158	155.88
636.364	163.88
636.57	175.88
636.775	163.88
636.981	142.88
637.187	149.88
637.392	144.88
637.598	151.88
637.804	163.88
638.009	133.88
638.215	141.88
638.421	153.88
638.626	147.88
638.832	159.88
639.037	154.88
639.243	147.88
639.448	147.88
639.654	145.88
639.859	135.88
640.065	155.88
640.27	152.88
640.475	137.88
640.681	151.88
640.886	145.88
641.091	144.88
641.297	149.88
641.502	149.88
641.707	121.88
641.913	146.88
642.118	149.88
642.323	144.88
642.528	146.88
642.733	141.88
642.939	131.88
643.144	144.88
643.349	141.88
643.554	127.88
643.759	137.88
643.964	152.88
644.169	141.88
644.374	141.88
644.579	152.88
644.784	151.88
644.989	148.88
645.194	140.88
645.399	125.88
645.604	124.88
645.809	131.88
646.014	145.88
646.219	134.88
646.423	147.88
646.628	133.88
646.833	129.88
647.038	134.88
647.243	142.88
647.447	133.88
647.652	153.88
647.857	140.88
648.062	144.88
648.266	160.88
648.471	136.88
648.676	144.88
648.88	144.88
649.085	150.88
649.289	135.88
649.494	135.88
649.698	161.88
649.903	151.88
650.107	135.88
650.312	138.88
650.516	140.88
650.721	139.88
650.925	122.88
651.13	113.88
651.334	121.88
651.539	125.88
651.743	121.88
651.947	125.88
652.152	131.88
652.356	114.88
652.56	130.88
652.764	127.88
652.969	124.88
653.173	123.88
653.377	122.88
653.581	122.88
653.785	118.88
653.99	121.88
654.194	124.88
654.398	109.88
654.602	125.88
654.806	111.88
655.01	137.88
655.214	111.88
655.418	122.88
655.622	125.88
655.826	118.88
656.03	104.88
656.234	106.88
656.438	113.88
656.642	139.88
656.846	127.88
657.049	113.88
657.253	119.88
657.457	114.88
657.661	113.88
657.865	110.88
658.068	105.88
658.272	100.88
658.476	114.88
658.68	101.88
658.883	93.88
659.087	89.88
659.291	97.88
659.494	97.88
659.698	112.88
659.901	100.88
660.105	92.88
660.309	98.88
660.512	92.88
660.716	84.88
660.919	83.88
661.123	90.88
661.326	84.88
661.53	88.88
661.733	76.88
661.936	93.88
662.14	94.88
662.343	89.88
662.546	84.88
662.75	89.88
662.953	84.88
663.156	92.88
663.36	69.88
663.563	84.88
663.766	82.88
663.969	85.88
664.173	78.88
664.376	85.88
664.579	86.88
664.782	86.88
664.985	80.88
665.188	89.88
665.391	72.88
665.594	96.88
665.797	86.88
666	76.88
666.203	101.88
666.406	85.88
666.609	78.88
666.812	90.88
667.015	90.88
667.218	82.88
667.421	70.88
667.624	76.88
667.827	78.88
668.03	77.88
668.232	78.88
668.435	85.88
668.638	80.88
668.841	79.88
669.043	93.88
669.246	85.88
669.449	85.88
669.651	82.88
669.854	83.88
670.057	87.88
670.259	82.88
670.462	80.88
670.665	85.88
670.867	78.88
671.07	75.88
671.272	85.88
671.475	92.88
671.677	80.88
671.88	67.88
672.082	70.88
672.284	74.88
672.487	111.88
672.689	75.88
672.892	82.88
