Data from 1983.PennyLincolnUp.Lamp.En5.5.200Scan.071819.P1_HRD10591_16-52-11-964.txt Node
Date: Thu Jul 18 16:52:11 EDT 2019
User: cochatt
Spectrometer: HR+D1059
Trigger mode: 1
Integration Time (sec): 1.000000E-1
Scans to average: 1
Electric dark correction enabled: true
Nonlinearity correction enabled: false
Boxcar width: 0
XAxis mode: Wavelengths
Number of Pixels in Spectrum: 2048
>>>>>Begin Spectral Data<<<<<
223.165	-14.94
223.4	-14.94
223.635	-14.94
223.869	-22.94
224.104	-16.94
224.338	-8.94
224.573	-27.94
224.808	-9.94
225.042	-6.94
225.277	0.06
225.511	-9.94
225.746	8.06
225.98	7.06
226.215	4.06
226.449	22.06
226.683	18.06
226.918	35.06
227.152	24.06
227.387	39.06
227.621	40.06
227.856	56.06
228.09	60.06
228.324	55.06
228.559	59.06
228.793	53.06
229.027	85.06
229.262	86.06
229.496	81.06
229.73	108.06
229.964	115.06
230.199	106.06
230.433	100.06
230.667	95.06
230.901	88.06
231.136	93.06
231.37	109.06
231.604	101.06
231.838	86.06
232.072	108.06
232.306	96.06
232.541	115.06
232.775	88.06
233.009	104.06
233.243	110.06
233.477	109.06
233.711	106.06
233.945	104.06
234.179	115.06
234.413	119.06
234.647	92.06
234.881	93.06
235.115	97.06
235.349	115.06
235.583	103.06
235.817	108.06
236.051	111.06
236.285	120.06
236.519	94.06
236.753	98.06
236.987	115.06
237.221	133.06
237.455	162.06
237.689	126.06
237.922	124.06
238.156	112.06
238.39	98.06
238.624	102.06
238.858	102.06
239.091	106.06
239.325	103.06
239.559	91.06
239.793	102.06
240.027	100.06
240.26	95.06
240.494	131.06
240.728	120.06
240.961	114.06
241.195	123.06
241.429	120.06
241.662	101.06
241.896	118.06
242.13	124.06
242.363	116.06
242.597	105.06
242.83	119.06
243.064	117.06
243.298	114.06
243.531	111.06
243.765	111.06
243.998	108.06
244.232	121.06
244.465	118.06
244.699	124.06
244.932	118.06
245.166	128.06
245.399	131.06
245.633	108.06
245.866	118.06
246.099	114.06
246.333	127.06
246.566	127.06
246.8	139.06
247.033	121.06
247.266	129.06
247.5	131.06
247.733	135.06
247.966	150.06
248.2	155.06
248.433	135.06
248.666	153.06
248.899	150.06
249.133	156.06
249.366	166.06
249.599	142.06
249.832	141.06
250.066	147.06
250.299	152.06
250.532	139.06
250.765	170.06
250.998	174.06
251.231	178.06
251.465	175.06
251.698	164.06
251.931	166.06
252.164	154.06
252.397	159.06
252.63	161.06
252.863	158.06
253.096	158.06
253.329	172.06
253.562	162.06
253.795	168.06
254.028	172.06
254.261	176.06
254.494	169.06
254.727	192.06
254.96	196.06
255.193	202.06
255.426	183.06
255.659	186.06
255.892	167.06
256.124	154.06
256.357	166.06
256.59	170.06
256.823	179.06
257.056	174.06
257.289	165.06
257.521	171.06
257.754	151.06
257.987	161.06
258.22	174.06
258.452	159.06
258.685	168.06
258.918	182.06
259.151	172.06
259.383	184.06
259.616	171.06
259.849	176.06
260.081	185.06
260.314	205.06
260.547	196.06
260.779	183.06
261.012	174.06
261.244	178.06
261.477	165.06
261.71	173.06
261.942	162.06
262.175	164.06
262.407	179.06
262.64	190.06
262.872	147.06
263.105	171.06
263.337	169.06
263.57	163.06
263.802	174.06
264.035	182.06
264.267	182.06
264.499	167.06
264.732	182.06
264.964	151.06
265.197	159.06
265.429	163.06
265.661	180.06
265.894	170.06
266.126	179.06
266.358	188.06
266.591	176.06
266.823	159.06
267.055	190.06
267.287	191.06
267.52	182.06
267.752	181.06
267.984	179.06
268.216	200.06
268.448	182.06
268.681	198.06
268.913	187.06
269.145	197.06
269.377	193.06
269.609	197.06
269.841	199.06
270.073	203.06
270.306	207.06
270.538	246.06
270.77	224.06
271.002	213.06
271.234	213.06
271.466	210.06
271.698	234.06
271.93	230.06
272.162	217.06
272.394	228.06
272.626	216.06
272.858	196.06
273.09	210.06
273.322	203.06
273.553	207.06
273.785	207.06
274.017	192.06
274.249	193.06
274.481	202.06
274.713	203.06
274.945	199.06
275.176	186.06
275.408	211.06
275.64	206.06
275.872	196.06
276.104	207.06
276.335	202.06
276.567	203.06
276.799	204.06
277.031	215.06
277.262	247.06
277.494	222.06
277.726	233.06
277.957	222.06
278.189	219.06
278.421	190.06
278.652	213.06
278.884	195.06
279.115	186.06
279.347	206.06
279.579	218.06
279.81	205.06
280.042	189.06
280.273	222.06
280.505	216.06
280.736	203.06
280.968	212.06
281.199	203.06
281.431	199.06
281.662	210.06
281.894	221.06
282.125	207.06
282.356	223.06
282.588	225.06
282.819	221.06
283.051	225.06
283.282	218.06
283.513	206.06
283.745	208.06
283.976	197.06
284.207	226.06
284.439	227.06
284.67	210.06
284.901	205.06
285.132	215.06
285.364	216.06
285.595	212.06
285.826	215.06
286.057	230.06
286.288	204.06
286.52	205.06
286.751	198.06
286.982	200.06
287.213	210.06
287.444	219.06
287.675	218.06
287.906	236.06
288.138	229.06
288.369	232.06
288.6	232.06
288.831	216.06
289.062	215.06
289.293	226.06
289.524	210.06
289.755	223.06
289.986	236.06
290.217	223.06
290.448	230.06
290.679	188.06
290.91	220.06
291.141	228.06
291.371	236.06
291.602	219.06
291.833	221.06
292.064	233.06
292.295	217.06
292.526	222.06
292.757	230.06
292.987	219.06
293.218	223.06
293.449	204.06
293.68	218.06
293.91	219.06
294.141	215.06
294.372	216.06
294.603	222.06
294.833	229.06
295.064	224.06
295.295	229.06
295.525	221.06
295.756	232.06
295.987	237.06
296.217	235.06
296.448	226.06
296.679	212.06
296.909	239.06
297.14	236.06
297.37	231.06
297.601	245.06
297.831	244.06
298.062	223.06
298.292	233.06
298.523	236.06
298.753	239.06
298.984	241.06
299.214	230.06
299.445	241.06
299.675	242.06
299.905	239.06
300.136	238.06
300.366	235.06
300.597	227.06
300.827	244.06
301.057	242.06
301.288	242.06
301.518	228.06
301.748	251.06
301.979	231.06
302.209	229.06
302.439	263.06
302.669	237.06
302.9	266.06
303.13	242.06
303.36	243.06
303.59	239.06
303.82	245.06
304.051	246.06
304.281	247.06
304.511	245.06
304.741	239.06
304.971	239.06
305.201	242.06
305.431	239.06
305.661	238.06
305.891	248.06
306.121	243.06
306.352	269.06
306.582	245.06
306.812	252.06
307.042	262.06
307.272	257.06
307.502	249.06
307.731	244.06
307.961	246.06
308.191	241.06
308.421	251.06
308.651	245.06
308.881	266.06
309.111	246.06
309.341	260.06
309.571	271.06
309.8	271.06
310.03	277.06
310.26	281.06
310.49	278.06
310.72	282.06
310.949	291.06
311.179	296.06
311.409	248.06
311.639	263.06
311.868	277.06
312.098	267.06
312.328	294.06
312.557	292.06
312.787	284.06
313.017	282.06
313.246	284.06
313.476	282.06
313.706	280.06
313.935	273.06
314.165	288.06
314.394	276.06
314.624	279.06
314.853	287.06
315.083	280.06
315.312	272.06
315.542	278.06
315.771	292.06
316.001	291.06
316.23	277.06
316.46	294.06
316.689	290.06
316.919	286.06
317.148	288.06
317.377	265.06
317.607	282.06
317.836	293.06
318.065	277.06
318.295	271.06
318.524	264.06
318.753	281.06
318.983	291.06
319.212	276.06
319.441	281.06
319.67	286.06
319.9	292.06
320.129	295.06
320.358	287.06
320.587	271.06
320.816	267.06
321.046	294.06
321.275	285.06
321.504	285.06
321.733	284.06
321.962	276.06
322.191	297.06
322.42	293.06
322.649	305.06
322.878	297.06
323.108	314.06
323.337	337.06
323.566	329.06
323.795	374.06
324.024	372.06
324.253	444.06
324.482	573.06
324.71	844.06
324.939	1126.06
325.168	935.06
325.397	516.06
325.626	388.06
325.855	357.06
326.084	354.06
326.313	336.06
326.542	342.06
326.77	372.06
326.999	412.06
327.228	534.06
327.457	761.06
327.686	834.06
327.914	589.06
328.143	451.06
328.372	384.06
328.6	380.06
328.829	351.06
329.058	378.06
329.287	378.06
329.515	368.06
329.744	346.06
329.972	326.06
330.201	346.06
330.43	356.06
330.658	365.06
330.887	375.06
331.115	380.06
331.344	353.06
331.572	356.06
331.801	335.06
332.03	357.06
332.258	340.06
332.486	339.06
332.715	326.06
332.943	306.06
333.172	311.06
333.4	349.06
333.629	342.06
333.857	360.06
334.085	334.06
334.314	332.06
334.542	352.06
334.771	343.06
334.999	331.06
335.227	346.06
335.455	325.06
335.684	340.06
335.912	327.06
336.14	327.06
336.369	322.06
336.597	323.06
336.825	331.06
337.053	313.06
337.281	344.06
337.51	326.06
337.738	322.06
337.966	331.06
338.194	320.06
338.422	331.06
338.65	316.06
338.878	316.06
339.106	315.06
339.334	323.06
339.562	312.06
339.79	306.06
340.018	312.06
340.246	310.06
340.474	315.06
340.702	324.06
340.93	322.06
341.158	338.06
341.386	318.06
341.614	326.06
341.842	328.06
342.07	320.06
342.298	304.06
342.526	299.06
342.754	318.06
342.981	316.06
343.209	315.06
343.437	315.06
343.665	326.06
343.893	301.06
344.12	314.06
344.348	342.06
344.576	314.06
344.804	332.06
345.031	321.06
345.259	320.06
345.487	336.06
345.714	317.06
345.942	327.06
346.17	313.06
346.397	301.06
346.625	288.06
346.853	306.06
347.08	299.06
347.308	307.06
347.535	300.06
347.763	323.06
347.99	307.06
348.218	303.06
348.445	314.06
348.673	304.06
348.9	312.06
349.128	294.06
349.355	301.06
349.583	325.06
349.81	296.06
350.037	307.06
350.265	288.06
350.492	284.06
350.72	298.06
350.947	296.06
351.174	315.06
351.402	316.06
351.629	298.06
351.856	302.06
352.083	302.06
352.311	306.06
352.538	314.06
352.765	322.06
352.992	310.06
353.22	332.06
353.447	296.06
353.674	307.06
353.901	300.06
354.128	299.06
354.355	296.06
354.583	295.06
354.81	296.06
355.037	305.06
355.264	295.06
355.491	291.06
355.718	286.06
355.945	312.06
356.172	291.06
356.399	296.06
356.626	283.06
356.853	291.06
357.08	294.06
357.307	289.06
357.534	284.06
357.761	292.06
357.988	300.06
358.215	296.06
358.441	300.06
358.668	292.06
358.895	311.06
359.122	306.06
359.349	297.06
359.576	308.06
359.802	322.06
360.029	338.06
360.256	334.06
360.483	313.06
360.709	300.06
360.936	301.06
361.163	308.06
361.39	290.06
361.616	306.06
361.843	318.06
362.07	301.06
362.296	299.06
362.523	297.06
362.749	294.06
362.976	291.06
363.203	298.06
363.429	293.06
363.656	291.06
363.882	288.06
364.109	287.06
364.335	299.06
364.562	286.06
364.788	300.06
365.015	297.06
365.241	291.06
365.468	299.06
365.694	305.06
365.92	307.06
366.147	294.06
366.373	306.06
366.599	299.06
366.826	295.06
367.052	303.06
367.278	304.06
367.505	277.06
367.731	288.06
367.957	296.06
368.184	291.06
368.41	304.06
368.636	306.06
368.862	315.06
369.089	296.06
369.315	308.06
369.541	328.06
369.767	301.06
369.993	286.06
370.219	287.06
370.445	272.06
370.672	292.06
370.898	291.06
371.124	307.06
371.35	314.06
371.576	298.06
371.802	292.06
372.028	288.06
372.254	315.06
372.48	289.06
372.706	313.06
372.932	313.06
373.158	314.06
373.384	312.06
373.61	313.06
373.835	296.06
374.061	308.06
374.287	296.06
374.513	316.06
374.739	321.06
374.965	315.06
375.191	316.06
375.416	309.06
375.642	294.06
375.868	307.06
376.094	300.06
376.319	299.06
376.545	302.06
376.771	318.06
376.997	298.06
377.222	308.06
377.448	297.06
377.674	302.06
377.899	311.06
378.125	323.06
378.35	291.06
378.576	302.06
378.802	301.06
379.027	301.06
379.253	301.06
379.478	300.06
379.704	299.06
379.929	309.06
380.155	301.06
380.38	310.06
380.606	303.06
380.831	295.06
381.057	305.06
381.282	296.06
381.507	304.06
381.733	313.06
381.958	297.06
382.184	325.06
382.409	303.06
382.634	316.06
382.86	315.06
383.085	297.06
383.31	324.06
383.535	325.06
383.761	322.06
383.986	322.06
384.211	328.06
384.436	314.06
384.662	320.06
384.887	320.06
385.112	336.06
385.337	315.06
385.562	314.06
385.787	321.06
386.013	353.06
386.238	337.06
386.463	354.06
386.688	335.06
386.913	334.06
387.138	334.06
387.363	328.06
387.588	316.06
387.813	340.06
388.038	330.06
388.263	324.06
388.488	360.06
388.713	340.06
388.938	337.06
389.163	335.06
389.387	329.06
389.612	314.06
389.837	330.06
390.062	321.06
390.287	326.06
390.512	318.06
390.736	324.06
390.961	319.06
391.186	327.06
391.411	350.06
391.636	354.06
391.86	343.06
392.085	338.06
392.31	338.06
392.534	340.06
392.759	335.06
392.984	336.06
393.208	328.06
393.433	366.06
393.658	346.06
393.882	334.06
394.107	334.06
394.331	329.06
394.556	322.06
394.78	328.06
395.005	346.06
395.229	337.06
395.454	352.06
395.678	345.06
395.903	341.06
396.127	344.06
396.352	366.06
396.576	346.06
396.801	345.06
397.025	349.06
397.249	341.06
397.474	352.06
397.698	347.06
397.922	358.06
398.147	370.06
398.371	350.06
398.595	334.06
398.82	372.06
399.044	370.06
399.268	392.06
399.492	411.06
399.717	428.06
399.941	434.06
400.165	440.06
400.389	424.06
400.613	412.06
400.837	382.06
401.062	364.06
401.286	368.06
401.51	362.06
401.734	376.06
401.958	378.06
402.182	359.06
402.406	364.06
402.63	371.06
402.854	365.06
403.078	380.06
403.302	374.06
403.526	390.06
403.75	380.06
403.974	372.06
404.198	364.06
404.422	386.06
404.645	386.06
404.869	377.06
405.093	387.06
405.317	398.06
405.541	420.06
405.765	406.06
405.988	378.06
406.212	391.06
406.436	402.06
406.66	384.06
406.883	399.06
407.107	425.06
407.331	423.06
407.555	466.06
407.778	468.06
408.002	440.06
408.226	400.06
408.449	404.06
408.673	405.06
408.896	415.06
409.12	437.06
409.344	422.06
409.567	388.06
409.791	375.06
410.014	376.06
410.238	362.06
410.461	378.06
410.685	386.06
410.908	394.06
411.132	411.06
411.355	423.06
411.578	406.06
411.802	398.06
412.025	372.06
412.249	358.06
412.472	375.06
412.695	375.06
412.919	378.06
413.142	371.06
413.365	365.06
413.589	358.06
413.812	346.06
414.035	356.06
414.258	370.06
414.482	357.06
414.705	372.06
414.928	354.06
415.151	359.06
415.374	359.06
415.597	349.06
415.821	376.06
416.044	362.06
416.267	357.06
416.49	373.06
416.713	354.06
416.936	351.06
417.159	351.06
417.382	344.06
417.605	355.06
417.828	351.06
418.051	374.06
418.274	375.06
418.497	342.06
418.72	344.06
418.943	355.06
419.166	360.06
419.389	401.06
419.611	387.06
419.834	380.06
420.057	378.06
420.28	368.06
420.503	373.06
420.726	372.06
420.948	357.06
421.171	380.06
421.394	412.06
421.617	370.06
421.839	371.06
422.062	374.06
422.285	374.06
422.507	377.06
422.73	413.06
422.953	428.06
423.175	382.06
423.398	380.06
423.621	378.06
423.843	393.06
424.066	391.06
424.288	402.06
424.511	387.06
424.733	430.06
424.956	482.06
425.178	456.06
425.401	436.06
425.623	459.06
425.846	390.06
426.068	373.06
426.291	396.06
426.513	380.06
426.735	413.06
426.958	422.06
427.18	480.06
427.402	519.06
427.625	554.06
427.847	514.06
428.069	446.06
428.292	408.06
428.514	380.06
428.736	356.06
428.958	356.06
429.181	362.06
429.403	371.06
429.625	366.06
429.847	375.06
430.069	428.06
430.292	426.06
430.514	383.06
430.736	374.06
430.958	362.06
431.18	345.06
431.402	344.06
431.624	360.06
431.846	334.06
432.068	346.06
432.29	355.06
432.512	360.06
432.734	360.06
432.956	372.06
433.178	349.06
433.4	376.06
433.622	355.06
433.844	343.06
434.066	375.06
434.287	357.06
434.509	366.06
434.731	358.06
434.953	349.06
435.175	370.06
435.397	394.06
435.618	373.06
435.84	392.06
436.062	465.06
436.284	487.06
436.505	399.06
436.727	392.06
436.949	356.06
437.17	377.06
437.392	354.06
437.614	370.06
437.835	404.06
438.057	418.06
438.278	483.06
438.5	494.06
438.721	573.06
438.943	504.06
439.165	420.06
439.386	391.06
439.608	394.06
439.829	378.06
440.05	388.06
440.272	400.06
440.493	389.06
440.715	375.06
440.936	383.06
441.158	357.06
441.379	383.06
441.6	362.06
441.822	378.06
442.043	404.06
442.264	454.06
442.486	478.06
442.707	416.06
442.928	418.06
443.149	416.06
443.371	415.06
443.592	431.06
443.813	485.06
444.034	515.06
444.255	466.06
444.476	409.06
444.698	378.06
444.919	403.06
445.14	534.06
445.361	442.06
445.582	420.06
445.803	418.06
446.024	499.06
446.245	501.06
446.466	468.06
446.687	404.06
446.908	384.06
447.129	387.06
447.35	386.06
447.571	363.06
447.792	356.06
448.013	398.06
448.234	373.06
448.455	400.06
448.675	485.06
448.896	534.06
449.117	456.06
449.338	455.06
449.559	518.06
449.779	560.06
450	434.06
450.221	366.06
450.442	371.06
450.662	337.06
450.883	354.06
451.104	363.06
451.324	362.06
451.545	352.06
451.766	342.06
451.986	332.06
452.207	334.06
452.428	327.06
452.648	317.06
452.869	313.06
453.089	355.06
453.31	327.06
453.53	324.06
453.751	335.06
453.971	336.06
454.192	324.06
454.412	347.06
454.633	323.06
454.853	300.06
455.073	303.06
455.294	340.06
455.514	370.06
455.734	372.06
455.955	321.06
456.175	316.06
456.395	332.06
456.616	324.06
456.836	319.06
457.056	296.06
457.276	281.06
457.497	319.06
457.717	311.06
457.937	327.06
458.157	300.06
458.377	332.06
458.598	327.06
458.818	381.06
459.038	414.06
459.258	414.06
459.478	368.06
459.698	362.06
459.918	360.06
460.138	332.06
460.358	373.06
460.578	353.06
460.798	358.06
461.018	358.06
461.238	355.06
461.458	370.06
461.678	343.06
461.898	358.06
462.118	362.06
462.338	354.06
462.558	362.06
462.777	380.06
462.997	379.06
463.217	401.06
463.437	384.06
463.657	374.06
463.876	386.06
464.096	377.06
464.316	381.06
464.536	384.06
464.755	371.06
464.975	381.06
465.195	426.06
465.414	408.06
465.634	397.06
465.854	344.06
466.073	353.06
466.293	344.06
466.512	338.06
466.732	328.06
466.951	350.06
467.171	360.06
467.391	353.06
467.61	342.06
467.829	354.06
468.049	348.06
468.268	340.06
468.488	334.06
468.707	322.06
468.927	335.06
469.146	327.06
469.365	321.06
469.585	325.06
469.804	331.06
470.023	341.06
470.243	327.06
470.462	340.06
470.681	347.06
470.901	363.06
471.12	341.06
471.339	346.06
471.558	354.06
471.777	359.06
471.997	343.06
472.216	358.06
472.435	352.06
472.654	330.06
472.873	345.06
473.092	339.06
473.311	337.06
473.53	333.06
473.749	332.06
473.968	357.06
474.187	439.06
474.406	423.06
474.625	384.06
474.844	348.06
475.063	342.06
475.282	348.06
475.501	359.06
475.72	355.06
475.939	359.06
476.158	351.06
476.377	361.06
476.596	361.06
476.814	355.06
477.033	360.06
477.252	371.06
477.471	350.06
477.69	376.06
477.908	386.06
478.127	373.06
478.346	376.06
478.564	382.06
478.783	375.06
479.002	396.06
479.22	371.06
479.439	387.06
479.658	420.06
479.876	400.06
480.095	403.06
480.313	440.06
480.532	427.06
480.751	414.06
480.969	421.06
481.188	412.06
481.406	427.06
481.624	419.06
481.843	416.06
482.061	382.06
482.28	387.06
482.498	415.06
482.717	387.06
482.935	402.06
483.153	399.06
483.372	410.06
483.59	380.06
483.808	386.06
484.027	387.06
484.245	401.06
484.463	420.06
484.681	404.06
484.9	405.06
485.118	401.06
485.336	405.06
485.554	415.06
485.772	394.06
485.99	404.06
486.209	415.06
486.427	418.06
486.645	418.06
486.863	435.06
487.081	446.06
487.299	412.06
487.517	424.06
487.735	421.06
487.953	429.06
488.171	417.06
488.389	425.06
488.607	403.06
488.825	436.06
489.043	443.06
489.261	417.06
489.479	409.06
489.696	430.06
489.914	440.06
490.132	418.06
490.35	420.06
490.568	428.06
490.786	446.06
491.003	432.06
491.221	450.06
491.439	474.06
491.657	464.06
491.874	487.06
492.092	475.06
492.31	499.06
492.527	475.06
492.745	460.06
492.963	476.06
493.18	482.06
493.398	474.06
493.615	479.06
493.833	478.06
494.05	477.06
494.268	479.06
494.485	476.06
494.703	463.06
494.92	468.06
495.138	504.06
495.355	496.06
495.573	505.06
495.79	510.06
496.008	486.06
496.225	480.06
496.442	500.06
496.66	489.06
496.877	490.06
497.094	464.06
497.312	495.06
497.529	520.06
497.746	521.06
497.963	500.06
498.181	515.06
498.398	543.06
498.615	540.06
498.832	565.06
499.049	558.06
499.267	581.06
499.484	599.06
499.701	589.06
499.918	615.06
500.135	672.06
500.352	684.06
500.569	688.06
500.786	672.06
501.003	684.06
501.22	673.06
501.437	654.06
501.654	619.06
501.871	613.06
502.088	577.06
502.305	574.06
502.522	584.06
502.739	555.06
502.956	524.06
503.172	523.06
503.389	512.06
503.606	527.06
503.823	496.06
504.04	506.06
504.256	508.06
504.473	494.06
504.69	517.06
504.907	503.06
505.123	485.06
505.34	479.06
505.557	477.06
505.773	481.06
505.99	464.06
506.207	442.06
506.423	468.06
506.64	455.06
506.856	460.06
507.073	473.06
507.289	450.06
507.506	445.06
507.722	455.06
507.939	470.06
508.155	468.06
508.372	462.06
508.588	447.06
508.805	436.06
509.021	437.06
509.238	450.06
509.454	454.06
509.67	439.06
509.887	428.06
510.103	442.06
510.319	454.06
510.536	487.06
510.752	746.06
510.968	609.06
511.184	446.06
511.401	441.06
511.617	440.06
511.833	432.06
512.049	423.06
512.265	400.06
512.481	413.06
512.698	401.06
512.914	395.06
513.13	420.06
513.346	414.06
513.562	407.06
513.778	428.06
513.994	428.06
514.21	427.06
514.426	460.06
514.642	459.06
514.858	472.06
515.074	494.06
515.29	542.06
515.506	765.06
515.721	673.06
515.937	483.06
516.153	465.06
516.369	454.06
516.585	443.06
516.801	438.06
517.016	436.06
517.232	436.06
517.448	455.06
517.664	438.06
517.879	443.06
518.095	420.06
518.311	424.06
518.527	412.06
518.742	431.06
518.958	427.06
519.173	418.06
519.389	440.06
519.605	390.06
519.82	452.06
520.036	419.06
520.251	443.06
520.467	435.06
520.682	444.06
520.898	425.06
521.113	472.06
521.329	473.06
521.544	516.06
521.76	620.06
521.975	916.06
522.19	950.06
522.406	572.06
522.621	444.06
522.836	412.06
523.052	397.06
523.267	407.06
523.482	403.06
523.698	384.06
523.913	391.06
524.128	386.06
524.343	365.06
524.559	359.06
524.774	363.06
524.989	379.06
525.204	378.06
525.419	382.06
525.634	360.06
525.849	344.06
526.064	363.06
526.28	341.06
526.495	374.06
526.71	349.06
526.925	360.06
527.14	346.06
527.355	352.06
527.57	355.06
527.785	350.06
527.999	346.06
528.214	336.06
528.429	351.06
528.644	354.06
528.859	355.06
529.074	349.06
529.289	363.06
529.503	406.06
529.718	398.06
529.933	374.06
530.148	373.06
530.363	357.06
530.577	352.06
530.792	333.06
531.007	351.06
531.221	344.06
531.436	357.06
531.651	356.06
531.865	342.06
532.08	352.06
532.295	335.06
532.509	330.06
532.724	345.06
532.938	344.06
533.153	348.06
533.367	341.06
533.582	342.06
533.796	323.06
534.011	342.06
534.225	336.06
534.44	327.06
534.654	343.06
534.868	320.06
535.083	355.06
535.297	336.06
535.511	338.06
535.726	335.06
535.94	343.06
536.154	343.06
536.369	348.06
536.583	346.06
536.797	334.06
537.011	331.06
537.225	319.06
537.44	332.06
537.654	336.06
537.868	337.06
538.082	330.06
538.296	324.06
538.51	326.06
538.724	325.06
538.938	336.06
539.153	327.06
539.367	330.06
539.581	331.06
539.795	325.06
540.009	334.06
540.222	322.06
540.436	329.06
540.65	343.06
540.864	330.06
541.078	344.06
541.292	333.06
541.506	335.06
541.72	340.06
541.934	350.06
542.147	346.06
542.361	330.06
542.575	333.06
542.789	334.06
543.002	327.06
543.216	326.06
543.43	315.06
543.644	313.06
543.857	325.06
544.071	347.06
544.285	330.06
544.498	343.06
544.712	333.06
544.925	342.06
545.139	341.06
545.352	327.06
545.566	327.06
545.779	332.06
545.993	335.06
546.206	319.06
546.42	337.06
546.633	315.06
546.847	315.06
547.06	336.06
547.274	309.06
547.487	304.06
547.7	308.06
547.914	305.06
548.127	312.06
548.34	319.06
548.554	311.06
548.767	310.06
548.98	331.06
549.193	317.06
549.407	310.06
549.62	329.06
549.833	321.06
550.046	302.06
550.259	322.06
550.473	307.06
550.686	307.06
550.899	319.06
551.112	327.06
551.325	309.06
551.538	302.06
551.751	307.06
551.964	301.06
552.177	308.06
552.39	312.06
552.603	312.06
552.816	314.06
553.029	327.06
553.242	307.06
553.455	333.06
553.667	324.06
553.88	334.06
554.093	322.06
554.306	329.06
554.519	324.06
554.732	316.06
554.944	305.06
555.157	308.06
555.37	308.06
555.583	303.06
555.795	300.06
556.008	288.06
556.221	284.06
556.433	295.06
556.646	301.06
556.859	292.06
557.071	272.06
557.284	282.06
557.496	286.06
557.709	290.06
557.921	284.06
558.134	294.06
558.346	291.06
558.559	290.06
558.771	298.06
558.984	285.06
559.196	299.06
559.409	282.06
559.621	280.06
559.833	270.06
560.046	270.06
560.258	293.06
560.47	284.06
560.683	293.06
560.895	287.06
561.107	283.06
561.32	281.06
561.532	301.06
561.744	289.06
561.956	281.06
562.168	271.06
562.381	267.06
562.593	274.06
562.805	282.06
563.017	283.06
563.229	276.06
563.441	312.06
563.653	299.06
563.865	294.06
564.077	284.06
564.289	276.06
564.501	294.06
564.713	306.06
564.925	315.06
565.137	312.06
565.349	304.06
565.561	325.06
565.773	319.06
565.985	298.06
566.197	309.06
566.408	324.06
566.62	334.06
566.832	333.06
567.044	335.06
567.255	316.06
567.467	331.06
567.679	345.06
567.891	355.06
568.102	352.06
568.314	355.06
568.526	339.06
568.737	318.06
568.949	307.06
569.161	296.06
569.372	294.06
569.584	293.06
569.795	275.06
570.007	280.06
570.218	301.06
570.43	303.06
570.641	278.06
570.853	270.06
571.064	259.06
571.276	286.06
571.487	271.06
571.698	266.06
571.91	259.06
572.121	248.06
572.333	251.06
572.544	271.06
572.755	259.06
572.966	254.06
573.178	269.06
573.389	265.06
573.6	249.06
573.811	258.06
574.023	244.06
574.234	251.06
574.445	252.06
574.656	256.06
574.867	250.06
575.078	243.06
575.289	247.06
575.501	251.06
575.712	243.06
575.923	238.06
576.134	246.06
576.345	247.06
576.556	231.06
576.767	231.06
576.978	242.06
577.188	237.06
577.399	237.06
577.61	239.06
577.821	226.06
578.032	227.06
578.243	246.06
578.454	384.06
578.665	315.06
578.875	223.06
579.086	226.06
579.297	230.06
579.508	219.06
579.718	235.06
579.929	237.06
580.14	223.06
580.35	225.06
580.561	237.06
580.772	215.06
580.982	238.06
581.193	238.06
581.403	225.06
581.614	242.06
581.825	247.06
582.035	227.06
582.246	224.06
582.456	219.06
582.667	215.06
582.877	216.06
583.087	224.06
583.298	248.06
583.508	226.06
583.719	252.06
583.929	236.06
584.139	217.06
584.35	218.06
584.56	225.06
584.77	212.06
584.981	214.06
585.191	221.06
585.401	211.06
585.611	219.06
585.821	219.06
586.032	212.06
586.242	211.06
586.452	226.06
586.662	210.06
586.872	215.06
587.082	216.06
587.292	227.06
587.502	219.06
587.713	218.06
587.923	228.06
588.133	220.06
588.343	220.06
588.553	215.06
588.762	219.06
588.972	237.06
589.182	271.06
589.392	263.06
589.602	218.06
589.812	268.06
590.022	245.06
590.232	228.06
590.441	228.06
590.651	228.06
590.861	205.06
591.071	214.06
591.281	229.06
591.49	223.06
591.7	228.06
591.91	202.06
592.119	217.06
592.329	234.06
592.539	236.06
592.748	215.06
592.958	214.06
593.167	218.06
593.377	224.06
593.587	236.06
593.796	239.06
594.006	227.06
594.215	211.06
594.424	235.06
594.634	245.06
594.843	233.06
595.053	221.06
595.262	219.06
595.472	215.06
595.681	204.06
595.89	212.06
596.1	230.06
596.309	217.06
596.518	195.06
596.727	218.06
596.937	219.06
597.146	205.06
597.355	206.06
597.564	202.06
597.774	199.06
597.983	199.06
598.192	205.06
598.401	200.06
598.61	217.06
598.819	189.06
599.028	210.06
599.237	200.06
599.446	190.06
599.655	194.06
599.864	206.06
600.073	200.06
600.282	203.06
600.491	194.06
600.7	185.06
600.909	189.06
601.118	208.06
601.327	191.06
601.536	195.06
601.745	198.06
601.953	187.06
602.162	207.06
602.371	186.06
602.58	192.06
602.789	195.06
602.997	188.06
603.206	197.06
603.415	205.06
603.623	184.06
603.832	187.06
604.041	190.06
604.249	179.06
604.458	202.06
604.666	190.06
604.875	182.06
605.084	182.06
605.292	183.06
605.501	194.06
605.709	202.06
605.918	183.06
606.126	188.06
606.334	178.06
606.543	195.06
606.751	189.06
606.96	183.06
607.168	174.06
607.376	196.06
607.585	198.06
607.793	197.06
608.001	194.06
608.21	188.06
608.418	185.06
608.626	187.06
608.834	195.06
609.043	188.06
609.251	195.06
609.459	191.06
609.667	185.06
609.875	168.06
610.083	188.06
610.291	193.06
610.499	199.06
610.707	182.06
610.916	199.06
611.124	197.06
611.332	207.06
611.54	197.06
611.748	204.06
611.955	191.06
612.163	207.06
612.371	188.06
612.579	186.06
612.787	188.06
612.995	196.06
613.203	158.06
613.411	184.06
613.618	190.06
613.826	184.06
614.034	189.06
614.242	175.06
614.449	176.06
614.657	183.06
614.865	189.06
615.072	195.06
615.28	186.06
615.488	188.06
615.695	184.06
615.903	184.06
616.111	168.06
616.318	196.06
616.526	187.06
616.733	182.06
616.941	183.06
617.148	190.06
617.356	184.06
617.563	187.06
617.771	181.06
617.978	176.06
618.185	164.06
618.393	169.06
618.6	170.06
618.807	167.06
619.015	185.06
619.222	182.06
619.429	182.06
619.637	186.06
619.844	170.06
620.051	171.06
620.258	167.06
620.466	181.06
620.673	180.06
620.88	170.06
621.087	166.06
621.294	173.06
621.501	187.06
621.708	183.06
621.915	171.06
622.122	163.06
622.329	179.06
622.536	182.06
622.743	185.06
622.95	188.06
623.157	191.06
623.364	159.06
623.571	176.06
623.778	164.06
623.985	172.06
624.192	176.06
624.399	167.06
624.606	187.06
624.812	164.06
625.019	160.06
625.226	155.06
625.433	174.06
625.639	169.06
625.846	163.06
626.053	163.06
626.259	143.06
626.466	165.06
626.673	162.06
626.879	166.06
627.086	168.06
627.293	166.06
627.499	153.06
627.706	182.06
627.912	154.06
628.119	149.06
628.325	169.06
628.532	166.06
628.738	163.06
628.945	150.06
629.151	154.06
629.357	163.06
629.564	175.06
629.77	160.06
629.976	167.06
630.183	157.06
630.389	169.06
630.595	154.06
630.802	145.06
631.008	137.06
631.214	166.06
631.42	153.06
631.627	167.06
631.833	147.06
632.039	157.06
632.245	154.06
632.451	152.06
632.657	169.06
632.863	155.06
633.069	141.06
633.275	150.06
633.481	154.06
633.688	156.06
633.893	140.06
634.099	148.06
634.305	145.06
634.511	156.06
634.717	156.06
634.923	148.06
635.129	151.06
635.335	153.06
635.541	154.06
635.747	145.06
635.952	139.06
636.158	129.06
636.364	155.06
636.57	156.06
636.775	149.06
636.981	165.06
637.187	150.06
637.392	151.06
637.598	144.06
637.804	136.06
638.009	130.06
638.215	150.06
638.421	151.06
638.626	143.06
638.832	146.06
639.037	155.06
639.243	145.06
639.448	144.06
639.654	144.06
639.859	148.06
640.065	143.06
640.27	154.06
640.475	148.06
640.681	144.06
640.886	139.06
641.091	155.06
641.297	152.06
641.502	147.06
641.707	153.06
641.913	156.06
642.118	140.06
642.323	148.06
642.528	142.06
642.733	145.06
642.939	133.06
643.144	134.06
643.349	140.06
643.554	146.06
643.759	134.06
643.964	122.06
644.169	146.06
644.374	151.06
644.579	138.06
644.784	132.06
644.989	139.06
645.194	125.06
645.399	145.06
645.604	125.06
645.809	147.06
646.014	145.06
646.219	138.06
646.423	139.06
646.628	143.06
646.833	132.06
647.038	152.06
647.243	129.06
647.447	148.06
647.652	144.06
647.857	150.06
648.062	142.06
648.266	145.06
648.471	151.06
648.676	136.06
648.88	133.06
649.085	145.06
649.289	154.06
649.494	142.06
649.698	150.06
649.903	133.06
650.107	134.06
650.312	131.06
650.516	145.06
650.721	135.06
650.925	132.06
651.13	141.06
651.334	134.06
651.539	128.06
651.743	124.06
651.947	132.06
652.152	123.06
652.356	130.06
652.56	107.06
652.764	123.06
652.969	126.06
653.173	124.06
653.377	139.06
653.581	110.06
653.785	130.06
653.99	132.06
654.194	130.06
654.398	123.06
654.602	125.06
654.806	135.06
655.01	126.06
655.214	137.06
655.418	127.06
655.622	127.06
655.826	143.06
656.03	126.06
656.234	119.06
656.438	125.06
656.642	124.06
656.846	121.06
657.049	134.06
657.253	119.06
657.457	117.06
657.661	119.06
657.865	109.06
658.068	111.06
658.272	107.06
658.476	110.06
658.68	96.06
658.883	105.06
659.087	92.06
659.291	104.06
659.494	117.06
659.698	100.06
659.901	114.06
660.105	88.06
660.309	85.06
660.512	88.06
660.716	93.06
660.919	84.06
661.123	92.06
661.326	91.06
661.53	78.06
661.733	84.06
661.936	101.06
662.14	84.06
662.343	94.06
662.546	81.06
662.75	84.06
662.953	87.06
663.156	91.06
663.36	86.06
663.563	84.06
663.766	90.06
663.969	92.06
664.173	93.06
664.376	87.06
664.579	86.06
664.782	79.06
664.985	76.06
665.188	78.06
665.391	83.06
665.594	95.06
665.797	85.06
666	84.06
666.203	84.06
666.406	78.06
666.609	74.06
666.812	74.06
667.015	78.06
667.218	87.06
667.421	88.06
667.624	87.06
667.827	93.06
668.03	85.06
668.232	79.06
668.435	84.06
668.638	90.06
668.841	96.06
669.043	78.06
669.246	87.06
669.449	97.06
669.651	89.06
669.854	77.06
670.057	88.06
670.259	91.06
670.462	84.06
670.665	88.06
670.867	77.06
671.07	88.06
671.272	88.06
671.475	95.06
671.677	77.06
671.88	90.06
672.082	75.06
672.284	91.06
672.487	80.06
672.689	75.06
672.892	79.06
