Data from 1983.PennyLincolnUp.Lamp.En5.5.200Scan.071819.P1_HRD10591_16-55-25-967.txt Node
Date: Thu Jul 18 16:55:25 EDT 2019
User: cochatt
Spectrometer: HR+D1059
Trigger mode: 1
Integration Time (sec): 1.000000E-1
Scans to average: 1
Electric dark correction enabled: true
Nonlinearity correction enabled: false
Boxcar width: 0
XAxis mode: Wavelengths
Number of Pixels in Spectrum: 2048
>>>>>Begin Spectral Data<<<<<
223.165	-23.94
223.4	-23.94
223.635	-23.94
223.869	-10.94
224.104	-20.94
224.338	-15.94
224.573	-14.94
224.808	-6.94
225.042	-13.94
225.277	-4.94
225.511	-3.94
225.746	0.06
225.98	5.06
226.215	21.06
226.449	18.06
226.683	15.06
226.918	22.06
227.152	35.06
227.387	38.06
227.621	29.06
227.856	43.06
228.09	47.06
228.324	56.06
228.559	60.06
228.793	80.06
229.027	109.06
229.262	99.06
229.496	106.06
229.73	146.06
229.964	145.06
230.199	127.06
230.433	121.06
230.667	134.06
230.901	106.06
231.136	113.06
231.37	124.06
231.604	95.06
231.838	98.06
232.072	94.06
232.306	116.06
232.541	107.06
232.775	110.06
233.009	114.06
233.243	126.06
233.477	101.06
233.711	108.06
233.945	110.06
234.179	113.06
234.413	108.06
234.647	123.06
234.881	120.06
235.115	118.06
235.349	136.06
235.583	105.06
235.817	118.06
236.051	129.06
236.285	132.06
236.519	131.06
236.753	125.06
236.987	145.06
237.221	172.06
237.455	215.06
237.689	165.06
237.922	137.06
238.156	134.06
238.39	128.06
238.624	122.06
238.858	100.06
239.091	120.06
239.325	124.06
239.559	136.06
239.793	136.06
240.027	128.06
240.26	144.06
240.494	151.06
240.728	138.06
240.961	155.06
241.195	141.06
241.429	126.06
241.662	142.06
241.896	117.06
242.13	137.06
242.363	120.06
242.597	141.06
242.83	130.06
243.064	125.06
243.298	129.06
243.531	144.06
243.765	148.06
243.998	154.06
244.232	125.06
244.465	136.06
244.699	135.06
244.932	139.06
245.166	136.06
245.399	154.06
245.633	154.06
245.866	137.06
246.099	140.06
246.333	149.06
246.566	126.06
246.8	151.06
247.033	154.06
247.266	168.06
247.5	150.06
247.733	156.06
247.966	167.06
248.2	165.06
248.433	176.06
248.666	163.06
248.899	184.06
249.133	188.06
249.366	206.06
249.599	196.06
249.832	178.06
250.066	172.06
250.299	173.06
250.532	201.06
250.765	200.06
250.998	213.06
251.231	213.06
251.465	219.06
251.698	206.06
251.931	188.06
252.164	184.06
252.397	189.06
252.63	187.06
252.863	184.06
253.096	207.06
253.329	217.06
253.562	202.06
253.795	213.06
254.028	225.06
254.261	190.06
254.494	207.06
254.727	242.06
254.96	266.06
255.193	255.06
255.426	231.06
255.659	237.06
255.892	237.06
256.124	229.06
256.357	246.06
256.59	246.06
256.823	224.06
257.056	220.06
257.289	197.06
257.521	210.06
257.754	214.06
257.987	206.06
258.22	207.06
258.452	206.06
258.685	190.06
258.918	197.06
259.151	198.06
259.383	210.06
259.616	212.06
259.849	216.06
260.081	219.06
260.314	221.06
260.547	255.06
260.779	253.06
261.012	228.06
261.244	220.06
261.477	215.06
261.71	213.06
261.942	233.06
262.175	224.06
262.407	234.06
262.64	191.06
262.872	208.06
263.105	190.06
263.337	208.06
263.57	205.06
263.802	196.06
264.035	199.06
264.267	199.06
264.499	200.06
264.732	201.06
264.964	210.06
265.197	197.06
265.429	207.06
265.661	209.06
265.894	213.06
266.126	204.06
266.358	200.06
266.591	204.06
266.823	224.06
267.055	221.06
267.287	213.06
267.52	227.06
267.752	214.06
267.984	236.06
268.216	226.06
268.448	231.06
268.681	228.06
268.913	240.06
269.145	258.06
269.377	260.06
269.609	242.06
269.841	254.06
270.073	268.06
270.306	277.06
270.538	298.06
270.77	295.06
271.002	278.06
271.234	282.06
271.466	278.06
271.698	291.06
271.93	273.06
272.162	308.06
272.394	306.06
272.626	284.06
272.858	264.06
273.09	260.06
273.322	263.06
273.553	252.06
273.785	241.06
274.017	255.06
274.249	260.06
274.481	254.06
274.713	245.06
274.945	274.06
275.176	252.06
275.408	258.06
275.64	252.06
275.872	245.06
276.104	265.06
276.335	240.06
276.567	272.06
276.799	285.06
277.031	286.06
277.262	306.06
277.494	313.06
277.726	293.06
277.957	274.06
278.189	270.06
278.421	251.06
278.652	265.06
278.884	248.06
279.115	266.06
279.347	267.06
279.579	281.06
279.81	230.06
280.042	248.06
280.273	229.06
280.505	257.06
280.736	258.06
280.968	259.06
281.199	261.06
281.431	248.06
281.662	264.06
281.894	254.06
282.125	246.06
282.356	275.06
282.588	308.06
282.819	296.06
283.051	266.06
283.282	255.06
283.513	265.06
283.745	273.06
283.976	260.06
284.207	272.06
284.439	269.06
284.67	261.06
284.901	248.06
285.132	270.06
285.364	272.06
285.595	277.06
285.826	258.06
286.057	274.06
286.288	250.06
286.52	275.06
286.751	278.06
286.982	288.06
287.213	253.06
287.444	277.06
287.675	278.06
287.906	281.06
288.138	289.06
288.369	284.06
288.6	284.06
288.831	288.06
289.062	291.06
289.293	283.06
289.524	259.06
289.755	260.06
289.986	270.06
290.217	283.06
290.448	277.06
290.679	264.06
290.91	280.06
291.141	265.06
291.371	274.06
291.602	271.06
291.833	276.06
292.064	268.06
292.295	271.06
292.526	268.06
292.757	270.06
292.987	272.06
293.218	297.06
293.449	276.06
293.68	287.06
293.91	277.06
294.141	238.06
294.372	271.06
294.603	274.06
294.833	281.06
295.064	270.06
295.295	281.06
295.525	275.06
295.756	298.06
295.987	293.06
296.217	290.06
296.448	322.06
296.679	289.06
296.909	265.06
297.14	265.06
297.37	285.06
297.601	286.06
297.831	285.06
298.062	263.06
298.292	270.06
298.523	267.06
298.753	308.06
298.984	272.06
299.214	291.06
299.445	289.06
299.675	289.06
299.905	298.06
300.136	286.06
300.366	288.06
300.597	295.06
300.827	279.06
301.057	306.06
301.288	316.06
301.518	300.06
301.748	298.06
301.979	336.06
302.209	329.06
302.439	316.06
302.669	295.06
302.9	283.06
303.13	293.06
303.36	308.06
303.59	303.06
303.82	318.06
304.051	320.06
304.281	296.06
304.511	326.06
304.741	299.06
304.971	303.06
305.201	304.06
305.431	308.06
305.661	290.06
305.891	305.06
306.121	318.06
306.352	296.06
306.582	313.06
306.812	323.06
307.042	324.06
307.272	333.06
307.502	332.06
307.731	316.06
307.961	329.06
308.191	292.06
308.421	312.06
308.651	314.06
308.881	325.06
309.111	339.06
309.341	325.06
309.571	314.06
309.8	327.06
310.03	353.06
310.26	356.06
310.49	355.06
310.72	372.06
310.949	373.06
311.179	374.06
311.409	363.06
311.639	369.06
311.868	353.06
312.098	339.06
312.328	367.06
312.557	376.06
312.787	392.06
313.017	404.06
313.246	378.06
313.476	360.06
313.706	373.06
313.935	381.06
314.165	363.06
314.394	368.06
314.624	365.06
314.853	374.06
315.083	366.06
315.312	360.06
315.542	338.06
315.771	360.06
316.001	349.06
316.23	365.06
316.46	348.06
316.689	363.06
316.919	363.06
317.148	378.06
317.377	345.06
317.607	378.06
317.836	378.06
318.065	366.06
318.295	369.06
318.524	365.06
318.753	357.06
318.983	348.06
319.212	351.06
319.441	377.06
319.67	368.06
319.9	372.06
320.129	358.06
320.358	362.06
320.587	387.06
320.816	363.06
321.046	382.06
321.275	380.06
321.504	393.06
321.733	408.06
321.962	389.06
322.191	422.06
322.42	418.06
322.649	441.06
322.878	444.06
323.108	447.06
323.337	458.06
323.566	485.06
323.795	536.06
324.024	591.06
324.253	692.06
324.482	1014.06
324.71	1510.06
324.939	2050.06
325.168	1690.06
325.397	922.06
325.626	636.06
325.855	524.06
326.084	507.06
326.313	491.06
326.542	483.06
326.77	527.06
326.999	649.06
327.228	904.06
327.457	1312.06
327.686	1498.06
327.914	1009.06
328.143	688.06
328.372	652.06
328.6	584.06
328.829	582.06
329.058	579.06
329.287	580.06
329.515	536.06
329.744	540.06
329.972	545.06
330.201	575.06
330.43	600.06
330.658	629.06
330.887	616.06
331.115	582.06
331.344	489.06
331.572	481.06
331.801	482.06
332.03	469.06
332.258	454.06
332.486	432.06
332.715	444.06
332.943	444.06
333.172	421.06
333.4	457.06
333.629	455.06
333.857	470.06
334.085	497.06
334.314	528.06
334.542	596.06
334.771	617.06
334.999	524.06
335.227	476.06
335.455	442.06
335.684	433.06
335.912	425.06
336.14	423.06
336.369	407.06
336.597	424.06
336.825	428.06
337.053	393.06
337.281	415.06
337.51	398.06
337.738	406.06
337.966	410.06
338.194	427.06
338.422	392.06
338.65	416.06
338.878	395.06
339.106	383.06
339.334	403.06
339.562	411.06
339.79	403.06
340.018	399.06
340.246	405.06
340.474	396.06
340.702	410.06
340.93	393.06
341.158	397.06
341.386	405.06
341.614	400.06
341.842	398.06
342.07	409.06
342.298	363.06
342.526	402.06
342.754	390.06
342.981	360.06
343.209	379.06
343.437	380.06
343.665	386.06
343.893	420.06
344.12	373.06
344.348	401.06
344.576	405.06
344.804	420.06
345.031	421.06
345.259	437.06
345.487	408.06
345.714	389.06
345.942	412.06
346.17	377.06
346.397	375.06
346.625	400.06
346.853	392.06
347.08	407.06
347.308	383.06
347.535	381.06
347.763	392.06
347.99	404.06
348.218	384.06
348.445	402.06
348.673	401.06
348.9	396.06
349.128	391.06
349.355	377.06
349.583	375.06
349.81	374.06
350.037	375.06
350.265	370.06
350.492	369.06
350.72	380.06
350.947	362.06
351.174	400.06
351.402	396.06
351.629	374.06
351.856	402.06
352.083	393.06
352.311	402.06
352.538	422.06
352.765	390.06
352.992	393.06
353.22	401.06
353.447	392.06
353.674	364.06
353.901	354.06
354.128	362.06
354.355	365.06
354.583	364.06
354.81	369.06
355.037	370.06
355.264	370.06
355.491	348.06
355.718	354.06
355.945	348.06
356.172	346.06
356.399	348.06
356.626	344.06
356.853	354.06
357.08	358.06
357.307	348.06
357.534	358.06
357.761	352.06
357.988	366.06
358.215	360.06
358.441	352.06
358.668	342.06
358.895	360.06
359.122	364.06
359.349	401.06
359.576	397.06
359.802	421.06
360.029	450.06
360.256	432.06
360.483	433.06
360.709	373.06
360.936	376.06
361.163	395.06
361.39	389.06
361.616	389.06
361.843	361.06
362.07	380.06
362.296	386.06
362.523	392.06
362.749	376.06
362.976	381.06
363.203	377.06
363.429	376.06
363.656	375.06
363.882	383.06
364.109	392.06
364.335	357.06
364.562	360.06
364.788	361.06
365.015	382.06
365.241	386.06
365.468	374.06
365.694	365.06
365.92	371.06
366.147	372.06
366.373	375.06
366.599	369.06
366.826	376.06
367.052	364.06
367.278	361.06
367.505	378.06
367.731	360.06
367.957	379.06
368.184	384.06
368.41	369.06
368.636	377.06
368.862	381.06
369.089	358.06
369.315	349.06
369.541	362.06
369.767	368.06
369.993	381.06
370.219	374.06
370.445	362.06
370.672	362.06
370.898	350.06
371.124	361.06
371.35	366.06
371.576	356.06
371.802	356.06
372.028	365.06
372.254	350.06
372.48	362.06
372.706	359.06
372.932	358.06
373.158	365.06
373.384	353.06
373.61	367.06
373.835	374.06
374.061	346.06
374.287	374.06
374.513	360.06
374.739	360.06
374.965	361.06
375.191	378.06
375.416	369.06
375.642	360.06
375.868	378.06
376.094	382.06
376.319	349.06
376.545	372.06
376.771	374.06
376.997	358.06
377.222	361.06
377.448	351.06
377.674	351.06
377.899	346.06
378.125	349.06
378.35	347.06
378.576	351.06
378.802	362.06
379.027	351.06
379.253	352.06
379.478	342.06
379.704	359.06
379.929	351.06
380.155	352.06
380.38	350.06
380.606	353.06
380.831	336.06
381.057	356.06
381.282	359.06
381.507	368.06
381.733	366.06
381.958	371.06
382.184	365.06
382.409	358.06
382.634	353.06
382.86	347.06
383.085	349.06
383.31	368.06
383.535	379.06
383.761	365.06
383.986	364.06
384.211	360.06
384.436	372.06
384.662	360.06
384.887	382.06
385.112	365.06
385.337	382.06
385.562	379.06
385.787	365.06
386.013	382.06
386.238	405.06
386.463	377.06
386.688	392.06
386.913	370.06
387.138	365.06
387.363	390.06
387.588	375.06
387.813	392.06
388.038	378.06
388.263	406.06
388.488	385.06
388.713	382.06
388.938	379.06
389.163	377.06
389.387	394.06
389.612	368.06
389.837	379.06
390.062	374.06
390.287	381.06
390.512	356.06
390.736	353.06
390.961	381.06
391.186	374.06
391.411	399.06
391.636	394.06
391.86	366.06
392.085	386.06
392.31	385.06
392.534	378.06
392.759	393.06
392.984	371.06
393.208	384.06
393.433	392.06
393.658	390.06
393.882	368.06
394.107	368.06
394.331	406.06
394.556	388.06
394.78	372.06
395.005	382.06
395.229	386.06
395.454	384.06
395.678	402.06
395.903	396.06
396.127	410.06
396.352	404.06
396.576	401.06
396.801	383.06
397.025	406.06
397.249	408.06
397.474	404.06
397.698	415.06
397.922	410.06
398.147	424.06
398.371	406.06
398.595	428.06
398.82	409.06
399.044	431.06
399.268	441.06
399.492	467.06
399.717	502.06
399.941	513.06
400.165	516.06
400.389	505.06
400.613	483.06
400.837	421.06
401.062	441.06
401.286	431.06
401.51	432.06
401.734	407.06
401.958	420.06
402.182	438.06
402.406	437.06
402.63	441.06
402.854	440.06
403.078	441.06
403.302	454.06
403.526	460.06
403.75	453.06
403.974	455.06
404.198	415.06
404.422	467.06
404.645	462.06
404.869	468.06
405.093	495.06
405.317	521.06
405.541	568.06
405.765	502.06
405.988	477.06
406.212	485.06
406.436	503.06
406.66	521.06
406.883	500.06
407.107	504.06
407.331	538.06
407.555	582.06
407.778	566.06
408.002	526.06
408.226	491.06
408.449	453.06
408.673	508.06
408.896	493.06
409.12	519.06
409.344	523.06
409.567	441.06
409.791	445.06
410.014	454.06
410.238	439.06
410.461	445.06
410.685	450.06
410.908	457.06
411.132	485.06
411.355	502.06
411.578	506.06
411.802	448.06
412.025	448.06
412.249	473.06
412.472	494.06
412.695	542.06
412.919	503.06
413.142	490.06
413.365	440.06
413.589	474.06
413.812	440.06
414.035	438.06
414.258	418.06
414.482	416.06
414.705	425.06
414.928	416.06
415.151	442.06
415.374	429.06
415.597	398.06
415.821	426.06
416.044	442.06
416.267	417.06
416.49	438.06
416.713	428.06
416.936	429.06
417.159	411.06
417.382	404.06
417.605	433.06
417.828	425.06
418.051	471.06
418.274	441.06
418.497	424.06
418.72	422.06
418.943	420.06
419.166	426.06
419.389	440.06
419.611	451.06
419.834	452.06
420.057	477.06
420.28	452.06
420.503	458.06
420.726	458.06
420.948	458.06
421.171	490.06
421.394	495.06
421.617	465.06
421.839	438.06
422.062	442.06
422.285	470.06
422.507	505.06
422.73	533.06
422.953	532.06
423.175	480.06
423.398	452.06
423.621	454.06
423.843	466.06
424.066	468.06
424.288	478.06
424.511	510.06
424.733	520.06
424.956	584.06
425.178	549.06
425.401	583.06
425.623	580.06
425.846	509.06
426.068	477.06
426.291	472.06
426.513	468.06
426.735	472.06
426.958	514.06
427.18	606.06
427.402	702.06
427.625	764.06
427.847	662.06
428.069	587.06
428.292	521.06
428.514	480.06
428.736	470.06
428.958	448.06
429.181	443.06
429.403	443.06
429.625	440.06
429.847	477.06
430.069	516.06
430.292	498.06
430.514	459.06
430.736	448.06
430.958	451.06
431.18	424.06
431.402	428.06
431.624	425.06
431.846	398.06
432.068	409.06
432.29	402.06
432.512	440.06
432.734	427.06
432.956	440.06
433.178	421.06
433.4	441.06
433.622	444.06
433.844	430.06
434.066	429.06
434.287	402.06
434.509	429.06
434.731	424.06
434.953	428.06
435.175	449.06
435.397	477.06
435.618	462.06
435.84	518.06
436.062	579.06
436.284	614.06
436.505	524.06
436.727	477.06
436.949	460.06
437.17	444.06
437.392	451.06
437.614	450.06
437.835	481.06
438.057	564.06
438.278	623.06
438.5	630.06
438.721	690.06
438.943	658.06
439.165	538.06
439.386	490.06
439.608	481.06
439.829	493.06
440.05	525.06
440.272	527.06
440.493	506.06
440.715	503.06
440.936	446.06
441.158	447.06
441.379	453.06
441.6	462.06
441.822	477.06
442.043	484.06
442.264	583.06
442.486	624.06
442.707	530.06
442.928	489.06
443.149	503.06
443.371	510.06
443.592	538.06
443.813	626.06
444.034	639.06
444.255	564.06
444.476	492.06
444.698	456.06
444.919	489.06
445.14	596.06
445.361	537.06
445.582	508.06
445.803	580.06
446.024	668.06
446.245	658.06
446.466	603.06
446.687	504.06
446.908	467.06
447.129	465.06
447.35	439.06
447.571	408.06
447.792	438.06
448.013	447.06
448.234	458.06
448.455	504.06
448.675	592.06
448.896	653.06
449.117	584.06
449.338	557.06
449.559	640.06
449.779	711.06
450	559.06
450.221	480.06
450.442	458.06
450.662	454.06
450.883	442.06
451.104	454.06
451.324	460.06
451.545	440.06
451.766	411.06
451.986	412.06
452.207	408.06
452.428	395.06
452.648	395.06
452.869	396.06
453.089	419.06
453.31	404.06
453.53	440.06
453.751	396.06
453.971	406.06
454.192	426.06
454.412	420.06
454.633	393.06
454.853	391.06
455.073	395.06
455.294	422.06
455.514	485.06
455.734	465.06
455.955	408.06
456.175	380.06
456.395	362.06
456.616	375.06
456.836	367.06
457.056	348.06
457.276	375.06
457.497	378.06
457.717	364.06
457.937	386.06
458.157	380.06
458.377	402.06
458.598	421.06
458.818	478.06
459.038	543.06
459.258	549.06
459.478	462.06
459.698	430.06
459.918	421.06
460.138	422.06
460.358	411.06
460.578	406.06
460.798	423.06
461.018	400.06
461.238	407.06
461.458	432.06
461.678	428.06
461.898	416.06
462.118	412.06
462.338	421.06
462.558	422.06
462.777	450.06
462.997	476.06
463.217	419.06
463.437	442.06
463.657	428.06
463.876	433.06
464.096	448.06
464.316	456.06
464.536	435.06
464.755	438.06
464.975	440.06
465.195	501.06
465.414	554.06
465.634	503.06
465.854	422.06
466.073	428.06
466.293	429.06
466.512	403.06
466.732	427.06
466.951	407.06
467.171	403.06
467.391	404.06
467.61	421.06
467.829	441.06
468.049	437.06
468.268	422.06
468.488	432.06
468.707	410.06
468.927	411.06
469.146	413.06
469.365	416.06
469.585	394.06
469.804	414.06
470.023	407.06
470.243	414.06
470.462	433.06
470.681	438.06
470.901	431.06
471.12	428.06
471.339	424.06
471.558	405.06
471.777	436.06
471.997	423.06
472.216	445.06
472.435	490.06
472.654	474.06
472.873	442.06
473.092	437.06
473.311	430.06
473.53	415.06
473.749	414.06
473.968	467.06
474.187	549.06
474.406	545.06
474.625	479.06
474.844	437.06
475.063	414.06
475.282	426.06
475.501	423.06
475.72	432.06
475.939	423.06
476.158	400.06
476.377	420.06
476.596	412.06
476.814	439.06
477.033	444.06
477.252	448.06
477.471	447.06
477.69	429.06
477.908	434.06
478.127	453.06
478.346	429.06
478.564	454.06
478.783	450.06
479.002	470.06
479.22	459.06
479.439	488.06
479.658	500.06
479.876	492.06
480.095	526.06
480.313	503.06
480.532	519.06
480.751	515.06
480.969	534.06
481.188	668.06
481.406	728.06
481.624	565.06
481.843	542.06
482.061	522.06
482.28	528.06
482.498	514.06
482.717	501.06
482.935	491.06
483.153	492.06
483.372	500.06
483.59	493.06
483.808	488.06
484.027	481.06
484.245	486.06
484.463	528.06
484.681	496.06
484.9	509.06
485.118	496.06
485.336	497.06
485.554	492.06
485.772	504.06
485.99	478.06
486.209	520.06
486.427	515.06
486.645	520.06
486.863	536.06
487.081	530.06
487.299	531.06
487.517	518.06
487.735	520.06
487.953	520.06
488.171	539.06
488.389	525.06
488.607	534.06
488.825	508.06
489.043	525.06
489.261	565.06
489.479	535.06
489.696	559.06
489.914	548.06
490.132	562.06
490.35	568.06
490.568	563.06
490.786	545.06
491.003	571.06
491.221	584.06
491.439	587.06
491.657	586.06
491.874	601.06
492.092	611.06
492.31	628.06
492.527	649.06
492.745	638.06
492.963	615.06
493.18	618.06
493.398	651.06
493.615	656.06
493.833	637.06
494.05	623.06
494.268	621.06
494.485	631.06
494.703	633.06
494.92	629.06
495.138	622.06
495.355	610.06
495.573	631.06
495.79	618.06
496.008	640.06
496.225	618.06
496.442	641.06
496.66	637.06
496.877	626.06
497.094	616.06
497.312	606.06
497.529	648.06
497.746	657.06
497.963	641.06
498.181	680.06
498.398	664.06
498.615	687.06
498.832	672.06
499.049	690.06
499.267	693.06
499.484	698.06
499.701	719.06
499.918	758.06
500.135	767.06
500.352	787.06
500.569	816.06
500.786	817.06
501.003	805.06
501.22	791.06
501.437	776.06
501.654	771.06
501.871	752.06
502.088	740.06
502.305	715.06
502.522	691.06
502.739	659.06
502.956	634.06
503.172	635.06
503.389	619.06
503.606	634.06
503.823	616.06
504.04	633.06
504.256	606.06
504.473	600.06
504.69	597.06
504.907	597.06
505.123	588.06
505.34	602.06
505.557	571.06
505.773	583.06
505.99	599.06
506.207	607.06
506.423	579.06
506.64	585.06
506.856	560.06
507.073	557.06
507.289	574.06
507.506	577.06
507.722	591.06
507.939	614.06
508.155	596.06
508.372	568.06
508.588	573.06
508.805	550.06
509.021	572.06
509.238	586.06
509.454	576.06
509.67	591.06
509.887	562.06
510.103	538.06
510.319	571.06
510.536	667.06
510.752	1173.06
510.968	894.06
511.184	593.06
511.401	544.06
511.617	556.06
511.833	547.06
512.049	525.06
512.265	558.06
512.481	546.06
512.698	549.06
512.914	528.06
513.13	532.06
513.346	543.06
513.562	534.06
513.778	536.06
513.994	540.06
514.21	570.06
514.426	566.06
514.642	638.06
514.858	678.06
515.074	687.06
515.29	833.06
515.506	1292.06
515.721	985.06
515.937	674.06
516.153	610.06
516.369	593.06
516.585	552.06
516.801	545.06
517.016	544.06
517.232	542.06
517.448	535.06
517.664	546.06
517.879	558.06
518.095	536.06
518.311	537.06
518.527	536.06
518.742	548.06
518.958	526.06
519.173	526.06
519.389	539.06
519.605	526.06
519.82	534.06
520.036	538.06
520.251	572.06
520.467	598.06
520.682	595.06
520.898	611.06
521.113	622.06
521.329	645.06
521.544	791.06
521.76	1004.06
521.975	1744.06
522.19	1639.06
522.406	858.06
522.621	638.06
522.836	580.06
523.052	522.06
523.267	504.06
523.482	504.06
523.698	502.06
523.913	489.06
524.128	509.06
524.343	476.06
524.559	456.06
524.774	466.06
524.989	459.06
525.204	452.06
525.419	467.06
525.634	458.06
525.849	452.06
526.064	440.06
526.28	437.06
526.495	467.06
526.71	442.06
526.925	442.06
527.14	440.06
527.355	445.06
527.57	408.06
527.785	439.06
527.999	439.06
528.214	440.06
528.429	422.06
528.644	441.06
528.859	438.06
529.074	449.06
529.289	477.06
529.503	575.06
529.718	529.06
529.933	466.06
530.148	437.06
530.363	444.06
530.577	430.06
530.792	419.06
531.007	429.06
531.221	401.06
531.436	410.06
531.651	412.06
531.865	410.06
532.08	418.06
532.295	418.06
532.509	402.06
532.724	406.06
532.938	394.06
533.153	412.06
533.367	412.06
533.582	410.06
533.796	396.06
534.011	396.06
534.225	403.06
534.44	376.06
534.654	408.06
534.868	397.06
535.083	385.06
535.297	419.06
535.511	401.06
535.726	406.06
535.94	416.06
536.154	415.06
536.369	403.06
536.583	405.06
536.797	407.06
537.011	394.06
537.225	412.06
537.44	409.06
537.654	400.06
537.868	406.06
538.082	393.06
538.296	420.06
538.51	396.06
538.724	402.06
538.938	396.06
539.153	381.06
539.367	408.06
539.581	410.06
539.795	412.06
540.009	379.06
540.222	392.06
540.436	370.06
540.65	394.06
540.864	411.06
541.078	400.06
541.292	386.06
541.506	410.06
541.72	382.06
541.934	392.06
542.147	385.06
542.361	385.06
542.575	376.06
542.789	400.06
543.002	394.06
543.216	406.06
543.43	410.06
543.644	394.06
543.857	415.06
544.071	395.06
544.285	380.06
544.498	389.06
544.712	388.06
544.925	386.06
545.139	394.06
545.352	385.06
545.566	377.06
545.779	389.06
545.993	385.06
546.206	380.06
546.42	367.06
546.633	384.06
546.847	381.06
547.06	369.06
547.274	361.06
547.487	369.06
547.7	382.06
547.914	365.06
548.127	369.06
548.34	363.06
548.554	359.06
548.767	372.06
548.98	372.06
549.193	376.06
549.407	347.06
549.62	373.06
549.833	370.06
550.046	352.06
550.259	372.06
550.473	361.06
550.686	377.06
550.899	363.06
551.112	359.06
551.325	373.06
551.538	358.06
551.751	350.06
551.964	365.06
552.177	361.06
552.39	352.06
552.603	364.06
552.816	379.06
553.029	390.06
553.242	361.06
553.455	370.06
553.667	377.06
553.88	373.06
554.093	397.06
554.306	382.06
554.519	368.06
554.732	363.06
554.944	354.06
555.157	335.06
555.37	341.06
555.583	353.06
555.795	350.06
556.008	345.06
556.221	353.06
556.433	338.06
556.646	346.06
556.859	354.06
557.071	330.06
557.284	340.06
557.496	319.06
557.709	329.06
557.921	343.06
558.134	324.06
558.346	328.06
558.559	337.06
558.771	334.06
558.984	331.06
559.196	333.06
559.409	332.06
559.621	328.06
559.833	332.06
560.046	321.06
560.258	335.06
560.47	337.06
560.683	327.06
560.895	320.06
561.107	321.06
561.32	324.06
561.532	328.06
561.744	328.06
561.956	336.06
562.168	342.06
562.381	319.06
562.593	322.06
562.805	322.06
563.017	327.06
563.229	346.06
563.441	334.06
563.653	328.06
563.865	332.06
564.077	323.06
564.289	324.06
564.501	320.06
564.713	336.06
564.925	335.06
565.137	332.06
565.349	342.06
565.561	337.06
565.773	342.06
565.985	346.06
566.197	351.06
566.408	354.06
566.62	382.06
566.832	391.06
567.044	380.06
567.255	378.06
567.467	384.06
567.679	405.06
567.891	392.06
568.102	379.06
568.314	389.06
568.526	378.06
568.737	353.06
568.949	370.06
569.161	336.06
569.372	317.06
569.584	338.06
569.795	318.06
570.007	322.06
570.218	367.06
570.43	367.06
570.641	328.06
570.853	319.06
571.064	314.06
571.276	320.06
571.487	310.06
571.698	288.06
571.91	300.06
572.121	303.06
572.333	293.06
572.544	294.06
572.755	296.06
572.966	286.06
573.178	280.06
573.389	292.06
573.6	273.06
573.811	289.06
574.023	273.06
574.234	288.06
574.445	272.06
574.656	276.06
574.867	280.06
575.078	277.06
575.289	266.06
575.501	271.06
575.712	281.06
575.923	273.06
576.134	273.06
576.345	275.06
576.556	268.06
576.767	258.06
576.978	300.06
577.188	280.06
577.399	297.06
577.61	268.06
577.821	269.06
578.032	273.06
578.243	320.06
578.454	524.06
578.665	386.06
578.875	294.06
579.086	263.06
579.297	277.06
579.508	256.06
579.718	258.06
579.929	274.06
580.14	267.06
580.35	269.06
580.561	270.06
580.772	264.06
580.982	274.06
581.193	245.06
581.403	243.06
581.614	266.06
581.825	255.06
582.035	248.06
582.246	254.06
582.456	230.06
582.667	248.06
582.877	271.06
583.087	250.06
583.298	248.06
583.508	245.06
583.719	250.06
583.929	262.06
584.139	238.06
584.35	253.06
584.56	257.06
584.77	251.06
584.981	250.06
585.191	270.06
585.401	263.06
585.611	247.06
585.821	248.06
586.032	253.06
586.242	234.06
586.452	243.06
586.662	240.06
586.872	250.06
587.082	256.06
587.292	250.06
587.502	244.06
587.713	242.06
587.923	248.06
588.133	232.06
588.343	253.06
588.553	234.06
588.762	242.06
588.972	246.06
589.182	247.06
589.392	236.06
589.602	268.06
589.812	248.06
590.022	248.06
590.232	236.06
590.441	254.06
590.651	237.06
590.861	250.06
591.071	246.06
591.281	254.06
591.49	245.06
591.7	245.06
591.91	240.06
592.119	254.06
592.329	253.06
592.539	263.06
592.748	264.06
592.958	243.06
593.167	256.06
593.377	252.06
593.587	265.06
593.796	255.06
594.006	241.06
594.215	251.06
594.424	263.06
594.634	256.06
594.843	250.06
595.053	248.06
595.262	241.06
595.472	242.06
595.681	217.06
595.89	241.06
596.1	243.06
596.309	218.06
596.518	232.06
596.727	240.06
596.937	240.06
597.146	241.06
597.355	228.06
597.564	227.06
597.774	220.06
597.983	220.06
598.192	230.06
598.401	248.06
598.61	226.06
598.819	228.06
599.028	216.06
599.237	224.06
599.446	234.06
599.655	234.06
599.864	221.06
600.073	221.06
600.282	233.06
600.491	226.06
600.7	205.06
600.909	206.06
601.118	220.06
601.327	209.06
601.536	217.06
601.745	224.06
601.953	218.06
602.162	200.06
602.371	217.06
602.58	217.06
602.789	200.06
602.997	228.06
603.206	215.06
603.415	208.06
603.623	203.06
603.832	217.06
604.041	218.06
604.249	212.06
604.458	206.06
604.666	213.06
604.875	188.06
605.084	199.06
605.292	223.06
605.501	186.06
605.709	217.06
605.918	216.06
606.126	206.06
606.334	207.06
606.543	214.06
606.751	209.06
606.96	209.06
607.168	204.06
607.376	210.06
607.585	205.06
607.793	210.06
608.001	213.06
608.21	219.06
608.418	210.06
608.626	224.06
608.834	207.06
609.043	198.06
609.251	203.06
609.459	199.06
609.667	203.06
609.875	209.06
610.083	219.06
610.291	210.06
610.499	214.06
610.707	197.06
610.916	216.06
611.124	206.06
611.332	208.06
611.54	209.06
611.748	205.06
611.955	212.06
612.163	200.06
612.371	196.06
612.579	224.06
612.787	202.06
612.995	207.06
613.203	203.06
613.411	212.06
613.618	213.06
613.826	199.06
614.034	207.06
614.242	196.06
614.449	192.06
614.657	199.06
614.865	197.06
615.072	197.06
615.28	209.06
615.488	200.06
615.695	192.06
615.903	200.06
616.111	186.06
616.318	200.06
616.526	182.06
616.733	204.06
616.941	187.06
617.148	210.06
617.356	191.06
617.563	190.06
617.771	198.06
617.978	209.06
618.185	212.06
618.393	198.06
618.6	190.06
618.807	198.06
619.015	217.06
619.222	184.06
619.429	190.06
619.637	189.06
619.844	189.06
620.051	213.06
620.258	177.06
620.466	185.06
620.673	188.06
620.88	176.06
621.087	184.06
621.294	191.06
621.501	175.06
621.708	179.06
621.915	190.06
622.122	176.06
622.329	206.06
622.536	189.06
622.743	200.06
622.95	202.06
623.157	192.06
623.364	191.06
623.571	206.06
623.778	193.06
623.985	189.06
624.192	177.06
624.399	195.06
624.606	183.06
624.812	194.06
625.019	177.06
625.226	177.06
625.433	183.06
625.639	180.06
625.846	189.06
626.053	163.06
626.259	172.06
626.466	173.06
626.673	156.06
626.879	186.06
627.086	198.06
627.293	183.06
627.499	184.06
627.706	180.06
627.912	185.06
628.119	191.06
628.325	187.06
628.532	182.06
628.738	175.06
628.945	190.06
629.151	196.06
629.357	188.06
629.564	169.06
629.77	166.06
629.976	165.06
630.183	149.06
630.389	163.06
630.595	182.06
630.802	167.06
631.008	162.06
631.214	186.06
631.42	167.06
631.627	170.06
631.833	162.06
632.039	168.06
632.245	161.06
632.451	158.06
632.657	169.06
632.863	165.06
633.069	178.06
633.275	158.06
633.481	164.06
633.688	165.06
633.893	164.06
634.099	164.06
634.305	168.06
634.511	176.06
634.717	165.06
634.923	163.06
635.129	162.06
635.335	151.06
635.541	159.06
635.747	147.06
635.952	184.06
636.158	157.06
636.364	158.06
636.57	184.06
636.775	184.06
636.981	169.06
637.187	168.06
637.392	162.06
637.598	183.06
637.804	166.06
638.009	158.06
638.215	147.06
638.421	168.06
638.626	154.06
638.832	146.06
639.037	166.06
639.243	157.06
639.448	168.06
639.654	157.06
639.859	167.06
640.065	160.06
640.27	157.06
640.475	150.06
640.681	138.06
640.886	164.06
641.091	170.06
641.297	160.06
641.502	172.06
641.707	161.06
641.913	142.06
642.118	174.06
642.323	146.06
642.528	161.06
642.733	158.06
642.939	141.06
643.144	145.06
643.349	142.06
643.554	151.06
643.759	135.06
643.964	139.06
644.169	150.06
644.374	148.06
644.579	152.06
644.784	165.06
644.989	152.06
645.194	146.06
645.399	168.06
645.604	160.06
645.809	149.06
646.014	139.06
646.219	159.06
646.423	146.06
646.628	147.06
646.833	166.06
647.038	154.06
647.243	159.06
647.447	146.06
647.652	156.06
647.857	140.06
648.062	153.06
648.266	166.06
648.471	164.06
648.676	144.06
648.88	147.06
649.085	157.06
649.289	160.06
649.494	149.06
649.698	175.06
649.903	156.06
650.107	161.06
650.312	142.06
650.516	148.06
650.721	151.06
650.925	165.06
651.13	155.06
651.334	142.06
651.539	132.06
651.743	130.06
651.947	147.06
652.152	136.06
652.356	144.06
652.56	142.06
652.764	125.06
652.969	122.06
653.173	137.06
653.377	123.06
653.581	129.06
653.785	130.06
653.99	133.06
654.194	130.06
654.398	124.06
654.602	132.06
654.806	124.06
655.01	136.06
655.214	138.06
655.418	135.06
655.622	130.06
655.826	118.06
656.03	135.06
656.234	138.06
656.438	131.06
656.642	152.06
656.846	124.06
657.049	122.06
657.253	128.06
657.457	120.06
657.661	126.06
657.865	116.06
658.068	100.06
658.272	105.06
658.476	115.06
658.68	108.06
658.883	120.06
659.087	99.06
659.291	95.06
659.494	110.06
659.698	101.06
659.901	83.06
660.105	107.06
660.309	115.06
660.512	83.06
660.716	108.06
660.919	93.06
661.123	115.06
661.326	102.06
661.53	92.06
661.733	88.06
661.936	96.06
662.14	99.06
662.343	99.06
662.546	86.06
662.75	109.06
662.953	94.06
663.156	96.06
663.36	90.06
663.563	93.06
663.766	87.06
663.969	88.06
664.173	96.06
664.376	94.06
664.579	91.06
664.782	101.06
664.985	82.06
665.188	88.06
665.391	76.06
665.594	86.06
665.797	85.06
666	81.06
666.203	81.06
666.406	92.06
666.609	92.06
666.812	92.06
667.015	93.06
667.218	97.06
667.421	96.06
667.624	94.06
667.827	84.06
668.03	70.06
668.232	90.06
668.435	94.06
668.638	90.06
668.841	93.06
669.043	82.06
669.246	95.06
669.449	81.06
669.651	92.06
669.854	76.06
670.057	84.06
670.259	89.06
670.462	82.06
670.665	102.06
670.867	87.06
671.07	88.06
671.272	84.06
671.475	89.06
671.677	93.06
671.88	92.06
672.082	93.06
672.284	93.06
672.487	90.06
672.689	82.06
672.892	87.06
