Data from 1983.PennyLincolnUp.Lamp.En5.5.200Scan.071819.P1_HRD10591_16-54-21-965.txt Node
Date: Thu Jul 18 16:54:21 EDT 2019
User: cochatt
Spectrometer: HR+D1059
Trigger mode: 1
Integration Time (sec): 1.000000E-1
Scans to average: 1
Electric dark correction enabled: true
Nonlinearity correction enabled: false
Boxcar width: 0
XAxis mode: Wavelengths
Number of Pixels in Spectrum: 2048
>>>>>Begin Spectral Data<<<<<
223.165	-25.12
223.4	-25.12
223.635	-25.12
223.869	-15.12
224.104	-13.12
224.338	-9.12
224.573	-9.12
224.808	-16.12
225.042	-8.12
225.277	-14.12
225.511	-6.12
225.746	-0.12
225.98	8.88
226.215	5.88
226.449	26.88
226.683	20.88
226.918	25.88
227.152	27.88
227.387	40.88
227.621	37.88
227.856	42.88
228.09	46.88
228.324	42.88
228.559	52.88
228.793	60.88
229.027	91.88
229.262	99.88
229.496	106.88
229.73	114.88
229.964	141.88
230.199	124.88
230.433	129.88
230.667	106.88
230.901	93.88
231.136	113.88
231.37	92.88
231.604	115.88
231.838	108.88
232.072	99.88
232.306	105.88
232.541	90.88
232.775	123.88
233.009	113.88
233.243	99.88
233.477	112.88
233.711	101.88
233.945	99.88
234.179	101.88
234.413	113.88
234.647	118.88
234.881	123.88
235.115	125.88
235.349	117.88
235.583	104.88
235.817	122.88
236.051	131.88
236.285	125.88
236.519	113.88
236.753	135.88
236.987	142.88
237.221	168.88
237.455	209.88
237.689	177.88
237.922	133.88
238.156	135.88
238.39	116.88
238.624	114.88
238.858	116.88
239.091	109.88
239.325	130.88
239.559	122.88
239.793	106.88
240.027	122.88
240.26	116.88
240.494	149.88
240.728	143.88
240.961	139.88
241.195	132.88
241.429	136.88
241.662	134.88
241.896	117.88
242.13	125.88
242.363	126.88
242.597	134.88
242.83	127.88
243.064	125.88
243.298	125.88
243.531	147.88
243.765	114.88
243.998	138.88
244.232	127.88
244.465	142.88
244.699	136.88
244.932	142.88
245.166	142.88
245.399	155.88
245.633	134.88
245.866	146.88
246.099	143.88
246.333	120.88
246.566	132.88
246.8	135.88
247.033	156.88
247.266	148.88
247.5	146.88
247.733	140.88
247.966	158.88
248.2	162.88
248.433	176.88
248.666	171.88
248.899	154.88
249.133	188.88
249.366	187.88
249.599	181.88
249.832	170.88
250.066	156.88
250.299	164.88
250.532	191.88
250.765	192.88
250.998	200.88
251.231	207.88
251.465	184.88
251.698	188.88
251.931	175.88
252.164	166.88
252.397	180.88
252.63	205.88
252.863	192.88
253.096	183.88
253.329	198.88
253.562	213.88
253.795	186.88
254.028	208.88
254.261	198.88
254.494	208.88
254.727	232.88
254.96	236.88
255.193	245.88
255.426	238.88
255.659	195.88
255.892	228.88
256.124	205.88
256.357	182.88
256.59	197.88
256.823	194.88
257.056	206.88
257.289	182.88
257.521	213.88
257.754	181.88
257.987	185.88
258.22	187.88
258.452	192.88
258.685	190.88
258.918	203.88
259.151	199.88
259.383	194.88
259.616	199.88
259.849	216.88
260.081	217.88
260.314	229.88
260.547	237.88
260.779	210.88
261.012	217.88
261.244	210.88
261.477	204.88
261.71	189.88
261.942	209.88
262.175	231.88
262.407	221.88
262.64	198.88
262.872	193.88
263.105	186.88
263.337	199.88
263.57	184.88
263.802	194.88
264.035	188.88
264.267	207.88
264.499	203.88
264.732	203.88
264.964	211.88
265.197	178.88
265.429	194.88
265.661	186.88
265.894	188.88
266.126	205.88
266.358	206.88
266.591	208.88
266.823	210.88
267.055	202.88
267.287	217.88
267.52	211.88
267.752	217.88
267.984	198.88
268.216	202.88
268.448	232.88
268.681	209.88
268.913	231.88
269.145	230.88
269.377	263.88
269.609	232.88
269.841	240.88
270.073	248.88
270.306	273.88
270.538	280.88
270.77	285.88
271.002	274.88
271.234	248.88
271.466	273.88
271.698	289.88
271.93	304.88
272.162	286.88
272.394	279.88
272.626	270.88
272.858	243.88
273.09	264.88
273.322	254.88
273.553	252.88
273.785	250.88
274.017	235.88
274.249	230.88
274.481	240.88
274.713	243.88
274.945	251.88
275.176	257.88
275.408	242.88
275.64	235.88
275.872	250.88
276.104	244.88
276.335	234.88
276.567	248.88
276.799	263.88
277.031	275.88
277.262	297.88
277.494	291.88
277.726	275.88
277.957	263.88
278.189	254.88
278.421	237.88
278.652	260.88
278.884	245.88
279.115	236.88
279.347	258.88
279.579	247.88
279.81	250.88
280.042	243.88
280.273	240.88
280.505	252.88
280.736	240.88
280.968	240.88
281.199	242.88
281.431	254.88
281.662	242.88
281.894	244.88
282.125	251.88
282.356	256.88
282.588	269.88
282.819	280.88
283.051	262.88
283.282	233.88
283.513	262.88
283.745	250.88
283.976	256.88
284.207	248.88
284.439	254.88
284.67	259.88
284.901	258.88
285.132	257.88
285.364	262.88
285.595	258.88
285.826	244.88
286.057	265.88
286.288	255.88
286.52	247.88
286.751	249.88
286.982	248.88
287.213	248.88
287.444	262.88
287.675	279.88
287.906	276.88
288.138	276.88
288.369	257.88
288.6	276.88
288.831	262.88
289.062	267.88
289.293	270.88
289.524	258.88
289.755	252.88
289.986	260.88
290.217	256.88
290.448	254.88
290.679	275.88
290.91	263.88
291.141	245.88
291.371	257.88
291.602	272.88
291.833	248.88
292.064	245.88
292.295	260.88
292.526	256.88
292.757	262.88
292.987	259.88
293.218	254.88
293.449	281.88
293.68	269.88
293.91	274.88
294.141	254.88
294.372	266.88
294.603	262.88
294.833	267.88
295.064	268.88
295.295	281.88
295.525	262.88
295.756	266.88
295.987	279.88
296.217	294.88
296.448	299.88
296.679	284.88
296.909	282.88
297.14	275.88
297.37	274.88
297.601	257.88
297.831	264.88
298.062	275.88
298.292	271.88
298.523	288.88
298.753	295.88
298.984	292.88
299.214	276.88
299.445	286.88
299.675	265.88
299.905	273.88
300.136	285.88
300.366	289.88
300.597	272.88
300.827	288.88
301.057	297.88
301.288	297.88
301.518	281.88
301.748	301.88
301.979	293.88
302.209	292.88
302.439	293.88
302.669	308.88
302.9	288.88
303.13	289.88
303.36	292.88
303.59	304.88
303.82	284.88
304.051	292.88
304.281	273.88
304.511	298.88
304.741	300.88
304.971	275.88
305.201	289.88
305.431	304.88
305.661	292.88
305.891	298.88
306.121	290.88
306.352	305.88
306.582	312.88
306.812	297.88
307.042	297.88
307.272	297.88
307.502	317.88
307.731	318.88
307.961	305.88
308.191	313.88
308.421	313.88
308.651	313.88
308.881	329.88
309.111	312.88
309.341	306.88
309.571	339.88
309.8	336.88
310.03	331.88
310.26	343.88
310.49	348.88
310.72	361.88
310.949	373.88
311.179	387.88
311.409	355.88
311.639	338.88
311.868	352.88
312.098	355.88
312.328	337.88
312.557	374.88
312.787	392.88
313.017	362.88
313.246	354.88
313.476	357.88
313.706	349.88
313.935	328.88
314.165	357.88
314.394	376.88
314.624	373.88
314.853	356.88
315.083	353.88
315.312	356.88
315.542	336.88
315.771	320.88
316.001	331.88
316.23	342.88
316.46	341.88
316.689	342.88
316.919	338.88
317.148	363.88
317.377	344.88
317.607	353.88
317.836	362.88
318.065	356.88
318.295	351.88
318.524	354.88
318.753	330.88
318.983	334.88
319.212	332.88
319.441	336.88
319.67	340.88
319.9	337.88
320.129	364.88
320.358	360.88
320.587	359.88
320.816	363.88
321.046	355.88
321.275	375.88
321.504	360.88
321.733	365.88
321.962	369.88
322.191	410.88
322.42	388.88
322.649	404.88
322.878	419.88
323.108	444.88
323.337	460.88
323.566	466.88
323.795	496.88
324.024	560.88
324.253	672.88
324.482	985.88
324.71	1534.88
324.939	2009.88
325.168	1676.88
325.397	892.88
325.626	630.88
325.855	520.88
326.084	489.88
326.313	479.88
326.542	468.88
326.77	518.88
326.999	657.88
327.228	881.88
327.457	1314.88
327.686	1497.88
327.914	1003.88
328.143	683.88
328.372	591.88
328.6	568.88
328.829	525.88
329.058	552.88
329.287	536.88
329.515	501.88
329.744	475.88
329.972	474.88
330.201	489.88
330.43	552.88
330.658	570.88
330.887	585.88
331.115	556.88
331.344	469.88
331.572	481.88
331.801	445.88
332.03	423.88
332.258	423.88
332.486	416.88
332.715	424.88
332.943	406.88
333.172	413.88
333.4	414.88
333.629	415.88
333.857	438.88
334.085	426.88
334.314	448.88
334.542	473.88
334.771	491.88
334.999	446.88
335.227	447.88
335.455	414.88
335.684	399.88
335.912	403.88
336.14	389.88
336.369	396.88
336.597	392.88
336.825	419.88
337.053	398.88
337.281	396.88
337.51	402.88
337.738	392.88
337.966	386.88
338.194	410.88
338.422	406.88
338.65	394.88
338.878	404.88
339.106	374.88
339.334	369.88
339.562	375.88
339.79	389.88
340.018	378.88
340.246	395.88
340.474	401.88
340.702	399.88
340.93	400.88
341.158	379.88
341.386	408.88
341.614	389.88
341.842	411.88
342.07	380.88
342.298	354.88
342.526	373.88
342.754	378.88
342.981	376.88
343.209	370.88
343.437	397.88
343.665	374.88
343.893	386.88
344.12	398.88
344.348	379.88
344.576	380.88
344.804	399.88
345.031	393.88
345.259	396.88
345.487	401.88
345.714	364.88
345.942	380.88
346.17	364.88
346.397	365.88
346.625	371.88
346.853	390.88
347.08	373.88
347.308	394.88
347.535	385.88
347.763	405.88
347.99	393.88
348.218	404.88
348.445	388.88
348.673	401.88
348.9	388.88
349.128	376.88
349.355	352.88
349.583	355.88
349.81	365.88
350.037	386.88
350.265	368.88
350.492	353.88
350.72	363.88
350.947	394.88
351.174	388.88
351.402	415.88
351.629	371.88
351.856	365.88
352.083	370.88
352.311	386.88
352.538	391.88
352.765	400.88
352.992	376.88
353.22	381.88
353.447	375.88
353.674	375.88
353.901	364.88
354.128	355.88
354.355	359.88
354.583	352.88
354.81	342.88
355.037	354.88
355.264	334.88
355.491	350.88
355.718	325.88
355.945	320.88
356.172	325.88
356.399	354.88
356.626	346.88
356.853	334.88
357.08	335.88
357.307	346.88
357.534	352.88
357.761	338.88
357.988	348.88
358.215	348.88
358.441	346.88
358.668	333.88
358.895	358.88
359.122	354.88
359.349	362.88
359.576	377.88
359.802	406.88
360.029	443.88
360.256	424.88
360.483	407.88
360.709	385.88
360.936	372.88
361.163	376.88
361.39	379.88
361.616	387.88
361.843	400.88
362.07	379.88
362.296	373.88
362.523	368.88
362.749	372.88
362.976	368.88
363.203	369.88
363.429	361.88
363.656	365.88
363.882	359.88
364.109	365.88
364.335	371.88
364.562	364.88
364.788	349.88
365.015	355.88
365.241	353.88
365.468	372.88
365.694	362.88
365.92	374.88
366.147	373.88
366.373	335.88
366.599	368.88
366.826	363.88
367.052	354.88
367.278	358.88
367.505	366.88
367.731	349.88
367.957	359.88
368.184	357.88
368.41	363.88
368.636	363.88
368.862	384.88
369.089	370.88
369.315	356.88
369.541	355.88
369.767	347.88
369.993	361.88
370.219	350.88
370.445	353.88
370.672	345.88
370.898	336.88
371.124	352.88
371.35	362.88
371.576	361.88
371.802	333.88
372.028	341.88
372.254	338.88
372.48	344.88
372.706	355.88
372.932	332.88
373.158	348.88
373.384	344.88
373.61	346.88
373.835	331.88
374.061	348.88
374.287	358.88
374.513	362.88
374.739	363.88
374.965	336.88
375.191	360.88
375.416	353.88
375.642	347.88
375.868	358.88
376.094	351.88
376.319	342.88
376.545	339.88
376.771	322.88
376.997	336.88
377.222	347.88
377.448	363.88
377.674	349.88
377.899	332.88
378.125	320.88
378.35	342.88
378.576	337.88
378.802	333.88
379.027	346.88
379.253	338.88
379.478	331.88
379.704	342.88
379.929	358.88
380.155	342.88
380.38	362.88
380.606	342.88
380.831	336.88
381.057	356.88
381.282	349.88
381.507	343.88
381.733	346.88
381.958	344.88
382.184	341.88
382.409	352.88
382.634	357.88
382.86	353.88
383.085	339.88
383.31	336.88
383.535	350.88
383.761	352.88
383.986	357.88
384.211	347.88
384.436	358.88
384.662	361.88
384.887	369.88
385.112	364.88
385.337	340.88
385.562	368.88
385.787	362.88
386.013	390.88
386.238	375.88
386.463	395.88
386.688	385.88
386.913	370.88
387.138	360.88
387.363	380.88
387.588	373.88
387.813	380.88
388.038	370.88
388.263	358.88
388.488	380.88
388.713	360.88
388.938	359.88
389.163	359.88
389.387	363.88
389.612	375.88
389.837	360.88
390.062	377.88
390.287	376.88
390.512	359.88
390.736	375.88
390.961	374.88
391.186	374.88
391.411	378.88
391.636	363.88
391.86	392.88
392.085	372.88
392.31	381.88
392.534	386.88
392.759	363.88
392.984	377.88
393.208	374.88
393.433	346.88
393.658	362.88
393.882	352.88
394.107	385.88
394.331	372.88
394.556	376.88
394.78	375.88
395.005	376.88
395.229	379.88
395.454	382.88
395.678	369.88
395.903	374.88
396.127	389.88
396.352	401.88
396.576	379.88
396.801	373.88
397.025	384.88
397.249	384.88
397.474	402.88
397.698	404.88
397.922	416.88
398.147	413.88
398.371	420.88
398.595	420.88
398.82	399.88
399.044	430.88
399.268	430.88
399.492	435.88
399.717	468.88
399.941	481.88
400.165	502.88
400.389	507.88
400.613	457.88
400.837	454.88
401.062	446.88
401.286	429.88
401.51	414.88
401.734	405.88
401.958	420.88
402.182	442.88
402.406	440.88
402.63	441.88
402.854	428.88
403.078	436.88
403.302	430.88
403.526	453.88
403.75	424.88
403.974	435.88
404.198	433.88
404.422	453.88
404.645	429.88
404.869	463.88
405.093	462.88
405.317	515.88
405.541	497.88
405.765	485.88
405.988	445.88
406.212	464.88
406.436	494.88
406.66	519.88
406.883	483.88
407.107	490.88
407.331	527.88
407.555	540.88
407.778	544.88
408.002	508.88
408.226	502.88
408.449	467.88
408.673	460.88
408.896	503.88
409.12	507.88
409.344	488.88
409.567	463.88
409.791	439.88
410.014	441.88
410.238	421.88
410.461	454.88
410.685	453.88
410.908	461.88
411.132	475.88
411.355	478.88
411.578	465.88
411.802	444.88
412.025	437.88
412.249	442.88
412.472	445.88
412.695	485.88
412.919	476.88
413.142	450.88
413.365	438.88
413.589	419.88
413.812	438.88
414.035	412.88
414.258	395.88
414.482	408.88
414.705	408.88
414.928	406.88
415.151	417.88
415.374	406.88
415.597	414.88
415.821	401.88
416.044	419.88
416.267	412.88
416.49	398.88
416.713	397.88
416.936	409.88
417.159	381.88
417.382	410.88
417.605	403.88
417.828	407.88
418.051	442.88
418.274	417.88
418.497	401.88
418.72	412.88
418.943	406.88
419.166	416.88
419.389	430.88
419.611	458.88
419.834	430.88
420.057	421.88
420.28	455.88
420.503	440.88
420.726	420.88
420.948	459.88
421.171	491.88
421.394	499.88
421.617	436.88
421.839	426.88
422.062	426.88
422.285	447.88
422.507	506.88
422.73	540.88
422.953	512.88
423.175	476.88
423.398	437.88
423.621	458.88
423.843	458.88
424.066	483.88
424.288	461.88
424.511	482.88
424.733	508.88
424.956	569.88
425.178	542.88
425.401	534.88
425.623	553.88
425.846	503.88
426.068	459.88
426.291	439.88
426.513	456.88
426.735	449.88
426.958	508.88
427.18	576.88
427.402	667.88
427.625	730.88
427.847	672.88
428.069	564.88
428.292	500.88
428.514	470.88
428.736	467.88
428.958	441.88
429.181	438.88
429.403	424.88
429.625	459.88
429.847	450.88
430.069	534.88
430.292	512.88
430.514	455.88
430.736	433.88
430.958	392.88
431.18	416.88
431.402	416.88
431.624	418.88
431.846	395.88
432.068	404.88
432.29	403.88
432.512	409.88
432.734	412.88
432.956	413.88
433.178	420.88
433.4	441.88
433.622	416.88
433.844	398.88
434.066	402.88
434.287	389.88
434.509	412.88
434.731	415.88
434.953	413.88
435.175	424.88
435.397	465.88
435.618	461.88
435.84	486.88
436.062	568.88
436.284	642.88
436.505	538.88
436.727	461.88
436.949	440.88
437.17	452.88
437.392	440.88
437.614	454.88
437.835	482.88
438.057	556.88
438.278	644.88
438.5	613.88
438.721	666.88
438.943	618.88
439.165	529.88
439.386	463.88
439.608	476.88
439.829	483.88
440.05	512.88
440.272	521.88
440.493	491.88
440.715	468.88
440.936	441.88
441.158	424.88
441.379	439.88
441.6	458.88
441.822	469.88
442.043	520.88
442.264	548.88
442.486	589.88
442.707	510.88
442.928	500.88
443.149	499.88
443.371	488.88
443.592	541.88
443.813	609.88
444.034	633.88
444.255	525.88
444.476	496.88
444.698	459.88
444.919	451.88
445.14	593.88
445.361	545.88
445.582	498.88
445.803	552.88
446.024	643.88
446.245	642.88
446.466	586.88
446.687	506.88
446.908	500.88
447.129	456.88
447.35	432.88
447.571	442.88
447.792	432.88
448.013	427.88
448.234	452.88
448.455	506.88
448.675	588.88
448.896	632.88
449.117	562.88
449.338	518.88
449.559	597.88
449.779	692.88
450	550.88
450.221	483.88
450.442	441.88
450.662	424.88
450.883	418.88
451.104	441.88
451.324	426.88
451.545	424.88
451.766	397.88
451.986	388.88
452.207	397.88
452.428	383.88
452.648	380.88
452.869	413.88
453.089	394.88
453.31	412.88
453.53	377.88
453.751	413.88
453.971	408.88
454.192	428.88
454.412	414.88
454.633	408.88
454.853	381.88
455.073	396.88
455.294	399.88
455.514	460.88
455.734	436.88
455.955	398.88
456.175	361.88
456.395	378.88
456.616	372.88
456.836	360.88
457.056	374.88
457.276	364.88
457.497	382.88
457.717	360.88
457.937	372.88
458.157	373.88
458.377	390.88
458.598	399.88
458.818	455.88
459.038	543.88
459.258	549.88
459.478	452.88
459.698	392.88
459.918	387.88
460.138	424.88
460.358	407.88
460.578	420.88
460.798	420.88
461.018	397.88
461.238	417.88
461.458	398.88
461.678	390.88
461.898	424.88
462.118	396.88
462.338	389.88
462.558	414.88
462.777	440.88
462.997	412.88
463.217	423.88
463.437	448.88
463.657	440.88
463.876	425.88
464.096	415.88
464.316	441.88
464.536	430.88
464.755	435.88
464.975	438.88
465.195	500.88
465.414	556.88
465.634	485.88
465.854	438.88
466.073	416.88
466.293	404.88
466.512	399.88
466.732	389.88
466.951	394.88
467.171	394.88
467.391	396.88
467.61	407.88
467.829	417.88
468.049	426.88
468.268	393.88
468.488	399.88
468.707	396.88
468.927	395.88
469.146	370.88
469.365	397.88
469.585	387.88
469.804	382.88
470.023	387.88
470.243	422.88
470.462	406.88
470.681	433.88
470.901	419.88
471.12	394.88
471.339	404.88
471.558	406.88
471.777	402.88
471.997	398.88
472.216	391.88
472.435	442.88
472.654	436.88
472.873	398.88
473.092	389.88
473.311	388.88
473.53	395.88
473.749	414.88
473.968	453.88
474.187	541.88
474.406	542.88
474.625	465.88
474.844	404.88
475.063	406.88
475.282	407.88
475.501	388.88
475.72	416.88
475.939	410.88
476.158	422.88
476.377	420.88
476.596	429.88
476.814	419.88
477.033	419.88
477.252	434.88
477.471	441.88
477.69	440.88
477.908	441.88
478.127	464.88
478.346	427.88
478.564	438.88
478.783	436.88
479.002	437.88
479.22	460.88
479.439	482.88
479.658	478.88
479.876	462.88
480.095	506.88
480.313	530.88
480.532	502.88
480.751	496.88
480.969	487.88
481.188	557.88
481.406	568.88
481.624	508.88
481.843	476.88
482.061	499.88
482.28	478.88
482.498	463.88
482.717	455.88
482.935	487.88
483.153	463.88
483.372	454.88
483.59	472.88
483.808	459.88
484.027	453.88
484.245	472.88
484.463	483.88
484.681	485.88
484.9	484.88
485.118	482.88
485.336	475.88
485.554	482.88
485.772	470.88
485.99	486.88
486.209	488.88
486.427	484.88
486.645	499.88
486.863	522.88
487.081	493.88
487.299	503.88
487.517	484.88
487.735	536.88
487.953	506.88
488.171	505.88
488.389	494.88
488.607	485.88
488.825	520.88
489.043	481.88
489.261	504.88
489.479	502.88
489.696	507.88
489.914	534.88
490.132	530.88
490.35	517.88
490.568	549.88
490.786	532.88
491.003	537.88
491.221	580.88
491.439	574.88
491.657	576.88
491.874	572.88
492.092	561.88
492.31	602.88
492.527	585.88
492.745	590.88
492.963	597.88
493.18	569.88
493.398	587.88
493.615	606.88
493.833	600.88
494.05	586.88
494.268	581.88
494.485	585.88
494.703	568.88
494.92	608.88
495.138	612.88
495.355	608.88
495.573	608.88
495.79	620.88
496.008	624.88
496.225	608.88
496.442	608.88
496.66	606.88
496.877	590.88
497.094	610.88
497.312	630.88
497.529	612.88
497.746	616.88
497.963	612.88
498.181	637.88
498.398	622.88
498.615	648.88
498.832	645.88
499.049	661.88
499.267	673.88
499.484	692.88
499.701	702.88
499.918	720.88
500.135	747.88
500.352	792.88
500.569	793.88
500.786	773.88
501.003	786.88
501.22	770.88
501.437	752.88
501.654	740.88
501.871	742.88
502.088	718.88
502.305	680.88
502.522	651.88
502.739	645.88
502.956	616.88
503.172	614.88
503.389	586.88
503.606	627.88
503.823	624.88
504.04	591.88
504.256	612.88
504.473	584.88
504.69	587.88
504.907	589.88
505.123	570.88
505.34	566.88
505.557	594.88
505.773	589.88
505.99	576.88
506.207	610.88
506.423	579.88
506.64	557.88
506.856	553.88
507.073	564.88
507.289	562.88
507.506	547.88
507.722	560.88
507.939	585.88
508.155	582.88
508.372	554.88
508.588	540.88
508.805	543.88
509.021	567.88
509.238	552.88
509.454	578.88
509.67	542.88
509.887	536.88
510.103	537.88
510.319	564.88
510.536	685.88
510.752	1195.88
510.968	925.88
511.184	603.88
511.401	570.88
511.617	538.88
511.833	534.88
512.049	523.88
512.265	510.88
512.481	518.88
512.698	519.88
512.914	527.88
513.13	540.88
513.346	525.88
513.562	538.88
513.778	528.88
513.994	516.88
514.21	548.88
514.426	557.88
514.642	613.88
514.858	651.88
515.074	692.88
515.29	856.88
515.506	1318.88
515.721	1031.88
515.937	679.88
516.153	590.88
516.369	571.88
516.585	545.88
516.801	527.88
517.016	533.88
517.232	540.88
517.448	549.88
517.664	532.88
517.879	532.88
518.095	547.88
518.311	531.88
518.527	534.88
518.742	533.88
518.958	522.88
519.173	511.88
519.389	510.88
519.605	518.88
519.82	531.88
520.036	553.88
520.251	549.88
520.467	607.88
520.682	572.88
520.898	621.88
521.113	627.88
521.329	668.88
521.544	811.88
521.76	1048.88
521.975	1766.88
522.19	1712.88
522.406	881.88
522.621	644.88
522.836	580.88
523.052	560.88
523.267	509.88
523.482	488.88
523.698	482.88
523.913	492.88
524.128	481.88
524.343	456.88
524.559	466.88
524.774	452.88
524.989	453.88
525.204	469.88
525.419	450.88
525.634	447.88
525.849	421.88
526.064	440.88
526.28	425.88
526.495	422.88
526.71	432.88
526.925	437.88
527.14	415.88
527.355	408.88
527.57	412.88
527.785	419.88
527.999	424.88
528.214	413.88
528.429	427.88
528.644	428.88
528.859	426.88
529.074	426.88
529.289	458.88
529.503	533.88
529.718	526.88
529.933	479.88
530.148	448.88
530.363	419.88
530.577	414.88
530.792	412.88
531.007	412.88
531.221	401.88
531.436	392.88
531.651	410.88
531.865	393.88
532.08	408.88
532.295	405.88
532.509	404.88
532.724	398.88
532.938	402.88
533.153	374.88
533.367	403.88
533.582	396.88
533.796	387.88
534.011	393.88
534.225	395.88
534.44	394.88
534.654	395.88
534.868	389.88
535.083	394.88
535.297	404.88
535.511	404.88
535.726	404.88
535.94	405.88
536.154	400.88
536.369	417.88
536.583	388.88
536.797	376.88
537.011	368.88
537.225	380.88
537.44	383.88
537.654	377.88
537.868	387.88
538.082	380.88
538.296	393.88
538.51	396.88
538.724	399.88
538.938	381.88
539.153	386.88
539.367	409.88
539.581	416.88
539.795	376.88
540.009	392.88
540.222	379.88
540.436	396.88
540.65	391.88
540.864	374.88
541.078	397.88
541.292	394.88
541.506	375.88
541.72	386.88
541.934	369.88
542.147	405.88
542.361	387.88
542.575	374.88
542.789	377.88
543.002	366.88
543.216	384.88
543.43	376.88
543.644	373.88
543.857	365.88
544.071	384.88
544.285	383.88
544.498	375.88
544.712	382.88
544.925	372.88
545.139	382.88
545.352	343.88
545.566	386.88
545.779	372.88
545.993	361.88
546.206	363.88
546.42	364.88
546.633	371.88
546.847	354.88
547.06	384.88
547.274	351.88
547.487	360.88
547.7	374.88
547.914	359.88
548.127	378.88
548.34	360.88
548.554	358.88
548.767	389.88
548.98	348.88
549.193	359.88
549.407	349.88
549.62	355.88
549.833	348.88
550.046	344.88
550.259	367.88
550.473	342.88
550.686	368.88
550.899	340.88
551.112	362.88
551.325	341.88
551.538	336.88
551.751	343.88
551.964	345.88
552.177	345.88
552.39	351.88
552.603	360.88
552.816	358.88
553.029	359.88
553.242	351.88
553.455	375.88
553.667	373.88
553.88	392.88
554.093	382.88
554.306	379.88
554.519	370.88
554.732	355.88
554.944	365.88
555.157	353.88
555.37	334.88
555.583	323.88
555.795	340.88
556.008	337.88
556.221	346.88
556.433	342.88
556.646	340.88
556.859	325.88
557.071	329.88
557.284	329.88
557.496	330.88
557.709	328.88
557.921	311.88
558.134	308.88
558.346	324.88
558.559	318.88
558.771	329.88
558.984	302.88
559.196	331.88
559.409	324.88
559.621	327.88
559.833	325.88
560.046	326.88
560.258	309.88
560.47	302.88
560.683	323.88
560.895	318.88
561.107	310.88
561.32	313.88
561.532	320.88
561.744	299.88
561.956	308.88
562.168	316.88
562.381	309.88
562.593	316.88
562.805	304.88
563.017	317.88
563.229	317.88
563.441	312.88
563.653	325.88
563.865	311.88
564.077	347.88
564.289	332.88
564.501	332.88
564.713	300.88
564.925	328.88
565.137	342.88
565.349	330.88
565.561	330.88
565.773	361.88
565.985	355.88
566.197	349.88
566.408	344.88
566.62	350.88
566.832	364.88
567.044	375.88
567.255	376.88
567.467	350.88
567.679	374.88
567.891	380.88
568.102	384.88
568.314	369.88
568.526	357.88
568.737	370.88
568.949	342.88
569.161	315.88
569.372	338.88
569.584	331.88
569.795	311.88
570.007	329.88
570.218	345.88
570.43	353.88
570.641	299.88
570.853	311.88
571.064	292.88
571.276	292.88
571.487	288.88
571.698	303.88
571.91	304.88
572.121	290.88
572.333	298.88
572.544	286.88
572.755	289.88
572.966	280.88
573.178	274.88
573.389	269.88
573.6	301.88
573.811	280.88
574.023	268.88
574.234	280.88
574.445	289.88
574.656	284.88
574.867	277.88
575.078	274.88
575.289	281.88
575.501	260.88
575.712	251.88
575.923	265.88
576.134	266.88
576.345	276.88
576.556	266.88
576.767	281.88
576.978	266.88
577.188	250.88
577.399	273.88
577.61	252.88
577.821	262.88
578.032	267.88
578.243	296.88
578.454	555.88
578.665	388.88
578.875	278.88
579.086	249.88
579.297	264.88
579.508	272.88
579.718	270.88
579.929	249.88
580.14	266.88
580.35	243.88
580.561	249.88
580.772	255.88
580.982	251.88
581.193	242.88
581.403	256.88
581.614	252.88
581.825	229.88
582.035	244.88
582.246	258.88
582.456	240.88
582.667	260.88
582.877	245.88
583.087	234.88
583.298	223.88
583.508	233.88
583.719	233.88
583.929	231.88
584.139	255.88
584.35	235.88
584.56	254.88
584.77	247.88
584.981	242.88
585.191	240.88
585.401	249.88
585.611	237.88
585.821	240.88
586.032	242.88
586.242	234.88
586.452	230.88
586.662	248.88
586.872	240.88
587.082	220.88
587.292	228.88
587.502	236.88
587.713	248.88
587.923	237.88
588.133	230.88
588.343	230.88
588.553	252.88
588.762	256.88
588.972	222.88
589.182	236.88
589.392	233.88
589.602	230.88
589.812	248.88
590.022	235.88
590.232	219.88
590.441	229.88
590.651	226.88
590.861	232.88
591.071	240.88
591.281	243.88
591.49	230.88
591.7	235.88
591.91	236.88
592.119	247.88
592.329	236.88
592.539	226.88
592.748	244.88
592.958	240.88
593.167	255.88
593.377	240.88
593.587	256.88
593.796	245.88
594.006	230.88
594.215	235.88
594.424	231.88
594.634	244.88
594.843	244.88
595.053	237.88
595.262	226.88
595.472	236.88
595.681	252.88
595.89	242.88
596.1	226.88
596.309	221.88
596.518	212.88
596.727	209.88
596.937	234.88
597.146	239.88
597.355	233.88
597.564	229.88
597.774	209.88
597.983	218.88
598.192	196.88
598.401	205.88
598.61	226.88
598.819	218.88
599.028	217.88
599.237	216.88
599.446	231.88
599.655	207.88
599.864	208.88
600.073	206.88
600.282	212.88
600.491	206.88
600.7	205.88
600.909	212.88
601.118	224.88
601.327	212.88
601.536	219.88
601.745	202.88
601.953	224.88
602.162	207.88
602.371	188.88
602.58	206.88
602.789	205.88
602.997	208.88
603.206	218.88
603.415	212.88
603.623	201.88
603.832	212.88
604.041	215.88
604.249	203.88
604.458	216.88
604.666	211.88
604.875	194.88
605.084	202.88
605.292	200.88
605.501	209.88
605.709	211.88
605.918	196.88
606.126	215.88
606.334	217.88
606.543	198.88
606.751	199.88
606.96	209.88
607.168	197.88
607.376	186.88
607.585	215.88
607.793	213.88
608.001	196.88
608.21	188.88
608.418	193.88
608.626	193.88
608.834	198.88
609.043	193.88
609.251	188.88
609.459	200.88
609.667	202.88
609.875	204.88
610.083	193.88
610.291	206.88
610.499	203.88
610.707	192.88
610.916	208.88
611.124	211.88
611.332	214.88
611.54	194.88
611.748	210.88
611.955	200.88
612.163	187.88
612.371	196.88
612.579	186.88
612.787	193.88
612.995	196.88
613.203	208.88
613.411	200.88
613.618	190.88
613.826	180.88
614.034	191.88
614.242	203.88
614.449	193.88
614.657	201.88
614.865	186.88
615.072	204.88
615.28	188.88
615.488	194.88
615.695	182.88
615.903	184.88
616.111	210.88
616.318	195.88
616.526	186.88
616.733	203.88
616.941	202.88
617.148	178.88
617.356	205.88
617.563	196.88
617.771	187.88
617.978	174.88
618.185	174.88
618.393	187.88
618.6	182.88
618.807	195.88
619.015	189.88
619.222	178.88
619.429	190.88
619.637	190.88
619.844	191.88
620.051	182.88
620.258	188.88
620.466	178.88
620.673	166.88
620.88	171.88
621.087	182.88
621.294	173.88
621.501	176.88
621.708	188.88
621.915	195.88
622.122	193.88
622.329	181.88
622.536	184.88
622.743	191.88
622.95	176.88
623.157	171.88
623.364	156.88
623.571	194.88
623.778	180.88
623.985	188.88
624.192	172.88
624.399	186.88
624.606	178.88
624.812	187.88
625.019	179.88
625.226	187.88
625.433	188.88
625.639	182.88
625.846	171.88
626.053	174.88
626.259	169.88
626.466	181.88
626.673	175.88
626.879	177.88
627.086	181.88
627.293	174.88
627.499	162.88
627.706	174.88
627.912	174.88
628.119	166.88
628.325	169.88
628.532	160.88
628.738	156.88
628.945	167.88
629.151	148.88
629.357	177.88
629.564	166.88
629.77	161.88
629.976	162.88
630.183	172.88
630.389	172.88
630.595	167.88
630.802	165.88
631.008	159.88
631.214	154.88
631.42	165.88
631.627	179.88
631.833	192.88
632.039	153.88
632.245	156.88
632.451	170.88
632.657	158.88
632.863	158.88
633.069	165.88
633.275	171.88
633.481	159.88
633.688	165.88
633.893	168.88
634.099	158.88
634.305	155.88
634.511	141.88
634.717	153.88
634.923	156.88
635.129	145.88
635.335	144.88
635.541	173.88
635.747	171.88
635.952	153.88
636.158	170.88
636.364	164.88
636.57	154.88
636.775	163.88
636.981	132.88
637.187	161.88
637.392	159.88
637.598	147.88
637.804	164.88
638.009	161.88
638.215	149.88
638.421	160.88
638.626	160.88
638.832	153.88
639.037	144.88
639.243	132.88
639.448	141.88
639.654	157.88
639.859	145.88
640.065	143.88
640.27	148.88
640.475	158.88
640.681	132.88
640.886	148.88
641.091	129.88
641.297	150.88
641.502	136.88
641.707	148.88
641.913	141.88
642.118	148.88
642.323	153.88
642.528	157.88
642.733	165.88
642.939	150.88
643.144	158.88
643.349	132.88
643.554	140.88
643.759	154.88
643.964	134.88
644.169	134.88
644.374	147.88
644.579	158.88
644.784	139.88
644.989	148.88
645.194	142.88
645.399	150.88
645.604	136.88
645.809	144.88
646.014	128.88
646.219	132.88
646.423	152.88
646.628	151.88
646.833	136.88
647.038	141.88
647.243	147.88
647.447	161.88
647.652	158.88
647.857	149.88
648.062	130.88
648.266	142.88
648.471	150.88
648.676	157.88
648.88	149.88
649.085	163.88
649.289	135.88
649.494	153.88
649.698	181.88
649.903	161.88
650.107	163.88
650.312	150.88
650.516	132.88
650.721	150.88
650.925	146.88
651.13	130.88
651.334	155.88
651.539	116.88
651.743	148.88
651.947	132.88
652.152	137.88
652.356	126.88
652.56	129.88
652.764	130.88
652.969	113.88
653.173	134.88
653.377	123.88
653.581	126.88
653.785	120.88
653.99	120.88
654.194	121.88
654.398	120.88
654.602	124.88
654.806	131.88
655.01	126.88
655.214	142.88
655.418	146.88
655.622	112.88
655.826	132.88
656.03	118.88
656.234	118.88
656.438	110.88
656.642	125.88
656.846	140.88
657.049	126.88
657.253	120.88
657.457	117.88
657.661	100.88
657.865	98.88
658.068	85.88
658.272	113.88
658.476	108.88
658.68	100.88
658.883	101.88
659.087	87.88
659.291	96.88
659.494	101.88
659.698	95.88
659.901	100.88
660.105	89.88
660.309	102.88
660.512	81.88
660.716	91.88
660.919	91.88
661.123	88.88
661.326	97.88
661.53	100.88
661.733	100.88
661.936	99.88
662.14	91.88
662.343	91.88
662.546	89.88
662.75	89.88
662.953	91.88
663.156	87.88
663.36	83.88
663.563	82.88
663.766	92.88
663.969	86.88
664.173	91.88
664.376	73.88
664.579	85.88
664.782	86.88
664.985	90.88
665.188	84.88
665.391	87.88
665.594	75.88
665.797	81.88
666	76.88
666.203	84.88
666.406	84.88
666.609	78.88
666.812	71.88
667.015	78.88
667.218	83.88
667.421	83.88
667.624	76.88
667.827	69.88
668.03	88.88
668.232	91.88
668.435	87.88
668.638	88.88
668.841	78.88
669.043	82.88
669.246	73.88
669.449	92.88
669.651	98.88
669.854	88.88
670.057	94.88
670.259	76.88
670.462	81.88
670.665	76.88
670.867	78.88
671.07	80.88
671.272	80.88
671.475	94.88
671.677	92.88
671.88	71.88
672.082	96.88
672.284	77.88
672.487	89.88
672.689	87.88
672.892	80.88
