Data from 1983.PennyLincolnUp.Lamp.En5.5.200Scan.071819.P1_HRD10591_16-52-16-965.txt Node
Date: Thu Jul 18 16:52:16 EDT 2019
User: cochatt
Spectrometer: HR+D1059
Trigger mode: 1
Integration Time (sec): 1.000000E-1
Scans to average: 1
Electric dark correction enabled: true
Nonlinearity correction enabled: false
Boxcar width: 0
XAxis mode: Wavelengths
Number of Pixels in Spectrum: 2048
>>>>>Begin Spectral Data<<<<<
223.165	-11.62
223.4	-11.62
223.635	-11.62
223.869	-8.62
224.104	-13.62
224.338	-5.62
224.573	-2.62
224.808	-15.62
225.042	1.38
225.277	-23.62
225.511	-4.62
225.746	0.38
225.98	-6.62
226.215	8.38
226.449	10.38
226.683	22.38
226.918	17.38
227.152	32.38
227.387	33.38
227.621	37.38
227.856	36.38
228.09	43.38
228.324	44.38
228.559	53.38
228.793	61.38
229.027	82.38
229.262	99.38
229.496	100.38
229.73	99.38
229.964	131.38
230.199	108.38
230.433	102.38
230.667	102.38
230.901	105.38
231.136	105.38
231.37	116.38
231.604	104.38
231.838	104.38
232.072	96.38
232.306	99.38
232.541	112.38
232.775	113.38
233.009	103.38
233.243	91.38
233.477	93.38
233.711	102.38
233.945	118.38
234.179	112.38
234.413	93.38
234.647	92.38
234.881	94.38
235.115	108.38
235.349	104.38
235.583	107.38
235.817	98.38
236.051	119.38
236.285	99.38
236.519	112.38
236.753	110.38
236.987	116.38
237.221	131.38
237.455	198.38
237.689	154.38
237.922	123.38
238.156	107.38
238.39	112.38
238.624	106.38
238.858	114.38
239.091	101.38
239.325	101.38
239.559	110.38
239.793	107.38
240.027	134.38
240.26	120.38
240.494	136.38
240.728	132.38
240.961	129.38
241.195	121.38
241.429	116.38
241.662	102.38
241.896	125.38
242.13	107.38
242.363	126.38
242.597	126.38
242.83	114.38
243.064	115.38
243.298	110.38
243.531	97.38
243.765	121.38
243.998	140.38
244.232	128.38
244.465	126.38
244.699	124.38
244.932	120.38
245.166	109.38
245.399	136.38
245.633	120.38
245.866	125.38
246.099	124.38
246.333	138.38
246.566	124.38
246.8	133.38
247.033	126.38
247.266	131.38
247.5	125.38
247.733	151.38
247.966	152.38
248.2	138.38
248.433	160.38
248.666	142.38
248.899	147.38
249.133	162.38
249.366	185.38
249.599	164.38
249.832	158.38
250.066	148.38
250.299	144.38
250.532	155.38
250.765	149.38
250.998	169.38
251.231	183.38
251.465	172.38
251.698	168.38
251.931	168.38
252.164	165.38
252.397	160.38
252.63	162.38
252.863	168.38
253.096	183.38
253.329	178.38
253.562	203.38
253.795	198.38
254.028	173.38
254.261	176.38
254.494	188.38
254.727	201.38
254.96	208.38
255.193	214.38
255.426	193.38
255.659	187.38
255.892	188.38
256.124	168.38
256.357	176.38
256.59	183.38
256.823	165.38
257.056	168.38
257.289	174.38
257.521	166.38
257.754	178.38
257.987	180.38
258.22	166.38
258.452	189.38
258.685	180.38
258.918	163.38
259.151	186.38
259.383	176.38
259.616	180.38
259.849	193.38
260.081	188.38
260.314	206.38
260.547	196.38
260.779	187.38
261.012	193.38
261.244	201.38
261.477	196.38
261.71	188.38
261.942	178.38
262.175	178.38
262.407	177.38
262.64	170.38
262.872	176.38
263.105	176.38
263.337	188.38
263.57	162.38
263.802	172.38
264.035	169.38
264.267	163.38
264.499	164.38
264.732	174.38
264.964	180.38
265.197	194.38
265.429	186.38
265.661	185.38
265.894	192.38
266.126	182.38
266.358	182.38
266.591	197.38
266.823	189.38
267.055	178.38
267.287	197.38
267.52	181.38
267.752	180.38
267.984	184.38
268.216	198.38
268.448	196.38
268.681	190.38
268.913	194.38
269.145	211.38
269.377	205.38
269.609	209.38
269.841	205.38
270.073	213.38
270.306	219.38
270.538	236.38
270.77	240.38
271.002	234.38
271.234	244.38
271.466	235.38
271.698	233.38
271.93	240.38
272.162	234.38
272.394	250.38
272.626	238.38
272.858	223.38
273.09	194.38
273.322	216.38
273.553	235.38
273.785	216.38
274.017	209.38
274.249	201.38
274.481	200.38
274.713	216.38
274.945	212.38
275.176	216.38
275.408	198.38
275.64	210.38
275.872	210.38
276.104	214.38
276.335	216.38
276.567	229.38
276.799	226.38
277.031	230.38
277.262	241.38
277.494	247.38
277.726	234.38
277.957	243.38
278.189	212.38
278.421	220.38
278.652	217.38
278.884	205.38
279.115	217.38
279.347	228.38
279.579	221.38
279.81	218.38
280.042	215.38
280.273	212.38
280.505	229.38
280.736	218.38
280.968	236.38
281.199	235.38
281.431	216.38
281.662	225.38
281.894	224.38
282.125	230.38
282.356	229.38
282.588	242.38
282.819	225.38
283.051	221.38
283.282	214.38
283.513	209.38
283.745	211.38
283.976	218.38
284.207	229.38
284.439	244.38
284.67	242.38
284.901	220.38
285.132	226.38
285.364	225.38
285.595	231.38
285.826	223.38
286.057	216.38
286.288	246.38
286.52	223.38
286.751	218.38
286.982	228.38
287.213	245.38
287.444	240.38
287.675	226.38
287.906	240.38
288.138	246.38
288.369	242.38
288.6	237.38
288.831	263.38
289.062	241.38
289.293	230.38
289.524	234.38
289.755	244.38
289.986	236.38
290.217	234.38
290.448	250.38
290.679	222.38
290.91	225.38
291.141	242.38
291.371	237.38
291.602	234.38
291.833	240.38
292.064	242.38
292.295	225.38
292.526	226.38
292.757	242.38
292.987	233.38
293.218	221.38
293.449	244.38
293.68	229.38
293.91	249.38
294.141	230.38
294.372	228.38
294.603	237.38
294.833	241.38
295.064	237.38
295.295	235.38
295.525	218.38
295.756	260.38
295.987	264.38
296.217	249.38
296.448	246.38
296.679	249.38
296.909	235.38
297.14	256.38
297.37	231.38
297.601	228.38
297.831	242.38
298.062	220.38
298.292	240.38
298.523	243.38
298.753	250.38
298.984	233.38
299.214	248.38
299.445	243.38
299.675	256.38
299.905	245.38
300.136	250.38
300.366	258.38
300.597	233.38
300.827	264.38
301.057	252.38
301.288	256.38
301.518	266.38
301.748	254.38
301.979	259.38
302.209	273.38
302.439	268.38
302.669	260.38
302.9	267.38
303.13	263.38
303.36	259.38
303.59	269.38
303.82	260.38
304.051	255.38
304.281	261.38
304.511	249.38
304.741	266.38
304.971	258.38
305.201	281.38
305.431	262.38
305.661	269.38
305.891	268.38
306.121	262.38
306.352	293.38
306.582	266.38
306.812	264.38
307.042	281.38
307.272	273.38
307.502	265.38
307.731	267.38
307.961	258.38
308.191	265.38
308.421	277.38
308.651	253.38
308.881	262.38
309.111	280.38
309.341	278.38
309.571	285.38
309.8	288.38
310.03	288.38
310.26	309.38
310.49	308.38
310.72	316.38
310.949	300.38
311.179	302.38
311.409	293.38
311.639	314.38
311.868	308.38
312.098	295.38
312.328	310.38
312.557	325.38
312.787	308.38
313.017	307.38
313.246	290.38
313.476	300.38
313.706	297.38
313.935	288.38
314.165	308.38
314.394	301.38
314.624	309.38
314.853	299.38
315.083	287.38
315.312	303.38
315.542	306.38
315.771	300.38
316.001	280.38
316.23	299.38
316.46	292.38
316.689	291.38
316.919	288.38
317.148	306.38
317.377	321.38
317.607	307.38
317.836	313.38
318.065	304.38
318.295	288.38
318.524	302.38
318.753	314.38
318.983	322.38
319.212	296.38
319.441	304.38
319.67	307.38
319.9	292.38
320.129	296.38
320.358	295.38
320.587	304.38
320.816	310.38
321.046	321.38
321.275	314.38
321.504	315.38
321.733	310.38
321.962	307.38
322.191	336.38
322.42	329.38
322.649	330.38
322.878	343.38
323.108	327.38
323.337	349.38
323.566	359.38
323.795	382.38
324.024	406.38
324.253	482.38
324.482	690.38
324.71	1000.38
324.939	1340.38
325.168	1120.38
325.397	621.38
325.626	445.38
325.855	386.38
326.084	387.38
326.313	376.38
326.542	393.38
326.77	396.38
326.999	464.38
327.228	615.38
327.457	892.38
327.686	999.38
327.914	687.38
328.143	469.38
328.372	428.38
328.6	413.38
328.829	398.38
329.058	404.38
329.287	419.38
329.515	383.38
329.744	352.38
329.972	358.38
330.201	374.38
330.43	390.38
330.658	409.38
330.887	433.38
331.115	436.38
331.344	386.38
331.572	368.38
331.801	367.38
332.03	355.38
332.258	356.38
332.486	343.38
332.715	359.38
332.943	368.38
333.172	348.38
333.4	353.38
333.629	367.38
333.857	352.38
334.085	347.38
334.314	368.38
334.542	360.38
334.771	384.38
334.999	332.38
335.227	357.38
335.455	348.38
335.684	346.38
335.912	350.38
336.14	343.38
336.369	352.38
336.597	361.38
336.825	338.38
337.053	347.38
337.281	321.38
337.51	349.38
337.738	340.38
337.966	321.38
338.194	340.38
338.422	359.38
338.65	355.38
338.878	360.38
339.106	335.38
339.334	331.38
339.562	347.38
339.79	327.38
340.018	339.38
340.246	332.38
340.474	329.38
340.702	335.38
340.93	339.38
341.158	352.38
341.386	342.38
341.614	333.38
341.842	326.38
342.07	328.38
342.298	338.38
342.526	315.38
342.754	334.38
342.981	339.38
343.209	332.38
343.437	322.38
343.665	344.38
343.893	345.38
344.12	341.38
344.348	353.38
344.576	338.38
344.804	357.38
345.031	358.38
345.259	360.38
345.487	342.38
345.714	328.38
345.942	326.38
346.17	313.38
346.397	320.38
346.625	334.38
346.853	311.38
347.08	303.38
347.308	317.38
347.535	341.38
347.763	349.38
347.99	342.38
348.218	321.38
348.445	353.38
348.673	344.38
348.9	335.38
349.128	315.38
349.355	337.38
349.583	302.38
349.81	340.38
350.037	348.38
350.265	328.38
350.492	326.38
350.72	326.38
350.947	326.38
351.174	322.38
351.402	337.38
351.629	315.38
351.856	334.38
352.083	340.38
352.311	340.38
352.538	328.38
352.765	324.38
352.992	330.38
353.22	315.38
353.447	324.38
353.674	334.38
353.901	323.38
354.128	318.38
354.355	310.38
354.583	325.38
354.81	320.38
355.037	317.38
355.264	308.38
355.491	316.38
355.718	291.38
355.945	320.38
356.172	304.38
356.399	294.38
356.626	309.38
356.853	304.38
357.08	319.38
357.307	312.38
357.534	302.38
357.761	310.38
357.988	317.38
358.215	324.38
358.441	299.38
358.668	314.38
358.895	322.38
359.122	312.38
359.349	315.38
359.576	332.38
359.802	305.38
360.029	352.38
360.256	348.38
360.483	339.38
360.709	326.38
360.936	325.38
361.163	316.38
361.39	332.38
361.616	331.38
361.843	332.38
362.07	334.38
362.296	334.38
362.523	313.38
362.749	316.38
362.976	332.38
363.203	317.38
363.429	325.38
363.656	316.38
363.882	309.38
364.109	315.38
364.335	334.38
364.562	312.38
364.788	347.38
365.015	323.38
365.241	311.38
365.468	337.38
365.694	323.38
365.92	315.38
366.147	314.38
366.373	329.38
366.599	309.38
366.826	316.38
367.052	317.38
367.278	316.38
367.505	309.38
367.731	338.38
367.957	334.38
368.184	312.38
368.41	328.38
368.636	325.38
368.862	321.38
369.089	329.38
369.315	322.38
369.541	326.38
369.767	320.38
369.993	330.38
370.219	324.38
370.445	308.38
370.672	324.38
370.898	326.38
371.124	310.38
371.35	305.38
371.576	308.38
371.802	317.38
372.028	297.38
372.254	316.38
372.48	314.38
372.706	321.38
372.932	311.38
373.158	296.38
373.384	300.38
373.61	338.38
373.835	307.38
374.061	317.38
374.287	347.38
374.513	331.38
374.739	337.38
374.965	319.38
375.191	310.38
375.416	323.38
375.642	330.38
375.868	329.38
376.094	322.38
376.319	318.38
376.545	325.38
376.771	320.38
376.997	320.38
377.222	324.38
377.448	309.38
377.674	333.38
377.899	313.38
378.125	324.38
378.35	331.38
378.576	314.38
378.802	315.38
379.027	311.38
379.253	312.38
379.478	302.38
379.704	304.38
379.929	333.38
380.155	316.38
380.38	317.38
380.606	326.38
380.831	330.38
381.057	317.38
381.282	330.38
381.507	306.38
381.733	321.38
381.958	326.38
382.184	326.38
382.409	314.38
382.634	332.38
382.86	311.38
383.085	331.38
383.31	308.38
383.535	330.38
383.761	336.38
383.986	345.38
384.211	334.38
384.436	325.38
384.662	331.38
384.887	332.38
385.112	341.38
385.337	339.38
385.562	348.38
385.787	337.38
386.013	353.38
386.238	360.38
386.463	351.38
386.688	360.38
386.913	340.38
387.138	342.38
387.363	337.38
387.588	359.38
387.813	343.38
388.038	343.38
388.263	349.38
388.488	342.38
388.713	357.38
388.938	333.38
389.163	338.38
389.387	363.38
389.612	353.38
389.837	339.38
390.062	328.38
390.287	339.38
390.512	338.38
390.736	330.38
390.961	366.38
391.186	363.38
391.411	353.38
391.636	348.38
391.86	338.38
392.085	345.38
392.31	375.38
392.534	344.38
392.759	340.38
392.984	345.38
393.208	344.38
393.433	347.38
393.658	349.38
393.882	340.38
394.107	339.38
394.331	333.38
394.556	328.38
394.78	344.38
395.005	330.38
395.229	349.38
395.454	354.38
395.678	373.38
395.903	361.38
396.127	366.38
396.352	377.38
396.576	385.38
396.801	354.38
397.025	349.38
397.249	361.38
397.474	371.38
397.698	372.38
397.922	377.38
398.147	368.38
398.371	375.38
398.595	379.38
398.82	385.38
399.044	398.38
399.268	413.38
399.492	443.38
399.717	433.38
399.941	472.38
400.165	470.38
400.389	481.38
400.613	434.38
400.837	426.38
401.062	390.38
401.286	413.38
401.51	385.38
401.734	380.38
401.958	386.38
402.182	372.38
402.406	372.38
402.63	394.38
402.854	381.38
403.078	394.38
403.302	397.38
403.526	383.38
403.75	391.38
403.974	381.38
404.198	392.38
404.422	397.38
404.645	393.38
404.869	390.38
405.093	418.38
405.317	422.38
405.541	433.38
405.765	419.38
405.988	412.38
406.212	423.38
406.436	445.38
406.66	429.38
406.883	430.38
407.107	434.38
407.331	482.38
407.555	504.38
407.778	517.38
408.002	476.38
408.226	436.38
408.449	424.38
408.673	424.38
408.896	444.38
409.12	469.38
409.344	448.38
409.567	421.38
409.791	408.38
410.014	394.38
410.238	396.38
410.461	406.38
410.685	392.38
410.908	407.38
411.132	436.38
411.355	422.38
411.578	440.38
411.802	414.38
412.025	397.38
412.249	408.38
412.472	404.38
412.695	407.38
412.919	402.38
413.142	402.38
413.365	398.38
413.589	392.38
413.812	380.38
414.035	381.38
414.258	385.38
414.482	388.38
414.705	368.38
414.928	359.38
415.151	365.38
415.374	402.38
415.597	375.38
415.821	362.38
416.044	372.38
416.267	360.38
416.49	361.38
416.713	377.38
416.936	384.38
417.159	376.38
417.382	363.38
417.605	380.38
417.828	390.38
418.051	390.38
418.274	387.38
418.497	386.38
418.72	380.38
418.943	382.38
419.166	382.38
419.389	392.38
419.611	402.38
419.834	385.38
420.057	378.38
420.28	390.38
420.503	385.38
420.726	399.38
420.948	389.38
421.171	444.38
421.394	443.38
421.617	412.38
421.839	394.38
422.062	388.38
422.285	408.38
422.507	456.38
422.73	498.38
422.953	457.38
423.175	412.38
423.398	418.38
423.621	400.38
423.843	398.38
424.066	436.38
424.288	421.38
424.511	417.38
424.733	477.38
424.956	516.38
425.178	500.38
425.401	485.38
425.623	523.38
425.846	442.38
426.068	410.38
426.291	425.38
426.513	439.38
426.735	408.38
426.958	447.38
427.18	504.38
427.402	590.38
427.625	638.38
427.847	548.38
428.069	462.38
428.292	421.38
428.514	394.38
428.736	388.38
428.958	378.38
429.181	392.38
429.403	352.38
429.625	380.38
429.847	410.38
430.069	449.38
430.292	460.38
430.514	409.38
430.736	368.38
430.958	384.38
431.18	377.38
431.402	365.38
431.624	364.38
431.846	363.38
432.068	384.38
432.29	386.38
432.512	374.38
432.734	379.38
432.956	384.38
433.178	388.38
433.4	382.38
433.622	369.38
433.844	381.38
434.066	388.38
434.287	368.38
434.509	362.38
434.731	375.38
434.953	379.38
435.175	386.38
435.397	413.38
435.618	414.38
435.84	460.38
436.062	496.38
436.284	541.38
436.505	495.38
436.727	414.38
436.949	405.38
437.17	377.38
437.392	393.38
437.614	392.38
437.835	411.38
438.057	470.38
438.278	540.38
438.5	548.38
438.721	603.38
438.943	552.38
439.165	420.38
439.386	408.38
439.608	420.38
439.829	405.38
440.05	440.38
440.272	458.38
440.493	421.38
440.715	389.38
440.936	395.38
441.158	385.38
441.379	387.38
441.6	413.38
441.822	412.38
442.043	443.38
442.264	496.38
442.486	521.38
442.707	449.38
442.928	453.38
443.149	441.38
443.371	448.38
443.592	477.38
443.813	515.38
444.034	586.38
444.255	483.38
444.476	432.38
444.698	427.38
444.919	430.38
445.14	544.38
445.361	468.38
445.582	435.38
445.803	472.38
446.024	554.38
446.245	536.38
446.466	511.38
446.687	469.38
446.908	412.38
447.129	402.38
447.35	384.38
447.571	372.38
447.792	381.38
448.013	395.38
448.234	405.38
448.455	429.38
448.675	504.38
448.896	587.38
449.117	508.38
449.338	475.38
449.559	566.38
449.779	611.38
450	473.38
450.221	419.38
450.442	394.38
450.662	380.38
450.883	404.38
451.104	401.38
451.324	376.38
451.545	358.38
451.766	376.38
451.986	368.38
452.207	354.38
452.428	356.38
452.648	342.38
452.869	360.38
453.089	356.38
453.31	361.38
453.53	349.38
453.751	365.38
453.971	371.38
454.192	362.38
454.412	355.38
454.633	358.38
454.853	352.38
455.073	347.38
455.294	351.38
455.514	432.38
455.734	376.38
455.955	346.38
456.175	332.38
456.395	322.38
456.616	333.38
456.836	337.38
457.056	343.38
457.276	335.38
457.497	334.38
457.717	341.38
457.937	333.38
458.157	328.38
458.377	353.38
458.598	369.38
458.818	385.38
459.038	428.38
459.258	450.38
459.478	397.38
459.698	369.38
459.918	373.38
460.138	355.38
460.358	356.38
460.578	377.38
460.798	378.38
461.018	364.38
461.238	380.38
461.458	379.38
461.678	387.38
461.898	376.38
462.118	385.38
462.338	379.38
462.558	384.38
462.777	398.38
462.997	406.38
463.217	419.38
463.437	402.38
463.657	391.38
463.876	384.38
464.096	373.38
464.316	402.38
464.536	401.38
464.755	415.38
464.975	397.38
465.195	411.38
465.414	463.38
465.634	429.38
465.854	404.38
466.073	364.38
466.293	359.38
466.512	358.38
466.732	351.38
466.951	365.38
467.171	336.38
467.391	346.38
467.61	378.38
467.829	374.38
468.049	366.38
468.268	352.38
468.488	362.38
468.707	362.38
468.927	356.38
469.146	352.38
469.365	349.38
469.585	365.38
469.804	363.38
470.023	351.38
470.243	357.38
470.462	349.38
470.681	378.38
470.901	388.38
471.12	384.38
471.339	375.38
471.558	382.38
471.777	361.38
471.997	342.38
472.216	354.38
472.435	370.38
472.654	355.38
472.873	352.38
473.092	352.38
473.311	361.38
473.53	377.38
473.749	363.38
473.968	398.38
474.187	466.38
474.406	469.38
474.625	414.38
474.844	371.38
475.063	384.38
475.282	386.38
475.501	360.38
475.72	357.38
475.939	356.38
476.158	379.38
476.377	382.38
476.596	379.38
476.814	389.38
477.033	381.38
477.252	370.38
477.471	381.38
477.69	391.38
477.908	404.38
478.127	398.38
478.346	401.38
478.564	394.38
478.783	406.38
479.002	418.38
479.22	411.38
479.439	424.38
479.658	435.38
479.876	418.38
480.095	458.38
480.313	454.38
480.532	440.38
480.751	440.38
480.969	440.38
481.188	436.38
481.406	454.38
481.624	444.38
481.843	422.38
482.061	424.38
482.28	415.38
482.498	437.38
482.717	433.38
482.935	423.38
483.153	421.38
483.372	417.38
483.59	426.38
483.808	432.38
484.027	419.38
484.245	426.38
484.463	417.38
484.681	430.38
484.9	419.38
485.118	435.38
485.336	420.38
485.554	428.38
485.772	442.38
485.99	426.38
486.209	421.38
486.427	427.38
486.645	452.38
486.863	457.38
487.081	464.38
487.299	444.38
487.517	434.38
487.735	454.38
487.953	466.38
488.171	450.38
488.389	475.38
488.607	446.38
488.825	461.38
489.043	449.38
489.261	448.38
489.479	461.38
489.696	460.38
489.914	452.38
490.132	458.38
490.35	446.38
490.568	484.38
490.786	485.38
491.003	472.38
491.221	480.38
491.439	512.38
491.657	481.38
491.874	490.38
492.092	508.38
492.31	506.38
492.527	528.38
492.745	523.38
492.963	512.38
493.18	501.38
493.398	507.38
493.615	527.38
493.833	510.38
494.05	516.38
494.268	523.38
494.485	534.38
494.703	534.38
494.92	502.38
495.138	536.38
495.355	525.38
495.573	518.38
495.79	539.38
496.008	539.38
496.225	508.38
496.442	515.38
496.66	541.38
496.877	526.38
497.094	563.38
497.312	541.38
497.529	538.38
497.746	545.38
497.963	536.38
498.181	540.38
498.398	576.38
498.615	602.38
498.832	592.38
499.049	598.38
499.267	633.38
499.484	602.38
499.701	656.38
499.918	670.38
500.135	694.38
500.352	706.38
500.569	743.38
500.786	705.38
501.003	730.38
501.22	696.38
501.437	709.38
501.654	670.38
501.871	654.38
502.088	621.38
502.305	603.38
502.522	589.38
502.739	588.38
502.956	574.38
503.172	545.38
503.389	564.38
503.606	549.38
503.823	572.38
504.04	546.38
504.256	532.38
504.473	530.38
504.69	541.38
504.907	541.38
505.123	521.38
505.34	506.38
505.557	490.38
505.773	510.38
505.99	497.38
506.207	513.38
506.423	503.38
506.64	499.38
506.856	489.38
507.073	488.38
507.289	480.38
507.506	487.38
507.722	497.38
507.939	486.38
508.155	479.38
508.372	490.38
508.588	468.38
508.805	473.38
509.021	460.38
509.238	473.38
509.454	477.38
509.67	470.38
509.887	464.38
510.103	469.38
510.319	482.38
510.536	535.38
510.752	812.38
510.968	681.38
511.184	486.38
511.401	468.38
511.617	450.38
511.833	440.38
512.049	425.38
512.265	420.38
512.481	442.38
512.698	454.38
512.914	453.38
513.13	443.38
513.346	448.38
513.562	459.38
513.778	458.38
513.994	467.38
514.21	476.38
514.426	478.38
514.642	505.38
514.858	488.38
515.074	503.38
515.29	609.38
515.506	844.38
515.721	714.38
515.937	526.38
516.153	508.38
516.369	483.38
516.585	474.38
516.801	476.38
517.016	475.38
517.232	453.38
517.448	458.38
517.664	478.38
517.879	477.38
518.095	463.38
518.311	468.38
518.527	452.38
518.742	446.38
518.958	449.38
519.173	463.38
519.389	437.38
519.605	441.38
519.82	438.38
520.036	453.38
520.251	481.38
520.467	471.38
520.682	453.38
520.898	473.38
521.113	478.38
521.329	517.38
521.544	574.38
521.76	682.38
521.975	1088.38
522.19	1048.38
522.406	613.38
522.621	508.38
522.836	454.38
523.052	427.38
523.267	425.38
523.482	418.38
523.698	410.38
523.913	435.38
524.128	428.38
524.343	406.38
524.559	402.38
524.774	392.38
524.989	384.38
525.204	421.38
525.419	400.38
525.634	404.38
525.849	416.38
526.064	385.38
526.28	382.38
526.495	385.38
526.71	383.38
526.925	381.38
527.14	371.38
527.355	376.38
527.57	396.38
527.785	373.38
527.999	382.38
528.214	395.38
528.429	375.38
528.644	376.38
528.859	347.38
529.074	368.38
529.289	393.38
529.503	444.38
529.718	426.38
529.933	382.38
530.148	382.38
530.363	377.38
530.577	375.38
530.792	353.38
531.007	361.38
531.221	350.38
531.436	372.38
531.651	369.38
531.865	346.38
532.08	361.38
532.295	364.38
532.509	371.38
532.724	342.38
532.938	366.38
533.153	352.38
533.367	370.38
533.582	377.38
533.796	370.38
534.011	347.38
534.225	358.38
534.44	345.38
534.654	354.38
534.868	355.38
535.083	346.38
535.297	350.38
535.511	371.38
535.726	368.38
535.94	348.38
536.154	360.38
536.369	370.38
536.583	320.38
536.797	318.38
537.011	357.38
537.225	337.38
537.44	349.38
537.654	346.38
537.868	355.38
538.082	344.38
538.296	345.38
538.51	355.38
538.724	352.38
538.938	363.38
539.153	363.38
539.367	358.38
539.581	349.38
539.795	341.38
540.009	327.38
540.222	345.38
540.436	338.38
540.65	362.38
540.864	366.38
541.078	360.38
541.292	349.38
541.506	337.38
541.72	338.38
541.934	341.38
542.147	328.38
542.361	351.38
542.575	334.38
542.789	341.38
543.002	352.38
543.216	328.38
543.43	333.38
543.644	332.38
543.857	349.38
544.071	340.38
544.285	353.38
544.498	346.38
544.712	344.38
544.925	347.38
545.139	333.38
545.352	336.38
545.566	338.38
545.779	330.38
545.993	341.38
546.206	345.38
546.42	349.38
546.633	360.38
546.847	333.38
547.06	342.38
547.274	341.38
547.487	330.38
547.7	323.38
547.914	333.38
548.127	329.38
548.34	337.38
548.554	322.38
548.767	329.38
548.98	329.38
549.193	349.38
549.407	325.38
549.62	346.38
549.833	344.38
550.046	333.38
550.259	332.38
550.473	317.38
550.686	328.38
550.899	334.38
551.112	312.38
551.325	316.38
551.538	324.38
551.751	316.38
551.964	326.38
552.177	343.38
552.39	317.38
552.603	337.38
552.816	347.38
553.029	333.38
553.242	350.38
553.455	335.38
553.667	337.38
553.88	342.38
554.093	343.38
554.306	337.38
554.519	335.38
554.732	333.38
554.944	328.38
555.157	312.38
555.37	315.38
555.583	315.38
555.795	337.38
556.008	282.38
556.221	301.38
556.433	302.38
556.646	294.38
556.859	304.38
557.071	314.38
557.284	301.38
557.496	305.38
557.709	306.38
557.921	301.38
558.134	304.38
558.346	316.38
558.559	308.38
558.771	310.38
558.984	307.38
559.196	265.38
559.409	304.38
559.621	308.38
559.833	297.38
560.046	304.38
560.258	280.38
560.47	310.38
560.683	291.38
560.895	305.38
561.107	292.38
561.32	281.38
561.532	306.38
561.744	304.38
561.956	305.38
562.168	308.38
562.381	295.38
562.593	305.38
562.805	300.38
563.017	304.38
563.229	286.38
563.441	296.38
563.653	316.38
563.865	306.38
564.077	310.38
564.289	312.38
564.501	297.38
564.713	316.38
564.925	322.38
565.137	316.38
565.349	321.38
565.561	305.38
565.773	338.38
565.985	313.38
566.197	344.38
566.408	328.38
566.62	346.38
566.832	346.38
567.044	342.38
567.255	355.38
567.467	352.38
567.679	359.38
567.891	382.38
568.102	365.38
568.314	368.38
568.526	354.38
568.737	344.38
568.949	328.38
569.161	323.38
569.372	329.38
569.584	306.38
569.795	284.38
570.007	272.38
570.218	340.38
570.43	301.38
570.641	270.38
570.853	300.38
571.064	298.38
571.276	291.38
571.487	275.38
571.698	256.38
571.91	283.38
572.121	280.38
572.333	261.38
572.544	252.38
572.755	270.38
572.966	273.38
573.178	251.38
573.389	274.38
573.6	283.38
573.811	271.38
574.023	267.38
574.234	254.38
574.445	248.38
574.656	274.38
574.867	237.38
575.078	254.38
575.289	248.38
575.501	259.38
575.712	256.38
575.923	260.38
576.134	252.38
576.345	241.38
576.556	265.38
576.767	235.38
576.978	252.38
577.188	256.38
577.399	274.38
577.61	247.38
577.821	250.38
578.032	242.38
578.243	285.38
578.454	416.38
578.665	298.38
578.875	254.38
579.086	225.38
579.297	240.38
579.508	232.38
579.718	228.38
579.929	237.38
580.14	245.38
580.35	239.38
580.561	217.38
580.772	233.38
580.982	241.38
581.193	234.38
581.403	225.38
581.614	234.38
581.825	245.38
582.035	225.38
582.246	231.38
582.456	235.38
582.667	221.38
582.877	229.38
583.087	232.38
583.298	249.38
583.508	230.38
583.719	229.38
583.929	236.38
584.139	235.38
584.35	216.38
584.56	218.38
584.77	227.38
584.981	235.38
585.191	232.38
585.401	224.38
585.611	231.38
585.821	229.38
586.032	224.38
586.242	219.38
586.452	234.38
586.662	224.38
586.872	232.38
587.082	210.38
587.292	240.38
587.502	214.38
587.713	217.38
587.923	234.38
588.133	231.38
588.343	227.38
588.553	225.38
588.762	232.38
588.972	226.38
589.182	242.38
589.392	245.38
589.602	228.38
589.812	219.38
590.022	213.38
590.232	224.38
590.441	205.38
590.651	208.38
590.861	214.38
591.071	232.38
591.281	217.38
591.49	233.38
591.7	224.38
591.91	234.38
592.119	209.38
592.329	225.38
592.539	238.38
592.748	236.38
592.958	224.38
593.167	235.38
593.377	232.38
593.587	224.38
593.796	244.38
594.006	244.38
594.215	244.38
594.424	219.38
594.634	238.38
594.843	241.38
595.053	233.38
595.262	224.38
595.472	226.38
595.681	222.38
595.89	225.38
596.1	216.38
596.309	213.38
596.518	210.38
596.727	237.38
596.937	205.38
597.146	217.38
597.355	198.38
597.564	195.38
597.774	193.38
597.983	198.38
598.192	221.38
598.401	206.38
598.61	206.38
598.819	217.38
599.028	194.38
599.237	213.38
599.446	218.38
599.655	203.38
599.864	182.38
600.073	200.38
600.282	206.38
600.491	204.38
600.7	209.38
600.909	197.38
601.118	214.38
601.327	189.38
601.536	195.38
601.745	175.38
601.953	186.38
602.162	201.38
602.371	196.38
602.58	202.38
602.789	203.38
602.997	203.38
603.206	211.38
603.415	188.38
603.623	204.38
603.832	191.38
604.041	194.38
604.249	192.38
604.458	188.38
604.666	187.38
604.875	185.38
605.084	201.38
605.292	189.38
605.501	194.38
605.709	190.38
605.918	189.38
606.126	200.38
606.334	189.38
606.543	211.38
606.751	174.38
606.96	192.38
607.168	210.38
607.376	193.38
607.585	199.38
607.793	210.38
608.001	195.38
608.21	197.38
608.418	192.38
608.626	197.38
608.834	205.38
609.043	184.38
609.251	179.38
609.459	188.38
609.667	201.38
609.875	186.38
610.083	200.38
610.291	192.38
610.499	189.38
610.707	197.38
610.916	213.38
611.124	194.38
611.332	179.38
611.54	207.38
611.748	205.38
611.955	195.38
612.163	189.38
612.371	201.38
612.579	176.38
612.787	181.38
612.995	162.38
613.203	196.38
613.411	197.38
613.618	187.38
613.826	176.38
614.034	188.38
614.242	185.38
614.449	176.38
614.657	170.38
614.865	173.38
615.072	194.38
615.28	183.38
615.488	190.38
615.695	178.38
615.903	181.38
616.111	189.38
616.318	190.38
616.526	203.38
616.733	187.38
616.941	173.38
617.148	181.38
617.356	169.38
617.563	181.38
617.771	187.38
617.978	187.38
618.185	188.38
618.393	184.38
618.6	185.38
618.807	185.38
619.015	173.38
619.222	177.38
619.429	174.38
619.637	183.38
619.844	180.38
620.051	193.38
620.258	184.38
620.466	173.38
620.673	188.38
620.88	182.38
621.087	179.38
621.294	175.38
621.501	167.38
621.708	162.38
621.915	183.38
622.122	176.38
622.329	191.38
622.536	207.38
622.743	169.38
622.95	178.38
623.157	160.38
623.364	169.38
623.571	170.38
623.778	188.38
623.985	164.38
624.192	180.38
624.399	172.38
624.606	166.38
624.812	183.38
625.019	162.38
625.226	167.38
625.433	173.38
625.639	150.38
625.846	164.38
626.053	184.38
626.259	167.38
626.466	168.38
626.673	173.38
626.879	170.38
627.086	162.38
627.293	164.38
627.499	163.38
627.706	164.38
627.912	156.38
628.119	159.38
628.325	156.38
628.532	178.38
628.738	160.38
628.945	158.38
629.151	153.38
629.357	167.38
629.564	157.38
629.77	160.38
629.976	160.38
630.183	166.38
630.389	161.38
630.595	156.38
630.802	162.38
631.008	158.38
631.214	171.38
631.42	170.38
631.627	181.38
631.833	162.38
632.039	170.38
632.245	163.38
632.451	145.38
632.657	156.38
632.863	169.38
633.069	150.38
633.275	152.38
633.481	150.38
633.688	154.38
633.893	146.38
634.099	161.38
634.305	145.38
634.511	140.38
634.717	153.38
634.923	149.38
635.129	153.38
635.335	152.38
635.541	132.38
635.747	156.38
635.952	149.38
636.158	165.38
636.364	156.38
636.57	144.38
636.775	142.38
636.981	150.38
637.187	158.38
637.392	139.38
637.598	158.38
637.804	153.38
638.009	148.38
638.215	150.38
638.421	127.38
638.626	138.38
638.832	148.38
639.037	147.38
639.243	145.38
639.448	157.38
639.654	143.38
639.859	147.38
640.065	147.38
640.27	147.38
640.475	154.38
640.681	153.38
640.886	138.38
641.091	136.38
641.297	149.38
641.502	142.38
641.707	143.38
641.913	148.38
642.118	141.38
642.323	159.38
642.528	149.38
642.733	142.38
642.939	139.38
643.144	142.38
643.349	131.38
643.554	140.38
643.759	149.38
643.964	139.38
644.169	135.38
644.374	141.38
644.579	150.38
644.784	133.38
644.989	149.38
645.194	143.38
645.399	156.38
645.604	141.38
645.809	133.38
646.014	143.38
646.219	156.38
646.423	142.38
646.628	141.38
646.833	136.38
647.038	130.38
647.243	133.38
647.447	140.38
647.652	139.38
647.857	151.38
648.062	146.38
648.266	143.38
648.471	137.38
648.676	140.38
648.88	144.38
649.085	162.38
649.289	143.38
649.494	135.38
649.698	162.38
649.903	157.38
650.107	152.38
650.312	132.38
650.516	136.38
650.721	132.38
650.925	132.38
651.13	117.38
651.334	124.38
651.539	133.38
651.743	127.38
651.947	139.38
652.152	136.38
652.356	113.38
652.56	125.38
652.764	130.38
652.969	130.38
653.173	132.38
653.377	118.38
653.581	123.38
653.785	119.38
653.99	129.38
654.194	124.38
654.398	130.38
654.602	124.38
654.806	132.38
655.01	119.38
655.214	126.38
655.418	133.38
655.622	122.38
655.826	120.38
656.03	122.38
656.234	135.38
656.438	116.38
656.642	130.38
656.846	123.38
657.049	118.38
657.253	109.38
657.457	92.38
657.661	113.38
657.865	107.38
658.068	104.38
658.272	101.38
658.476	107.38
658.68	96.38
658.883	103.38
659.087	104.38
659.291	88.38
659.494	89.38
659.698	87.38
659.901	93.38
660.105	77.38
660.309	90.38
660.512	92.38
660.716	102.38
660.919	96.38
661.123	99.38
661.326	98.38
661.53	96.38
661.733	85.38
661.936	91.38
662.14	89.38
662.343	84.38
662.546	87.38
662.75	76.38
662.953	85.38
663.156	87.38
663.36	91.38
663.563	78.38
663.766	68.38
663.969	80.38
664.173	53.38
664.376	95.38
664.579	86.38
664.782	81.38
664.985	71.38
665.188	93.38
665.391	87.38
665.594	88.38
665.797	91.38
666	85.38
666.203	91.38
666.406	91.38
666.609	83.38
666.812	86.38
667.015	79.38
667.218	90.38
667.421	90.38
667.624	83.38
667.827	83.38
668.03	88.38
668.232	80.38
668.435	84.38
668.638	94.38
668.841	81.38
669.043	86.38
669.246	85.38
669.449	81.38
669.651	88.38
669.854	71.38
670.057	82.38
670.259	76.38
670.462	91.38
670.665	81.38
670.867	103.38
671.07	74.38
671.272	93.38
671.475	77.38
671.677	87.38
671.88	92.38
672.082	98.38
672.284	86.38
672.487	76.38
672.689	90.38
672.892	88.38
