Data from 1983.PennyLincolnUp.Lamp.En5.5.200Scan.071819.P1_HRD10591_16-52-52-965.txt Node
Date: Thu Jul 18 16:52:52 EDT 2019
User: cochatt
Spectrometer: HR+D1059
Trigger mode: 1
Integration Time (sec): 1.000000E-1
Scans to average: 1
Electric dark correction enabled: true
Nonlinearity correction enabled: false
Boxcar width: 0
XAxis mode: Wavelengths
Number of Pixels in Spectrum: 2048
>>>>>Begin Spectral Data<<<<<
223.165	-8.94
223.4	-8.94
223.635	-8.94
223.869	-16.94
224.104	-20.94
224.338	-10.94
224.573	-10.94
224.808	-6.94
225.042	-5.94
225.277	-23.94
225.511	-0.94
225.746	-0.94
225.98	20.06
226.215	1.06
226.449	22.06
226.683	13.06
226.918	28.06
227.152	23.06
227.387	41.06
227.621	39.06
227.856	45.06
228.09	44.06
228.324	47.06
228.559	51.06
228.793	67.06
229.027	81.06
229.262	110.06
229.496	111.06
229.73	117.06
229.964	131.06
230.199	108.06
230.433	105.06
230.667	95.06
230.901	117.06
231.136	107.06
231.37	110.06
231.604	109.06
231.838	116.06
232.072	114.06
232.306	113.06
232.541	106.06
232.775	114.06
233.009	101.06
233.243	108.06
233.477	117.06
233.711	113.06
233.945	115.06
234.179	114.06
234.413	107.06
234.647	109.06
234.881	113.06
235.115	123.06
235.349	114.06
235.583	108.06
235.817	111.06
236.051	109.06
236.285	113.06
236.519	100.06
236.753	135.06
236.987	145.06
237.221	159.06
237.455	202.06
237.689	169.06
237.922	130.06
238.156	127.06
238.39	115.06
238.624	124.06
238.858	123.06
239.091	122.06
239.325	101.06
239.559	119.06
239.793	111.06
240.027	121.06
240.26	132.06
240.494	143.06
240.728	155.06
240.961	135.06
241.195	132.06
241.429	137.06
241.662	113.06
241.896	121.06
242.13	126.06
242.363	122.06
242.597	138.06
242.83	127.06
243.064	122.06
243.298	124.06
243.531	114.06
243.765	139.06
243.998	124.06
244.232	138.06
244.465	136.06
244.699	123.06
244.932	130.06
245.166	115.06
245.399	131.06
245.633	128.06
245.866	128.06
246.099	130.06
246.333	154.06
246.566	154.06
246.8	143.06
247.033	146.06
247.266	152.06
247.5	140.06
247.733	155.06
247.966	156.06
248.2	142.06
248.433	154.06
248.666	146.06
248.899	159.06
249.133	171.06
249.366	184.06
249.599	174.06
249.832	164.06
250.066	155.06
250.299	161.06
250.532	168.06
250.765	179.06
250.998	203.06
251.231	193.06
251.465	187.06
251.698	184.06
251.931	177.06
252.164	172.06
252.397	186.06
252.63	181.06
252.863	176.06
253.096	203.06
253.329	206.06
253.562	188.06
253.795	195.06
254.028	187.06
254.261	205.06
254.494	214.06
254.727	222.06
254.96	224.06
255.193	246.06
255.426	212.06
255.659	207.06
255.892	186.06
256.124	193.06
256.357	196.06
256.59	178.06
256.823	162.06
257.056	197.06
257.289	181.06
257.521	178.06
257.754	197.06
257.987	186.06
258.22	209.06
258.452	192.06
258.685	185.06
258.918	177.06
259.151	193.06
259.383	201.06
259.616	197.06
259.849	229.06
260.081	218.06
260.314	233.06
260.547	219.06
260.779	214.06
261.012	227.06
261.244	195.06
261.477	203.06
261.71	208.06
261.942	209.06
262.175	217.06
262.407	201.06
262.64	189.06
262.872	201.06
263.105	188.06
263.337	187.06
263.57	190.06
263.802	181.06
264.035	205.06
264.267	189.06
264.499	193.06
264.732	203.06
264.964	201.06
265.197	208.06
265.429	179.06
265.661	197.06
265.894	201.06
266.126	183.06
266.358	190.06
266.591	191.06
266.823	197.06
267.055	203.06
267.287	209.06
267.52	215.06
267.752	219.06
267.984	204.06
268.216	207.06
268.448	202.06
268.681	200.06
268.913	216.06
269.145	239.06
269.377	230.06
269.609	238.06
269.841	258.06
270.073	236.06
270.306	275.06
270.538	279.06
270.77	287.06
271.002	258.06
271.234	267.06
271.466	263.06
271.698	281.06
271.93	286.06
272.162	285.06
272.394	272.06
272.626	246.06
272.858	265.06
273.09	252.06
273.322	259.06
273.553	234.06
273.785	237.06
274.017	223.06
274.249	243.06
274.481	238.06
274.713	236.06
274.945	219.06
275.176	231.06
275.408	221.06
275.64	233.06
275.872	227.06
276.104	239.06
276.335	234.06
276.567	229.06
276.799	248.06
277.031	267.06
277.262	286.06
277.494	262.06
277.726	267.06
277.957	259.06
278.189	230.06
278.421	227.06
278.652	262.06
278.884	223.06
279.115	236.06
279.347	242.06
279.579	230.06
279.81	247.06
280.042	213.06
280.273	229.06
280.505	217.06
280.736	260.06
280.968	249.06
281.199	235.06
281.431	225.06
281.662	235.06
281.894	233.06
282.125	246.06
282.356	262.06
282.588	274.06
282.819	273.06
283.051	254.06
283.282	242.06
283.513	232.06
283.745	243.06
283.976	240.06
284.207	234.06
284.439	241.06
284.67	235.06
284.901	250.06
285.132	258.06
285.364	247.06
285.595	242.06
285.826	247.06
286.057	244.06
286.288	261.06
286.52	255.06
286.751	247.06
286.982	265.06
287.213	245.06
287.444	258.06
287.675	269.06
287.906	281.06
288.138	265.06
288.369	267.06
288.6	265.06
288.831	256.06
289.062	262.06
289.293	265.06
289.524	254.06
289.755	252.06
289.986	259.06
290.217	261.06
290.448	259.06
290.679	249.06
290.91	258.06
291.141	271.06
291.371	245.06
291.602	253.06
291.833	266.06
292.064	249.06
292.295	269.06
292.526	284.06
292.757	256.06
292.987	253.06
293.218	259.06
293.449	264.06
293.68	253.06
293.91	277.06
294.141	260.06
294.372	282.06
294.603	261.06
294.833	267.06
295.064	265.06
295.295	260.06
295.525	244.06
295.756	260.06
295.987	284.06
296.217	310.06
296.448	307.06
296.679	279.06
296.909	263.06
297.14	249.06
297.37	265.06
297.601	260.06
297.831	271.06
298.062	266.06
298.292	274.06
298.523	270.06
298.753	256.06
298.984	263.06
299.214	267.06
299.445	283.06
299.675	283.06
299.905	281.06
300.136	274.06
300.366	282.06
300.597	273.06
300.827	283.06
301.057	306.06
301.288	285.06
301.518	298.06
301.748	288.06
301.979	280.06
302.209	295.06
302.439	293.06
302.669	266.06
302.9	271.06
303.13	263.06
303.36	280.06
303.59	291.06
303.82	286.06
304.051	289.06
304.281	298.06
304.511	309.06
304.741	290.06
304.971	300.06
305.201	298.06
305.431	281.06
305.661	294.06
305.891	298.06
306.121	295.06
306.352	309.06
306.582	313.06
306.812	286.06
307.042	289.06
307.272	289.06
307.502	297.06
307.731	299.06
307.961	277.06
308.191	290.06
308.421	295.06
308.651	295.06
308.881	309.06
309.111	307.06
309.341	294.06
309.571	291.06
309.8	328.06
310.03	315.06
310.26	343.06
310.49	333.06
310.72	344.06
310.949	357.06
311.179	341.06
311.409	349.06
311.639	341.06
311.868	342.06
312.098	341.06
312.328	354.06
312.557	352.06
312.787	365.06
313.017	357.06
313.246	353.06
313.476	334.06
313.706	324.06
313.935	344.06
314.165	357.06
314.394	353.06
314.624	349.06
314.853	366.06
315.083	323.06
315.312	338.06
315.542	329.06
315.771	331.06
316.001	338.06
316.23	323.06
316.46	322.06
316.689	333.06
316.919	334.06
317.148	349.06
317.377	342.06
317.607	359.06
317.836	339.06
318.065	341.06
318.295	325.06
318.524	343.06
318.753	321.06
318.983	322.06
319.212	334.06
319.441	351.06
319.67	310.06
319.9	332.06
320.129	335.06
320.358	349.06
320.587	347.06
320.816	350.06
321.046	364.06
321.275	369.06
321.504	337.06
321.733	366.06
321.962	372.06
322.191	362.06
322.42	381.06
322.649	418.06
322.878	408.06
323.108	409.06
323.337	437.06
323.566	435.06
323.795	468.06
324.024	518.06
324.253	625.06
324.482	917.06
324.71	1371.06
324.939	1801.06
325.168	1489.06
325.397	825.06
325.626	582.06
325.855	499.06
326.084	457.06
326.313	468.06
326.542	449.06
326.77	513.06
326.999	570.06
327.228	812.06
327.457	1164.06
327.686	1351.06
327.914	893.06
328.143	614.06
328.372	535.06
328.6	512.06
328.829	509.06
329.058	505.06
329.287	509.06
329.515	487.06
329.744	421.06
329.972	436.06
330.201	433.06
330.43	453.06
330.658	501.06
330.887	513.06
331.115	504.06
331.344	456.06
331.572	427.06
331.801	445.06
332.03	435.06
332.258	422.06
332.486	405.06
332.715	404.06
332.943	387.06
333.172	393.06
333.4	396.06
333.629	409.06
333.857	397.06
334.085	389.06
334.314	407.06
334.542	403.06
334.771	405.06
334.999	408.06
335.227	414.06
335.455	399.06
335.684	376.06
335.912	373.06
336.14	396.06
336.369	381.06
336.597	376.06
336.825	411.06
337.053	390.06
337.281	375.06
337.51	368.06
337.738	389.06
337.966	375.06
338.194	381.06
338.422	383.06
338.65	377.06
338.878	379.06
339.106	377.06
339.334	377.06
339.562	354.06
339.79	385.06
340.018	382.06
340.246	371.06
340.474	392.06
340.702	368.06
340.93	372.06
341.158	379.06
341.386	372.06
341.614	393.06
341.842	373.06
342.07	366.06
342.298	362.06
342.526	361.06
342.754	349.06
342.981	355.06
343.209	358.06
343.437	352.06
343.665	366.06
343.893	377.06
344.12	397.06
344.348	358.06
344.576	393.06
344.804	378.06
345.031	381.06
345.259	380.06
345.487	371.06
345.714	399.06
345.942	376.06
346.17	372.06
346.397	357.06
346.625	393.06
346.853	373.06
347.08	366.06
347.308	389.06
347.535	373.06
347.763	379.06
347.99	367.06
348.218	364.06
348.445	362.06
348.673	372.06
348.9	373.06
349.128	370.06
349.355	359.06
349.583	375.06
349.81	356.06
350.037	359.06
350.265	335.06
350.492	364.06
350.72	372.06
350.947	361.06
351.174	365.06
351.402	358.06
351.629	382.06
351.856	364.06
352.083	369.06
352.311	372.06
352.538	378.06
352.765	392.06
352.992	374.06
353.22	363.06
353.447	365.06
353.674	358.06
353.901	352.06
354.128	359.06
354.355	341.06
354.583	360.06
354.81	350.06
355.037	348.06
355.264	345.06
355.491	357.06
355.718	329.06
355.945	348.06
356.172	332.06
356.399	317.06
356.626	342.06
356.853	371.06
357.08	345.06
357.307	361.06
357.534	347.06
357.761	333.06
357.988	360.06
358.215	371.06
358.441	348.06
358.668	353.06
358.895	340.06
359.122	354.06
359.349	382.06
359.576	378.06
359.802	377.06
360.029	400.06
360.256	409.06
360.483	418.06
360.709	378.06
360.936	371.06
361.163	389.06
361.39	363.06
361.616	356.06
361.843	368.06
362.07	373.06
362.296	351.06
362.523	339.06
362.749	364.06
362.976	354.06
363.203	366.06
363.429	344.06
363.656	355.06
363.882	371.06
364.109	362.06
364.335	341.06
364.562	370.06
364.788	353.06
365.015	341.06
365.241	338.06
365.468	351.06
365.694	353.06
365.92	341.06
366.147	332.06
366.373	356.06
366.599	344.06
366.826	351.06
367.052	345.06
367.278	332.06
367.505	353.06
367.731	349.06
367.957	353.06
368.184	349.06
368.41	366.06
368.636	356.06
368.862	356.06
369.089	363.06
369.315	350.06
369.541	353.06
369.767	349.06
369.993	348.06
370.219	357.06
370.445	339.06
370.672	346.06
370.898	346.06
371.124	347.06
371.35	342.06
371.576	367.06
371.802	349.06
372.028	348.06
372.254	361.06
372.48	341.06
372.706	348.06
372.932	346.06
373.158	360.06
373.384	365.06
373.61	340.06
373.835	336.06
374.061	346.06
374.287	330.06
374.513	336.06
374.739	349.06
374.965	357.06
375.191	348.06
375.416	363.06
375.642	357.06
375.868	370.06
376.094	341.06
376.319	353.06
376.545	338.06
376.771	339.06
376.997	354.06
377.222	344.06
377.448	333.06
377.674	332.06
377.899	337.06
378.125	327.06
378.35	336.06
378.576	322.06
378.802	336.06
379.027	342.06
379.253	348.06
379.478	336.06
379.704	345.06
379.929	339.06
380.155	349.06
380.38	354.06
380.606	347.06
380.831	347.06
381.057	333.06
381.282	350.06
381.507	345.06
381.733	353.06
381.958	369.06
382.184	339.06
382.409	342.06
382.634	345.06
382.86	366.06
383.085	366.06
383.31	365.06
383.535	383.06
383.761	357.06
383.986	347.06
384.211	356.06
384.436	376.06
384.662	351.06
384.887	359.06
385.112	363.06
385.337	374.06
385.562	343.06
385.787	373.06
386.013	375.06
386.238	382.06
386.463	379.06
386.688	383.06
386.913	366.06
387.138	377.06
387.363	352.06
387.588	364.06
387.813	357.06
388.038	360.06
388.263	349.06
388.488	374.06
388.713	367.06
388.938	353.06
389.163	381.06
389.387	364.06
389.612	365.06
389.837	369.06
390.062	359.06
390.287	378.06
390.512	379.06
390.736	357.06
390.961	385.06
391.186	357.06
391.411	375.06
391.636	363.06
391.86	379.06
392.085	381.06
392.31	351.06
392.534	384.06
392.759	354.06
392.984	372.06
393.208	377.06
393.433	358.06
393.658	369.06
393.882	393.06
394.107	381.06
394.331	384.06
394.556	378.06
394.78	350.06
395.005	359.06
395.229	378.06
395.454	387.06
395.678	395.06
395.903	378.06
396.127	405.06
396.352	409.06
396.576	408.06
396.801	381.06
397.025	385.06
397.249	377.06
397.474	406.06
397.698	395.06
397.922	404.06
398.147	403.06
398.371	402.06
398.595	398.06
398.82	398.06
399.044	430.06
399.268	408.06
399.492	469.06
399.717	461.06
399.941	493.06
400.165	518.06
400.389	529.06
400.613	467.06
400.837	414.06
401.062	429.06
401.286	410.06
401.51	416.06
401.734	406.06
401.958	399.06
402.182	405.06
402.406	411.06
402.63	437.06
402.854	429.06
403.078	426.06
403.302	429.06
403.526	422.06
403.75	425.06
403.974	437.06
404.198	440.06
404.422	433.06
404.645	452.06
404.869	430.06
405.093	451.06
405.317	467.06
405.541	477.06
405.765	454.06
405.988	452.06
406.212	454.06
406.436	493.06
406.66	497.06
406.883	472.06
407.107	500.06
407.331	517.06
407.555	581.06
407.778	563.06
408.002	519.06
408.226	473.06
408.449	470.06
408.673	456.06
408.896	486.06
409.12	515.06
409.344	507.06
409.567	456.06
409.791	457.06
410.014	442.06
410.238	441.06
410.461	443.06
410.685	428.06
410.908	442.06
411.132	463.06
411.355	485.06
411.578	466.06
411.802	445.06
412.025	464.06
412.249	429.06
412.472	449.06
412.695	429.06
412.919	433.06
413.142	409.06
413.365	419.06
413.589	446.06
413.812	405.06
414.035	417.06
414.258	412.06
414.482	399.06
414.705	393.06
414.928	404.06
415.151	389.06
415.374	396.06
415.597	397.06
415.821	386.06
416.044	406.06
416.267	409.06
416.49	421.06
416.713	418.06
416.936	396.06
417.159	410.06
417.382	404.06
417.605	394.06
417.828	406.06
418.051	417.06
418.274	434.06
418.497	402.06
418.72	443.06
418.943	414.06
419.166	421.06
419.389	431.06
419.611	419.06
419.834	411.06
420.057	433.06
420.28	412.06
420.503	430.06
420.726	431.06
420.948	442.06
421.171	460.06
421.394	490.06
421.617	442.06
421.839	418.06
422.062	409.06
422.285	430.06
422.507	483.06
422.73	514.06
422.953	514.06
423.175	482.06
423.398	440.06
423.621	460.06
423.843	452.06
424.066	474.06
424.288	454.06
424.511	465.06
424.733	503.06
424.956	561.06
425.178	543.06
425.401	542.06
425.623	583.06
425.846	501.06
426.068	463.06
426.291	442.06
426.513	466.06
426.735	473.06
426.958	487.06
427.18	542.06
427.402	646.06
427.625	725.06
427.847	650.06
428.069	537.06
428.292	494.06
428.514	458.06
428.736	409.06
428.958	458.06
429.181	421.06
429.403	391.06
429.625	423.06
429.847	448.06
430.069	505.06
430.292	513.06
430.514	455.06
430.736	433.06
430.958	419.06
431.18	397.06
431.402	411.06
431.624	379.06
431.846	403.06
432.068	417.06
432.29	398.06
432.512	409.06
432.734	403.06
432.956	417.06
433.178	424.06
433.4	413.06
433.622	415.06
433.844	404.06
434.066	401.06
434.287	430.06
434.509	414.06
434.731	427.06
434.953	432.06
435.175	438.06
435.397	451.06
435.618	439.06
435.84	481.06
436.062	550.06
436.284	589.06
436.505	530.06
436.727	462.06
436.949	446.06
437.17	443.06
437.392	425.06
437.614	436.06
437.835	473.06
438.057	548.06
438.278	609.06
438.5	628.06
438.721	661.06
438.943	635.06
439.165	512.06
439.386	477.06
439.608	478.06
439.829	467.06
440.05	500.06
440.272	534.06
440.493	509.06
440.715	446.06
440.936	450.06
441.158	426.06
441.379	425.06
441.6	457.06
441.822	468.06
442.043	479.06
442.264	552.06
442.486	590.06
442.707	506.06
442.928	483.06
443.149	482.06
443.371	489.06
443.592	539.06
443.813	611.06
444.034	627.06
444.255	526.06
444.476	484.06
444.698	465.06
444.919	441.06
445.14	555.06
445.361	526.06
445.582	508.06
445.803	553.06
446.024	610.06
446.245	631.06
446.466	585.06
446.687	490.06
446.908	462.06
447.129	440.06
447.35	418.06
447.571	413.06
447.792	431.06
448.013	420.06
448.234	447.06
448.455	504.06
448.675	581.06
448.896	650.06
449.117	559.06
449.338	541.06
449.559	589.06
449.779	671.06
450	549.06
450.221	460.06
450.442	448.06
450.662	412.06
450.883	425.06
451.104	438.06
451.324	445.06
451.545	409.06
451.766	399.06
451.986	394.06
452.207	389.06
452.428	369.06
452.648	402.06
452.869	388.06
453.089	405.06
453.31	400.06
453.53	390.06
453.751	369.06
453.971	389.06
454.192	428.06
454.412	406.06
454.633	363.06
454.853	375.06
455.073	387.06
455.294	398.06
455.514	468.06
455.734	444.06
455.955	395.06
456.175	379.06
456.395	373.06
456.616	363.06
456.836	346.06
457.056	350.06
457.276	361.06
457.497	352.06
457.717	360.06
457.937	357.06
458.157	385.06
458.377	373.06
458.598	391.06
458.818	447.06
459.038	510.06
459.258	518.06
459.478	436.06
459.698	421.06
459.918	399.06
460.138	419.06
460.358	399.06
460.578	423.06
460.798	407.06
461.018	391.06
461.238	409.06
461.458	390.06
461.678	389.06
461.898	435.06
462.118	412.06
462.338	414.06
462.558	409.06
462.777	419.06
462.997	414.06
463.217	445.06
463.437	441.06
463.657	405.06
463.876	433.06
464.096	427.06
464.316	422.06
464.536	469.06
464.755	445.06
464.975	452.06
465.195	480.06
465.414	557.06
465.634	480.06
465.854	422.06
466.073	421.06
466.293	413.06
466.512	370.06
466.732	382.06
466.951	382.06
467.171	408.06
467.391	399.06
467.61	391.06
467.829	407.06
468.049	393.06
468.268	389.06
468.488	386.06
468.707	394.06
468.927	386.06
469.146	369.06
469.365	371.06
469.585	372.06
469.804	375.06
470.023	404.06
470.243	411.06
470.462	391.06
470.681	433.06
470.901	420.06
471.12	415.06
471.339	391.06
471.558	412.06
471.777	401.06
471.997	400.06
472.216	370.06
472.435	395.06
472.654	380.06
472.873	403.06
473.092	388.06
473.311	368.06
473.53	388.06
473.749	419.06
473.968	447.06
474.187	522.06
474.406	506.06
474.625	434.06
474.844	398.06
475.063	388.06
475.282	392.06
475.501	420.06
475.72	407.06
475.939	396.06
476.158	403.06
476.377	413.06
476.596	411.06
476.814	399.06
477.033	417.06
477.252	407.06
477.471	417.06
477.69	429.06
477.908	435.06
478.127	429.06
478.346	421.06
478.564	430.06
478.783	441.06
479.002	454.06
479.22	467.06
479.439	464.06
479.658	459.06
479.876	460.06
480.095	459.06
480.313	502.06
480.532	484.06
480.751	487.06
480.969	460.06
481.188	484.06
481.406	491.06
481.624	473.06
481.843	454.06
482.061	453.06
482.28	454.06
482.498	460.06
482.717	465.06
482.935	462.06
483.153	448.06
483.372	439.06
483.59	455.06
483.808	455.06
484.027	489.06
484.245	467.06
484.463	443.06
484.681	482.06
484.9	470.06
485.118	458.06
485.336	472.06
485.554	467.06
485.772	475.06
485.99	469.06
486.209	473.06
486.427	481.06
486.645	500.06
486.863	486.06
487.081	504.06
487.299	483.06
487.517	507.06
487.735	507.06
487.953	504.06
488.171	493.06
488.389	486.06
488.607	509.06
488.825	474.06
489.043	497.06
489.261	491.06
489.479	505.06
489.696	513.06
489.914	530.06
490.132	538.06
490.35	509.06
490.568	513.06
490.786	523.06
491.003	505.06
491.221	535.06
491.439	563.06
491.657	547.06
491.874	574.06
492.092	591.06
492.31	572.06
492.527	573.06
492.745	557.06
492.963	551.06
493.18	611.06
493.398	577.06
493.615	580.06
493.833	595.06
494.05	598.06
494.268	575.06
494.485	597.06
494.703	578.06
494.92	575.06
495.138	563.06
495.355	603.06
495.573	571.06
495.79	590.06
496.008	591.06
496.225	586.06
496.442	590.06
496.66	629.06
496.877	597.06
497.094	588.06
497.312	598.06
497.529	587.06
497.746	603.06
497.963	604.06
498.181	635.06
498.398	627.06
498.615	626.06
498.832	650.06
499.049	669.06
499.267	684.06
499.484	699.06
499.701	699.06
499.918	699.06
500.135	769.06
500.352	773.06
500.569	795.06
500.786	791.06
501.003	779.06
501.22	765.06
501.437	741.06
501.654	727.06
501.871	732.06
502.088	706.06
502.305	672.06
502.522	655.06
502.739	639.06
502.956	598.06
503.172	608.06
503.389	619.06
503.606	596.06
503.823	595.06
504.04	605.06
504.256	595.06
504.473	580.06
504.69	589.06
504.907	571.06
505.123	554.06
505.34	568.06
505.557	564.06
505.773	567.06
505.99	591.06
506.207	581.06
506.423	557.06
506.64	545.06
506.856	555.06
507.073	538.06
507.289	554.06
507.506	544.06
507.722	553.06
507.939	581.06
508.155	547.06
508.372	537.06
508.588	525.06
508.805	526.06
509.021	525.06
509.238	531.06
509.454	577.06
509.67	559.06
509.887	546.06
510.103	546.06
510.319	562.06
510.536	672.06
510.752	1081.06
510.968	854.06
511.184	548.06
511.401	543.06
511.617	524.06
511.833	503.06
512.049	509.06
512.265	488.06
512.481	494.06
512.698	507.06
512.914	511.06
513.13	494.06
513.346	488.06
513.562	489.06
513.778	539.06
513.994	499.06
514.21	510.06
514.426	548.06
514.642	592.06
514.858	613.06
515.074	667.06
515.29	781.06
515.506	1195.06
515.721	968.06
515.937	626.06
516.153	557.06
516.369	557.06
516.585	547.06
516.801	541.06
517.016	515.06
517.232	533.06
517.448	523.06
517.664	517.06
517.879	519.06
518.095	511.06
518.311	517.06
518.527	517.06
518.742	527.06
518.958	505.06
519.173	504.06
519.389	530.06
519.605	493.06
519.82	511.06
520.036	523.06
520.251	531.06
520.467	557.06
520.682	559.06
520.898	553.06
521.113	595.06
521.329	634.06
521.544	692.06
521.76	905.06
521.975	1585.06
522.19	1549.06
522.406	808.06
522.621	576.06
522.836	546.06
523.052	500.06
523.267	484.06
523.482	474.06
523.698	472.06
523.913	454.06
524.128	469.06
524.343	452.06
524.559	454.06
524.774	446.06
524.989	447.06
525.204	454.06
525.419	453.06
525.634	456.06
525.849	422.06
526.064	429.06
526.28	437.06
526.495	422.06
526.71	399.06
526.925	419.06
527.14	410.06
527.355	435.06
527.57	408.06
527.785	415.06
527.999	427.06
528.214	413.06
528.429	414.06
528.644	417.06
528.859	412.06
529.074	419.06
529.289	446.06
529.503	497.06
529.718	489.06
529.933	435.06
530.148	412.06
530.363	419.06
530.577	409.06
530.792	403.06
531.007	387.06
531.221	403.06
531.436	397.06
531.651	409.06
531.865	397.06
532.08	374.06
532.295	403.06
532.509	386.06
532.724	385.06
532.938	392.06
533.153	394.06
533.367	407.06
533.582	409.06
533.796	408.06
534.011	387.06
534.225	402.06
534.44	405.06
534.654	386.06
534.868	393.06
535.083	391.06
535.297	397.06
535.511	399.06
535.726	401.06
535.94	381.06
536.154	407.06
536.369	381.06
536.583	379.06
536.797	375.06
537.011	358.06
537.225	364.06
537.44	382.06
537.654	380.06
537.868	376.06
538.082	375.06
538.296	370.06
538.51	386.06
538.724	389.06
538.938	378.06
539.153	371.06
539.367	386.06
539.581	387.06
539.795	382.06
540.009	379.06
540.222	375.06
540.436	379.06
540.65	381.06
540.864	389.06
541.078	410.06
541.292	403.06
541.506	398.06
541.72	373.06
541.934	395.06
542.147	389.06
542.361	383.06
542.575	380.06
542.789	379.06
543.002	397.06
543.216	380.06
543.43	373.06
543.644	390.06
543.857	377.06
544.071	391.06
544.285	370.06
544.498	385.06
544.712	371.06
544.925	374.06
545.139	346.06
545.352	349.06
545.566	352.06
545.779	379.06
545.993	373.06
546.206	356.06
546.42	377.06
546.633	366.06
546.847	356.06
547.06	374.06
547.274	356.06
547.487	334.06
547.7	369.06
547.914	356.06
548.127	361.06
548.34	364.06
548.554	375.06
548.767	345.06
548.98	345.06
549.193	365.06
549.407	372.06
549.62	354.06
549.833	353.06
550.046	346.06
550.259	366.06
550.473	341.06
550.686	357.06
550.899	358.06
551.112	367.06
551.325	344.06
551.538	338.06
551.751	347.06
551.964	361.06
552.177	360.06
552.39	350.06
552.603	369.06
552.816	357.06
553.029	362.06
553.242	361.06
553.455	351.06
553.667	373.06
553.88	396.06
554.093	357.06
554.306	350.06
554.519	363.06
554.732	369.06
554.944	351.06
555.157	346.06
555.37	356.06
555.583	336.06
555.795	357.06
556.008	331.06
556.221	326.06
556.433	325.06
556.646	331.06
556.859	316.06
557.071	328.06
557.284	313.06
557.496	336.06
557.709	329.06
557.921	328.06
558.134	316.06
558.346	335.06
558.559	314.06
558.771	321.06
558.984	312.06
559.196	315.06
559.409	322.06
559.621	301.06
559.833	316.06
560.046	298.06
560.258	318.06
560.47	308.06
560.683	306.06
560.895	319.06
561.107	310.06
561.32	314.06
561.532	313.06
561.744	309.06
561.956	327.06
562.168	317.06
562.381	313.06
562.593	319.06
562.805	337.06
563.017	341.06
563.229	295.06
563.441	325.06
563.653	335.06
563.865	318.06
564.077	325.06
564.289	319.06
564.501	338.06
564.713	319.06
564.925	346.06
565.137	339.06
565.349	341.06
565.561	345.06
565.773	339.06
565.985	335.06
566.197	356.06
566.408	366.06
566.62	367.06
566.832	373.06
567.044	362.06
567.255	365.06
567.467	374.06
567.679	381.06
567.891	387.06
568.102	365.06
568.314	379.06
568.526	345.06
568.737	357.06
568.949	333.06
569.161	346.06
569.372	327.06
569.584	332.06
569.795	341.06
570.007	330.06
570.218	377.06
570.43	337.06
570.641	303.06
570.853	309.06
571.064	301.06
571.276	302.06
571.487	301.06
571.698	297.06
571.91	281.06
572.121	277.06
572.333	297.06
572.544	283.06
572.755	285.06
572.966	286.06
573.178	271.06
573.389	265.06
573.6	279.06
573.811	284.06
574.023	279.06
574.234	279.06
574.445	276.06
574.656	277.06
574.867	258.06
575.078	278.06
575.289	282.06
575.501	283.06
575.712	271.06
575.923	294.06
576.134	273.06
576.345	275.06
576.556	271.06
576.767	269.06
576.978	275.06
577.188	278.06
577.399	283.06
577.61	270.06
577.821	273.06
578.032	285.06
578.243	309.06
578.454	490.06
578.665	377.06
578.875	271.06
579.086	250.06
579.297	267.06
579.508	263.06
579.718	252.06
579.929	244.06
580.14	271.06
580.35	243.06
580.561	243.06
580.772	262.06
580.982	268.06
581.193	260.06
581.403	264.06
581.614	260.06
581.825	247.06
582.035	250.06
582.246	244.06
582.456	245.06
582.667	236.06
582.877	228.06
583.087	245.06
583.298	249.06
583.508	253.06
583.719	260.06
583.929	236.06
584.139	229.06
584.35	257.06
584.56	246.06
584.77	262.06
584.981	236.06
585.191	247.06
585.401	251.06
585.611	262.06
585.821	254.06
586.032	259.06
586.242	238.06
586.452	239.06
586.662	241.06
586.872	249.06
587.082	249.06
587.292	227.06
587.502	231.06
587.713	244.06
587.923	228.06
588.133	233.06
588.343	239.06
588.553	228.06
588.762	225.06
588.972	246.06
589.182	232.06
589.392	245.06
589.602	237.06
589.812	231.06
590.022	235.06
590.232	249.06
590.441	249.06
590.651	257.06
590.861	229.06
591.071	224.06
591.281	217.06
591.49	223.06
591.7	241.06
591.91	245.06
592.119	255.06
592.329	255.06
592.539	267.06
592.748	236.06
592.958	253.06
593.167	259.06
593.377	242.06
593.587	266.06
593.796	238.06
594.006	237.06
594.215	242.06
594.424	224.06
594.634	261.06
594.843	263.06
595.053	251.06
595.262	235.06
595.472	259.06
595.681	236.06
595.89	226.06
596.1	227.06
596.309	230.06
596.518	232.06
596.727	230.06
596.937	249.06
597.146	251.06
597.355	215.06
597.564	213.06
597.774	218.06
597.983	225.06
598.192	212.06
598.401	224.06
598.61	206.06
598.819	203.06
599.028	215.06
599.237	204.06
599.446	205.06
599.655	218.06
599.864	214.06
600.073	216.06
600.282	209.06
600.491	219.06
600.7	213.06
600.909	212.06
601.118	218.06
601.327	201.06
601.536	222.06
601.745	214.06
601.953	213.06
602.162	199.06
602.371	215.06
602.58	202.06
602.789	202.06
602.997	213.06
603.206	217.06
603.415	200.06
603.623	204.06
603.832	211.06
604.041	212.06
604.249	201.06
604.458	209.06
604.666	201.06
604.875	197.06
605.084	197.06
605.292	197.06
605.501	220.06
605.709	210.06
605.918	204.06
606.126	202.06
606.334	191.06
606.543	200.06
606.751	201.06
606.96	184.06
607.168	194.06
607.376	206.06
607.585	201.06
607.793	181.06
608.001	181.06
608.21	197.06
608.418	199.06
608.626	184.06
608.834	197.06
609.043	207.06
609.251	203.06
609.459	197.06
609.667	204.06
609.875	190.06
610.083	195.06
610.291	205.06
610.499	208.06
610.707	203.06
610.916	207.06
611.124	202.06
611.332	203.06
611.54	205.06
611.748	206.06
611.955	182.06
612.163	187.06
612.371	196.06
612.579	191.06
612.787	198.06
612.995	215.06
613.203	185.06
613.411	185.06
613.618	205.06
613.826	195.06
614.034	206.06
614.242	183.06
614.449	209.06
614.657	198.06
614.865	199.06
615.072	201.06
615.28	186.06
615.488	201.06
615.695	190.06
615.903	200.06
616.111	191.06
616.318	200.06
616.526	193.06
616.733	190.06
616.941	194.06
617.148	198.06
617.356	195.06
617.563	198.06
617.771	191.06
617.978	208.06
618.185	197.06
618.393	183.06
618.6	189.06
618.807	173.06
619.015	186.06
619.222	177.06
619.429	190.06
619.637	193.06
619.844	197.06
620.051	196.06
620.258	187.06
620.466	196.06
620.673	177.06
620.88	195.06
621.087	196.06
621.294	190.06
621.501	188.06
621.708	195.06
621.915	204.06
622.122	189.06
622.329	168.06
622.536	192.06
622.743	194.06
622.95	183.06
623.157	179.06
623.364	167.06
623.571	174.06
623.778	184.06
623.985	187.06
624.192	198.06
624.399	170.06
624.606	172.06
624.812	193.06
625.019	177.06
625.226	179.06
625.433	191.06
625.639	164.06
625.846	160.06
626.053	189.06
626.259	182.06
626.466	159.06
626.673	162.06
626.879	181.06
627.086	189.06
627.293	185.06
627.499	184.06
627.706	181.06
627.912	178.06
628.119	157.06
628.325	159.06
628.532	167.06
628.738	184.06
628.945	167.06
629.151	171.06
629.357	178.06
629.564	168.06
629.77	164.06
629.976	160.06
630.183	169.06
630.389	167.06
630.595	165.06
630.802	154.06
631.008	165.06
631.214	177.06
631.42	167.06
631.627	167.06
631.833	178.06
632.039	151.06
632.245	152.06
632.451	161.06
632.657	142.06
632.863	141.06
633.069	167.06
633.275	160.06
633.481	162.06
633.688	164.06
633.893	163.06
634.099	142.06
634.305	154.06
634.511	144.06
634.717	171.06
634.923	149.06
635.129	149.06
635.335	155.06
635.541	157.06
635.747	156.06
635.952	150.06
636.158	155.06
636.364	143.06
636.57	158.06
636.775	152.06
636.981	164.06
637.187	161.06
637.392	151.06
637.598	157.06
637.804	154.06
638.009	166.06
638.215	147.06
638.421	143.06
638.626	149.06
638.832	155.06
639.037	145.06
639.243	147.06
639.448	146.06
639.654	156.06
639.859	158.06
640.065	150.06
640.27	144.06
640.475	159.06
640.681	153.06
640.886	150.06
641.091	162.06
641.297	162.06
641.502	159.06
641.707	163.06
641.913	150.06
642.118	162.06
642.323	155.06
642.528	145.06
642.733	147.06
642.939	165.06
643.144	152.06
643.349	163.06
643.554	164.06
643.759	151.06
643.964	148.06
644.169	139.06
644.374	143.06
644.579	148.06
644.784	151.06
644.989	142.06
645.194	147.06
645.399	156.06
645.604	153.06
645.809	163.06
646.014	141.06
646.219	139.06
646.423	141.06
646.628	149.06
646.833	139.06
647.038	141.06
647.243	135.06
647.447	150.06
647.652	140.06
647.857	142.06
648.062	139.06
648.266	161.06
648.471	135.06
648.676	133.06
648.88	149.06
649.085	147.06
649.289	156.06
649.494	149.06
649.698	170.06
649.903	151.06
650.107	157.06
650.312	153.06
650.516	136.06
650.721	135.06
650.925	145.06
651.13	149.06
651.334	130.06
651.539	126.06
651.743	131.06
651.947	137.06
652.152	135.06
652.356	128.06
652.56	136.06
652.764	132.06
652.969	135.06
653.173	139.06
653.377	138.06
653.581	125.06
653.785	100.06
653.99	128.06
654.194	117.06
654.398	126.06
654.602	110.06
654.806	120.06
655.01	125.06
655.214	137.06
655.418	136.06
655.622	135.06
655.826	126.06
656.03	111.06
656.234	133.06
656.438	130.06
656.642	137.06
656.846	125.06
657.049	130.06
657.253	120.06
657.457	116.06
657.661	114.06
657.865	115.06
658.068	104.06
658.272	119.06
658.476	109.06
658.68	100.06
658.883	96.06
659.087	86.06
659.291	90.06
659.494	84.06
659.698	89.06
659.901	100.06
660.105	105.06
660.309	110.06
660.512	102.06
660.716	85.06
660.919	90.06
661.123	89.06
661.326	78.06
661.53	85.06
661.733	83.06
661.936	96.06
662.14	74.06
662.343	82.06
662.546	89.06
662.75	70.06
662.953	97.06
663.156	90.06
663.36	90.06
663.563	82.06
663.766	97.06
663.969	94.06
664.173	95.06
664.376	93.06
664.579	80.06
664.782	79.06
664.985	99.06
665.188	87.06
665.391	93.06
665.594	70.06
665.797	84.06
666	97.06
666.203	87.06
666.406	72.06
666.609	90.06
666.812	67.06
667.015	81.06
667.218	89.06
667.421	89.06
667.624	79.06
667.827	88.06
668.03	81.06
668.232	63.06
668.435	91.06
668.638	89.06
668.841	72.06
669.043	93.06
669.246	81.06
669.449	87.06
669.651	83.06
669.854	87.06
670.057	82.06
670.259	88.06
670.462	81.06
670.665	83.06
670.867	90.06
671.07	77.06
671.272	85.06
671.475	78.06
671.677	90.06
671.88	87.06
672.082	95.06
672.284	88.06
672.487	89.06
672.689	86.06
672.892	77.06
