Data from 1983.PennyLincolnUp.Lamp.En5.5.200Scan.071819.P1_HRD10591_16-55-12-966.txt Node
Date: Thu Jul 18 16:55:12 EDT 2019
User: cochatt
Spectrometer: HR+D1059
Trigger mode: 1
Integration Time (sec): 1.000000E-1
Scans to average: 1
Electric dark correction enabled: true
Nonlinearity correction enabled: false
Boxcar width: 0
XAxis mode: Wavelengths
Number of Pixels in Spectrum: 2048
>>>>>Begin Spectral Data<<<<<
223.165	-10.62
223.4	-10.62
223.635	-10.62
223.869	-19.62
224.104	-22.62
224.338	-9.62
224.573	-11.62
224.808	-16.62
225.042	-7.62
225.277	6.38
225.511	-6.62
225.746	-0.62
225.98	1.38
226.215	14.38
226.449	16.38
226.683	22.38
226.918	18.38
227.152	26.38
227.387	36.38
227.621	35.38
227.856	42.38
228.09	55.38
228.324	37.38
228.559	58.38
228.793	68.38
229.027	95.38
229.262	108.38
229.496	117.38
229.73	116.38
229.964	138.38
230.199	126.38
230.433	120.38
230.667	113.38
230.901	119.38
231.136	95.38
231.37	114.38
231.604	110.38
231.838	109.38
232.072	108.38
232.306	118.38
232.541	109.38
232.775	117.38
233.009	125.38
233.243	113.38
233.477	125.38
233.711	115.38
233.945	100.38
234.179	109.38
234.413	119.38
234.647	119.38
234.881	121.38
235.115	106.38
235.349	124.38
235.583	109.38
235.817	101.38
236.051	121.38
236.285	121.38
236.519	110.38
236.753	132.38
236.987	138.38
237.221	172.38
237.455	210.38
237.689	162.38
237.922	126.38
238.156	131.38
238.39	128.38
238.624	119.38
238.858	122.38
239.091	126.38
239.325	126.38
239.559	138.38
239.793	131.38
240.027	136.38
240.26	131.38
240.494	148.38
240.728	135.38
240.961	133.38
241.195	136.38
241.429	136.38
241.662	127.38
241.896	126.38
242.13	122.38
242.363	134.38
242.597	124.38
242.83	132.38
243.064	132.38
243.298	121.38
243.531	143.38
243.765	146.38
243.998	130.38
244.232	144.38
244.465	132.38
244.699	134.38
244.932	132.38
245.166	142.38
245.399	140.38
245.633	153.38
245.866	136.38
246.099	130.38
246.333	134.38
246.566	140.38
246.8	140.38
247.033	150.38
247.266	151.38
247.5	152.38
247.733	165.38
247.966	155.38
248.2	175.38
248.433	167.38
248.666	162.38
248.899	182.38
249.133	182.38
249.366	189.38
249.599	188.38
249.832	183.38
250.066	178.38
250.299	182.38
250.532	188.38
250.765	220.38
250.998	208.38
251.231	214.38
251.465	191.38
251.698	173.38
251.931	176.38
252.164	186.38
252.397	186.38
252.63	190.38
252.863	190.38
253.096	190.38
253.329	226.38
253.562	211.38
253.795	189.38
254.028	210.38
254.261	203.38
254.494	214.38
254.727	254.38
254.96	278.38
255.193	252.38
255.426	240.38
255.659	235.38
255.892	231.38
256.124	226.38
256.357	243.38
256.59	250.38
256.823	211.38
257.056	195.38
257.289	210.38
257.521	204.38
257.754	215.38
257.987	184.38
258.22	204.38
258.452	176.38
258.685	205.38
258.918	183.38
259.151	201.38
259.383	207.38
259.616	215.38
259.849	223.38
260.081	224.38
260.314	227.38
260.547	239.38
260.779	230.38
261.012	204.38
261.244	212.38
261.477	224.38
261.71	219.38
261.942	199.38
262.175	212.38
262.407	224.38
262.64	214.38
262.872	205.38
263.105	198.38
263.337	189.38
263.57	203.38
263.802	208.38
264.035	199.38
264.267	202.38
264.499	190.38
264.732	198.38
264.964	196.38
265.197	191.38
265.429	203.38
265.661	195.38
265.894	203.38
266.126	212.38
266.358	210.38
266.591	210.38
266.823	219.38
267.055	219.38
267.287	199.38
267.52	215.38
267.752	202.38
267.984	207.38
268.216	212.38
268.448	226.38
268.681	213.38
268.913	227.38
269.145	248.38
269.377	252.38
269.609	257.38
269.841	235.38
270.073	253.38
270.306	273.38
270.538	272.38
270.77	286.38
271.002	278.38
271.234	275.38
271.466	287.38
271.698	307.38
271.93	282.38
272.162	295.38
272.394	285.38
272.626	282.38
272.858	278.38
273.09	254.38
273.322	266.38
273.553	252.38
273.785	243.38
274.017	242.38
274.249	244.38
274.481	258.38
274.713	256.38
274.945	266.38
275.176	242.38
275.408	244.38
275.64	261.38
275.872	262.38
276.104	236.38
276.335	232.38
276.567	233.38
276.799	279.38
277.031	290.38
277.262	291.38
277.494	312.38
277.726	298.38
277.957	286.38
278.189	269.38
278.421	253.38
278.652	245.38
278.884	264.38
279.115	247.38
279.347	262.38
279.579	262.38
279.81	230.38
280.042	248.38
280.273	247.38
280.505	253.38
280.736	244.38
280.968	250.38
281.199	267.38
281.431	247.38
281.662	228.38
281.894	257.38
282.125	246.38
282.356	269.38
282.588	281.38
282.819	282.38
283.051	247.38
283.282	236.38
283.513	259.38
283.745	255.38
283.976	276.38
284.207	269.38
284.439	269.38
284.67	269.38
284.901	250.38
285.132	258.38
285.364	239.38
285.595	256.38
285.826	242.38
286.057	250.38
286.288	266.38
286.52	257.38
286.751	267.38
286.982	265.38
287.213	268.38
287.444	288.38
287.675	271.38
287.906	279.38
288.138	285.38
288.369	271.38
288.6	277.38
288.831	260.38
289.062	278.38
289.293	261.38
289.524	275.38
289.755	244.38
289.986	271.38
290.217	269.38
290.448	258.38
290.679	272.38
290.91	257.38
291.141	286.38
291.371	273.38
291.602	258.38
291.833	266.38
292.064	265.38
292.295	275.38
292.526	267.38
292.757	277.38
292.987	269.38
293.218	262.38
293.449	264.38
293.68	265.38
293.91	262.38
294.141	277.38
294.372	262.38
294.603	288.38
294.833	272.38
295.064	267.38
295.295	284.38
295.525	285.38
295.756	280.38
295.987	285.38
296.217	315.38
296.448	329.38
296.679	299.38
296.909	282.38
297.14	269.38
297.37	278.38
297.601	255.38
297.831	274.38
298.062	291.38
298.292	287.38
298.523	288.38
298.753	283.38
298.984	280.38
299.214	289.38
299.445	269.38
299.675	282.38
299.905	271.38
300.136	280.38
300.366	273.38
300.597	292.38
300.827	308.38
301.057	296.38
301.288	310.38
301.518	293.38
301.748	286.38
301.979	303.38
302.209	302.38
302.439	309.38
302.669	310.38
302.9	306.38
303.13	295.38
303.36	318.38
303.59	325.38
303.82	323.38
304.051	301.38
304.281	310.38
304.511	292.38
304.741	310.38
304.971	299.38
305.201	307.38
305.431	317.38
305.661	299.38
305.891	320.38
306.121	308.38
306.352	314.38
306.582	294.38
306.812	306.38
307.042	304.38
307.272	318.38
307.502	317.38
307.731	340.38
307.961	321.38
308.191	311.38
308.421	306.38
308.651	316.38
308.881	314.38
309.111	316.38
309.341	341.38
309.571	335.38
309.8	325.38
310.03	347.38
310.26	354.38
310.49	349.38
310.72	368.38
310.949	356.38
311.179	370.38
311.409	346.38
311.639	338.38
311.868	354.38
312.098	332.38
312.328	358.38
312.557	384.38
312.787	390.38
313.017	417.38
313.246	365.38
313.476	357.38
313.706	343.38
313.935	362.38
314.165	388.38
314.394	370.38
314.624	376.38
314.853	358.38
315.083	360.38
315.312	349.38
315.542	340.38
315.771	341.38
316.001	342.38
316.23	354.38
316.46	335.38
316.689	351.38
316.919	349.38
317.148	356.38
317.377	365.38
317.607	331.38
317.836	366.38
318.065	359.38
318.295	364.38
318.524	343.38
318.753	351.38
318.983	331.38
319.212	371.38
319.441	360.38
319.67	366.38
319.9	367.38
320.129	354.38
320.358	366.38
320.587	367.38
320.816	365.38
321.046	365.38
321.275	361.38
321.504	370.38
321.733	389.38
321.962	412.38
322.191	383.38
322.42	409.38
322.649	425.38
322.878	426.38
323.108	445.38
323.337	474.38
323.566	495.38
323.795	528.38
324.024	585.38
324.253	700.38
324.482	1026.38
324.71	1551.38
324.939	2079.38
325.168	1747.38
325.397	924.38
325.626	627.38
325.855	536.38
326.084	508.38
326.313	493.38
326.542	487.38
326.77	545.38
326.999	660.38
327.228	880.38
327.457	1330.38
327.686	1522.38
327.914	1044.38
328.143	717.38
328.372	650.38
328.6	619.38
328.829	558.38
329.058	573.38
329.287	592.38
329.515	548.38
329.744	516.38
329.972	505.38
330.201	540.38
330.43	610.38
330.658	630.38
330.887	602.38
331.115	592.38
331.344	511.38
331.572	461.38
331.801	458.38
332.03	448.38
332.258	446.38
332.486	445.38
332.715	446.38
332.943	450.38
333.172	434.38
333.4	437.38
333.629	454.38
333.857	459.38
334.085	502.38
334.314	528.38
334.542	578.38
334.771	578.38
334.999	507.38
335.227	473.38
335.455	442.38
335.684	446.38
335.912	411.38
336.14	419.38
336.369	415.38
336.597	437.38
336.825	430.38
337.053	408.38
337.281	410.38
337.51	408.38
337.738	402.38
337.966	421.38
338.194	405.38
338.422	414.38
338.65	400.38
338.878	404.38
339.106	414.38
339.334	390.38
339.562	415.38
339.79	406.38
340.018	389.38
340.246	391.38
340.474	416.38
340.702	400.38
340.93	402.38
341.158	384.38
341.386	397.38
341.614	407.38
341.842	406.38
342.07	407.38
342.298	394.38
342.526	378.38
342.754	378.38
342.981	376.38
343.209	378.38
343.437	389.38
343.665	391.38
343.893	406.38
344.12	406.38
344.348	403.38
344.576	404.38
344.804	418.38
345.031	416.38
345.259	412.38
345.487	390.38
345.714	425.38
345.942	405.38
346.17	389.38
346.397	400.38
346.625	382.38
346.853	389.38
347.08	376.38
347.308	385.38
347.535	378.38
347.763	390.38
347.99	379.38
348.218	408.38
348.445	391.38
348.673	385.38
348.9	387.38
349.128	375.38
349.355	362.38
349.583	363.38
349.81	354.38
350.037	375.38
350.265	362.38
350.492	378.38
350.72	377.38
350.947	371.38
351.174	378.38
351.402	409.38
351.629	391.38
351.856	373.38
352.083	392.38
352.311	378.38
352.538	410.38
352.765	398.38
352.992	388.38
353.22	368.38
353.447	386.38
353.674	388.38
353.901	387.38
354.128	383.38
354.355	350.38
354.583	366.38
354.81	364.38
355.037	344.38
355.264	361.38
355.491	370.38
355.718	341.38
355.945	370.38
356.172	361.38
356.399	349.38
356.626	354.38
356.853	355.38
357.08	339.38
357.307	352.38
357.534	363.38
357.761	364.38
357.988	351.38
358.215	359.38
358.441	358.38
358.668	365.38
358.895	356.38
359.122	354.38
359.349	374.38
359.576	381.38
359.802	420.38
360.029	452.38
360.256	446.38
360.483	421.38
360.709	386.38
360.936	375.38
361.163	379.38
361.39	385.38
361.616	399.38
361.843	397.38
362.07	398.38
362.296	392.38
362.523	361.38
362.749	382.38
362.976	376.38
363.203	395.38
363.429	367.38
363.656	381.38
363.882	369.38
364.109	357.38
364.335	372.38
364.562	370.38
364.788	345.38
365.015	369.38
365.241	362.38
365.468	368.38
365.694	371.38
365.92	384.38
366.147	373.38
366.373	359.38
366.599	348.38
366.826	342.38
367.052	365.38
367.278	337.38
367.505	348.38
367.731	361.38
367.957	359.38
368.184	372.38
368.41	367.38
368.636	365.38
368.862	386.38
369.089	386.38
369.315	357.38
369.541	380.38
369.767	358.38
369.993	348.38
370.219	349.38
370.445	378.38
370.672	345.38
370.898	355.38
371.124	347.38
371.35	361.38
371.576	345.38
371.802	349.38
372.028	354.38
372.254	361.38
372.48	346.38
372.706	370.38
372.932	364.38
373.158	340.38
373.384	354.38
373.61	357.38
373.835	362.38
374.061	357.38
374.287	375.38
374.513	370.38
374.739	359.38
374.965	366.38
375.191	379.38
375.416	350.38
375.642	356.38
375.868	347.38
376.094	372.38
376.319	349.38
376.545	352.38
376.771	346.38
376.997	363.38
377.222	350.38
377.448	355.38
377.674	333.38
377.899	370.38
378.125	360.38
378.35	344.38
378.576	343.38
378.802	359.38
379.027	365.38
379.253	354.38
379.478	351.38
379.704	356.38
379.929	345.38
380.155	366.38
380.38	372.38
380.606	338.38
380.831	344.38
381.057	364.38
381.282	362.38
381.507	358.38
381.733	351.38
381.958	351.38
382.184	366.38
382.409	377.38
382.634	364.38
382.86	340.38
383.085	384.38
383.31	356.38
383.535	347.38
383.761	356.38
383.986	343.38
384.211	357.38
384.436	362.38
384.662	367.38
384.887	377.38
385.112	355.38
385.337	363.38
385.562	377.38
385.787	388.38
386.013	381.38
386.238	395.38
386.463	382.38
386.688	363.38
386.913	382.38
387.138	378.38
387.363	354.38
387.588	392.38
387.813	381.38
388.038	373.38
388.263	373.38
388.488	376.38
388.713	383.38
388.938	371.38
389.163	387.38
389.387	360.38
389.612	370.38
389.837	365.38
390.062	374.38
390.287	377.38
390.512	361.38
390.736	365.38
390.961	366.38
391.186	368.38
391.411	374.38
391.636	395.38
391.86	384.38
392.085	377.38
392.31	389.38
392.534	384.38
392.759	385.38
392.984	381.38
393.208	373.38
393.433	372.38
393.658	372.38
393.882	368.38
394.107	365.38
394.331	377.38
394.556	359.38
394.78	386.38
395.005	392.38
395.229	380.38
395.454	388.38
395.678	383.38
395.903	423.38
396.127	414.38
396.352	415.38
396.576	406.38
396.801	381.38
397.025	390.38
397.249	388.38
397.474	403.38
397.698	406.38
397.922	416.38
398.147	417.38
398.371	417.38
398.595	402.38
398.82	403.38
399.044	410.38
399.268	456.38
399.492	470.38
399.717	473.38
399.941	497.38
400.165	525.38
400.389	519.38
400.613	470.38
400.837	438.38
401.062	443.38
401.286	429.38
401.51	431.38
401.734	419.38
401.958	432.38
402.182	437.38
402.406	440.38
402.63	451.38
402.854	428.38
403.078	445.38
403.302	448.38
403.526	430.38
403.75	442.38
403.974	434.38
404.198	432.38
404.422	463.38
404.645	468.38
404.869	462.38
405.093	492.38
405.317	528.38
405.541	558.38
405.765	494.38
405.988	482.38
406.212	484.38
406.436	504.38
406.66	508.38
406.883	495.38
407.107	510.38
407.331	503.38
407.555	570.38
407.778	562.38
408.002	535.38
408.226	498.38
408.449	498.38
408.673	484.38
408.896	524.38
409.12	533.38
409.344	507.38
409.567	469.38
409.791	458.38
410.014	450.38
410.238	455.38
410.461	449.38
410.685	436.38
410.908	454.38
411.132	493.38
411.355	527.38
411.578	467.38
411.802	455.38
412.025	430.38
412.249	448.38
412.472	481.38
412.695	540.38
412.919	486.38
413.142	452.38
413.365	450.38
413.589	432.38
413.812	432.38
414.035	418.38
414.258	413.38
414.482	412.38
414.705	418.38
414.928	409.38
415.151	422.38
415.374	426.38
415.597	415.38
415.821	402.38
416.044	415.38
416.267	413.38
416.49	429.38
416.713	437.38
416.936	400.38
417.159	418.38
417.382	427.38
417.605	433.38
417.828	448.38
418.051	449.38
418.274	422.38
418.497	440.38
418.72	420.38
418.943	406.38
419.166	427.38
419.389	434.38
419.611	458.38
419.834	439.38
420.057	441.38
420.28	440.38
420.503	460.38
420.726	447.38
420.948	481.38
421.171	470.38
421.394	500.38
421.617	471.38
421.839	439.38
422.062	448.38
422.285	456.38
422.507	492.38
422.73	553.38
422.953	526.38
423.175	464.38
423.398	436.38
423.621	443.38
423.843	451.38
424.066	461.38
424.288	486.38
424.511	478.38
424.733	550.38
424.956	584.38
425.178	563.38
425.401	558.38
425.623	564.38
425.846	499.38
426.068	466.38
426.291	470.38
426.513	462.38
426.735	496.38
426.958	521.38
427.18	574.38
427.402	681.38
427.625	722.38
427.847	660.38
428.069	589.38
428.292	512.38
428.514	473.38
428.736	454.38
428.958	453.38
429.181	427.38
429.403	419.38
429.625	452.38
429.847	476.38
430.069	514.38
430.292	511.38
430.514	466.38
430.736	446.38
430.958	406.38
431.18	420.38
431.402	406.38
431.624	409.38
431.846	419.38
432.068	412.38
432.29	406.38
432.512	406.38
432.734	437.38
432.956	416.38
433.178	429.38
433.4	412.38
433.622	398.38
433.844	426.38
434.066	417.38
434.287	409.38
434.509	409.38
434.731	426.38
434.953	447.38
435.175	414.38
435.397	452.38
435.618	469.38
435.84	496.38
436.062	558.38
436.284	610.38
436.505	524.38
436.727	449.38
436.949	463.38
437.17	455.38
437.392	437.38
437.614	469.38
437.835	479.38
438.057	546.38
438.278	636.38
438.5	613.38
438.721	655.38
438.943	630.38
439.165	534.38
439.386	506.38
439.608	490.38
439.829	481.38
440.05	514.38
440.272	535.38
440.493	508.38
440.715	463.38
440.936	445.38
441.158	426.38
441.379	440.38
441.6	466.38
441.822	456.38
442.043	520.38
442.264	587.38
442.486	612.38
442.707	510.38
442.928	514.38
443.149	477.38
443.371	515.38
443.592	544.38
443.813	617.38
444.034	622.38
444.255	539.38
444.476	472.38
444.698	482.38
444.919	456.38
445.14	574.38
445.361	504.38
445.582	523.38
445.803	588.38
446.024	661.38
446.245	650.38
446.466	576.38
446.687	508.38
446.908	469.38
447.129	459.38
447.35	422.38
447.571	421.38
447.792	462.38
448.013	445.38
448.234	470.38
448.455	509.38
448.675	591.38
448.896	658.38
449.117	582.38
449.338	555.38
449.559	634.38
449.779	709.38
450	580.38
450.221	484.38
450.442	456.38
450.662	443.38
450.883	446.38
451.104	456.38
451.324	448.38
451.545	424.38
451.766	422.38
451.986	394.38
452.207	404.38
452.428	402.38
452.648	395.38
452.869	398.38
453.089	415.38
453.31	407.38
453.53	410.38
453.751	394.38
453.971	420.38
454.192	420.38
454.412	410.38
454.633	390.38
454.853	413.38
455.073	399.38
455.294	404.38
455.514	482.38
455.734	464.38
455.955	410.38
456.175	374.38
456.395	380.38
456.616	380.38
456.836	363.38
457.056	375.38
457.276	378.38
457.497	377.38
457.717	374.38
457.937	376.38
458.157	379.38
458.377	394.38
458.598	412.38
458.818	462.38
459.038	552.38
459.258	542.38
459.478	472.38
459.698	414.38
459.918	402.38
460.138	405.38
460.358	411.38
460.578	398.38
460.798	392.38
461.018	418.38
461.238	398.38
461.458	379.38
461.678	407.38
461.898	414.38
462.118	392.38
462.338	423.38
462.558	412.38
462.777	417.38
462.997	451.38
463.217	444.38
463.437	445.38
463.657	434.38
463.876	429.38
464.096	435.38
464.316	442.38
464.536	436.38
464.755	440.38
464.975	447.38
465.195	506.38
465.414	595.38
465.634	509.38
465.854	468.38
466.073	432.38
466.293	412.38
466.512	414.38
466.732	407.38
466.951	410.38
467.171	400.38
467.391	417.38
467.61	442.38
467.829	415.38
468.049	430.38
468.268	428.38
468.488	422.38
468.707	384.38
468.927	406.38
469.146	395.38
469.365	401.38
469.585	398.38
469.804	406.38
470.023	425.38
470.243	420.38
470.462	421.38
470.681	434.38
470.901	446.38
471.12	413.38
471.339	390.38
471.558	413.38
471.777	407.38
471.997	420.38
472.216	442.38
472.435	491.38
472.654	478.38
472.873	436.38
473.092	419.38
473.311	425.38
473.53	438.38
473.749	429.38
473.968	457.38
474.187	545.38
474.406	541.38
474.625	446.38
474.844	421.38
475.063	415.38
475.282	428.38
475.501	418.38
475.72	403.38
475.939	429.38
476.158	435.38
476.377	424.38
476.596	437.38
476.814	424.38
477.033	444.38
477.252	430.38
477.471	436.38
477.69	461.38
477.908	437.38
478.127	430.38
478.346	443.38
478.564	461.38
478.783	447.38
479.002	441.38
479.22	462.38
479.439	477.38
479.658	478.38
479.876	495.38
480.095	518.38
480.313	548.38
480.532	488.38
480.751	485.38
480.969	522.38
481.188	626.38
481.406	705.38
481.624	579.38
481.843	512.38
482.061	530.38
482.28	483.38
482.498	489.38
482.717	506.38
482.935	488.38
483.153	483.38
483.372	470.38
483.59	490.38
483.808	480.38
484.027	473.38
484.245	458.38
484.463	498.38
484.681	487.38
484.9	514.38
485.118	496.38
485.336	485.38
485.554	514.38
485.772	524.38
485.99	475.38
486.209	510.38
486.427	505.38
486.645	514.38
486.863	540.38
487.081	569.38
487.299	506.38
487.517	499.38
487.735	528.38
487.953	535.38
488.171	543.38
488.389	535.38
488.607	530.38
488.825	523.38
489.043	518.38
489.261	527.38
489.479	518.38
489.696	527.38
489.914	526.38
490.132	529.38
490.35	542.38
490.568	551.38
490.786	570.38
491.003	572.38
491.221	574.38
491.439	561.38
491.657	584.38
491.874	581.38
492.092	600.38
492.31	604.38
492.527	626.38
492.745	615.38
492.963	628.38
493.18	631.38
493.398	626.38
493.615	627.38
493.833	627.38
494.05	621.38
494.268	622.38
494.485	605.38
494.703	601.38
494.92	612.38
495.138	597.38
495.355	612.38
495.573	620.38
495.79	626.38
496.008	632.38
496.225	598.38
496.442	616.38
496.66	597.38
496.877	606.38
497.094	605.38
497.312	587.38
497.529	635.38
497.746	656.38
497.963	627.38
498.181	656.38
498.398	655.38
498.615	660.38
498.832	692.38
499.049	674.38
499.267	679.38
499.484	698.38
499.701	727.38
499.918	733.38
500.135	741.38
500.352	747.38
500.569	787.38
500.786	796.38
501.003	797.38
501.22	775.38
501.437	758.38
501.654	750.38
501.871	777.38
502.088	739.38
502.305	703.38
502.522	674.38
502.739	662.38
502.956	628.38
503.172	627.38
503.389	599.38
503.606	598.38
503.823	634.38
504.04	618.38
504.256	584.38
504.473	609.38
504.69	589.38
504.907	589.38
505.123	613.38
505.34	611.38
505.557	586.38
505.773	586.38
505.99	589.38
506.207	560.38
506.423	580.38
506.64	575.38
506.856	581.38
507.073	577.38
507.289	579.38
507.506	587.38
507.722	576.38
507.939	601.38
508.155	593.38
508.372	569.38
508.588	570.38
508.805	544.38
509.021	570.38
509.238	564.38
509.454	576.38
509.67	585.38
509.887	556.38
510.103	548.38
510.319	570.38
510.536	672.38
510.752	1178.38
510.968	889.38
511.184	579.38
511.401	558.38
511.617	545.38
511.833	535.38
512.049	535.38
512.265	531.38
512.481	539.38
512.698	542.38
512.914	568.38
513.13	522.38
513.346	559.38
513.562	537.38
513.778	551.38
513.994	534.38
514.21	567.38
514.426	588.38
514.642	626.38
514.858	639.38
515.074	701.38
515.29	860.38
515.506	1334.38
515.721	1078.38
515.937	681.38
516.153	608.38
516.369	555.38
516.585	547.38
516.801	534.38
517.016	557.38
517.232	531.38
517.448	541.38
517.664	535.38
517.879	537.38
518.095	536.38
518.311	523.38
518.527	533.38
518.742	507.38
518.958	548.38
519.173	529.38
519.389	539.38
519.605	532.38
519.82	543.38
520.036	536.38
520.251	580.38
520.467	581.38
520.682	598.38
520.898	604.38
521.113	626.38
521.329	658.38
521.544	754.38
521.76	1023.38
521.975	1816.38
522.19	1726.38
522.406	907.38
522.621	650.38
522.836	568.38
523.052	540.38
523.267	509.38
523.482	495.38
523.698	484.38
523.913	500.38
524.128	494.38
524.343	470.38
524.559	472.38
524.774	471.38
524.989	457.38
525.204	474.38
525.419	483.38
525.634	463.38
525.849	437.38
526.064	455.38
526.28	435.38
526.495	432.38
526.71	429.38
526.925	438.38
527.14	419.38
527.355	430.38
527.57	430.38
527.785	437.38
527.999	431.38
528.214	435.38
528.429	429.38
528.644	452.38
528.859	437.38
529.074	412.38
529.289	470.38
529.503	531.38
529.718	526.38
529.933	469.38
530.148	453.38
530.363	440.38
530.577	425.38
530.792	421.38
531.007	414.38
531.221	432.38
531.436	429.38
531.651	407.38
531.865	408.38
532.08	381.38
532.295	402.38
532.509	388.38
532.724	406.38
532.938	406.38
533.153	405.38
533.367	397.38
533.582	388.38
533.796	388.38
534.011	379.38
534.225	393.38
534.44	381.38
534.654	393.38
534.868	379.38
535.083	390.38
535.297	405.38
535.511	394.38
535.726	402.38
535.94	407.38
536.154	412.38
536.369	414.38
536.583	407.38
536.797	391.38
537.011	394.38
537.225	402.38
537.44	382.38
537.654	378.38
537.868	384.38
538.082	406.38
538.296	414.38
538.51	392.38
538.724	398.38
538.938	375.38
539.153	409.38
539.367	398.38
539.581	391.38
539.795	395.38
540.009	396.38
540.222	398.38
540.436	393.38
540.65	416.38
540.864	392.38
541.078	398.38
541.292	397.38
541.506	391.38
541.72	378.38
541.934	391.38
542.147	398.38
542.361	376.38
542.575	392.38
542.789	392.38
543.002	387.38
543.216	396.38
543.43	373.38
543.644	383.38
543.857	396.38
544.071	366.38
544.285	407.38
544.498	380.38
544.712	386.38
544.925	374.38
545.139	372.38
545.352	361.38
545.566	367.38
545.779	360.38
545.993	352.38
546.206	379.38
546.42	378.38
546.633	373.38
546.847	363.38
547.06	370.38
547.274	362.38
547.487	378.38
547.7	384.38
547.914	358.38
548.127	367.38
548.34	376.38
548.554	354.38
548.767	363.38
548.98	361.38
549.193	366.38
549.407	377.38
549.62	380.38
549.833	381.38
550.046	359.38
550.259	367.38
550.473	369.38
550.686	340.38
550.899	350.38
551.112	349.38
551.325	365.38
551.538	352.38
551.751	356.38
551.964	351.38
552.177	355.38
552.39	360.38
552.603	366.38
552.816	345.38
553.029	356.38
553.242	345.38
553.455	372.38
553.667	381.38
553.88	375.38
554.093	371.38
554.306	355.38
554.519	375.38
554.732	357.38
554.944	365.38
555.157	376.38
555.37	335.38
555.583	335.38
555.795	346.38
556.008	341.38
556.221	350.38
556.433	340.38
556.646	343.38
556.859	340.38
557.071	324.38
557.284	329.38
557.496	347.38
557.709	328.38
557.921	351.38
558.134	340.38
558.346	328.38
558.559	334.38
558.771	308.38
558.984	333.38
559.196	339.38
559.409	336.38
559.621	304.38
559.833	327.38
560.046	307.38
560.258	307.38
560.47	320.38
560.683	323.38
560.895	298.38
561.107	315.38
561.32	320.38
561.532	342.38
561.744	331.38
561.956	320.38
562.168	340.38
562.381	338.38
562.593	338.38
562.805	318.38
563.017	319.38
563.229	322.38
563.441	327.38
563.653	348.38
563.865	339.38
564.077	329.38
564.289	316.38
564.501	333.38
564.713	348.38
564.925	321.38
565.137	340.38
565.349	354.38
565.561	341.38
565.773	344.38
565.985	335.38
566.197	351.38
566.408	330.38
566.62	371.38
566.832	380.38
567.044	367.38
567.255	349.38
567.467	376.38
567.679	380.38
567.891	390.38
568.102	378.38
568.314	363.38
568.526	352.38
568.737	356.38
568.949	323.38
569.161	322.38
569.372	356.38
569.584	335.38
569.795	319.38
570.007	346.38
570.218	367.38
570.43	359.38
570.641	308.38
570.853	312.38
571.064	300.38
571.276	306.38
571.487	303.38
571.698	328.38
571.91	318.38
572.121	300.38
572.333	304.38
572.544	280.38
572.755	287.38
572.966	283.38
573.178	288.38
573.389	278.38
573.6	266.38
573.811	294.38
574.023	279.38
574.234	280.38
574.445	275.38
574.656	281.38
574.867	265.38
575.078	274.38
575.289	273.38
575.501	271.38
575.712	277.38
575.923	270.38
576.134	274.38
576.345	283.38
576.556	280.38
576.767	250.38
576.978	279.38
577.188	259.38
577.399	250.38
577.61	269.38
577.821	268.38
578.032	249.38
578.243	312.38
578.454	546.38
578.665	392.38
578.875	282.38
579.086	268.38
579.297	268.38
579.508	268.38
579.718	266.38
579.929	254.38
580.14	250.38
580.35	249.38
580.561	252.38
580.772	265.38
580.982	250.38
581.193	259.38
581.403	254.38
581.614	257.38
581.825	246.38
582.035	247.38
582.246	241.38
582.456	268.38
582.667	249.38
582.877	239.38
583.087	244.38
583.298	231.38
583.508	248.38
583.719	236.38
583.929	242.38
584.139	246.38
584.35	255.38
584.56	243.38
584.77	260.38
584.981	249.38
585.191	270.38
585.401	260.38
585.611	260.38
585.821	234.38
586.032	244.38
586.242	255.38
586.452	232.38
586.662	232.38
586.872	243.38
587.082	242.38
587.292	229.38
587.502	232.38
587.713	233.38
587.923	237.38
588.133	236.38
588.343	262.38
588.553	224.38
588.762	243.38
588.972	240.38
589.182	252.38
589.392	226.38
589.602	235.38
589.812	240.38
590.022	242.38
590.232	235.38
590.441	231.38
590.651	234.38
590.861	242.38
591.071	245.38
591.281	232.38
591.49	240.38
591.7	237.38
591.91	265.38
592.119	250.38
592.329	247.38
592.539	259.38
592.748	261.38
592.958	244.38
593.167	253.38
593.377	250.38
593.587	256.38
593.796	277.38
594.006	254.38
594.215	246.38
594.424	262.38
594.634	246.38
594.843	261.38
595.053	253.38
595.262	243.38
595.472	235.38
595.681	243.38
595.89	227.38
596.1	238.38
596.309	234.38
596.518	223.38
596.727	244.38
596.937	236.38
597.146	243.38
597.355	237.38
597.564	222.38
597.774	226.38
597.983	226.38
598.192	228.38
598.401	222.38
598.61	243.38
598.819	214.38
599.028	221.38
599.237	224.38
599.446	233.38
599.655	218.38
599.864	224.38
600.073	202.38
600.282	230.38
600.491	224.38
600.7	220.38
600.909	213.38
601.118	216.38
601.327	211.38
601.536	205.38
601.745	215.38
601.953	219.38
602.162	230.38
602.371	230.38
602.58	210.38
602.789	220.38
602.997	214.38
603.206	228.38
603.415	209.38
603.623	199.38
603.832	203.38
604.041	214.38
604.249	223.38
604.458	211.38
604.666	205.38
604.875	203.38
605.084	216.38
605.292	219.38
605.501	199.38
605.709	226.38
605.918	199.38
606.126	199.38
606.334	210.38
606.543	219.38
606.751	190.38
606.96	213.38
607.168	202.38
607.376	205.38
607.585	207.38
607.793	209.38
608.001	198.38
608.21	199.38
608.418	202.38
608.626	201.38
608.834	196.38
609.043	207.38
609.251	212.38
609.459	194.38
609.667	203.38
609.875	209.38
610.083	211.38
610.291	212.38
610.499	222.38
610.707	211.38
610.916	188.38
611.124	214.38
611.332	198.38
611.54	198.38
611.748	203.38
611.955	209.38
612.163	194.38
612.371	218.38
612.579	201.38
612.787	214.38
612.995	207.38
613.203	203.38
613.411	192.38
613.618	193.38
613.826	204.38
614.034	205.38
614.242	190.38
614.449	183.38
614.657	197.38
614.865	192.38
615.072	191.38
615.28	197.38
615.488	198.38
615.695	208.38
615.903	190.38
616.111	201.38
616.318	198.38
616.526	184.38
616.733	212.38
616.941	174.38
617.148	202.38
617.356	186.38
617.563	190.38
617.771	202.38
617.978	192.38
618.185	205.38
618.393	205.38
618.6	198.38
618.807	199.38
619.015	185.38
619.222	192.38
619.429	194.38
619.637	188.38
619.844	178.38
620.051	178.38
620.258	181.38
620.466	194.38
620.673	194.38
620.88	201.38
621.087	186.38
621.294	173.38
621.501	188.38
621.708	192.38
621.915	181.38
622.122	178.38
622.329	190.38
622.536	190.38
622.743	182.38
622.95	180.38
623.157	180.38
623.364	182.38
623.571	186.38
623.778	183.38
623.985	176.38
624.192	179.38
624.399	204.38
624.606	189.38
624.812	193.38
625.019	172.38
625.226	179.38
625.433	194.38
625.639	190.38
625.846	187.38
626.053	184.38
626.259	173.38
626.466	169.38
626.673	187.38
626.879	167.38
627.086	174.38
627.293	190.38
627.499	187.38
627.706	159.38
627.912	180.38
628.119	197.38
628.325	174.38
628.532	164.38
628.738	154.38
628.945	165.38
629.151	184.38
629.357	168.38
629.564	172.38
629.77	172.38
629.976	170.38
630.183	170.38
630.389	163.38
630.595	170.38
630.802	175.38
631.008	164.38
631.214	169.38
631.42	169.38
631.627	164.38
631.833	163.38
632.039	169.38
632.245	187.38
632.451	166.38
632.657	148.38
632.863	158.38
633.069	163.38
633.275	167.38
633.481	158.38
633.688	155.38
633.893	154.38
634.099	169.38
634.305	162.38
634.511	159.38
634.717	167.38
634.923	156.38
635.129	178.38
635.335	158.38
635.541	148.38
635.747	166.38
635.952	156.38
636.158	171.38
636.364	165.38
636.57	171.38
636.775	173.38
636.981	155.38
637.187	171.38
637.392	167.38
637.598	161.38
637.804	155.38
638.009	155.38
638.215	157.38
638.421	148.38
638.626	159.38
638.832	157.38
639.037	164.38
639.243	154.38
639.448	163.38
639.654	160.38
639.859	144.38
640.065	143.38
640.27	167.38
640.475	158.38
640.681	158.38
640.886	153.38
641.091	155.38
641.297	141.38
641.502	162.38
641.707	161.38
641.913	140.38
642.118	146.38
642.323	150.38
642.528	154.38
642.733	145.38
642.939	152.38
643.144	161.38
643.349	148.38
643.554	144.38
643.759	140.38
643.964	142.38
644.169	163.38
644.374	147.38
644.579	159.38
644.784	127.38
644.989	144.38
645.194	139.38
645.399	143.38
645.604	133.38
645.809	145.38
646.014	160.38
646.219	134.38
646.423	140.38
646.628	140.38
646.833	141.38
647.038	137.38
647.243	155.38
647.447	151.38
647.652	148.38
647.857	130.38
648.062	132.38
648.266	156.38
648.471	155.38
648.676	153.38
648.88	147.38
649.085	144.38
649.289	141.38
649.494	144.38
649.698	172.38
649.903	159.38
650.107	153.38
650.312	158.38
650.516	154.38
650.721	150.38
650.925	144.38
651.13	143.38
651.334	142.38
651.539	148.38
651.743	126.38
651.947	136.38
652.152	145.38
652.356	137.38
652.56	130.38
652.764	144.38
652.969	145.38
653.173	130.38
653.377	126.38
653.581	126.38
653.785	116.38
653.99	130.38
654.194	122.38
654.398	124.38
654.602	118.38
654.806	123.38
655.01	123.38
655.214	134.38
655.418	138.38
655.622	131.38
655.826	122.38
656.03	114.38
656.234	128.38
656.438	132.38
656.642	125.38
656.846	128.38
657.049	112.38
657.253	127.38
657.457	115.38
657.661	117.38
657.865	97.38
658.068	104.38
658.272	104.38
658.476	101.38
658.68	102.38
658.883	92.38
659.087	96.38
659.291	104.38
659.494	102.38
659.698	108.38
659.901	93.38
660.105	85.38
660.309	96.38
660.512	104.38
660.716	111.38
660.919	91.38
661.123	93.38
661.326	100.38
661.53	91.38
661.733	99.38
661.936	80.38
662.14	97.38
662.343	96.38
662.546	87.38
662.75	97.38
662.953	85.38
663.156	78.38
663.36	77.38
663.563	88.38
663.766	77.38
663.969	87.38
664.173	84.38
664.376	84.38
664.579	90.38
664.782	82.38
664.985	102.38
665.188	98.38
665.391	79.38
665.594	81.38
665.797	79.38
666	81.38
666.203	81.38
666.406	93.38
666.609	79.38
666.812	87.38
667.015	80.38
667.218	91.38
667.421	79.38
667.624	73.38
667.827	93.38
668.03	89.38
668.232	86.38
668.435	88.38
668.638	81.38
668.841	96.38
669.043	78.38
669.246	89.38
669.449	76.38
669.651	86.38
669.854	85.38
670.057	79.38
670.259	96.38
670.462	90.38
670.665	92.38
670.867	81.38
671.07	83.38
671.272	88.38
671.475	82.38
671.677	84.38
671.88	91.38
672.082	93.38
672.284	86.38
672.487	95.38
672.689	85.38
672.892	81.38
