Data from 1983.PennyLincolnUp.Lamp.En5.5.200Scan.071819.P1_HRD10591_16-53-37-965.txt Node
Date: Thu Jul 18 16:53:37 EDT 2019
User: cochatt
Spectrometer: HR+D1059
Trigger mode: 1
Integration Time (sec): 1.000000E-1
Scans to average: 1
Electric dark correction enabled: true
Nonlinearity correction enabled: false
Boxcar width: 0
XAxis mode: Wavelengths
Number of Pixels in Spectrum: 2048
>>>>>Begin Spectral Data<<<<<
223.165	-16.94
223.4	-16.94
223.635	-16.94
223.869	-12.94
224.104	-20.94
224.338	-11.94
224.573	-14.94
224.808	-12.94
225.042	8.06
225.277	1.06
225.511	-0.94
225.746	-5.94
225.98	-2.94
226.215	3.06
226.449	16.06
226.683	19.06
226.918	26.06
227.152	27.06
227.387	26.06
227.621	35.06
227.856	46.06
228.09	30.06
228.324	52.06
228.559	52.06
228.793	57.06
229.027	93.06
229.262	98.06
229.496	94.06
229.73	134.06
229.964	130.06
230.199	127.06
230.433	101.06
230.667	106.06
230.901	108.06
231.136	106.06
231.37	99.06
231.604	102.06
231.838	102.06
232.072	107.06
232.306	119.06
232.541	108.06
232.775	98.06
233.009	108.06
233.243	112.06
233.477	93.06
233.711	123.06
233.945	123.06
234.179	103.06
234.413	118.06
234.647	113.06
234.881	112.06
235.115	122.06
235.349	112.06
235.583	114.06
235.817	115.06
236.051	118.06
236.285	114.06
236.519	113.06
236.753	131.06
236.987	142.06
237.221	171.06
237.455	179.06
237.689	181.06
237.922	137.06
238.156	113.06
238.39	117.06
238.624	104.06
238.858	120.06
239.091	118.06
239.325	126.06
239.559	121.06
239.793	111.06
240.027	138.06
240.26	132.06
240.494	153.06
240.728	134.06
240.961	142.06
241.195	138.06
241.429	126.06
241.662	126.06
241.896	124.06
242.13	114.06
242.363	124.06
242.597	139.06
242.83	123.06
243.064	124.06
243.298	133.06
243.531	112.06
243.765	118.06
243.998	142.06
244.232	135.06
244.465	137.06
244.699	123.06
244.932	141.06
245.166	139.06
245.399	144.06
245.633	141.06
245.866	139.06
246.099	137.06
246.333	131.06
246.566	131.06
246.8	151.06
247.033	135.06
247.266	147.06
247.5	135.06
247.733	156.06
247.966	157.06
248.2	151.06
248.433	160.06
248.666	156.06
248.899	159.06
249.133	180.06
249.366	178.06
249.599	174.06
249.832	164.06
250.066	159.06
250.299	136.06
250.532	187.06
250.765	199.06
250.998	203.06
251.231	197.06
251.465	177.06
251.698	184.06
251.931	176.06
252.164	182.06
252.397	188.06
252.63	155.06
252.863	198.06
253.096	206.06
253.329	209.06
253.562	205.06
253.795	192.06
254.028	201.06
254.261	192.06
254.494	219.06
254.727	214.06
254.96	239.06
255.193	251.06
255.426	230.06
255.659	196.06
255.892	202.06
256.124	215.06
256.357	195.06
256.59	194.06
256.823	203.06
257.056	179.06
257.289	187.06
257.521	201.06
257.754	199.06
257.987	186.06
258.22	184.06
258.452	196.06
258.685	194.06
258.918	208.06
259.151	178.06
259.383	187.06
259.616	199.06
259.849	200.06
260.081	227.06
260.314	241.06
260.547	236.06
260.779	225.06
261.012	211.06
261.244	204.06
261.477	214.06
261.71	200.06
261.942	215.06
262.175	232.06
262.407	223.06
262.64	196.06
262.872	205.06
263.105	185.06
263.337	195.06
263.57	182.06
263.802	201.06
264.035	191.06
264.267	196.06
264.499	198.06
264.732	183.06
264.964	190.06
265.197	206.06
265.429	198.06
265.661	200.06
265.894	200.06
266.126	204.06
266.358	201.06
266.591	213.06
266.823	190.06
267.055	207.06
267.287	219.06
267.52	212.06
267.752	210.06
267.984	191.06
268.216	203.06
268.448	209.06
268.681	201.06
268.913	222.06
269.145	228.06
269.377	238.06
269.609	236.06
269.841	249.06
270.073	260.06
270.306	268.06
270.538	280.06
270.77	274.06
271.002	268.06
271.234	252.06
271.466	281.06
271.698	298.06
271.93	284.06
272.162	289.06
272.394	295.06
272.626	279.06
272.858	261.06
273.09	242.06
273.322	265.06
273.553	247.06
273.785	232.06
274.017	236.06
274.249	244.06
274.481	238.06
274.713	234.06
274.945	263.06
275.176	240.06
275.408	244.06
275.64	231.06
275.872	250.06
276.104	238.06
276.335	254.06
276.567	242.06
276.799	261.06
277.031	291.06
277.262	280.06
277.494	283.06
277.726	281.06
277.957	260.06
278.189	258.06
278.421	247.06
278.652	243.06
278.884	257.06
279.115	236.06
279.347	224.06
279.579	249.06
279.81	249.06
280.042	235.06
280.273	254.06
280.505	242.06
280.736	244.06
280.968	235.06
281.199	238.06
281.431	240.06
281.662	241.06
281.894	244.06
282.125	244.06
282.356	258.06
282.588	277.06
282.819	287.06
283.051	248.06
283.282	246.06
283.513	257.06
283.745	233.06
283.976	243.06
284.207	243.06
284.439	246.06
284.67	242.06
284.901	248.06
285.132	258.06
285.364	260.06
285.595	250.06
285.826	268.06
286.057	264.06
286.288	248.06
286.52	268.06
286.751	266.06
286.982	254.06
287.213	263.06
287.444	258.06
287.675	260.06
287.906	282.06
288.138	279.06
288.369	271.06
288.6	266.06
288.831	282.06
289.062	274.06
289.293	268.06
289.524	275.06
289.755	254.06
289.986	269.06
290.217	256.06
290.448	267.06
290.679	275.06
290.91	249.06
291.141	272.06
291.371	254.06
291.602	249.06
291.833	249.06
292.064	240.06
292.295	265.06
292.526	273.06
292.757	269.06
292.987	266.06
293.218	265.06
293.449	258.06
293.68	259.06
293.91	261.06
294.141	257.06
294.372	255.06
294.603	255.06
294.833	251.06
295.064	268.06
295.295	262.06
295.525	245.06
295.756	269.06
295.987	287.06
296.217	302.06
296.448	306.06
296.679	295.06
296.909	265.06
297.14	258.06
297.37	278.06
297.601	267.06
297.831	282.06
298.062	259.06
298.292	281.06
298.523	271.06
298.753	273.06
298.984	260.06
299.214	265.06
299.445	272.06
299.675	281.06
299.905	272.06
300.136	304.06
300.366	289.06
300.597	276.06
300.827	276.06
301.057	282.06
301.288	285.06
301.518	305.06
301.748	304.06
301.979	308.06
302.209	286.06
302.439	288.06
302.669	311.06
302.9	312.06
303.13	287.06
303.36	299.06
303.59	312.06
303.82	312.06
304.051	302.06
304.281	302.06
304.511	284.06
304.741	294.06
304.971	283.06
305.201	297.06
305.431	300.06
305.661	297.06
305.891	292.06
306.121	276.06
306.352	311.06
306.582	299.06
306.812	297.06
307.042	296.06
307.272	306.06
307.502	299.06
307.731	295.06
307.961	300.06
308.191	305.06
308.421	314.06
308.651	300.06
308.881	308.06
309.111	308.06
309.341	314.06
309.571	312.06
309.8	327.06
310.03	323.06
310.26	355.06
310.49	332.06
310.72	363.06
310.949	366.06
311.179	354.06
311.409	342.06
311.639	343.06
311.868	340.06
312.098	368.06
312.328	355.06
312.557	373.06
312.787	392.06
313.017	374.06
313.246	355.06
313.476	336.06
313.706	342.06
313.935	327.06
314.165	345.06
314.394	365.06
314.624	374.06
314.853	356.06
315.083	336.06
315.312	328.06
315.542	332.06
315.771	315.06
316.001	325.06
316.23	324.06
316.46	332.06
316.689	341.06
316.919	343.06
317.148	347.06
317.377	351.06
317.607	354.06
317.836	346.06
318.065	346.06
318.295	319.06
318.524	346.06
318.753	338.06
318.983	333.06
319.212	330.06
319.441	338.06
319.67	364.06
319.9	347.06
320.129	345.06
320.358	333.06
320.587	338.06
320.816	367.06
321.046	380.06
321.275	387.06
321.504	367.06
321.733	358.06
321.962	370.06
322.191	374.06
322.42	392.06
322.649	415.06
322.878	430.06
323.108	419.06
323.337	442.06
323.566	460.06
323.795	488.06
324.024	548.06
324.253	686.06
324.482	979.06
324.71	1471.06
324.939	1962.06
325.168	1620.06
325.397	879.06
325.626	622.06
325.855	510.06
326.084	491.06
326.313	460.06
326.542	476.06
326.77	523.06
326.999	617.06
327.228	853.06
327.457	1257.06
327.686	1421.06
327.914	998.06
328.143	690.06
328.372	570.06
328.6	539.06
328.829	530.06
329.058	555.06
329.287	555.06
329.515	500.06
329.744	481.06
329.972	461.06
330.201	455.06
330.43	503.06
330.658	548.06
330.887	558.06
331.115	538.06
331.344	459.06
331.572	446.06
331.801	442.06
332.03	433.06
332.258	428.06
332.486	418.06
332.715	398.06
332.943	418.06
333.172	389.06
333.4	418.06
333.629	412.06
333.857	412.06
334.085	402.06
334.314	426.06
334.542	440.06
334.771	443.06
334.999	420.06
335.227	401.06
335.455	390.06
335.684	396.06
335.912	383.06
336.14	405.06
336.369	389.06
336.597	418.06
336.825	416.06
337.053	397.06
337.281	414.06
337.51	396.06
337.738	400.06
337.966	401.06
338.194	405.06
338.422	383.06
338.65	392.06
338.878	406.06
339.106	388.06
339.334	401.06
339.562	386.06
339.79	388.06
340.018	384.06
340.246	367.06
340.474	389.06
340.702	367.06
340.93	350.06
341.158	386.06
341.386	392.06
341.614	367.06
341.842	382.06
342.07	381.06
342.298	372.06
342.526	368.06
342.754	374.06
342.981	367.06
343.209	371.06
343.437	390.06
343.665	373.06
343.893	402.06
344.12	404.06
344.348	379.06
344.576	388.06
344.804	400.06
345.031	393.06
345.259	402.06
345.487	391.06
345.714	382.06
345.942	352.06
346.17	382.06
346.397	372.06
346.625	383.06
346.853	387.06
347.08	360.06
347.308	386.06
347.535	394.06
347.763	383.06
347.99	400.06
348.218	389.06
348.445	398.06
348.673	394.06
348.9	389.06
349.128	379.06
349.355	373.06
349.583	372.06
349.81	351.06
350.037	356.06
350.265	359.06
350.492	356.06
350.72	364.06
350.947	371.06
351.174	376.06
351.402	387.06
351.629	381.06
351.856	382.06
352.083	388.06
352.311	403.06
352.538	396.06
352.765	404.06
352.992	375.06
353.22	378.06
353.447	376.06
353.674	357.06
353.901	374.06
354.128	367.06
354.355	348.06
354.583	344.06
354.81	346.06
355.037	343.06
355.264	341.06
355.491	356.06
355.718	345.06
355.945	333.06
356.172	342.06
356.399	347.06
356.626	323.06
356.853	345.06
357.08	337.06
357.307	346.06
357.534	346.06
357.761	366.06
357.988	346.06
358.215	350.06
358.441	343.06
358.668	344.06
358.895	354.06
359.122	343.06
359.349	362.06
359.576	387.06
359.802	405.06
360.029	422.06
360.256	432.06
360.483	419.06
360.709	366.06
360.936	377.06
361.163	396.06
361.39	387.06
361.616	367.06
361.843	364.06
362.07	374.06
362.296	387.06
362.523	391.06
362.749	360.06
362.976	388.06
363.203	366.06
363.429	364.06
363.656	338.06
363.882	348.06
364.109	362.06
364.335	358.06
364.562	369.06
364.788	346.06
365.015	340.06
365.241	358.06
365.468	359.06
365.694	369.06
365.92	360.06
366.147	358.06
366.373	353.06
366.599	343.06
366.826	341.06
367.052	338.06
367.278	337.06
367.505	348.06
367.731	366.06
367.957	347.06
368.184	350.06
368.41	360.06
368.636	370.06
368.862	362.06
369.089	334.06
369.315	351.06
369.541	342.06
369.767	355.06
369.993	345.06
370.219	351.06
370.445	355.06
370.672	357.06
370.898	345.06
371.124	345.06
371.35	345.06
371.576	354.06
371.802	344.06
372.028	335.06
372.254	344.06
372.48	351.06
372.706	324.06
372.932	340.06
373.158	366.06
373.384	378.06
373.61	340.06
373.835	357.06
374.061	355.06
374.287	351.06
374.513	348.06
374.739	348.06
374.965	340.06
375.191	340.06
375.416	355.06
375.642	343.06
375.868	346.06
376.094	348.06
376.319	332.06
376.545	347.06
376.771	344.06
376.997	334.06
377.222	343.06
377.448	337.06
377.674	340.06
377.899	338.06
378.125	343.06
378.35	370.06
378.576	332.06
378.802	347.06
379.027	349.06
379.253	345.06
379.478	339.06
379.704	338.06
379.929	345.06
380.155	325.06
380.38	354.06
380.606	348.06
380.831	340.06
381.057	346.06
381.282	353.06
381.507	343.06
381.733	356.06
381.958	358.06
382.184	348.06
382.409	353.06
382.634	348.06
382.86	344.06
383.085	350.06
383.31	346.06
383.535	351.06
383.761	349.06
383.986	350.06
384.211	345.06
384.436	360.06
384.662	363.06
384.887	364.06
385.112	347.06
385.337	364.06
385.562	374.06
385.787	365.06
386.013	388.06
386.238	383.06
386.463	379.06
386.688	374.06
386.913	367.06
387.138	383.06
387.363	366.06
387.588	351.06
387.813	395.06
388.038	381.06
388.263	377.06
388.488	379.06
388.713	357.06
388.938	382.06
389.163	378.06
389.387	372.06
389.612	364.06
389.837	371.06
390.062	370.06
390.287	374.06
390.512	362.06
390.736	369.06
390.961	382.06
391.186	363.06
391.411	385.06
391.636	350.06
391.86	370.06
392.085	385.06
392.31	386.06
392.534	391.06
392.759	398.06
392.984	366.06
393.208	354.06
393.433	375.06
393.658	356.06
393.882	368.06
394.107	363.06
394.331	374.06
394.556	368.06
394.78	381.06
395.005	378.06
395.229	371.06
395.454	397.06
395.678	390.06
395.903	400.06
396.127	400.06
396.352	412.06
396.576	393.06
396.801	384.06
397.025	381.06
397.249	394.06
397.474	378.06
397.698	387.06
397.922	402.06
398.147	388.06
398.371	431.06
398.595	397.06
398.82	406.06
399.044	446.06
399.268	430.06
399.492	454.06
399.717	459.06
399.941	494.06
400.165	508.06
400.389	504.06
400.613	482.06
400.837	445.06
401.062	433.06
401.286	426.06
401.51	443.06
401.734	430.06
401.958	424.06
402.182	428.06
402.406	452.06
402.63	427.06
402.854	428.06
403.078	427.06
403.302	438.06
403.526	449.06
403.75	408.06
403.974	427.06
404.198	436.06
404.422	452.06
404.645	434.06
404.869	442.06
405.093	449.06
405.317	456.06
405.541	485.06
405.765	491.06
405.988	452.06
406.212	471.06
406.436	492.06
406.66	484.06
406.883	477.06
407.107	501.06
407.331	536.06
407.555	582.06
407.778	538.06
408.002	494.06
408.226	481.06
408.449	483.06
408.673	459.06
408.896	489.06
409.12	496.06
409.344	484.06
409.567	448.06
409.791	454.06
410.014	446.06
410.238	458.06
410.461	435.06
410.685	427.06
410.908	444.06
411.132	470.06
411.355	510.06
411.578	498.06
411.802	437.06
412.025	432.06
412.249	446.06
412.472	441.06
412.695	462.06
412.919	444.06
413.142	419.06
413.365	415.06
413.589	422.06
413.812	426.06
414.035	409.06
414.258	393.06
414.482	416.06
414.705	418.06
414.928	401.06
415.151	405.06
415.374	409.06
415.597	412.06
415.821	405.06
416.044	417.06
416.267	406.06
416.49	406.06
416.713	416.06
416.936	410.06
417.159	418.06
417.382	432.06
417.605	436.06
417.828	431.06
418.051	430.06
418.274	436.06
418.497	418.06
418.72	415.06
418.943	409.06
419.166	407.06
419.389	445.06
419.611	430.06
419.834	433.06
420.057	425.06
420.28	416.06
420.503	418.06
420.726	404.06
420.948	432.06
421.171	486.06
421.394	491.06
421.617	450.06
421.839	430.06
422.062	412.06
422.285	435.06
422.507	483.06
422.73	521.06
422.953	526.06
423.175	468.06
423.398	462.06
423.621	435.06
423.843	455.06
424.066	443.06
424.288	460.06
424.511	486.06
424.733	528.06
424.956	565.06
425.178	551.06
425.401	522.06
425.623	564.06
425.846	513.06
426.068	474.06
426.291	459.06
426.513	486.06
426.735	445.06
426.958	500.06
427.18	573.06
427.402	670.06
427.625	730.06
427.847	642.06
428.069	552.06
428.292	483.06
428.514	466.06
428.736	455.06
428.958	442.06
429.181	433.06
429.403	423.06
429.625	446.06
429.847	454.06
430.069	528.06
430.292	494.06
430.514	443.06
430.736	459.06
430.958	439.06
431.18	409.06
431.402	412.06
431.624	433.06
431.846	402.06
432.068	401.06
432.29	407.06
432.512	409.06
432.734	438.06
432.956	430.06
433.178	431.06
433.4	422.06
433.622	419.06
433.844	426.06
434.066	404.06
434.287	401.06
434.509	395.06
434.731	433.06
434.953	432.06
435.175	452.06
435.397	459.06
435.618	459.06
435.84	489.06
436.062	578.06
436.284	601.06
436.505	528.06
436.727	471.06
436.949	415.06
437.17	419.06
437.392	448.06
437.614	445.06
437.835	474.06
438.057	550.06
438.278	620.06
438.5	657.06
438.721	656.06
438.943	651.06
439.165	518.06
439.386	507.06
439.608	476.06
439.829	482.06
440.05	519.06
440.272	542.06
440.493	529.06
440.715	469.06
440.936	451.06
441.158	448.06
441.379	428.06
441.6	449.06
441.822	464.06
442.043	498.06
442.264	556.06
442.486	583.06
442.707	501.06
442.928	488.06
443.149	486.06
443.371	501.06
443.592	563.06
443.813	599.06
444.034	620.06
444.255	542.06
444.476	481.06
444.698	462.06
444.919	461.06
445.14	567.06
445.361	532.06
445.582	510.06
445.803	535.06
446.024	631.06
446.245	623.06
446.466	584.06
446.687	516.06
446.908	449.06
447.129	448.06
447.35	456.06
447.571	438.06
447.792	438.06
448.013	446.06
448.234	452.06
448.455	507.06
448.675	599.06
448.896	661.06
449.117	578.06
449.338	553.06
449.559	614.06
449.779	686.06
450	560.06
450.221	466.06
450.442	459.06
450.662	450.06
450.883	456.06
451.104	458.06
451.324	451.06
451.545	427.06
451.766	400.06
451.986	412.06
452.207	389.06
452.428	390.06
452.648	393.06
452.869	394.06
453.089	398.06
453.31	418.06
453.53	418.06
453.751	383.06
453.971	382.06
454.192	422.06
454.412	415.06
454.633	385.06
454.853	406.06
455.073	369.06
455.294	411.06
455.514	474.06
455.734	442.06
455.955	407.06
456.175	383.06
456.395	359.06
456.616	362.06
456.836	357.06
457.056	357.06
457.276	341.06
457.497	367.06
457.717	357.06
457.937	368.06
458.157	384.06
458.377	379.06
458.598	383.06
458.818	474.06
459.038	548.06
459.258	540.06
459.478	463.06
459.698	421.06
459.918	422.06
460.138	413.06
460.358	401.06
460.578	414.06
460.798	413.06
461.018	417.06
461.238	401.06
461.458	404.06
461.678	390.06
461.898	418.06
462.118	408.06
462.338	417.06
462.558	435.06
462.777	435.06
462.997	416.06
463.217	442.06
463.437	454.06
463.657	446.06
463.876	441.06
464.096	431.06
464.316	439.06
464.536	451.06
464.755	463.06
464.975	452.06
465.195	480.06
465.414	581.06
465.634	482.06
465.854	456.06
466.073	432.06
466.293	418.06
466.512	402.06
466.732	391.06
466.951	397.06
467.171	381.06
467.391	379.06
467.61	394.06
467.829	405.06
468.049	409.06
468.268	401.06
468.488	375.06
468.707	384.06
468.927	378.06
469.146	392.06
469.365	395.06
469.585	389.06
469.804	409.06
470.023	409.06
470.243	385.06
470.462	433.06
470.681	451.06
470.901	442.06
471.12	411.06
471.339	407.06
471.558	407.06
471.777	408.06
471.997	403.06
472.216	405.06
472.435	407.06
472.654	380.06
472.873	405.06
473.092	391.06
473.311	389.06
473.53	378.06
473.749	408.06
473.968	464.06
474.187	530.06
474.406	551.06
474.625	454.06
474.844	421.06
475.063	412.06
475.282	421.06
475.501	408.06
475.72	409.06
475.939	420.06
476.158	405.06
476.377	411.06
476.596	420.06
476.814	425.06
477.033	419.06
477.252	443.06
477.471	437.06
477.69	427.06
477.908	431.06
478.127	418.06
478.346	424.06
478.564	439.06
478.783	457.06
479.002	455.06
479.22	474.06
479.439	462.06
479.658	450.06
479.876	474.06
480.095	516.06
480.313	520.06
480.532	498.06
480.751	496.06
480.969	487.06
481.188	523.06
481.406	528.06
481.624	481.06
481.843	472.06
482.061	478.06
482.28	471.06
482.498	484.06
482.717	465.06
482.935	472.06
483.153	443.06
483.372	475.06
483.59	471.06
483.808	456.06
484.027	461.06
484.245	451.06
484.463	475.06
484.681	482.06
484.9	467.06
485.118	486.06
485.336	482.06
485.554	494.06
485.772	480.06
485.99	467.06
486.209	471.06
486.427	498.06
486.645	489.06
486.863	503.06
487.081	497.06
487.299	508.06
487.517	515.06
487.735	496.06
487.953	495.06
488.171	513.06
488.389	475.06
488.607	484.06
488.825	508.06
489.043	521.06
489.261	507.06
489.479	523.06
489.696	512.06
489.914	506.06
490.132	495.06
490.35	531.06
490.568	503.06
490.786	526.06
491.003	542.06
491.221	569.06
491.439	576.06
491.657	555.06
491.874	576.06
492.092	568.06
492.31	576.06
492.527	579.06
492.745	577.06
492.963	597.06
493.18	569.06
493.398	584.06
493.615	590.06
493.833	602.06
494.05	608.06
494.268	589.06
494.485	602.06
494.703	594.06
494.92	595.06
495.138	586.06
495.355	610.06
495.573	603.06
495.79	610.06
496.008	581.06
496.225	612.06
496.442	592.06
496.66	588.06
496.877	608.06
497.094	617.06
497.312	598.06
497.529	589.06
497.746	607.06
497.963	637.06
498.181	650.06
498.398	648.06
498.615	645.06
498.832	672.06
499.049	666.06
499.267	677.06
499.484	704.06
499.701	693.06
499.918	722.06
500.135	762.06
500.352	794.06
500.569	791.06
500.786	789.06
501.003	784.06
501.22	768.06
501.437	772.06
501.654	755.06
501.871	741.06
502.088	723.06
502.305	682.06
502.522	629.06
502.739	651.06
502.956	622.06
503.172	615.06
503.389	629.06
503.606	622.06
503.823	636.06
504.04	604.06
504.256	592.06
504.473	604.06
504.69	580.06
504.907	603.06
505.123	597.06
505.34	576.06
505.557	574.06
505.773	567.06
505.99	584.06
506.207	597.06
506.423	575.06
506.64	580.06
506.856	577.06
507.073	575.06
507.289	544.06
507.506	556.06
507.722	574.06
507.939	590.06
508.155	563.06
508.372	551.06
508.588	537.06
508.805	549.06
509.021	542.06
509.238	572.06
509.454	548.06
509.67	549.06
509.887	542.06
510.103	564.06
510.319	572.06
510.536	672.06
510.752	1190.06
510.968	963.06
511.184	567.06
511.401	521.06
511.617	535.06
511.833	517.06
512.049	514.06
512.265	506.06
512.481	501.06
512.698	508.06
512.914	500.06
513.13	508.06
513.346	525.06
513.562	508.06
513.778	510.06
513.994	526.06
514.21	548.06
514.426	563.06
514.642	593.06
514.858	632.06
515.074	672.06
515.29	839.06
515.506	1313.06
515.721	1074.06
515.937	676.06
516.153	599.06
516.369	566.06
516.585	551.06
516.801	535.06
517.016	519.06
517.232	515.06
517.448	530.06
517.664	520.06
517.879	540.06
518.095	537.06
518.311	518.06
518.527	508.06
518.742	531.06
518.958	516.06
519.173	500.06
519.389	524.06
519.605	525.06
519.82	523.06
520.036	538.06
520.251	559.06
520.467	606.06
520.682	586.06
520.898	586.06
521.113	598.06
521.329	664.06
521.544	763.06
521.76	1019.06
521.975	1741.06
522.19	1725.06
522.406	876.06
522.621	607.06
522.836	555.06
523.052	519.06
523.267	518.06
523.482	501.06
523.698	489.06
523.913	488.06
524.128	479.06
524.343	475.06
524.559	467.06
524.774	450.06
524.989	452.06
525.204	457.06
525.419	464.06
525.634	427.06
525.849	434.06
526.064	432.06
526.28	422.06
526.495	432.06
526.71	446.06
526.925	427.06
527.14	416.06
527.355	422.06
527.57	434.06
527.785	406.06
527.999	432.06
528.214	425.06
528.429	419.06
528.644	421.06
528.859	432.06
529.074	427.06
529.289	466.06
529.503	538.06
529.718	504.06
529.933	467.06
530.148	443.06
530.363	451.06
530.577	415.06
530.792	418.06
531.007	420.06
531.221	429.06
531.436	405.06
531.651	409.06
531.865	396.06
532.08	420.06
532.295	413.06
532.509	393.06
532.724	396.06
532.938	389.06
533.153	394.06
533.367	411.06
533.582	416.06
533.796	397.06
534.011	422.06
534.225	390.06
534.44	379.06
534.654	386.06
534.868	388.06
535.083	402.06
535.297	404.06
535.511	389.06
535.726	397.06
535.94	403.06
536.154	409.06
536.369	408.06
536.583	392.06
536.797	382.06
537.011	389.06
537.225	410.06
537.44	391.06
537.654	383.06
537.868	379.06
538.082	362.06
538.296	368.06
538.51	382.06
538.724	400.06
538.938	390.06
539.153	369.06
539.367	401.06
539.581	385.06
539.795	396.06
540.009	389.06
540.222	386.06
540.436	381.06
540.65	377.06
540.864	396.06
541.078	400.06
541.292	372.06
541.506	368.06
541.72	383.06
541.934	368.06
542.147	388.06
542.361	387.06
542.575	376.06
542.789	384.06
543.002	372.06
543.216	384.06
543.43	386.06
543.644	351.06
543.857	376.06
544.071	394.06
544.285	385.06
544.498	395.06
544.712	370.06
544.925	379.06
545.139	384.06
545.352	380.06
545.566	382.06
545.779	378.06
545.993	386.06
546.206	373.06
546.42	346.06
546.633	359.06
546.847	378.06
547.06	362.06
547.274	378.06
547.487	371.06
547.7	355.06
547.914	354.06
548.127	361.06
548.34	370.06
548.554	359.06
548.767	358.06
548.98	353.06
549.193	359.06
549.407	368.06
549.62	359.06
549.833	354.06
550.046	362.06
550.259	371.06
550.473	353.06
550.686	349.06
550.899	370.06
551.112	356.06
551.325	372.06
551.538	370.06
551.751	355.06
551.964	353.06
552.177	373.06
552.39	345.06
552.603	332.06
552.816	343.06
553.029	346.06
553.242	357.06
553.455	365.06
553.667	374.06
553.88	357.06
554.093	354.06
554.306	359.06
554.519	371.06
554.732	369.06
554.944	374.06
555.157	350.06
555.37	331.06
555.583	345.06
555.795	341.06
556.008	344.06
556.221	320.06
556.433	336.06
556.646	330.06
556.859	309.06
557.071	314.06
557.284	322.06
557.496	320.06
557.709	303.06
557.921	318.06
558.134	321.06
558.346	320.06
558.559	318.06
558.771	337.06
558.984	324.06
559.196	329.06
559.409	315.06
559.621	319.06
559.833	324.06
560.046	325.06
560.258	299.06
560.47	326.06
560.683	320.06
560.895	313.06
561.107	306.06
561.32	311.06
561.532	311.06
561.744	312.06
561.956	334.06
562.168	314.06
562.381	320.06
562.593	325.06
562.805	329.06
563.017	332.06
563.229	326.06
563.441	312.06
563.653	322.06
563.865	312.06
564.077	294.06
564.289	314.06
564.501	320.06
564.713	319.06
564.925	325.06
565.137	352.06
565.349	346.06
565.561	338.06
565.773	357.06
565.985	341.06
566.197	350.06
566.408	336.06
566.62	359.06
566.832	372.06
567.044	370.06
567.255	372.06
567.467	374.06
567.679	362.06
567.891	386.06
568.102	382.06
568.314	371.06
568.526	368.06
568.737	347.06
568.949	348.06
569.161	352.06
569.372	338.06
569.584	340.06
569.795	330.06
570.007	315.06
570.218	377.06
570.43	357.06
570.641	312.06
570.853	304.06
571.064	306.06
571.276	298.06
571.487	324.06
571.698	299.06
571.91	286.06
572.121	293.06
572.333	291.06
572.544	295.06
572.755	291.06
572.966	282.06
573.178	288.06
573.389	295.06
573.6	266.06
573.811	261.06
574.023	277.06
574.234	272.06
574.445	280.06
574.656	290.06
574.867	259.06
575.078	262.06
575.289	267.06
575.501	270.06
575.712	263.06
575.923	283.06
576.134	267.06
576.345	270.06
576.556	282.06
576.767	275.06
576.978	281.06
577.188	275.06
577.399	274.06
577.61	287.06
577.821	262.06
578.032	289.06
578.243	312.06
578.454	535.06
578.665	386.06
578.875	270.06
579.086	253.06
579.297	275.06
579.508	268.06
579.718	266.06
579.929	257.06
580.14	243.06
580.35	233.06
580.561	242.06
580.772	264.06
580.982	248.06
581.193	233.06
581.403	251.06
581.614	251.06
581.825	267.06
582.035	249.06
582.246	243.06
582.456	259.06
582.667	243.06
582.877	254.06
583.087	249.06
583.298	252.06
583.508	259.06
583.719	227.06
583.929	239.06
584.139	256.06
584.35	236.06
584.56	250.06
584.77	256.06
584.981	255.06
585.191	252.06
585.401	245.06
585.611	243.06
585.821	253.06
586.032	255.06
586.242	269.06
586.452	247.06
586.662	250.06
586.872	246.06
587.082	227.06
587.292	244.06
587.502	243.06
587.713	258.06
587.923	244.06
588.133	232.06
588.343	235.06
588.553	247.06
588.762	236.06
588.972	238.06
589.182	249.06
589.392	250.06
589.602	233.06
589.812	254.06
590.022	239.06
590.232	245.06
590.441	235.06
590.651	236.06
590.861	228.06
591.071	239.06
591.281	230.06
591.49	245.06
591.7	238.06
591.91	257.06
592.119	255.06
592.329	228.06
592.539	245.06
592.748	244.06
592.958	235.06
593.167	256.06
593.377	232.06
593.587	251.06
593.796	242.06
594.006	241.06
594.215	264.06
594.424	250.06
594.634	236.06
594.843	261.06
595.053	239.06
595.262	241.06
595.472	239.06
595.681	230.06
595.89	232.06
596.1	245.06
596.309	222.06
596.518	234.06
596.727	224.06
596.937	240.06
597.146	242.06
597.355	240.06
597.564	229.06
597.774	238.06
597.983	217.06
598.192	219.06
598.401	229.06
598.61	233.06
598.819	196.06
599.028	218.06
599.237	199.06
599.446	201.06
599.655	214.06
599.864	207.06
600.073	207.06
600.282	215.06
600.491	192.06
600.7	214.06
600.909	207.06
601.118	221.06
601.327	219.06
601.536	195.06
601.745	206.06
601.953	214.06
602.162	232.06
602.371	214.06
602.58	219.06
602.789	223.06
602.997	194.06
603.206	220.06
603.415	220.06
603.623	200.06
603.832	206.06
604.041	205.06
604.249	196.06
604.458	219.06
604.666	194.06
604.875	210.06
605.084	182.06
605.292	195.06
605.501	201.06
605.709	218.06
605.918	200.06
606.126	194.06
606.334	198.06
606.543	208.06
606.751	202.06
606.96	198.06
607.168	184.06
607.376	209.06
607.585	196.06
607.793	200.06
608.001	194.06
608.21	195.06
608.418	200.06
608.626	200.06
608.834	195.06
609.043	202.06
609.251	188.06
609.459	198.06
609.667	196.06
609.875	196.06
610.083	192.06
610.291	202.06
610.499	163.06
610.707	198.06
610.916	191.06
611.124	203.06
611.332	207.06
611.54	202.06
611.748	202.06
611.955	192.06
612.163	196.06
612.371	199.06
612.579	198.06
612.787	195.06
612.995	190.06
613.203	195.06
613.411	196.06
613.618	194.06
613.826	189.06
614.034	198.06
614.242	191.06
614.449	183.06
614.657	189.06
614.865	196.06
615.072	194.06
615.28	199.06
615.488	194.06
615.695	203.06
615.903	194.06
616.111	192.06
616.318	210.06
616.526	208.06
616.733	217.06
616.941	180.06
617.148	174.06
617.356	198.06
617.563	182.06
617.771	195.06
617.978	189.06
618.185	188.06
618.393	202.06
618.6	201.06
618.807	201.06
619.015	194.06
619.222	190.06
619.429	187.06
619.637	180.06
619.844	194.06
620.051	179.06
620.258	173.06
620.466	172.06
620.673	195.06
620.88	187.06
621.087	185.06
621.294	187.06
621.501	174.06
621.708	182.06
621.915	194.06
622.122	178.06
622.329	182.06
622.536	177.06
622.743	175.06
622.95	177.06
623.157	179.06
623.364	183.06
623.571	164.06
623.778	156.06
623.985	168.06
624.192	168.06
624.399	175.06
624.606	194.06
624.812	179.06
625.019	192.06
625.226	187.06
625.433	167.06
625.639	163.06
625.846	158.06
626.053	163.06
626.259	159.06
626.466	184.06
626.673	182.06
626.879	151.06
627.086	179.06
627.293	176.06
627.499	182.06
627.706	168.06
627.912	167.06
628.119	174.06
628.325	160.06
628.532	153.06
628.738	169.06
628.945	170.06
629.151	176.06
629.357	162.06
629.564	177.06
629.77	160.06
629.976	161.06
630.183	165.06
630.389	147.06
630.595	166.06
630.802	175.06
631.008	158.06
631.214	153.06
631.42	159.06
631.627	177.06
631.833	168.06
632.039	170.06
632.245	152.06
632.451	154.06
632.657	159.06
632.863	170.06
633.069	182.06
633.275	155.06
633.481	155.06
633.688	156.06
633.893	153.06
634.099	145.06
634.305	158.06
634.511	154.06
634.717	170.06
634.923	163.06
635.129	140.06
635.335	155.06
635.541	161.06
635.747	146.06
635.952	145.06
636.158	164.06
636.364	164.06
636.57	155.06
636.775	160.06
636.981	149.06
637.187	156.06
637.392	154.06
637.598	150.06
637.804	159.06
638.009	165.06
638.215	148.06
638.421	144.06
638.626	158.06
638.832	144.06
639.037	146.06
639.243	148.06
639.448	156.06
639.654	145.06
639.859	146.06
640.065	156.06
640.27	150.06
640.475	129.06
640.681	157.06
640.886	143.06
641.091	153.06
641.297	164.06
641.502	159.06
641.707	149.06
641.913	163.06
642.118	150.06
642.323	140.06
642.528	157.06
642.733	158.06
642.939	160.06
643.144	143.06
643.349	156.06
643.554	149.06
643.759	143.06
643.964	150.06
644.169	152.06
644.374	145.06
644.579	154.06
644.784	145.06
644.989	138.06
645.194	160.06
645.399	149.06
645.604	131.06
645.809	140.06
646.014	139.06
646.219	130.06
646.423	135.06
646.628	153.06
646.833	143.06
647.038	146.06
647.243	150.06
647.447	138.06
647.652	148.06
647.857	150.06
648.062	151.06
648.266	154.06
648.471	154.06
648.676	143.06
648.88	145.06
649.085	148.06
649.289	138.06
649.494	154.06
649.698	160.06
649.903	154.06
650.107	156.06
650.312	153.06
650.516	150.06
650.721	135.06
650.925	115.06
651.13	132.06
651.334	142.06
651.539	116.06
651.743	148.06
651.947	149.06
652.152	138.06
652.356	116.06
652.56	140.06
652.764	131.06
652.969	123.06
653.173	126.06
653.377	124.06
653.581	128.06
653.785	116.06
653.99	140.06
654.194	132.06
654.398	128.06
654.602	116.06
654.806	126.06
655.01	136.06
655.214	120.06
655.418	124.06
655.622	122.06
655.826	111.06
656.03	126.06
656.234	123.06
656.438	144.06
656.642	127.06
656.846	128.06
657.049	107.06
657.253	112.06
657.457	115.06
657.661	111.06
657.865	113.06
658.068	119.06
658.272	118.06
658.476	114.06
658.68	104.06
658.883	104.06
659.087	100.06
659.291	98.06
659.494	105.06
659.698	91.06
659.901	90.06
660.105	93.06
660.309	81.06
660.512	93.06
660.716	83.06
660.919	91.06
661.123	87.06
661.326	89.06
661.53	95.06
661.733	90.06
661.936	97.06
662.14	79.06
662.343	102.06
662.546	81.06
662.75	83.06
662.953	94.06
663.156	84.06
663.36	83.06
663.563	79.06
663.766	78.06
663.969	80.06
664.173	85.06
664.376	87.06
664.579	90.06
664.782	87.06
664.985	69.06
665.188	72.06
665.391	82.06
665.594	79.06
665.797	87.06
666	79.06
666.203	89.06
666.406	80.06
666.609	76.06
666.812	89.06
667.015	78.06
667.218	78.06
667.421	77.06
667.624	88.06
667.827	76.06
668.03	86.06
668.232	90.06
668.435	94.06
668.638	79.06
668.841	77.06
669.043	73.06
669.246	73.06
669.449	80.06
669.651	89.06
669.854	93.06
670.057	90.06
670.259	88.06
670.462	79.06
670.665	68.06
670.867	65.06
671.07	81.06
671.272	73.06
671.475	80.06
671.677	85.06
671.88	92.06
672.082	80.06
672.284	91.06
672.487	84.06
672.689	88.06
672.892	79.06
