Data from 1984.PennyLincolnUp.Lamp.En5.5.200Scan.071819.P1_HRD10591_16-59-35-971.txt Node
Date: Thu Jul 18 16:59:35 EDT 2019
User: cochatt
Spectrometer: HR+D1059
Trigger mode: 1
Integration Time (sec): 1.000000E-1
Scans to average: 1
Electric dark correction enabled: true
Nonlinearity correction enabled: false
Boxcar width: 0
XAxis mode: Wavelengths
Number of Pixels in Spectrum: 2048
>>>>>Begin Spectral Data<<<<<
223.165	-2.62
223.4	-2.62
223.635	-2.62
223.869	-12.62
224.104	-13.62
224.338	-26.62
224.573	-14.62
224.808	-14.62
225.042	1.38
225.277	-13.62
225.511	-0.62
225.746	0.38
225.98	4.38
226.215	2.38
226.449	17.38
226.683	9.38
226.918	30.38
227.152	33.38
227.387	22.38
227.621	38.38
227.856	30.38
228.09	38.38
228.324	48.38
228.559	52.38
228.793	62.38
229.027	84.38
229.262	95.38
229.496	103.38
229.73	116.38
229.964	121.38
230.199	107.38
230.433	97.38
230.667	131.38
230.901	101.38
231.136	96.38
231.37	88.38
231.604	84.38
231.838	118.38
232.072	103.38
232.306	100.38
232.541	116.38
232.775	116.38
233.009	116.38
233.243	105.38
233.477	122.38
233.711	122.38
233.945	102.38
234.179	107.38
234.413	99.38
234.647	103.38
234.881	107.38
235.115	104.38
235.349	95.38
235.583	100.38
235.817	103.38
236.051	126.38
236.285	116.38
236.519	114.38
236.753	98.38
236.987	124.38
237.221	136.38
237.455	160.38
237.689	154.38
237.922	124.38
238.156	124.38
238.39	111.38
238.624	105.38
238.858	107.38
239.091	122.38
239.325	104.38
239.559	124.38
239.793	116.38
240.027	120.38
240.26	128.38
240.494	127.38
240.728	139.38
240.961	126.38
241.195	117.38
241.429	133.38
241.662	126.38
241.896	128.38
242.13	135.38
242.363	132.38
242.597	143.38
242.83	131.38
243.064	127.38
243.298	117.38
243.531	115.38
243.765	124.38
243.998	130.38
244.232	144.38
244.465	121.38
244.699	130.38
244.932	139.38
245.166	134.38
245.399	135.38
245.633	131.38
245.866	130.38
246.099	132.38
246.333	136.38
246.566	140.38
246.8	156.38
247.033	140.38
247.266	145.38
247.5	144.38
247.733	152.38
247.966	157.38
248.2	147.38
248.433	145.38
248.666	143.38
248.899	169.38
249.133	160.38
249.366	164.38
249.599	183.38
249.832	151.38
250.066	169.38
250.299	177.38
250.532	201.38
250.765	205.38
250.998	204.38
251.231	199.38
251.465	183.38
251.698	180.38
251.931	165.38
252.164	166.38
252.397	169.38
252.63	179.38
252.863	178.38
253.096	206.38
253.329	196.38
253.562	193.38
253.795	186.38
254.028	203.38
254.261	188.38
254.494	208.38
254.727	209.38
254.96	230.38
255.193	196.38
255.426	216.38
255.659	200.38
255.892	229.38
256.124	241.38
256.357	262.38
256.59	251.38
256.823	208.38
257.056	198.38
257.289	197.38
257.521	195.38
257.754	193.38
257.987	186.38
258.22	173.38
258.452	193.38
258.685	194.38
258.918	190.38
259.151	202.38
259.383	203.38
259.616	196.38
259.849	200.38
260.081	205.38
260.314	223.38
260.547	226.38
260.779	202.38
261.012	211.38
261.244	186.38
261.477	215.38
261.71	213.38
261.942	192.38
262.175	208.38
262.407	208.38
262.64	191.38
262.872	180.38
263.105	209.38
263.337	198.38
263.57	198.38
263.802	198.38
264.035	187.38
264.267	199.38
264.499	198.38
264.732	200.38
264.964	195.38
265.197	214.38
265.429	210.38
265.661	205.38
265.894	212.38
266.126	202.38
266.358	206.38
266.591	216.38
266.823	210.38
267.055	200.38
267.287	202.38
267.52	203.38
267.752	214.38
267.984	209.38
268.216	213.38
268.448	224.38
268.681	222.38
268.913	190.38
269.145	229.38
269.377	228.38
269.609	236.38
269.841	248.38
270.073	233.38
270.306	250.38
270.538	276.38
270.77	261.38
271.002	248.38
271.234	247.38
271.466	263.38
271.698	277.38
271.93	281.38
272.162	286.38
272.394	271.38
272.626	266.38
272.858	259.38
273.09	246.38
273.322	227.38
273.553	249.38
273.785	235.38
274.017	245.38
274.249	236.38
274.481	252.38
274.713	237.38
274.945	246.38
275.176	228.38
275.408	252.38
275.64	265.38
275.872	257.38
276.104	245.38
276.335	241.38
276.567	253.38
276.799	254.38
277.031	277.38
277.262	276.38
277.494	281.38
277.726	286.38
277.957	257.38
278.189	262.38
278.421	264.38
278.652	248.38
278.884	267.38
279.115	256.38
279.347	232.38
279.579	263.38
279.81	243.38
280.042	252.38
280.273	268.38
280.505	268.38
280.736	256.38
280.968	248.38
281.199	241.38
281.431	252.38
281.662	258.38
281.894	258.38
282.125	278.38
282.356	293.38
282.588	275.38
282.819	287.38
283.051	292.38
283.282	266.38
283.513	243.38
283.745	266.38
283.976	268.38
284.207	269.38
284.439	271.38
284.67	298.38
284.901	267.38
285.132	285.38
285.364	268.38
285.595	278.38
285.826	280.38
286.057	289.38
286.288	259.38
286.52	286.38
286.751	264.38
286.982	289.38
287.213	291.38
287.444	261.38
287.675	298.38
287.906	298.38
288.138	282.38
288.369	289.38
288.6	299.38
288.831	288.38
289.062	289.38
289.293	276.38
289.524	286.38
289.755	296.38
289.986	289.38
290.217	266.38
290.448	266.38
290.679	299.38
290.91	269.38
291.141	277.38
291.371	284.38
291.602	286.38
291.833	289.38
292.064	285.38
292.295	285.38
292.526	309.38
292.757	269.38
292.987	300.38
293.218	297.38
293.449	282.38
293.68	298.38
293.91	276.38
294.141	277.38
294.372	280.38
294.603	297.38
294.833	289.38
295.064	282.38
295.295	285.38
295.525	278.38
295.756	295.38
295.987	290.38
296.217	310.38
296.448	308.38
296.679	307.38
296.909	302.38
297.14	290.38
297.37	284.38
297.601	306.38
297.831	288.38
298.062	304.38
298.292	292.38
298.523	305.38
298.753	294.38
298.984	304.38
299.214	289.38
299.445	321.38
299.675	316.38
299.905	314.38
300.136	313.38
300.366	313.38
300.597	314.38
300.827	312.38
301.057	330.38
301.288	331.38
301.518	322.38
301.748	318.38
301.979	316.38
302.209	322.38
302.439	330.38
302.669	317.38
302.9	310.38
303.13	311.38
303.36	324.38
303.59	345.38
303.82	337.38
304.051	326.38
304.281	347.38
304.511	320.38
304.741	299.38
304.971	334.38
305.201	301.38
305.431	290.38
305.661	313.38
305.891	324.38
306.121	318.38
306.352	305.38
306.582	318.38
306.812	321.38
307.042	324.38
307.272	311.38
307.502	328.38
307.731	343.38
307.961	320.38
308.191	330.38
308.421	331.38
308.651	319.38
308.881	314.38
309.111	331.38
309.341	326.38
309.571	334.38
309.8	309.38
310.03	324.38
310.26	352.38
310.49	339.38
310.72	345.38
310.949	363.38
311.179	368.38
311.409	326.38
311.639	352.38
311.868	329.38
312.098	348.38
312.328	350.38
312.557	358.38
312.787	353.38
313.017	352.38
313.246	362.38
313.476	356.38
313.706	351.38
313.935	352.38
314.165	367.38
314.394	376.38
314.624	376.38
314.853	360.38
315.083	346.38
315.312	357.38
315.542	349.38
315.771	341.38
316.001	357.38
316.23	362.38
316.46	327.38
316.689	364.38
316.919	339.38
317.148	359.38
317.377	353.38
317.607	338.38
317.836	357.38
318.065	357.38
318.295	348.38
318.524	357.38
318.753	330.38
318.983	349.38
319.212	349.38
319.441	357.38
319.67	362.38
319.9	365.38
320.129	356.38
320.358	353.38
320.587	346.38
320.816	384.38
321.046	374.38
321.275	374.38
321.504	364.38
321.733	358.38
321.962	373.38
322.191	390.38
322.42	378.38
322.649	402.38
322.878	384.38
323.108	387.38
323.337	408.38
323.566	427.38
323.795	456.38
324.024	480.38
324.253	542.38
324.482	711.38
324.71	1038.38
324.939	1433.38
325.168	1252.38
325.397	686.38
325.626	534.38
325.855	473.38
326.084	437.38
326.313	444.38
326.542	429.38
326.77	456.38
326.999	537.38
327.228	720.38
327.457	981.38
327.686	1136.38
327.914	775.38
328.143	605.38
328.372	568.38
328.6	534.38
328.829	497.38
329.058	475.38
329.287	521.38
329.515	496.38
329.744	472.38
329.972	503.38
330.201	524.38
330.43	597.38
330.658	576.38
330.887	555.38
331.115	500.38
331.344	478.38
331.572	445.38
331.801	474.38
332.03	443.38
332.258	456.38
332.486	427.38
332.715	448.38
332.943	498.38
333.172	474.38
333.4	477.38
333.629	494.38
333.857	548.38
334.085	568.38
334.314	627.38
334.542	692.38
334.771	717.38
334.999	567.38
335.227	530.38
335.455	484.38
335.684	469.38
335.912	473.38
336.14	446.38
336.369	456.38
336.597	456.38
336.825	459.38
337.053	440.38
337.281	429.38
337.51	432.38
337.738	418.38
337.966	426.38
338.194	425.38
338.422	428.38
338.65	401.38
338.878	416.38
339.106	426.38
339.334	406.38
339.562	410.38
339.79	391.38
340.018	404.38
340.246	382.38
340.474	386.38
340.702	392.38
340.93	399.38
341.158	385.38
341.386	400.38
341.614	397.38
341.842	400.38
342.07	394.38
342.298	399.38
342.526	380.38
342.754	370.38
342.981	394.38
343.209	406.38
343.437	390.38
343.665	403.38
343.893	432.38
344.12	430.38
344.348	423.38
344.576	427.38
344.804	419.38
345.031	391.38
345.259	396.38
345.487	404.38
345.714	385.38
345.942	384.38
346.17	376.38
346.397	392.38
346.625	377.38
346.853	376.38
347.08	379.38
347.308	384.38
347.535	382.38
347.763	382.38
347.99	383.38
348.218	396.38
348.445	374.38
348.673	370.38
348.9	373.38
349.128	365.38
349.355	388.38
349.583	385.38
349.81	361.38
350.037	354.38
350.265	367.38
350.492	356.38
350.72	372.38
350.947	354.38
351.174	386.38
351.402	378.38
351.629	367.38
351.856	384.38
352.083	376.38
352.311	366.38
352.538	388.38
352.765	375.38
352.992	378.38
353.22	375.38
353.447	365.38
353.674	370.38
353.901	382.38
354.128	379.38
354.355	352.38
354.583	345.38
354.81	355.38
355.037	364.38
355.264	330.38
355.491	357.38
355.718	343.38
355.945	330.38
356.172	370.38
356.399	346.38
356.626	364.38
356.853	353.38
357.08	346.38
357.307	359.38
357.534	355.38
357.761	353.38
357.988	350.38
358.215	375.38
358.441	358.38
358.668	361.38
358.895	360.38
359.122	348.38
359.349	370.38
359.576	375.38
359.802	369.38
360.029	407.38
360.256	409.38
360.483	404.38
360.709	375.38
360.936	361.38
361.163	351.38
361.39	370.38
361.616	352.38
361.843	368.38
362.07	376.38
362.296	371.38
362.523	371.38
362.749	373.38
362.976	353.38
363.203	356.38
363.429	353.38
363.656	361.38
363.882	362.38
364.109	349.38
364.335	354.38
364.562	359.38
364.788	351.38
365.015	358.38
365.241	348.38
365.468	366.38
365.694	353.38
365.92	365.38
366.147	352.38
366.373	357.38
366.599	342.38
366.826	345.38
367.052	340.38
367.278	343.38
367.505	365.38
367.731	361.38
367.957	365.38
368.184	370.38
368.41	356.38
368.636	378.38
368.862	388.38
369.089	367.38
369.315	363.38
369.541	368.38
369.767	336.38
369.993	345.38
370.219	365.38
370.445	357.38
370.672	365.38
370.898	385.38
371.124	384.38
371.35	332.38
371.576	353.38
371.802	368.38
372.028	374.38
372.254	363.38
372.48	347.38
372.706	370.38
372.932	354.38
373.158	381.38
373.384	360.38
373.61	362.38
373.835	358.38
374.061	357.38
374.287	373.38
374.513	350.38
374.739	376.38
374.965	368.38
375.191	373.38
375.416	403.38
375.642	366.38
375.868	365.38
376.094	356.38
376.319	345.38
376.545	372.38
376.771	352.38
376.997	364.38
377.222	344.38
377.448	370.38
377.674	354.38
377.899	361.38
378.125	347.38
378.35	363.38
378.576	362.38
378.802	359.38
379.027	357.38
379.253	362.38
379.478	368.38
379.704	364.38
379.929	358.38
380.155	366.38
380.38	362.38
380.606	360.38
380.831	360.38
381.057	370.38
381.282	346.38
381.507	370.38
381.733	345.38
381.958	357.38
382.184	360.38
382.409	374.38
382.634	375.38
382.86	376.38
383.085	384.38
383.31	382.38
383.535	384.38
383.761	363.38
383.986	388.38
384.211	390.38
384.436	392.38
384.662	400.38
384.887	387.38
385.112	394.38
385.337	402.38
385.562	413.38
385.787	388.38
386.013	419.38
386.238	408.38
386.463	403.38
386.688	418.38
386.913	405.38
387.138	422.38
387.363	408.38
387.588	403.38
387.813	402.38
388.038	397.38
388.263	405.38
388.488	399.38
388.713	419.38
388.938	401.38
389.163	420.38
389.387	416.38
389.612	396.38
389.837	410.38
390.062	401.38
390.287	396.38
390.512	383.38
390.736	399.38
390.961	413.38
391.186	419.38
391.411	414.38
391.636	411.38
391.86	445.38
392.085	438.38
392.31	426.38
392.534	411.38
392.759	422.38
392.984	423.38
393.208	404.38
393.433	410.38
393.658	418.38
393.882	415.38
394.107	421.38
394.331	412.38
394.556	424.38
394.78	412.38
395.005	434.38
395.229	418.38
395.454	424.38
395.678	445.38
395.903	422.38
396.127	432.38
396.352	427.38
396.576	445.38
396.801	422.38
397.025	425.38
397.249	414.38
397.474	435.38
397.698	435.38
397.922	469.38
398.147	448.38
398.371	474.38
398.595	470.38
398.82	475.38
399.044	501.38
399.268	530.38
399.492	588.38
399.717	610.38
399.941	648.38
400.165	636.38
400.389	596.38
400.613	534.38
400.837	504.38
401.062	482.38
401.286	475.38
401.51	495.38
401.734	477.38
401.958	460.38
402.182	476.38
402.406	491.38
402.63	497.38
402.854	502.38
403.078	510.38
403.302	490.38
403.526	506.38
403.75	510.38
403.974	528.38
404.198	527.38
404.422	529.38
404.645	528.38
404.869	549.38
405.093	544.38
405.317	609.38
405.541	614.38
405.765	593.38
405.988	540.38
406.212	530.38
406.436	531.38
406.66	544.38
406.883	538.38
407.107	557.38
407.331	593.38
407.555	670.38
407.778	637.38
408.002	620.38
408.226	552.38
408.449	540.38
408.673	542.38
408.896	541.38
409.12	578.38
409.344	568.38
409.567	530.38
409.791	530.38
410.014	523.38
410.238	492.38
410.461	504.38
410.685	503.38
410.908	521.38
411.132	516.38
411.355	534.38
411.578	526.38
411.802	496.38
412.025	518.38
412.249	547.38
412.472	558.38
412.695	590.38
412.919	604.38
413.142	561.38
413.365	490.38
413.589	496.38
413.812	479.38
414.035	479.38
414.258	497.38
414.482	468.38
414.705	496.38
414.928	492.38
415.151	496.38
415.374	471.38
415.597	478.38
415.821	473.38
416.044	470.38
416.267	462.38
416.49	454.38
416.713	465.38
416.936	488.38
417.159	454.38
417.382	482.38
417.605	491.38
417.828	482.38
418.051	497.38
418.274	498.38
418.497	484.38
418.72	484.38
418.943	460.38
419.166	488.38
419.389	551.38
419.611	514.38
419.834	517.38
420.057	538.38
420.28	519.38
420.503	533.38
420.726	524.38
420.948	512.38
421.171	528.38
421.394	536.38
421.617	473.38
421.839	485.38
422.062	480.38
422.285	475.38
422.507	523.38
422.73	591.38
422.953	546.38
423.175	493.38
423.398	501.38
423.621	506.38
423.843	533.38
424.066	524.38
424.288	518.38
424.511	500.38
424.733	553.38
424.956	586.38
425.178	563.38
425.401	571.38
425.623	574.38
425.846	505.38
426.068	507.38
426.291	490.38
426.513	485.38
426.735	482.38
426.958	500.38
427.18	551.38
427.402	637.38
427.625	692.38
427.847	642.38
428.069	589.38
428.292	549.38
428.514	481.38
428.736	462.38
428.958	468.38
429.181	455.38
429.403	444.38
429.625	462.38
429.847	456.38
430.069	505.38
430.292	476.38
430.514	458.38
430.736	439.38
430.958	428.38
431.18	420.38
431.402	453.38
431.624	419.38
431.846	425.38
432.068	450.38
432.29	451.38
432.512	424.38
432.734	456.38
432.956	439.38
433.178	457.38
433.4	457.38
433.622	433.38
433.844	427.38
434.066	434.38
434.287	438.38
434.509	457.38
434.731	472.38
434.953	452.38
435.175	482.38
435.397	490.38
435.618	482.38
435.84	504.38
436.062	553.38
436.284	585.38
436.505	523.38
436.727	455.38
436.949	452.38
437.17	445.38
437.392	453.38
437.614	455.38
437.835	456.38
438.057	525.38
438.278	548.38
438.5	576.38
438.721	602.38
438.943	573.38
439.165	491.38
439.386	462.38
439.608	482.38
439.829	458.38
440.05	502.38
440.272	496.38
440.493	482.38
440.715	484.38
440.936	473.38
441.158	465.38
441.379	457.38
441.6	471.38
441.822	484.38
442.043	518.38
442.264	542.38
442.486	568.38
442.707	504.38
442.928	492.38
443.149	494.38
443.371	527.38
443.592	524.38
443.813	589.38
444.034	618.38
444.255	548.38
444.476	510.38
444.698	502.38
444.919	525.38
445.14	615.38
445.361	559.38
445.582	525.38
445.803	523.38
446.024	603.38
446.245	593.38
446.466	556.38
446.687	476.38
446.908	463.38
447.129	462.38
447.35	441.38
447.571	445.38
447.792	433.38
448.013	432.38
448.234	418.38
448.455	470.38
448.675	524.38
448.896	583.38
449.117	534.38
449.338	496.38
449.559	565.38
449.779	626.38
450	518.38
450.221	446.38
450.442	427.38
450.662	431.38
450.883	416.38
451.104	457.38
451.324	420.38
451.545	414.38
451.766	417.38
451.986	399.38
452.207	412.38
452.428	386.38
452.648	411.38
452.869	398.38
453.089	399.38
453.31	408.38
453.53	406.38
453.751	374.38
453.971	397.38
454.192	408.38
454.412	400.38
454.633	393.38
454.853	404.38
455.073	398.38
455.294	405.38
455.514	437.38
455.734	425.38
455.955	385.38
456.175	392.38
456.395	358.38
456.616	367.38
456.836	379.38
457.056	376.38
457.276	369.38
457.497	387.38
457.717	394.38
457.937	382.38
458.157	384.38
458.377	398.38
458.598	407.38
458.818	436.38
459.038	471.38
459.258	490.38
459.478	450.38
459.698	444.38
459.918	437.38
460.138	465.38
460.358	453.38
460.578	469.38
460.798	480.38
461.018	461.38
461.238	463.38
461.458	479.38
461.678	457.38
461.898	484.38
462.118	477.38
462.338	495.38
462.558	498.38
462.777	509.38
462.997	523.38
463.217	551.38
463.437	590.38
463.657	515.38
463.876	508.38
464.096	521.38
464.316	504.38
464.536	546.38
464.755	509.38
464.975	499.38
465.195	530.38
465.414	520.38
465.634	478.38
465.854	460.38
466.073	438.38
466.293	444.38
466.512	425.38
466.732	430.38
466.951	424.38
467.171	417.38
467.391	422.38
467.61	409.38
467.829	420.38
468.049	432.38
468.268	460.38
468.488	421.38
468.707	411.38
468.927	395.38
469.146	414.38
469.365	396.38
469.585	407.38
469.804	412.38
470.023	427.38
470.243	437.38
470.462	436.38
470.681	429.38
470.901	463.38
471.12	438.38
471.339	411.38
471.558	422.38
471.777	428.38
471.997	429.38
472.216	436.38
472.435	502.38
472.654	510.38
472.873	440.38
473.092	419.38
473.311	428.38
473.53	441.38
473.749	406.38
473.968	412.38
474.187	484.38
474.406	491.38
474.625	422.38
474.844	416.38
475.063	406.38
475.282	395.38
475.501	386.38
475.72	427.38
475.939	424.38
476.158	428.38
476.377	408.38
476.596	417.38
476.814	424.38
477.033	417.38
477.252	411.38
477.471	451.38
477.69	426.38
477.908	452.38
478.127	451.38
478.346	458.38
478.564	466.38
478.783	459.38
479.002	466.38
479.22	480.38
479.439	469.38
479.658	496.38
479.876	492.38
480.095	482.38
480.313	525.38
480.532	514.38
480.751	527.38
480.969	554.38
481.188	648.38
481.406	754.38
481.624	614.38
481.843	561.38
482.061	537.38
482.28	504.38
482.498	480.38
482.717	491.38
482.935	490.38
483.153	492.38
483.372	491.38
483.59	483.38
483.808	473.38
484.027	486.38
484.245	475.38
484.463	482.38
484.681	488.38
484.9	481.38
485.118	462.38
485.336	490.38
485.554	489.38
485.772	486.38
485.99	501.38
486.209	504.38
486.427	515.38
486.645	490.38
486.863	508.38
487.081	522.38
487.299	500.38
487.517	490.38
487.735	501.38
487.953	514.38
488.171	502.38
488.389	487.38
488.607	493.38
488.825	488.38
489.043	491.38
489.261	513.38
489.479	514.38
489.696	488.38
489.914	498.38
490.132	522.38
490.35	525.38
490.568	536.38
490.786	536.38
491.003	534.38
491.221	547.38
491.439	555.38
491.657	590.38
491.874	580.38
492.092	575.38
492.31	590.38
492.527	585.38
492.745	611.38
492.963	596.38
493.18	598.38
493.398	585.38
493.615	608.38
493.833	569.38
494.05	595.38
494.268	598.38
494.485	600.38
494.703	578.38
494.92	588.38
495.138	581.38
495.355	561.38
495.573	581.38
495.79	569.38
496.008	576.38
496.225	579.38
496.442	567.38
496.66	588.38
496.877	563.38
497.094	586.38
497.312	609.38
497.529	612.38
497.746	616.38
497.963	629.38
498.181	640.38
498.398	666.38
498.615	693.38
498.832	690.38
499.049	720.38
499.267	785.38
499.484	782.38
499.701	854.38
499.918	930.38
500.135	991.38
500.352	1076.38
500.569	1108.38
500.786	1120.38
501.003	1075.38
501.22	973.38
501.437	921.38
501.654	863.38
501.871	854.38
502.088	789.38
502.305	740.38
502.522	725.38
502.739	706.38
502.956	696.38
503.172	638.38
503.389	626.38
503.606	599.38
503.823	613.38
504.04	602.38
504.256	586.38
504.473	611.38
504.69	589.38
504.907	583.38
505.123	587.38
505.34	564.38
505.557	540.38
505.773	544.38
505.99	550.38
506.207	526.38
506.423	526.38
506.64	535.38
506.856	532.38
507.073	500.38
507.289	503.38
507.506	524.38
507.722	496.38
507.939	526.38
508.155	514.38
508.372	484.38
508.588	495.38
508.805	481.38
509.021	473.38
509.238	499.38
509.454	514.38
509.67	496.38
509.887	503.38
510.103	483.38
510.319	501.38
510.536	560.38
510.752	802.38
510.968	673.38
511.184	506.38
511.401	493.38
511.617	482.38
511.833	508.38
512.049	518.38
512.265	501.38
512.481	482.38
512.698	488.38
512.914	479.38
513.13	461.38
513.346	470.38
513.562	472.38
513.778	466.38
513.994	472.38
514.21	508.38
514.426	492.38
514.642	505.38
514.858	524.38
515.074	556.38
515.29	610.38
515.506	806.38
515.721	691.38
515.937	530.38
516.153	516.38
516.369	518.38
516.585	524.38
516.801	501.38
517.016	533.38
517.232	545.38
517.448	548.38
517.664	554.38
517.879	573.38
518.095	569.38
518.311	578.38
518.527	530.38
518.742	547.38
518.958	518.38
519.173	498.38
519.389	502.38
519.605	500.38
519.82	484.38
520.036	480.38
520.251	494.38
520.467	492.38
520.682	516.38
520.898	479.38
521.113	498.38
521.329	528.38
521.544	561.38
521.76	636.38
521.975	967.38
522.19	946.38
522.406	583.38
522.621	501.38
522.836	441.38
523.052	460.38
523.267	451.38
523.482	441.38
523.698	425.38
523.913	442.38
524.128	404.38
524.343	421.38
524.559	444.38
524.774	421.38
524.989	406.38
525.204	419.38
525.419	424.38
525.634	423.38
525.849	404.38
526.064	402.38
526.28	386.38
526.495	400.38
526.71	404.38
526.925	416.38
527.14	377.38
527.355	401.38
527.57	392.38
527.785	402.38
527.999	384.38
528.214	397.38
528.429	408.38
528.644	403.38
528.859	392.38
529.074	391.38
529.289	435.38
529.503	446.38
529.718	421.38
529.933	409.38
530.148	414.38
530.363	394.38
530.577	417.38
530.792	422.38
531.007	404.38
531.221	400.38
531.436	406.38
531.651	392.38
531.865	382.38
532.08	394.38
532.295	405.38
532.509	412.38
532.724	412.38
532.938	403.38
533.153	407.38
533.367	411.38
533.582	403.38
533.796	414.38
534.011	394.38
534.225	396.38
534.44	394.38
534.654	374.38
534.868	380.38
535.083	378.38
535.297	376.38
535.511	390.38
535.726	407.38
535.94	374.38
536.154	390.38
536.369	368.38
536.583	376.38
536.797	379.38
537.011	361.38
537.225	373.38
537.44	382.38
537.654	374.38
537.868	381.38
538.082	369.38
538.296	366.38
538.51	370.38
538.724	370.38
538.938	378.38
539.153	374.38
539.367	378.38
539.581	395.38
539.795	379.38
540.009	364.38
540.222	360.38
540.436	382.38
540.65	383.38
540.864	386.38
541.078	378.38
541.292	397.38
541.506	377.38
541.72	370.38
541.934	378.38
542.147	373.38
542.361	380.38
542.575	380.38
542.789	378.38
543.002	370.38
543.216	361.38
543.43	355.38
543.644	376.38
543.857	368.38
544.071	373.38
544.285	370.38
544.498	367.38
544.712	377.38
544.925	386.38
545.139	372.38
545.352	381.38
545.566	372.38
545.779	378.38
545.993	355.38
546.206	358.38
546.42	382.38
546.633	355.38
546.847	361.38
547.06	375.38
547.274	366.38
547.487	390.38
547.7	370.38
547.914	378.38
548.127	365.38
548.34	373.38
548.554	355.38
548.767	354.38
548.98	361.38
549.193	384.38
549.407	376.38
549.62	375.38
549.833	375.38
550.046	379.38
550.259	380.38
550.473	374.38
550.686	345.38
550.899	384.38
551.112	364.38
551.325	341.38
551.538	359.38
551.751	355.38
551.964	388.38
552.177	356.38
552.39	372.38
552.603	361.38
552.816	379.38
553.029	371.38
553.242	401.38
553.455	391.38
553.667	417.38
553.88	394.38
554.093	368.38
554.306	381.38
554.519	368.38
554.732	374.38
554.944	373.38
555.157	327.38
555.37	340.38
555.583	346.38
555.795	347.38
556.008	348.38
556.221	346.38
556.433	325.38
556.646	354.38
556.859	353.38
557.071	332.38
557.284	326.38
557.496	340.38
557.709	354.38
557.921	336.38
558.134	328.38
558.346	328.38
558.559	307.38
558.771	310.38
558.984	316.38
559.196	340.38
559.409	325.38
559.621	310.38
559.833	313.38
560.046	301.38
560.258	315.38
560.47	313.38
560.683	318.38
560.895	326.38
561.107	301.38
561.32	317.38
561.532	310.38
561.744	338.38
561.956	322.38
562.168	300.38
562.381	338.38
562.593	329.38
562.805	317.38
563.017	325.38
563.229	325.38
563.441	314.38
563.653	329.38
563.865	313.38
564.077	320.38
564.289	339.38
564.501	337.38
564.713	352.38
564.925	360.38
565.137	357.38
565.349	353.38
565.561	358.38
565.773	370.38
565.985	388.38
566.197	405.38
566.408	440.38
566.62	435.38
566.832	473.38
567.044	475.38
567.255	461.38
567.467	468.38
567.679	485.38
567.891	510.38
568.102	516.38
568.314	508.38
568.526	462.38
568.737	440.38
568.949	432.38
569.161	422.38
569.372	370.38
569.584	363.38
569.795	354.38
570.007	342.38
570.218	367.38
570.43	365.38
570.641	334.38
570.853	344.38
571.064	341.38
571.276	323.38
571.487	326.38
571.698	320.38
571.91	310.38
572.121	306.38
572.333	321.38
572.544	310.38
572.755	300.38
572.966	318.38
573.178	297.38
573.389	301.38
573.6	283.38
573.811	305.38
574.023	290.38
574.234	292.38
574.445	279.38
574.656	280.38
574.867	283.38
575.078	293.38
575.289	296.38
575.501	298.38
575.712	280.38
575.923	285.38
576.134	245.38
576.345	284.38
576.556	282.38
576.767	271.38
576.978	267.38
577.188	260.38
577.399	262.38
577.61	277.38
577.821	274.38
578.032	272.38
578.243	294.38
578.454	391.38
578.665	332.38
578.875	284.38
579.086	268.38
579.297	274.38
579.508	256.38
579.718	263.38
579.929	272.38
580.14	246.38
580.35	249.38
580.561	259.38
580.772	260.38
580.982	256.38
581.193	257.38
581.403	268.38
581.614	259.38
581.825	261.38
582.035	257.38
582.246	254.38
582.456	256.38
582.667	265.38
582.877	253.38
583.087	242.38
583.298	248.38
583.508	256.38
583.719	268.38
583.929	258.38
584.139	265.38
584.35	248.38
584.56	259.38
584.77	241.38
584.981	224.38
585.191	240.38
585.401	257.38
585.611	262.38
585.821	252.38
586.032	264.38
586.242	259.38
586.452	265.38
586.662	240.38
586.872	257.38
587.082	250.38
587.292	249.38
587.502	246.38
587.713	244.38
587.923	256.38
588.133	225.38
588.343	241.38
588.553	246.38
588.762	259.38
588.972	255.38
589.182	265.38
589.392	254.38
589.602	245.38
589.812	258.38
590.022	260.38
590.232	257.38
590.441	246.38
590.651	252.38
590.861	249.38
591.071	268.38
591.281	256.38
591.49	253.38
591.7	247.38
591.91	245.38
592.119	282.38
592.329	260.38
592.539	254.38
592.748	286.38
592.958	289.38
593.167	280.38
593.377	300.38
593.587	320.38
593.796	286.38
594.006	290.38
594.215	305.38
594.424	277.38
594.634	290.38
594.843	284.38
595.053	276.38
595.262	269.38
595.472	272.38
595.681	262.38
595.89	254.38
596.1	257.38
596.309	257.38
596.518	253.38
596.727	237.38
596.937	237.38
597.146	232.38
597.355	243.38
597.564	249.38
597.774	240.38
597.983	232.38
598.192	230.38
598.401	262.38
598.61	238.38
598.819	233.38
599.028	218.38
599.237	240.38
599.446	235.38
599.655	225.38
599.864	235.38
600.073	226.38
600.282	211.38
600.491	231.38
600.7	221.38
600.909	225.38
601.118	221.38
601.327	240.38
601.536	212.38
601.745	227.38
601.953	219.38
602.162	220.38
602.371	228.38
602.58	211.38
602.789	227.38
602.997	227.38
603.206	221.38
603.415	206.38
603.623	212.38
603.832	218.38
604.041	227.38
604.249	203.38
604.458	198.38
604.666	206.38
604.875	189.38
605.084	196.38
605.292	219.38
605.501	206.38
605.709	207.38
605.918	208.38
606.126	205.38
606.334	216.38
606.543	216.38
606.751	194.38
606.96	218.38
607.168	215.38
607.376	188.38
607.585	208.38
607.793	203.38
608.001	212.38
608.21	210.38
608.418	205.38
608.626	211.38
608.834	212.38
609.043	205.38
609.251	188.38
609.459	184.38
609.667	220.38
609.875	195.38
610.083	212.38
610.291	211.38
610.499	203.38
610.707	205.38
610.916	198.38
611.124	216.38
611.332	212.38
611.54	232.38
611.748	214.38
611.955	221.38
612.163	197.38
612.371	202.38
612.579	212.38
612.787	203.38
612.995	204.38
613.203	203.38
613.411	197.38
613.618	196.38
613.826	189.38
614.034	208.38
614.242	192.38
614.449	200.38
614.657	196.38
614.865	202.38
615.072	201.38
615.28	225.38
615.488	203.38
615.695	190.38
615.903	211.38
616.111	208.38
616.318	197.38
616.526	214.38
616.733	198.38
616.941	192.38
617.148	205.38
617.356	192.38
617.563	198.38
617.771	210.38
617.978	206.38
618.185	202.38
618.393	212.38
618.6	190.38
618.807	195.38
619.015	202.38
619.222	193.38
619.429	202.38
619.637	196.38
619.844	200.38
620.051	197.38
620.258	192.38
620.466	205.38
620.673	187.38
620.88	203.38
621.087	189.38
621.294	190.38
621.501	178.38
621.708	179.38
621.915	194.38
622.122	189.38
622.329	202.38
622.536	188.38
622.743	193.38
622.95	185.38
623.157	196.38
623.364	205.38
623.571	173.38
623.778	186.38
623.985	182.38
624.192	211.38
624.399	180.38
624.606	189.38
624.812	188.38
625.019	200.38
625.226	174.38
625.433	178.38
625.639	180.38
625.846	182.38
626.053	183.38
626.259	186.38
626.466	192.38
626.673	156.38
626.879	167.38
627.086	188.38
627.293	176.38
627.499	184.38
627.706	197.38
627.912	166.38
628.119	168.38
628.325	186.38
628.532	175.38
628.738	186.38
628.945	167.38
629.151	170.38
629.357	174.38
629.564	178.38
629.77	185.38
629.976	164.38
630.183	168.38
630.389	196.38
630.595	170.38
630.802	169.38
631.008	161.38
631.214	164.38
631.42	172.38
631.627	172.38
631.833	172.38
632.039	149.38
632.245	160.38
632.451	161.38
632.657	174.38
632.863	168.38
633.069	180.38
633.275	160.38
633.481	141.38
633.688	167.38
633.893	172.38
634.099	169.38
634.305	158.38
634.511	152.38
634.717	161.38
634.923	165.38
635.129	168.38
635.335	160.38
635.541	177.38
635.747	152.38
635.952	158.38
636.158	154.38
636.364	167.38
636.57	182.38
636.775	169.38
636.981	173.38
637.187	153.38
637.392	172.38
637.598	165.38
637.804	175.38
638.009	172.38
638.215	182.38
638.421	126.38
638.626	152.38
638.832	154.38
639.037	159.38
639.243	154.38
639.448	152.38
639.654	162.38
639.859	154.38
640.065	167.38
640.27	154.38
640.475	151.38
640.681	150.38
640.886	144.38
641.091	151.38
641.297	162.38
641.502	175.38
641.707	157.38
641.913	136.38
642.118	144.38
642.323	148.38
642.528	159.38
642.733	144.38
642.939	144.38
643.144	157.38
643.349	147.38
643.554	153.38
643.759	143.38
643.964	161.38
644.169	148.38
644.374	142.38
644.579	144.38
644.784	144.38
644.989	147.38
645.194	134.38
645.399	136.38
645.604	148.38
645.809	145.38
646.014	149.38
646.219	138.38
646.423	145.38
646.628	142.38
646.833	157.38
647.038	146.38
647.243	149.38
647.447	146.38
647.652	138.38
647.857	145.38
648.062	150.38
648.266	155.38
648.471	163.38
648.676	170.38
648.88	149.38
649.085	140.38
649.289	163.38
649.494	151.38
649.698	168.38
649.903	156.38
650.107	142.38
650.312	141.38
650.516	142.38
650.721	150.38
650.925	144.38
651.13	146.38
651.334	143.38
651.539	143.38
651.743	132.38
651.947	134.38
652.152	136.38
652.356	129.38
652.56	147.38
652.764	128.38
652.969	142.38
653.173	127.38
653.377	116.38
653.581	121.38
653.785	125.38
653.99	128.38
654.194	128.38
654.398	129.38
654.602	129.38
654.806	132.38
655.01	135.38
655.214	134.38
655.418	124.38
655.622	120.38
655.826	118.38
656.03	123.38
656.234	139.38
656.438	126.38
656.642	132.38
656.846	124.38
657.049	124.38
657.253	126.38
657.457	117.38
657.661	116.38
657.865	104.38
658.068	105.38
658.272	102.38
658.476	104.38
658.68	95.38
658.883	104.38
659.087	85.38
659.291	87.38
659.494	88.38
659.698	78.38
659.901	93.38
660.105	91.38
660.309	107.38
660.512	106.38
660.716	92.38
660.919	88.38
661.123	89.38
661.326	98.38
661.53	75.38
661.733	85.38
661.936	101.38
662.14	90.38
662.343	90.38
662.546	79.38
662.75	90.38
662.953	77.38
663.156	90.38
663.36	86.38
663.563	94.38
663.766	71.38
663.969	74.38
664.173	91.38
664.376	66.38
664.579	97.38
664.782	76.38
664.985	86.38
665.188	88.38
665.391	83.38
665.594	87.38
665.797	69.38
666	86.38
666.203	82.38
666.406	71.38
666.609	85.38
666.812	85.38
667.015	90.38
667.218	94.38
667.421	81.38
667.624	70.38
667.827	73.38
668.03	80.38
668.232	72.38
668.435	102.38
668.638	75.38
668.841	78.38
669.043	82.38
669.246	76.38
669.449	72.38
669.651	80.38
669.854	94.38
670.057	80.38
670.259	83.38
670.462	87.38
670.665	68.38
670.867	87.38
671.07	84.38
671.272	86.38
671.475	86.38
671.677	91.38
671.88	76.38
672.082	82.38
672.284	78.38
672.487	83.38
672.689	72.38
672.892	96.38
