Data from 1984.PennyLincolnUp.Lamp.En5.5.200Scan.071819.P1_HRD10591_17-00-17-969.txt Node
Date: Thu Jul 18 17:00:17 EDT 2019
User: cochatt
Spectrometer: HR+D1059
Trigger mode: 1
Integration Time (sec): 1.000000E-1
Scans to average: 1
Electric dark correction enabled: true
Nonlinearity correction enabled: false
Boxcar width: 0
XAxis mode: Wavelengths
Number of Pixels in Spectrum: 2048
>>>>>Begin Spectral Data<<<<<
223.165	-21.62
223.4	-21.62
223.635	-21.62
223.869	-7.62
224.104	-25.62
224.338	-21.62
224.573	-10.62
224.808	-23.62
225.042	0.38
225.277	2.38
225.511	-3.62
225.746	5.38
225.98	9.38
226.215	12.38
226.449	14.38
226.683	13.38
226.918	22.38
227.152	34.38
227.387	36.38
227.621	28.38
227.856	36.38
228.09	34.38
228.324	40.38
228.559	56.38
228.793	83.38
229.027	84.38
229.262	99.38
229.496	86.38
229.73	105.38
229.964	127.38
230.199	97.38
230.433	102.38
230.667	102.38
230.901	91.38
231.136	93.38
231.37	120.38
231.604	96.38
231.838	114.38
232.072	105.38
232.306	106.38
232.541	121.38
232.775	112.38
233.009	116.38
233.243	107.38
233.477	108.38
233.711	109.38
233.945	98.38
234.179	107.38
234.413	94.38
234.647	106.38
234.881	112.38
235.115	106.38
235.349	107.38
235.583	109.38
235.817	110.38
236.051	110.38
236.285	109.38
236.519	122.38
236.753	112.38
236.987	111.38
237.221	132.38
237.455	171.38
237.689	158.38
237.922	120.38
238.156	116.38
238.39	117.38
238.624	116.38
238.858	107.38
239.091	97.38
239.325	113.38
239.559	121.38
239.793	103.38
240.027	132.38
240.26	109.38
240.494	130.38
240.728	142.38
240.961	130.38
241.195	137.38
241.429	128.38
241.662	124.38
241.896	149.38
242.13	132.38
242.363	118.38
242.597	130.38
242.83	121.38
243.064	124.38
243.298	153.38
243.531	132.38
243.765	136.38
243.998	137.38
244.232	130.38
244.465	137.38
244.699	150.38
244.932	134.38
245.166	133.38
245.399	144.38
245.633	140.38
245.866	134.38
246.099	135.38
246.333	152.38
246.566	143.38
246.8	128.38
247.033	134.38
247.266	150.38
247.5	149.38
247.733	136.38
247.966	167.38
248.2	147.38
248.433	154.38
248.666	142.38
248.899	163.38
249.133	173.38
249.366	194.38
249.599	167.38
249.832	159.38
250.066	164.38
250.299	168.38
250.532	203.38
250.765	227.38
250.998	211.38
251.231	220.38
251.465	186.38
251.698	166.38
251.931	178.38
252.164	166.38
252.397	180.38
252.63	187.38
252.863	195.38
253.096	194.38
253.329	209.38
253.562	203.38
253.795	191.38
254.028	169.38
254.261	193.38
254.494	201.38
254.727	221.38
254.96	213.38
255.193	220.38
255.426	218.38
255.659	214.38
255.892	260.38
256.124	268.38
256.357	309.38
256.59	269.38
256.823	241.38
257.056	218.38
257.289	213.38
257.521	211.38
257.754	203.38
257.987	193.38
258.22	196.38
258.452	189.38
258.685	196.38
258.918	196.38
259.151	192.38
259.383	205.38
259.616	194.38
259.849	205.38
260.081	216.38
260.314	212.38
260.547	216.38
260.779	215.38
261.012	195.38
261.244	198.38
261.477	207.38
261.71	205.38
261.942	211.38
262.175	208.38
262.407	205.38
262.64	187.38
262.872	217.38
263.105	190.38
263.337	173.38
263.57	190.38
263.802	197.38
264.035	198.38
264.267	199.38
264.499	202.38
264.732	189.38
264.964	206.38
265.197	209.38
265.429	211.38
265.661	211.38
265.894	220.38
266.126	195.38
266.358	198.38
266.591	221.38
266.823	213.38
267.055	207.38
267.287	213.38
267.52	209.38
267.752	222.38
267.984	194.38
268.216	212.38
268.448	199.38
268.681	225.38
268.913	227.38
269.145	233.38
269.377	246.38
269.609	246.38
269.841	233.38
270.073	233.38
270.306	247.38
270.538	262.38
270.77	274.38
271.002	251.38
271.234	251.38
271.466	249.38
271.698	257.38
271.93	260.38
272.162	277.38
272.394	275.38
272.626	265.38
272.858	266.38
273.09	241.38
273.322	248.38
273.553	260.38
273.785	242.38
274.017	225.38
274.249	258.38
274.481	230.38
274.713	251.38
274.945	253.38
275.176	238.38
275.408	242.38
275.64	243.38
275.872	255.38
276.104	255.38
276.335	266.38
276.567	249.38
276.799	267.38
277.031	278.38
277.262	276.38
277.494	283.38
277.726	287.38
277.957	265.38
278.189	273.38
278.421	262.38
278.652	254.38
278.884	259.38
279.115	255.38
279.347	274.38
279.579	252.38
279.81	270.38
280.042	246.38
280.273	269.38
280.505	260.38
280.736	252.38
280.968	255.38
281.199	270.38
281.431	254.38
281.662	249.38
281.894	267.38
282.125	274.38
282.356	278.38
282.588	301.38
282.819	277.38
283.051	277.38
283.282	269.38
283.513	268.38
283.745	280.38
283.976	274.38
284.207	270.38
284.439	277.38
284.67	287.38
284.901	273.38
285.132	276.38
285.364	269.38
285.595	282.38
285.826	272.38
286.057	262.38
286.288	286.38
286.52	274.38
286.751	302.38
286.982	288.38
287.213	261.38
287.444	284.38
287.675	281.38
287.906	313.38
288.138	306.38
288.369	281.38
288.6	276.38
288.831	288.38
289.062	288.38
289.293	287.38
289.524	285.38
289.755	273.38
289.986	295.38
290.217	289.38
290.448	284.38
290.679	290.38
290.91	277.38
291.141	272.38
291.371	283.38
291.602	277.38
291.833	284.38
292.064	278.38
292.295	285.38
292.526	297.38
292.757	285.38
292.987	279.38
293.218	278.38
293.449	284.38
293.68	280.38
293.91	289.38
294.141	285.38
294.372	284.38
294.603	292.38
294.833	283.38
295.064	274.38
295.295	287.38
295.525	278.38
295.756	290.38
295.987	300.38
296.217	330.38
296.448	334.38
296.679	301.38
296.909	315.38
297.14	307.38
297.37	327.38
297.601	306.38
297.831	285.38
298.062	287.38
298.292	304.38
298.523	277.38
298.753	316.38
298.984	301.38
299.214	305.38
299.445	294.38
299.675	287.38
299.905	299.38
300.136	304.38
300.366	301.38
300.597	316.38
300.827	324.38
301.057	305.38
301.288	327.38
301.518	336.38
301.748	340.38
301.979	336.38
302.209	320.38
302.439	317.38
302.669	332.38
302.9	333.38
303.13	321.38
303.36	333.38
303.59	322.38
303.82	340.38
304.051	332.38
304.281	310.38
304.511	312.38
304.741	313.38
304.971	317.38
305.201	324.38
305.431	310.38
305.661	315.38
305.891	325.38
306.121	321.38
306.352	318.38
306.582	308.38
306.812	325.38
307.042	328.38
307.272	346.38
307.502	331.38
307.731	347.38
307.961	344.38
308.191	308.38
308.421	326.38
308.651	320.38
308.881	315.38
309.111	323.38
309.341	316.38
309.571	335.38
309.8	353.38
310.03	339.38
310.26	330.38
310.49	338.38
310.72	339.38
310.949	366.38
311.179	358.38
311.409	353.38
311.639	358.38
311.868	344.38
312.098	358.38
312.328	368.38
312.557	387.38
312.787	357.38
313.017	380.38
313.246	370.38
313.476	351.38
313.706	353.38
313.935	362.38
314.165	351.38
314.394	363.38
314.624	369.38
314.853	378.38
315.083	365.38
315.312	378.38
315.542	352.38
315.771	348.38
316.001	333.38
316.23	336.38
316.46	357.38
316.689	358.38
316.919	343.38
317.148	353.38
317.377	382.38
317.607	366.38
317.836	357.38
318.065	349.38
318.295	361.38
318.524	349.38
318.753	347.38
318.983	369.38
319.212	357.38
319.441	384.38
319.67	365.38
319.9	353.38
320.129	369.38
320.358	342.38
320.587	346.38
320.816	389.38
321.046	361.38
321.275	358.38
321.504	372.38
321.733	371.38
321.962	377.38
322.191	385.38
322.42	393.38
322.649	390.38
322.878	387.38
323.108	413.38
323.337	411.38
323.566	429.38
323.795	430.38
324.024	489.38
324.253	553.38
324.482	749.38
324.71	1091.38
324.939	1477.38
325.168	1298.38
325.397	717.38
325.626	516.38
325.855	446.38
326.084	443.38
326.313	451.38
326.542	473.38
326.77	493.38
326.999	534.38
327.228	705.38
327.457	1000.38
327.686	1170.38
327.914	824.38
328.143	640.38
328.372	601.38
328.6	538.38
328.829	528.38
329.058	510.38
329.287	499.38
329.515	493.38
329.744	503.38
329.972	559.38
330.201	618.38
330.43	702.38
330.658	632.38
330.887	604.38
331.115	551.38
331.344	500.38
331.572	477.38
331.801	465.38
332.03	471.38
332.258	449.38
332.486	451.38
332.715	461.38
332.943	456.38
333.172	477.38
333.4	505.38
333.629	541.38
333.857	546.38
334.085	614.38
334.314	680.38
334.542	790.38
334.771	820.38
334.999	649.38
335.227	541.38
335.455	518.38
335.684	474.38
335.912	472.38
336.14	460.38
336.369	440.38
336.597	467.38
336.825	458.38
337.053	439.38
337.281	446.38
337.51	422.38
337.738	425.38
337.966	414.38
338.194	421.38
338.422	405.38
338.65	421.38
338.878	406.38
339.106	413.38
339.334	389.38
339.562	397.38
339.79	390.38
340.018	413.38
340.246	398.38
340.474	412.38
340.702	399.38
340.93	393.38
341.158	408.38
341.386	407.38
341.614	408.38
341.842	377.38
342.07	380.38
342.298	390.38
342.526	397.38
342.754	376.38
342.981	375.38
343.209	397.38
343.437	389.38
343.665	402.38
343.893	454.38
344.12	432.38
344.348	426.38
344.576	400.38
344.804	398.38
345.031	419.38
345.259	396.38
345.487	389.38
345.714	406.38
345.942	379.38
346.17	387.38
346.397	387.38
346.625	386.38
346.853	400.38
347.08	377.38
347.308	357.38
347.535	370.38
347.763	388.38
347.99	395.38
348.218	388.38
348.445	381.38
348.673	373.38
348.9	369.38
349.128	355.38
349.355	374.38
349.583	375.38
349.81	372.38
350.037	368.38
350.265	385.38
350.492	368.38
350.72	359.38
350.947	360.38
351.174	388.38
351.402	366.38
351.629	376.38
351.856	376.38
352.083	385.38
352.311	372.38
352.538	349.38
352.765	375.38
352.992	378.38
353.22	373.38
353.447	370.38
353.674	349.38
353.901	370.38
354.128	355.38
354.355	351.38
354.583	355.38
354.81	346.38
355.037	360.38
355.264	349.38
355.491	352.38
355.718	369.38
355.945	353.38
356.172	352.38
356.399	338.38
356.626	340.38
356.853	358.38
357.08	350.38
357.307	360.38
357.534	346.38
357.761	364.38
357.988	357.38
358.215	373.38
358.441	365.38
358.668	366.38
358.895	341.38
359.122	341.38
359.349	377.38
359.576	373.38
359.802	371.38
360.029	387.38
360.256	407.38
360.483	378.38
360.709	383.38
360.936	378.38
361.163	348.38
361.39	372.38
361.616	368.38
361.843	371.38
362.07	372.38
362.296	393.38
362.523	371.38
362.749	360.38
362.976	378.38
363.203	378.38
363.429	356.38
363.656	354.38
363.882	374.38
364.109	360.38
364.335	333.38
364.562	350.38
364.788	348.38
365.015	346.38
365.241	346.38
365.468	356.38
365.694	350.38
365.92	373.38
366.147	378.38
366.373	363.38
366.599	355.38
366.826	356.38
367.052	333.38
367.278	352.38
367.505	366.38
367.731	360.38
367.957	371.38
368.184	362.38
368.41	364.38
368.636	375.38
368.862	374.38
369.089	349.38
369.315	344.38
369.541	366.38
369.767	354.38
369.993	359.38
370.219	349.38
370.445	364.38
370.672	385.38
370.898	361.38
371.124	358.38
371.35	384.38
371.576	366.38
371.802	354.38
372.028	373.38
372.254	365.38
372.48	366.38
372.706	368.38
372.932	388.38
373.158	377.38
373.384	384.38
373.61	364.38
373.835	365.38
374.061	356.38
374.287	350.38
374.513	386.38
374.739	396.38
374.965	376.38
375.191	392.38
375.416	373.38
375.642	374.38
375.868	376.38
376.094	382.38
376.319	355.38
376.545	361.38
376.771	353.38
376.997	356.38
377.222	361.38
377.448	352.38
377.674	366.38
377.899	364.38
378.125	360.38
378.35	356.38
378.576	362.38
378.802	332.38
379.027	360.38
379.253	364.38
379.478	357.38
379.704	361.38
379.929	352.38
380.155	365.38
380.38	349.38
380.606	372.38
380.831	359.38
381.057	373.38
381.282	361.38
381.507	356.38
381.733	365.38
381.958	360.38
382.184	364.38
382.409	384.38
382.634	382.38
382.86	380.38
383.085	381.38
383.31	373.38
383.535	404.38
383.761	383.38
383.986	381.38
384.211	381.38
384.436	410.38
384.662	412.38
384.887	408.38
385.112	397.38
385.337	412.38
385.562	417.38
385.787	422.38
386.013	420.38
386.238	429.38
386.463	414.38
386.688	413.38
386.913	418.38
387.138	423.38
387.363	421.38
387.588	404.38
387.813	419.38
388.038	419.38
388.263	404.38
388.488	409.38
388.713	408.38
388.938	395.38
389.163	409.38
389.387	413.38
389.612	377.38
389.837	411.38
390.062	410.38
390.287	407.38
390.512	385.38
390.736	392.38
390.961	399.38
391.186	399.38
391.411	419.38
391.636	416.38
391.86	455.38
392.085	432.38
392.31	440.38
392.534	420.38
392.759	420.38
392.984	429.38
393.208	427.38
393.433	425.38
393.658	404.38
393.882	412.38
394.107	413.38
394.331	425.38
394.556	404.38
394.78	424.38
395.005	439.38
395.229	411.38
395.454	444.38
395.678	451.38
395.903	446.38
396.127	465.38
396.352	467.38
396.576	436.38
396.801	407.38
397.025	441.38
397.249	423.38
397.474	418.38
397.698	441.38
397.922	444.38
398.147	438.38
398.371	467.38
398.595	471.38
398.82	459.38
399.044	511.38
399.268	528.38
399.492	576.38
399.717	652.38
399.941	656.38
400.165	629.38
400.389	627.38
400.613	544.38
400.837	520.38
401.062	501.38
401.286	494.38
401.51	505.38
401.734	467.38
401.958	475.38
402.182	506.38
402.406	516.38
402.63	507.38
402.854	496.38
403.078	514.38
403.302	522.38
403.526	507.38
403.75	506.38
403.974	534.38
404.198	538.38
404.422	540.38
404.645	568.38
404.869	539.38
405.093	595.38
405.317	629.38
405.541	654.38
405.765	596.38
405.988	546.38
406.212	534.38
406.436	541.38
406.66	579.38
406.883	553.38
407.107	580.38
407.331	617.38
407.555	638.38
407.778	634.38
408.002	612.38
408.226	588.38
408.449	576.38
408.673	547.38
408.896	568.38
409.12	581.38
409.344	565.38
409.567	503.38
409.791	547.38
410.014	503.38
410.238	494.38
410.461	521.38
410.685	499.38
410.908	521.38
411.132	541.38
411.355	558.38
411.578	544.38
411.802	530.38
412.025	531.38
412.249	504.38
412.472	576.38
412.695	636.38
412.919	633.38
413.142	595.38
413.365	543.38
413.589	531.38
413.812	513.38
414.035	477.38
414.258	487.38
414.482	487.38
414.705	490.38
414.928	480.38
415.151	480.38
415.374	480.38
415.597	484.38
415.821	472.38
416.044	469.38
416.267	448.38
416.49	470.38
416.713	449.38
416.936	453.38
417.159	462.38
417.382	491.38
417.605	493.38
417.828	476.38
418.051	505.38
418.274	499.38
418.497	462.38
418.72	467.38
418.943	491.38
419.166	502.38
419.389	514.38
419.611	518.38
419.834	504.38
420.057	542.38
420.28	552.38
420.503	556.38
420.726	515.38
420.948	521.38
421.171	553.38
421.394	535.38
421.617	514.38
421.839	494.38
422.062	504.38
422.285	490.38
422.507	520.38
422.73	556.38
422.953	572.38
423.175	517.38
423.398	516.38
423.621	512.38
423.843	521.38
424.066	525.38
424.288	512.38
424.511	492.38
424.733	552.38
424.956	581.38
425.178	572.38
425.401	552.38
425.623	564.38
425.846	496.38
426.068	485.38
426.291	478.38
426.513	467.38
426.735	499.38
426.958	533.38
427.18	540.38
427.402	653.38
427.625	684.38
427.847	625.38
428.069	591.38
428.292	544.38
428.514	483.38
428.736	480.38
428.958	476.38
429.181	442.38
429.403	440.38
429.625	435.38
429.847	473.38
430.069	496.38
430.292	497.38
430.514	452.38
430.736	460.38
430.958	442.38
431.18	444.38
431.402	423.38
431.624	425.38
431.846	442.38
432.068	447.38
432.29	444.38
432.512	426.38
432.734	431.38
432.956	436.38
433.178	455.38
433.4	447.38
433.622	444.38
433.844	440.38
434.066	433.38
434.287	449.38
434.509	455.38
434.731	463.38
434.953	472.38
435.175	486.38
435.397	481.38
435.618	472.38
435.84	498.38
436.062	551.38
436.284	596.38
436.505	493.38
436.727	477.38
436.949	460.38
437.17	455.38
437.392	464.38
437.614	421.38
437.835	467.38
438.057	525.38
438.278	576.38
438.5	572.38
438.721	615.38
438.943	592.38
439.165	508.38
439.386	462.38
439.608	475.38
439.829	448.38
440.05	472.38
440.272	501.38
440.493	502.38
440.715	471.38
440.936	451.38
441.158	488.38
441.379	461.38
441.6	492.38
441.822	493.38
442.043	524.38
442.264	567.38
442.486	581.38
442.707	538.38
442.928	496.38
443.149	504.38
443.371	518.38
443.592	527.38
443.813	580.38
444.034	626.38
444.255	564.38
444.476	514.38
444.698	545.38
444.919	554.38
445.14	648.38
445.361	574.38
445.582	516.38
445.803	555.38
446.024	605.38
446.245	610.38
446.466	570.38
446.687	493.38
446.908	472.38
447.129	444.38
447.35	441.38
447.571	441.38
447.792	451.38
448.013	443.38
448.234	454.38
448.455	468.38
448.675	529.38
448.896	585.38
449.117	525.38
449.338	497.38
449.559	547.38
449.779	598.38
450	521.38
450.221	450.38
450.442	428.38
450.662	413.38
450.883	428.38
451.104	436.38
451.324	434.38
451.545	409.38
451.766	403.38
451.986	391.38
452.207	391.38
452.428	397.38
452.648	398.38
452.869	413.38
453.089	398.38
453.31	386.38
453.53	405.38
453.751	391.38
453.971	406.38
454.192	394.38
454.412	394.38
454.633	414.38
454.853	388.38
455.073	393.38
455.294	408.38
455.514	424.38
455.734	433.38
455.955	384.38
456.175	382.38
456.395	379.38
456.616	395.38
456.836	376.38
457.056	378.38
457.276	371.38
457.497	382.38
457.717	385.38
457.937	387.38
458.157	394.38
458.377	380.38
458.598	392.38
458.818	429.38
459.038	461.38
459.258	480.38
459.478	438.38
459.698	462.38
459.918	455.38
460.138	473.38
460.358	487.38
460.578	453.38
460.798	472.38
461.018	468.38
461.238	480.38
461.458	475.38
461.678	452.38
461.898	490.38
462.118	473.38
462.338	491.38
462.558	505.38
462.777	498.38
462.997	527.38
463.217	557.38
463.437	556.38
463.657	554.38
463.876	521.38
464.096	528.38
464.316	504.38
464.536	518.38
464.755	499.38
464.975	503.38
465.195	525.38
465.414	531.38
465.634	492.38
465.854	478.38
466.073	453.38
466.293	448.38
466.512	437.38
466.732	422.38
466.951	421.38
467.171	412.38
467.391	420.38
467.61	414.38
467.829	429.38
468.049	436.38
468.268	442.38
468.488	454.38
468.707	428.38
468.927	393.38
469.146	414.38
469.365	420.38
469.585	417.38
469.804	418.38
470.023	424.38
470.243	405.38
470.462	433.38
470.681	454.38
470.901	422.38
471.12	410.38
471.339	418.38
471.558	426.38
471.777	404.38
471.997	412.38
472.216	472.38
472.435	557.38
472.654	519.38
472.873	452.38
473.092	453.38
473.311	435.38
473.53	434.38
473.749	414.38
473.968	422.38
474.187	498.38
474.406	490.38
474.625	442.38
474.844	407.38
475.063	402.38
475.282	427.38
475.501	411.38
475.72	421.38
475.939	424.38
476.158	410.38
476.377	433.38
476.596	429.38
476.814	446.38
477.033	440.38
477.252	440.38
477.471	434.38
477.69	441.38
477.908	451.38
478.127	471.38
478.346	451.38
478.564	485.38
478.783	497.38
479.002	472.38
479.22	501.38
479.439	511.38
479.658	499.38
479.876	508.38
480.095	511.38
480.313	522.38
480.532	563.38
480.751	510.38
480.969	563.38
481.188	732.38
481.406	840.38
481.624	656.38
481.843	600.38
482.061	544.38
482.28	540.38
482.498	493.38
482.717	526.38
482.935	520.38
483.153	499.38
483.372	491.38
483.59	496.38
483.808	498.38
484.027	484.38
484.245	488.38
484.463	462.38
484.681	480.38
484.9	499.38
485.118	489.38
485.336	507.38
485.554	484.38
485.772	487.38
485.99	504.38
486.209	520.38
486.427	496.38
486.645	485.38
486.863	517.38
487.081	507.38
487.299	500.38
487.517	514.38
487.735	503.38
487.953	500.38
488.171	513.38
488.389	521.38
488.607	501.38
488.825	503.38
489.043	510.38
489.261	518.38
489.479	520.38
489.696	517.38
489.914	504.38
490.132	515.38
490.35	535.38
490.568	523.38
490.786	554.38
491.003	561.38
491.221	578.38
491.439	552.38
491.657	593.38
491.874	602.38
492.092	590.38
492.31	595.38
492.527	600.38
492.745	614.38
492.963	623.38
493.18	636.38
493.398	604.38
493.615	589.38
493.833	618.38
494.05	606.38
494.268	621.38
494.485	580.38
494.703	591.38
494.92	585.38
495.138	568.38
495.355	606.38
495.573	588.38
495.79	609.38
496.008	592.38
496.225	591.38
496.442	577.38
496.66	604.38
496.877	594.38
497.094	590.38
497.312	592.38
497.529	586.38
497.746	618.38
497.963	638.38
498.181	637.38
498.398	672.38
498.615	676.38
498.832	713.38
499.049	721.38
499.267	776.38
499.484	792.38
499.701	881.38
499.918	893.38
500.135	1002.38
500.352	1090.38
500.569	1130.38
500.786	1146.38
501.003	1100.38
501.22	1034.38
501.437	950.38
501.654	878.38
501.871	813.38
502.088	786.38
502.305	760.38
502.522	726.38
502.739	692.38
502.956	674.38
503.172	630.38
503.389	648.38
503.606	603.38
503.823	612.38
504.04	608.38
504.256	624.38
504.473	593.38
504.69	608.38
504.907	617.38
505.123	564.38
505.34	576.38
505.557	537.38
505.773	552.38
505.99	523.38
506.207	510.38
506.423	540.38
506.64	507.38
506.856	521.38
507.073	516.38
507.289	534.38
507.506	522.38
507.722	504.38
507.939	515.38
508.155	499.38
508.372	470.38
508.588	491.38
508.805	496.38
509.021	490.38
509.238	482.38
509.454	502.38
509.67	479.38
509.887	477.38
510.103	493.38
510.319	498.38
510.536	562.38
510.752	851.38
510.968	673.38
511.184	524.38
511.401	502.38
511.617	479.38
511.833	500.38
512.049	502.38
512.265	516.38
512.481	525.38
512.698	484.38
512.914	482.38
513.13	476.38
513.346	471.38
513.562	455.38
513.778	471.38
513.994	498.38
514.21	484.38
514.426	497.38
514.642	536.38
514.858	529.38
515.074	520.38
515.29	638.38
515.506	824.38
515.721	718.38
515.937	552.38
516.153	509.38
516.369	537.38
516.585	497.38
516.801	531.38
517.016	532.38
517.232	540.38
517.448	556.38
517.664	542.38
517.879	572.38
518.095	561.38
518.311	569.38
518.527	557.38
518.742	544.38
518.958	528.38
519.173	518.38
519.389	505.38
519.605	508.38
519.82	481.38
520.036	497.38
520.251	495.38
520.467	489.38
520.682	508.38
520.898	512.38
521.113	510.38
521.329	541.38
521.544	584.38
521.76	650.38
521.975	1004.38
522.19	960.38
522.406	603.38
522.621	496.38
522.836	472.38
523.052	455.38
523.267	439.38
523.482	436.38
523.698	424.38
523.913	436.38
524.128	433.38
524.343	405.38
524.559	420.38
524.774	416.38
524.989	426.38
525.204	427.38
525.419	420.38
525.634	402.38
525.849	416.38
526.064	413.38
526.28	416.38
526.495	409.38
526.71	420.38
526.925	407.38
527.14	400.38
527.355	384.38
527.57	398.38
527.785	414.38
527.999	417.38
528.214	411.38
528.429	400.38
528.644	409.38
528.859	399.38
529.074	424.38
529.289	434.38
529.503	437.38
529.718	442.38
529.933	417.38
530.148	415.38
530.363	404.38
530.577	394.38
530.792	402.38
531.007	409.38
531.221	398.38
531.436	402.38
531.651	395.38
531.865	388.38
532.08	403.38
532.295	398.38
532.509	386.38
532.724	396.38
532.938	378.38
533.153	407.38
533.367	400.38
533.582	411.38
533.796	388.38
534.011	379.38
534.225	393.38
534.44	409.38
534.654	390.38
534.868	388.38
535.083	391.38
535.297	389.38
535.511	415.38
535.726	398.38
535.94	408.38
536.154	362.38
536.369	394.38
536.583	373.38
536.797	396.38
537.011	366.38
537.225	360.38
537.44	377.38
537.654	380.38
537.868	364.38
538.082	378.38
538.296	399.38
538.51	382.38
538.724	384.38
538.938	376.38
539.153	366.38
539.367	372.38
539.581	381.38
539.795	360.38
540.009	382.38
540.222	373.38
540.436	362.38
540.65	351.38
540.864	374.38
541.078	392.38
541.292	359.38
541.506	361.38
541.72	361.38
541.934	347.38
542.147	366.38
542.361	382.38
542.575	362.38
542.789	360.38
543.002	379.38
543.216	378.38
543.43	374.38
543.644	384.38
543.857	375.38
544.071	374.38
544.285	385.38
544.498	380.38
544.712	384.38
544.925	376.38
545.139	368.38
545.352	366.38
545.566	380.38
545.779	361.38
545.993	372.38
546.206	376.38
546.42	373.38
546.633	362.38
546.847	388.38
547.06	385.38
547.274	372.38
547.487	372.38
547.7	381.38
547.914	377.38
548.127	372.38
548.34	381.38
548.554	354.38
548.767	380.38
548.98	382.38
549.193	370.38
549.407	372.38
549.62	378.38
549.833	366.38
550.046	370.38
550.259	372.38
550.473	374.38
550.686	373.38
550.899	358.38
551.112	371.38
551.325	358.38
551.538	390.38
551.751	373.38
551.964	356.38
552.177	356.38
552.39	358.38
552.603	387.38
552.816	384.38
553.029	384.38
553.242	393.38
553.455	386.38
553.667	410.38
553.88	412.38
554.093	397.38
554.306	385.38
554.519	392.38
554.732	380.38
554.944	366.38
555.157	358.38
555.37	356.38
555.583	362.38
555.795	353.38
556.008	357.38
556.221	339.38
556.433	329.38
556.646	361.38
556.859	332.38
557.071	328.38
557.284	316.38
557.496	316.38
557.709	339.38
557.921	320.38
558.134	332.38
558.346	326.38
558.559	322.38
558.771	350.38
558.984	343.38
559.196	320.38
559.409	334.38
559.621	313.38
559.833	327.38
560.046	309.38
560.258	325.38
560.47	328.38
560.683	332.38
560.895	312.38
561.107	328.38
561.32	320.38
561.532	322.38
561.744	333.38
561.956	328.38
562.168	337.38
562.381	323.38
562.593	331.38
562.805	346.38
563.017	331.38
563.229	331.38
563.441	340.38
563.653	325.38
563.865	320.38
564.077	332.38
564.289	348.38
564.501	345.38
564.713	351.38
564.925	343.38
565.137	363.38
565.349	352.38
565.561	353.38
565.773	362.38
565.985	377.38
566.197	383.38
566.408	414.38
566.62	441.38
566.832	467.38
567.044	449.38
567.255	466.38
567.467	471.38
567.679	502.38
567.891	504.38
568.102	514.38
568.314	506.38
568.526	480.38
568.737	466.38
568.949	417.38
569.161	397.38
569.372	374.38
569.584	361.38
569.795	377.38
570.007	362.38
570.218	374.38
570.43	348.38
570.641	361.38
570.853	355.38
571.064	346.38
571.276	330.38
571.487	325.38
571.698	326.38
571.91	302.38
572.121	293.38
572.333	319.38
572.544	299.38
572.755	307.38
572.966	296.38
573.178	285.38
573.389	296.38
573.6	301.38
573.811	289.38
574.023	290.38
574.234	299.38
574.445	278.38
574.656	295.38
574.867	282.38
575.078	293.38
575.289	297.38
575.501	281.38
575.712	283.38
575.923	276.38
576.134	281.38
576.345	296.38
576.556	289.38
576.767	280.38
576.978	272.38
577.188	271.38
577.399	285.38
577.61	291.38
577.821	276.38
578.032	269.38
578.243	312.38
578.454	389.38
578.665	320.38
578.875	278.38
579.086	280.38
579.297	274.38
579.508	268.38
579.718	256.38
579.929	260.38
580.14	258.38
580.35	281.38
580.561	274.38
580.772	274.38
580.982	256.38
581.193	269.38
581.403	257.38
581.614	266.38
581.825	279.38
582.035	282.38
582.246	242.38
582.456	264.38
582.667	258.38
582.877	260.38
583.087	248.38
583.298	254.38
583.508	256.38
583.719	260.38
583.929	260.38
584.139	261.38
584.35	253.38
584.56	240.38
584.77	233.38
584.981	247.38
585.191	263.38
585.401	247.38
585.611	266.38
585.821	251.38
586.032	264.38
586.242	236.38
586.452	245.38
586.662	266.38
586.872	256.38
587.082	248.38
587.292	274.38
587.502	267.38
587.713	250.38
587.923	259.38
588.133	248.38
588.343	250.38
588.553	242.38
588.762	254.38
588.972	231.38
589.182	260.38
589.392	264.38
589.602	250.38
589.812	276.38
590.022	278.38
590.232	258.38
590.441	258.38
590.651	256.38
590.861	253.38
591.071	270.38
591.281	237.38
591.49	261.38
591.7	259.38
591.91	268.38
592.119	261.38
592.329	272.38
592.539	287.38
592.748	278.38
592.958	270.38
593.167	295.38
593.377	308.38
593.587	286.38
593.796	301.38
594.006	306.38
594.215	297.38
594.424	301.38
594.634	312.38
594.843	268.38
595.053	297.38
595.262	280.38
595.472	259.38
595.681	247.38
595.89	264.38
596.1	240.38
596.309	241.38
596.518	252.38
596.727	257.38
596.937	228.38
597.146	247.38
597.355	245.38
597.564	249.38
597.774	221.38
597.983	237.38
598.192	243.38
598.401	238.38
598.61	232.38
598.819	229.38
599.028	228.38
599.237	216.38
599.446	243.38
599.655	229.38
599.864	230.38
600.073	226.38
600.282	222.38
600.491	207.38
600.7	239.38
600.909	213.38
601.118	233.38
601.327	222.38
601.536	224.38
601.745	236.38
601.953	212.38
602.162	234.38
602.371	227.38
602.58	236.38
602.789	224.38
602.997	219.38
603.206	218.38
603.415	217.38
603.623	223.38
603.832	215.38
604.041	221.38
604.249	212.38
604.458	211.38
604.666	215.38
604.875	211.38
605.084	217.38
605.292	209.38
605.501	204.38
605.709	198.38
605.918	208.38
606.126	199.38
606.334	210.38
606.543	205.38
606.751	206.38
606.96	200.38
607.168	207.38
607.376	203.38
607.585	194.38
607.793	206.38
608.001	209.38
608.21	212.38
608.418	198.38
608.626	209.38
608.834	218.38
609.043	206.38
609.251	203.38
609.459	204.38
609.667	207.38
609.875	206.38
610.083	211.38
610.291	218.38
610.499	219.38
610.707	209.38
610.916	220.38
611.124	205.38
611.332	215.38
611.54	217.38
611.748	213.38
611.955	203.38
612.163	233.38
612.371	210.38
612.579	205.38
612.787	202.38
612.995	209.38
613.203	215.38
613.411	211.38
613.618	202.38
613.826	209.38
614.034	205.38
614.242	196.38
614.449	199.38
614.657	196.38
614.865	200.38
615.072	191.38
615.28	207.38
615.488	199.38
615.695	197.38
615.903	216.38
616.111	202.38
616.318	201.38
616.526	187.38
616.733	214.38
616.941	196.38
617.148	212.38
617.356	197.38
617.563	200.38
617.771	205.38
617.978	196.38
618.185	208.38
618.393	209.38
618.6	209.38
618.807	181.38
619.015	208.38
619.222	192.38
619.429	203.38
619.637	192.38
619.844	198.38
620.051	200.38
620.258	188.38
620.466	199.38
620.673	184.38
620.88	186.38
621.087	186.38
621.294	188.38
621.501	198.38
621.708	194.38
621.915	181.38
622.122	212.38
622.329	198.38
622.536	194.38
622.743	209.38
622.95	196.38
623.157	192.38
623.364	184.38
623.571	180.38
623.778	195.38
623.985	188.38
624.192	207.38
624.399	181.38
624.606	192.38
624.812	164.38
625.019	179.38
625.226	176.38
625.433	170.38
625.639	164.38
625.846	181.38
626.053	178.38
626.259	168.38
626.466	193.38
626.673	190.38
626.879	178.38
627.086	188.38
627.293	183.38
627.499	180.38
627.706	164.38
627.912	184.38
628.119	201.38
628.325	164.38
628.532	149.38
628.738	199.38
628.945	164.38
629.151	157.38
629.357	184.38
629.564	176.38
629.77	176.38
629.976	174.38
630.183	188.38
630.389	192.38
630.595	164.38
630.802	167.38
631.008	165.38
631.214	166.38
631.42	172.38
631.627	181.38
631.833	170.38
632.039	155.38
632.245	165.38
632.451	162.38
632.657	181.38
632.863	156.38
633.069	158.38
633.275	170.38
633.481	176.38
633.688	172.38
633.893	165.38
634.099	162.38
634.305	177.38
634.511	154.38
634.717	166.38
634.923	145.38
635.129	163.38
635.335	166.38
635.541	157.38
635.747	150.38
635.952	167.38
636.158	155.38
636.364	189.38
636.57	202.38
636.775	184.38
636.981	184.38
637.187	186.38
637.392	164.38
637.598	168.38
637.804	156.38
638.009	149.38
638.215	158.38
638.421	157.38
638.626	145.38
638.832	158.38
639.037	155.38
639.243	169.38
639.448	165.38
639.654	159.38
639.859	155.38
640.065	165.38
640.27	155.38
640.475	162.38
640.681	142.38
640.886	161.38
641.091	153.38
641.297	143.38
641.502	152.38
641.707	154.38
641.913	154.38
642.118	143.38
642.323	149.38
642.528	137.38
642.733	150.38
642.939	152.38
643.144	150.38
643.349	152.38
643.554	144.38
643.759	138.38
643.964	161.38
644.169	148.38
644.374	141.38
644.579	168.38
644.784	140.38
644.989	156.38
645.194	145.38
645.399	144.38
645.604	137.38
645.809	148.38
646.014	162.38
646.219	152.38
646.423	145.38
646.628	146.38
646.833	151.38
647.038	148.38
647.243	144.38
647.447	154.38
647.652	153.38
647.857	157.38
648.062	152.38
648.266	166.38
648.471	158.38
648.676	169.38
648.88	148.38
649.085	161.38
649.289	172.38
649.494	167.38
649.698	142.38
649.903	166.38
650.107	152.38
650.312	136.38
650.516	141.38
650.721	148.38
650.925	137.38
651.13	158.38
651.334	133.38
651.539	128.38
651.743	141.38
651.947	136.38
652.152	143.38
652.356	151.38
652.56	133.38
652.764	122.38
652.969	137.38
653.173	124.38
653.377	133.38
653.581	133.38
653.785	125.38
653.99	142.38
654.194	130.38
654.398	133.38
654.602	133.38
654.806	121.38
655.01	128.38
655.214	130.38
655.418	125.38
655.622	125.38
655.826	116.38
656.03	135.38
656.234	128.38
656.438	130.38
656.642	149.38
656.846	121.38
657.049	127.38
657.253	118.38
657.457	113.38
657.661	134.38
657.865	109.38
658.068	104.38
658.272	114.38
658.476	100.38
658.68	100.38
658.883	96.38
659.087	98.38
659.291	97.38
659.494	94.38
659.698	97.38
659.901	101.38
660.105	95.38
660.309	97.38
660.512	92.38
660.716	107.38
660.919	97.38
661.123	88.38
661.326	96.38
661.53	98.38
661.733	84.38
661.936	76.38
662.14	99.38
662.343	79.38
662.546	77.38
662.75	84.38
662.953	83.38
663.156	83.38
663.36	78.38
663.563	81.38
663.766	72.38
663.969	92.38
664.173	95.38
664.376	86.38
664.579	85.38
664.782	75.38
664.985	88.38
665.188	89.38
665.391	89.38
665.594	83.38
665.797	92.38
666	78.38
666.203	92.38
666.406	82.38
666.609	87.38
666.812	86.38
667.015	75.38
667.218	73.38
667.421	83.38
667.624	79.38
667.827	70.38
668.03	82.38
668.232	83.38
668.435	89.38
668.638	84.38
668.841	82.38
669.043	90.38
669.246	90.38
669.449	70.38
669.651	87.38
669.854	78.38
670.057	75.38
670.259	88.38
670.462	89.38
670.665	66.38
670.867	86.38
671.07	83.38
671.272	91.38
671.475	87.38
671.677	89.38
671.88	77.38
672.082	90.38
672.284	76.38
672.487	75.38
672.689	84.38
672.892	90.38
