Data from 1984.PennyLincolnUp.Lamp.En5.5.200Scan.071819.P1_HRD10591_17-00-06-968.txt Node
Date: Thu Jul 18 17:00:06 EDT 2019
User: cochatt
Spectrometer: HR+D1059
Trigger mode: 1
Integration Time (sec): 1.000000E-1
Scans to average: 1
Electric dark correction enabled: true
Nonlinearity correction enabled: false
Boxcar width: 0
XAxis mode: Wavelengths
Number of Pixels in Spectrum: 2048
>>>>>Begin Spectral Data<<<<<
223.165	-10.94
223.4	-10.94
223.635	-10.94
223.869	-5.94
224.104	-9.94
224.338	-16.94
224.573	-25.94
224.808	-19.94
225.042	-11.94
225.277	-13.94
225.511	0.06
225.746	1.06
225.98	12.06
226.215	7.06
226.449	18.06
226.683	27.06
226.918	26.06
227.152	24.06
227.387	24.06
227.621	28.06
227.856	43.06
228.09	52.06
228.324	54.06
228.559	51.06
228.793	77.06
229.027	92.06
229.262	92.06
229.496	90.06
229.73	109.06
229.964	122.06
230.199	98.06
230.433	98.06
230.667	101.06
230.901	108.06
231.136	93.06
231.37	94.06
231.604	109.06
231.838	95.06
232.072	112.06
232.306	102.06
232.541	111.06
232.775	111.06
233.009	109.06
233.243	111.06
233.477	100.06
233.711	123.06
233.945	106.06
234.179	118.06
234.413	119.06
234.647	111.06
234.881	91.06
235.115	114.06
235.349	115.06
235.583	114.06
235.817	102.06
236.051	111.06
236.285	114.06
236.519	124.06
236.753	117.06
236.987	134.06
237.221	148.06
237.455	158.06
237.689	156.06
237.922	129.06
238.156	117.06
238.39	121.06
238.624	130.06
238.858	114.06
239.091	122.06
239.325	122.06
239.559	123.06
239.793	123.06
240.027	130.06
240.26	129.06
240.494	145.06
240.728	124.06
240.961	132.06
241.195	141.06
241.429	121.06
241.662	119.06
241.896	114.06
242.13	133.06
242.363	124.06
242.597	122.06
242.83	133.06
243.064	132.06
243.298	136.06
243.531	122.06
243.765	148.06
243.998	150.06
244.232	138.06
244.465	133.06
244.699	128.06
244.932	131.06
245.166	148.06
245.399	125.06
245.633	139.06
245.866	156.06
246.099	149.06
246.333	127.06
246.566	128.06
246.8	144.06
247.033	156.06
247.266	142.06
247.5	148.06
247.733	153.06
247.966	158.06
248.2	162.06
248.433	156.06
248.666	157.06
248.899	158.06
249.133	182.06
249.366	183.06
249.599	188.06
249.832	165.06
250.066	194.06
250.299	176.06
250.532	212.06
250.765	230.06
250.998	214.06
251.231	202.06
251.465	182.06
251.698	195.06
251.931	169.06
252.164	183.06
252.397	182.06
252.63	178.06
252.863	184.06
253.096	188.06
253.329	197.06
253.562	196.06
253.795	202.06
254.028	204.06
254.261	193.06
254.494	195.06
254.727	196.06
254.96	223.06
255.193	221.06
255.426	220.06
255.659	217.06
255.892	245.06
256.124	302.06
256.357	304.06
256.59	250.06
256.823	240.06
257.056	225.06
257.289	204.06
257.521	190.06
257.754	202.06
257.987	198.06
258.22	207.06
258.452	189.06
258.685	192.06
258.918	187.06
259.151	202.06
259.383	195.06
259.616	205.06
259.849	214.06
260.081	198.06
260.314	222.06
260.547	227.06
260.779	229.06
261.012	218.06
261.244	215.06
261.477	222.06
261.71	213.06
261.942	197.06
262.175	213.06
262.407	214.06
262.64	204.06
262.872	212.06
263.105	185.06
263.337	180.06
263.57	202.06
263.802	217.06
264.035	200.06
264.267	205.06
264.499	201.06
264.732	206.06
264.964	207.06
265.197	201.06
265.429	212.06
265.661	211.06
265.894	205.06
266.126	232.06
266.358	211.06
266.591	199.06
266.823	209.06
267.055	215.06
267.287	214.06
267.52	219.06
267.752	213.06
267.984	219.06
268.216	216.06
268.448	224.06
268.681	223.06
268.913	231.06
269.145	239.06
269.377	224.06
269.609	253.06
269.841	251.06
270.073	239.06
270.306	240.06
270.538	281.06
270.77	274.06
271.002	269.06
271.234	258.06
271.466	260.06
271.698	270.06
271.93	275.06
272.162	266.06
272.394	284.06
272.626	251.06
272.858	264.06
273.09	254.06
273.322	245.06
273.553	235.06
273.785	244.06
274.017	245.06
274.249	249.06
274.481	223.06
274.713	252.06
274.945	256.06
275.176	252.06
275.408	276.06
275.64	247.06
275.872	243.06
276.104	256.06
276.335	245.06
276.567	260.06
276.799	266.06
277.031	273.06
277.262	295.06
277.494	290.06
277.726	275.06
277.957	268.06
278.189	271.06
278.421	262.06
278.652	277.06
278.884	266.06
279.115	270.06
279.347	269.06
279.579	265.06
279.81	261.06
280.042	253.06
280.273	275.06
280.505	289.06
280.736	258.06
280.968	260.06
281.199	270.06
281.431	271.06
281.662	278.06
281.894	266.06
282.125	278.06
282.356	290.06
282.588	289.06
282.819	285.06
283.051	272.06
283.282	278.06
283.513	268.06
283.745	270.06
283.976	263.06
284.207	277.06
284.439	271.06
284.67	262.06
284.901	272.06
285.132	273.06
285.364	282.06
285.595	276.06
285.826	288.06
286.057	280.06
286.288	251.06
286.52	295.06
286.751	272.06
286.982	272.06
287.213	284.06
287.444	303.06
287.675	288.06
287.906	294.06
288.138	286.06
288.369	313.06
288.6	301.06
288.831	310.06
289.062	291.06
289.293	290.06
289.524	290.06
289.755	291.06
289.986	293.06
290.217	273.06
290.448	293.06
290.679	279.06
290.91	270.06
291.141	279.06
291.371	308.06
291.602	292.06
291.833	286.06
292.064	308.06
292.295	294.06
292.526	290.06
292.757	288.06
292.987	288.06
293.218	270.06
293.449	290.06
293.68	281.06
293.91	306.06
294.141	285.06
294.372	284.06
294.603	295.06
294.833	286.06
295.064	290.06
295.295	288.06
295.525	312.06
295.756	310.06
295.987	314.06
296.217	304.06
296.448	333.06
296.679	291.06
296.909	270.06
297.14	299.06
297.37	294.06
297.601	315.06
297.831	301.06
298.062	310.06
298.292	318.06
298.523	305.06
298.753	292.06
298.984	301.06
299.214	306.06
299.445	316.06
299.675	302.06
299.905	296.06
300.136	306.06
300.366	314.06
300.597	311.06
300.827	328.06
301.057	322.06
301.288	322.06
301.518	332.06
301.748	330.06
301.979	328.06
302.209	321.06
302.439	320.06
302.669	320.06
302.9	333.06
303.13	338.06
303.36	322.06
303.59	329.06
303.82	342.06
304.051	342.06
304.281	335.06
304.511	324.06
304.741	325.06
304.971	318.06
305.201	323.06
305.431	324.06
305.661	352.06
305.891	332.06
306.121	335.06
306.352	300.06
306.582	322.06
306.812	320.06
307.042	324.06
307.272	347.06
307.502	324.06
307.731	346.06
307.961	324.06
308.191	325.06
308.421	330.06
308.651	317.06
308.881	331.06
309.111	326.06
309.341	335.06
309.571	334.06
309.8	341.06
310.03	350.06
310.26	341.06
310.49	358.06
310.72	350.06
310.949	353.06
311.179	364.06
311.409	365.06
311.639	359.06
311.868	371.06
312.098	370.06
312.328	361.06
312.557	367.06
312.787	387.06
313.017	369.06
313.246	351.06
313.476	357.06
313.706	345.06
313.935	355.06
314.165	365.06
314.394	386.06
314.624	386.06
314.853	348.06
315.083	349.06
315.312	357.06
315.542	372.06
315.771	350.06
316.001	357.06
316.23	351.06
316.46	362.06
316.689	361.06
316.919	364.06
317.148	377.06
317.377	369.06
317.607	366.06
317.836	364.06
318.065	358.06
318.295	352.06
318.524	359.06
318.753	335.06
318.983	353.06
319.212	355.06
319.441	355.06
319.67	351.06
319.9	347.06
320.129	342.06
320.358	356.06
320.587	365.06
320.816	355.06
321.046	377.06
321.275	362.06
321.504	372.06
321.733	365.06
321.962	368.06
322.191	388.06
322.42	413.06
322.649	409.06
322.878	398.06
323.108	415.06
323.337	429.06
323.566	426.06
323.795	448.06
324.024	495.06
324.253	566.06
324.482	742.06
324.71	1075.06
324.939	1494.06
325.168	1292.06
325.397	742.06
325.626	527.06
325.855	481.06
326.084	470.06
326.313	448.06
326.542	471.06
326.77	489.06
326.999	554.06
327.228	672.06
327.457	967.06
327.686	1158.06
327.914	830.06
328.143	635.06
328.372	592.06
328.6	570.06
328.829	512.06
329.058	520.06
329.287	516.06
329.515	515.06
329.744	489.06
329.972	581.06
330.201	635.06
330.43	683.06
330.658	648.06
330.887	574.06
331.115	525.06
331.344	506.06
331.572	457.06
331.801	469.06
332.03	461.06
332.258	469.06
332.486	487.06
332.715	483.06
332.943	466.06
333.172	475.06
333.4	512.06
333.629	518.06
333.857	565.06
334.085	587.06
334.314	702.06
334.542	796.06
334.771	815.06
334.999	650.06
335.227	542.06
335.455	490.06
335.684	488.06
335.912	485.06
336.14	459.06
336.369	459.06
336.597	447.06
336.825	457.06
337.053	446.06
337.281	459.06
337.51	432.06
337.738	422.06
337.966	431.06
338.194	426.06
338.422	439.06
338.65	419.06
338.878	406.06
339.106	417.06
339.334	414.06
339.562	398.06
339.79	430.06
340.018	401.06
340.246	399.06
340.474	435.06
340.702	399.06
340.93	436.06
341.158	402.06
341.386	413.06
341.614	409.06
341.842	389.06
342.07	365.06
342.298	390.06
342.526	384.06
342.754	396.06
342.981	408.06
343.209	386.06
343.437	404.06
343.665	416.06
343.893	426.06
344.12	419.06
344.348	425.06
344.576	429.06
344.804	419.06
345.031	402.06
345.259	418.06
345.487	408.06
345.714	410.06
345.942	393.06
346.17	396.06
346.397	386.06
346.625	378.06
346.853	378.06
347.08	391.06
347.308	392.06
347.535	409.06
347.763	382.06
347.99	382.06
348.218	390.06
348.445	370.06
348.673	373.06
348.9	395.06
349.128	377.06
349.355	366.06
349.583	380.06
349.81	364.06
350.037	356.06
350.265	357.06
350.492	377.06
350.72	370.06
350.947	367.06
351.174	370.06
351.402	370.06
351.629	378.06
351.856	379.06
352.083	383.06
352.311	383.06
352.538	393.06
352.765	383.06
352.992	364.06
353.22	374.06
353.447	373.06
353.674	379.06
353.901	359.06
354.128	348.06
354.355	358.06
354.583	358.06
354.81	357.06
355.037	363.06
355.264	380.06
355.491	358.06
355.718	351.06
355.945	362.06
356.172	362.06
356.399	350.06
356.626	368.06
356.853	344.06
357.08	354.06
357.307	375.06
357.534	359.06
357.761	357.06
357.988	360.06
358.215	356.06
358.441	360.06
358.668	363.06
358.895	342.06
359.122	370.06
359.349	349.06
359.576	362.06
359.802	372.06
360.029	412.06
360.256	389.06
360.483	402.06
360.709	370.06
360.936	399.06
361.163	378.06
361.39	360.06
361.616	381.06
361.843	370.06
362.07	365.06
362.296	380.06
362.523	356.06
362.749	370.06
362.976	378.06
363.203	374.06
363.429	367.06
363.656	339.06
363.882	352.06
364.109	372.06
364.335	350.06
364.562	366.06
364.788	353.06
365.015	367.06
365.241	370.06
365.468	358.06
365.694	357.06
365.92	358.06
366.147	353.06
366.373	375.06
366.599	368.06
366.826	360.06
367.052	372.06
367.278	360.06
367.505	381.06
367.731	362.06
367.957	378.06
368.184	347.06
368.41	340.06
368.636	360.06
368.862	357.06
369.089	367.06
369.315	362.06
369.541	351.06
369.767	362.06
369.993	363.06
370.219	373.06
370.445	359.06
370.672	375.06
370.898	383.06
371.124	367.06
371.35	365.06
371.576	356.06
371.802	355.06
372.028	376.06
372.254	354.06
372.48	369.06
372.706	384.06
372.932	370.06
373.158	393.06
373.384	386.06
373.61	388.06
373.835	385.06
374.061	373.06
374.287	380.06
374.513	382.06
374.739	402.06
374.965	388.06
375.191	384.06
375.416	386.06
375.642	364.06
375.868	372.06
376.094	370.06
376.319	366.06
376.545	350.06
376.771	371.06
376.997	367.06
377.222	366.06
377.448	376.06
377.674	362.06
377.899	362.06
378.125	377.06
378.35	362.06
378.576	335.06
378.802	340.06
379.027	365.06
379.253	349.06
379.478	357.06
379.704	379.06
379.929	378.06
380.155	366.06
380.38	376.06
380.606	367.06
380.831	351.06
381.057	356.06
381.282	351.06
381.507	374.06
381.733	374.06
381.958	361.06
382.184	352.06
382.409	371.06
382.634	374.06
382.86	385.06
383.085	405.06
383.31	381.06
383.535	387.06
383.761	386.06
383.986	387.06
384.211	400.06
384.436	406.06
384.662	396.06
384.887	412.06
385.112	405.06
385.337	406.06
385.562	411.06
385.787	436.06
386.013	430.06
386.238	412.06
386.463	415.06
386.688	414.06
386.913	396.06
387.138	401.06
387.363	394.06
387.588	398.06
387.813	402.06
388.038	412.06
388.263	414.06
388.488	413.06
388.713	415.06
388.938	410.06
389.163	415.06
389.387	410.06
389.612	398.06
389.837	394.06
390.062	395.06
390.287	396.06
390.512	398.06
390.736	428.06
390.961	422.06
391.186	420.06
391.411	403.06
391.636	418.06
391.86	450.06
392.085	444.06
392.31	428.06
392.534	443.06
392.759	422.06
392.984	416.06
393.208	427.06
393.433	395.06
393.658	411.06
393.882	420.06
394.107	411.06
394.331	418.06
394.556	449.06
394.78	432.06
395.005	440.06
395.229	417.06
395.454	440.06
395.678	434.06
395.903	455.06
396.127	447.06
396.352	441.06
396.576	425.06
396.801	431.06
397.025	419.06
397.249	440.06
397.474	457.06
397.698	460.06
397.922	462.06
398.147	469.06
398.371	478.06
398.595	471.06
398.82	486.06
399.044	523.06
399.268	536.06
399.492	597.06
399.717	621.06
399.941	621.06
400.165	622.06
400.389	588.06
400.613	564.06
400.837	526.06
401.062	484.06
401.286	504.06
401.51	473.06
401.734	491.06
401.958	486.06
402.182	493.06
402.406	510.06
402.63	516.06
402.854	511.06
403.078	506.06
403.302	499.06
403.526	518.06
403.75	528.06
403.974	542.06
404.198	551.06
404.422	547.06
404.645	540.06
404.869	535.06
405.093	584.06
405.317	618.06
405.541	637.06
405.765	594.06
405.988	565.06
406.212	558.06
406.436	546.06
406.66	564.06
406.883	570.06
407.107	582.06
407.331	606.06
407.555	641.06
407.778	649.06
408.002	590.06
408.226	568.06
408.449	576.06
408.673	547.06
408.896	576.06
409.12	584.06
409.344	574.06
409.567	527.06
409.791	542.06
410.014	518.06
410.238	489.06
410.461	497.06
410.685	519.06
410.908	532.06
411.132	507.06
411.355	540.06
411.578	548.06
411.802	516.06
412.025	526.06
412.249	555.06
412.472	582.06
412.695	634.06
412.919	634.06
413.142	560.06
413.365	542.06
413.589	508.06
413.812	522.06
414.035	498.06
414.258	495.06
414.482	484.06
414.705	487.06
414.928	478.06
415.151	500.06
415.374	492.06
415.597	470.06
415.821	478.06
416.044	480.06
416.267	489.06
416.49	486.06
416.713	474.06
416.936	476.06
417.159	460.06
417.382	477.06
417.605	482.06
417.828	498.06
418.051	512.06
418.274	482.06
418.497	494.06
418.72	487.06
418.943	487.06
419.166	519.06
419.389	542.06
419.611	510.06
419.834	515.06
420.057	524.06
420.28	540.06
420.503	547.06
420.726	548.06
420.948	525.06
421.171	532.06
421.394	558.06
421.617	493.06
421.839	486.06
422.062	500.06
422.285	493.06
422.507	534.06
422.73	568.06
422.953	577.06
423.175	530.06
423.398	514.06
423.621	527.06
423.843	524.06
424.066	535.06
424.288	540.06
424.511	529.06
424.733	551.06
424.956	593.06
425.178	566.06
425.401	578.06
425.623	554.06
425.846	548.06
426.068	505.06
426.291	493.06
426.513	503.06
426.735	484.06
426.958	528.06
427.18	570.06
427.402	649.06
427.625	708.06
427.847	613.06
428.069	603.06
428.292	558.06
428.514	501.06
428.736	492.06
428.958	483.06
429.181	427.06
429.403	478.06
429.625	463.06
429.847	479.06
430.069	514.06
430.292	493.06
430.514	454.06
430.736	439.06
430.958	448.06
431.18	419.06
431.402	444.06
431.624	434.06
431.846	432.06
432.068	453.06
432.29	444.06
432.512	414.06
432.734	450.06
432.956	468.06
433.178	460.06
433.4	464.06
433.622	427.06
433.844	456.06
434.066	418.06
434.287	453.06
434.509	457.06
434.731	472.06
434.953	476.06
435.175	497.06
435.397	500.06
435.618	486.06
435.84	492.06
436.062	570.06
436.284	598.06
436.505	502.06
436.727	478.06
436.949	470.06
437.17	458.06
437.392	455.06
437.614	454.06
437.835	479.06
438.057	528.06
438.278	571.06
438.5	568.06
438.721	639.06
438.943	612.06
439.165	514.06
439.386	503.06
439.608	475.06
439.829	482.06
440.05	486.06
440.272	529.06
440.493	507.06
440.715	472.06
440.936	487.06
441.158	490.06
441.379	472.06
441.6	479.06
441.822	519.06
442.043	533.06
442.264	572.06
442.486	592.06
442.707	515.06
442.928	493.06
443.149	499.06
443.371	513.06
443.592	539.06
443.813	598.06
444.034	636.06
444.255	573.06
444.476	544.06
444.698	536.06
444.919	535.06
445.14	665.06
445.361	576.06
445.582	532.06
445.803	546.06
446.024	599.06
446.245	610.06
446.466	559.06
446.687	498.06
446.908	470.06
447.129	455.06
447.35	442.06
447.571	456.06
447.792	429.06
448.013	446.06
448.234	471.06
448.455	502.06
448.675	548.06
448.896	611.06
449.117	534.06
449.338	504.06
449.559	582.06
449.779	623.06
450	547.06
450.221	464.06
450.442	419.06
450.662	438.06
450.883	435.06
451.104	442.06
451.324	439.06
451.545	440.06
451.766	408.06
451.986	418.06
452.207	391.06
452.428	393.06
452.648	381.06
452.869	392.06
453.089	398.06
453.31	408.06
453.53	392.06
453.751	413.06
453.971	403.06
454.192	420.06
454.412	391.06
454.633	390.06
454.853	399.06
455.073	412.06
455.294	421.06
455.514	439.06
455.734	434.06
455.955	382.06
456.175	392.06
456.395	382.06
456.616	377.06
456.836	388.06
457.056	366.06
457.276	357.06
457.497	387.06
457.717	400.06
457.937	395.06
458.157	384.06
458.377	399.06
458.598	402.06
458.818	446.06
459.038	474.06
459.258	506.06
459.478	465.06
459.698	448.06
459.918	467.06
460.138	462.06
460.358	450.06
460.578	492.06
460.798	473.06
461.018	460.06
461.238	461.06
461.458	482.06
461.678	480.06
461.898	476.06
462.118	484.06
462.338	488.06
462.558	519.06
462.777	511.06
462.997	527.06
463.217	568.06
463.437	593.06
463.657	559.06
463.876	528.06
464.096	509.06
464.316	500.06
464.536	546.06
464.755	514.06
464.975	484.06
465.195	522.06
465.414	533.06
465.634	480.06
465.854	472.06
466.073	456.06
466.293	436.06
466.512	428.06
466.732	430.06
466.951	430.06
467.171	417.06
467.391	426.06
467.61	418.06
467.829	444.06
468.049	453.06
468.268	469.06
468.488	430.06
468.707	406.06
468.927	425.06
469.146	412.06
469.365	406.06
469.585	427.06
469.804	414.06
470.023	434.06
470.243	436.06
470.462	434.06
470.681	461.06
470.901	426.06
471.12	420.06
471.339	425.06
471.558	432.06
471.777	436.06
471.997	451.06
472.216	500.06
472.435	581.06
472.654	506.06
472.873	466.06
473.092	452.06
473.311	442.06
473.53	407.06
473.749	428.06
473.968	440.06
474.187	492.06
474.406	502.06
474.625	440.06
474.844	440.06
475.063	430.06
475.282	436.06
475.501	423.06
475.72	413.06
475.939	411.06
476.158	422.06
476.377	411.06
476.596	429.06
476.814	424.06
477.033	436.06
477.252	423.06
477.471	447.06
477.69	469.06
477.908	436.06
478.127	452.06
478.346	490.06
478.564	470.06
478.783	492.06
479.002	495.06
479.22	493.06
479.439	504.06
479.658	507.06
479.876	514.06
480.095	506.06
480.313	547.06
480.532	538.06
480.751	565.06
480.969	573.06
481.188	728.06
481.406	850.06
481.624	652.06
481.843	570.06
482.061	556.06
482.28	533.06
482.498	496.06
482.717	514.06
482.935	502.06
483.153	509.06
483.372	481.06
483.59	492.06
483.808	497.06
484.027	478.06
484.245	496.06
484.463	485.06
484.681	480.06
484.9	492.06
485.118	494.06
485.336	475.06
485.554	524.06
485.772	492.06
485.99	494.06
486.209	498.06
486.427	505.06
486.645	518.06
486.863	516.06
487.081	517.06
487.299	517.06
487.517	529.06
487.735	495.06
487.953	494.06
488.171	508.06
488.389	513.06
488.607	502.06
488.825	525.06
489.043	513.06
489.261	518.06
489.479	512.06
489.696	517.06
489.914	525.06
490.132	534.06
490.35	525.06
490.568	533.06
490.786	558.06
491.003	559.06
491.221	555.06
491.439	561.06
491.657	606.06
491.874	593.06
492.092	608.06
492.31	604.06
492.527	612.06
492.745	640.06
492.963	630.06
493.18	633.06
493.398	623.06
493.615	615.06
493.833	603.06
494.05	618.06
494.268	612.06
494.485	615.06
494.703	623.06
494.92	618.06
495.138	607.06
495.355	584.06
495.573	603.06
495.79	586.06
496.008	622.06
496.225	582.06
496.442	591.06
496.66	589.06
496.877	616.06
497.094	598.06
497.312	627.06
497.529	646.06
497.746	640.06
497.963	615.06
498.181	654.06
498.398	702.06
498.615	711.06
498.832	707.06
499.049	775.06
499.267	778.06
499.484	816.06
499.701	899.06
499.918	938.06
500.135	997.06
500.352	1050.06
500.569	1127.06
500.786	1130.06
501.003	1099.06
501.22	1044.06
501.437	965.06
501.654	858.06
501.871	826.06
502.088	771.06
502.305	723.06
502.522	704.06
502.739	698.06
502.956	666.06
503.172	661.06
503.389	636.06
503.606	622.06
503.823	622.06
504.04	618.06
504.256	606.06
504.473	605.06
504.69	608.06
504.907	595.06
505.123	580.06
505.34	591.06
505.557	540.06
505.773	566.06
505.99	554.06
506.207	547.06
506.423	520.06
506.64	551.06
506.856	527.06
507.073	543.06
507.289	509.06
507.506	519.06
507.722	510.06
507.939	539.06
508.155	517.06
508.372	501.06
508.588	507.06
508.805	504.06
509.021	496.06
509.238	506.06
509.454	520.06
509.67	508.06
509.887	500.06
510.103	502.06
510.319	512.06
510.536	557.06
510.752	833.06
510.968	664.06
511.184	490.06
511.401	492.06
511.617	475.06
511.833	515.06
512.049	522.06
512.265	518.06
512.481	508.06
512.698	502.06
512.914	470.06
513.13	481.06
513.346	494.06
513.562	489.06
513.778	493.06
513.994	496.06
514.21	500.06
514.426	520.06
514.642	529.06
514.858	539.06
515.074	547.06
515.29	616.06
515.506	814.06
515.721	706.06
515.937	549.06
516.153	551.06
516.369	513.06
516.585	524.06
516.801	546.06
517.016	521.06
517.232	542.06
517.448	548.06
517.664	541.06
517.879	565.06
518.095	541.06
518.311	569.06
518.527	547.06
518.742	545.06
518.958	534.06
519.173	541.06
519.389	517.06
519.605	514.06
519.82	491.06
520.036	508.06
520.251	520.06
520.467	505.06
520.682	518.06
520.898	503.06
521.113	501.06
521.329	537.06
521.544	569.06
521.76	672.06
521.975	1001.06
522.19	940.06
522.406	603.06
522.621	500.06
522.836	479.06
523.052	454.06
523.267	441.06
523.482	454.06
523.698	445.06
523.913	454.06
524.128	441.06
524.343	422.06
524.559	432.06
524.774	418.06
524.989	428.06
525.204	421.06
525.419	425.06
525.634	423.06
525.849	443.06
526.064	423.06
526.28	400.06
526.495	408.06
526.71	409.06
526.925	394.06
527.14	397.06
527.355	401.06
527.57	406.06
527.785	385.06
527.999	404.06
528.214	436.06
528.429	404.06
528.644	414.06
528.859	414.06
529.074	380.06
529.289	422.06
529.503	451.06
529.718	447.06
529.933	428.06
530.148	402.06
530.363	390.06
530.577	409.06
530.792	408.06
531.007	390.06
531.221	409.06
531.436	410.06
531.651	419.06
531.865	386.06
532.08	396.06
532.295	408.06
532.509	427.06
532.724	384.06
532.938	412.06
533.153	399.06
533.367	408.06
533.582	409.06
533.796	406.06
534.011	416.06
534.225	406.06
534.44	399.06
534.654	394.06
534.868	413.06
535.083	411.06
535.297	381.06
535.511	382.06
535.726	386.06
535.94	378.06
536.154	382.06
536.369	384.06
536.583	379.06
536.797	388.06
537.011	407.06
537.225	399.06
537.44	382.06
537.654	384.06
537.868	379.06
538.082	387.06
538.296	382.06
538.51	391.06
538.724	380.06
538.938	382.06
539.153	377.06
539.367	373.06
539.581	398.06
539.795	377.06
540.009	372.06
540.222	386.06
540.436	392.06
540.65	373.06
540.864	380.06
541.078	371.06
541.292	379.06
541.506	368.06
541.72	375.06
541.934	384.06
542.147	357.06
542.361	376.06
542.575	363.06
542.789	374.06
543.002	378.06
543.216	375.06
543.43	378.06
543.644	377.06
543.857	364.06
544.071	378.06
544.285	370.06
544.498	380.06
544.712	369.06
544.925	370.06
545.139	368.06
545.352	369.06
545.566	392.06
545.779	376.06
545.993	377.06
546.206	376.06
546.42	373.06
546.633	380.06
546.847	379.06
547.06	365.06
547.274	380.06
547.487	378.06
547.7	374.06
547.914	388.06
548.127	381.06
548.34	361.06
548.554	359.06
548.767	377.06
548.98	370.06
549.193	363.06
549.407	374.06
549.62	368.06
549.833	386.06
550.046	392.06
550.259	383.06
550.473	351.06
550.686	382.06
550.899	362.06
551.112	363.06
551.325	354.06
551.538	377.06
551.751	382.06
551.964	370.06
552.177	371.06
552.39	379.06
552.603	380.06
552.816	382.06
553.029	371.06
553.242	400.06
553.455	399.06
553.667	390.06
553.88	388.06
554.093	401.06
554.306	384.06
554.519	385.06
554.732	373.06
554.944	371.06
555.157	352.06
555.37	342.06
555.583	344.06
555.795	359.06
556.008	366.06
556.221	338.06
556.433	332.06
556.646	338.06
556.859	340.06
557.071	342.06
557.284	345.06
557.496	333.06
557.709	331.06
557.921	343.06
558.134	346.06
558.346	312.06
558.559	315.06
558.771	334.06
558.984	328.06
559.196	330.06
559.409	337.06
559.621	331.06
559.833	322.06
560.046	330.06
560.258	306.06
560.47	349.06
560.683	318.06
560.895	345.06
561.107	319.06
561.32	331.06
561.532	326.06
561.744	322.06
561.956	328.06
562.168	318.06
562.381	345.06
562.593	344.06
562.805	335.06
563.017	310.06
563.229	340.06
563.441	332.06
563.653	350.06
563.865	348.06
564.077	327.06
564.289	349.06
564.501	320.06
564.713	335.06
564.925	346.06
565.137	358.06
565.349	370.06
565.561	372.06
565.773	373.06
565.985	396.06
566.197	405.06
566.408	440.06
566.62	441.06
566.832	466.06
567.044	439.06
567.255	463.06
567.467	487.06
567.679	478.06
567.891	522.06
568.102	528.06
568.314	493.06
568.526	489.06
568.737	451.06
568.949	409.06
569.161	404.06
569.372	387.06
569.584	362.06
569.795	339.06
570.007	356.06
570.218	375.06
570.43	370.06
570.641	359.06
570.853	339.06
571.064	344.06
571.276	330.06
571.487	324.06
571.698	332.06
571.91	313.06
572.121	320.06
572.333	309.06
572.544	307.06
572.755	306.06
572.966	292.06
573.178	296.06
573.389	301.06
573.6	290.06
573.811	298.06
574.023	293.06
574.234	296.06
574.445	280.06
574.656	279.06
574.867	296.06
575.078	303.06
575.289	276.06
575.501	278.06
575.712	274.06
575.923	298.06
576.134	297.06
576.345	297.06
576.556	288.06
576.767	276.06
576.978	286.06
577.188	294.06
577.399	263.06
577.61	250.06
577.821	263.06
578.032	280.06
578.243	301.06
578.454	394.06
578.665	319.06
578.875	279.06
579.086	290.06
579.297	267.06
579.508	266.06
579.718	258.06
579.929	267.06
580.14	269.06
580.35	250.06
580.561	271.06
580.772	240.06
580.982	273.06
581.193	249.06
581.403	268.06
581.614	278.06
581.825	247.06
582.035	256.06
582.246	263.06
582.456	278.06
582.667	276.06
582.877	265.06
583.087	246.06
583.298	265.06
583.508	260.06
583.719	258.06
583.929	257.06
584.139	239.06
584.35	256.06
584.56	261.06
584.77	262.06
584.981	261.06
585.191	254.06
585.401	236.06
585.611	260.06
585.821	270.06
586.032	251.06
586.242	265.06
586.452	265.06
586.662	242.06
586.872	250.06
587.082	247.06
587.292	255.06
587.502	261.06
587.713	247.06
587.923	255.06
588.133	251.06
588.343	242.06
588.553	248.06
588.762	261.06
588.972	236.06
589.182	258.06
589.392	252.06
589.602	247.06
589.812	265.06
590.022	264.06
590.232	258.06
590.441	261.06
590.651	263.06
590.861	261.06
591.071	248.06
591.281	266.06
591.49	260.06
591.7	261.06
591.91	268.06
592.119	250.06
592.329	251.06
592.539	298.06
592.748	275.06
592.958	285.06
593.167	299.06
593.377	299.06
593.587	286.06
593.796	293.06
594.006	293.06
594.215	282.06
594.424	292.06
594.634	309.06
594.843	291.06
595.053	275.06
595.262	274.06
595.472	280.06
595.681	263.06
595.89	264.06
596.1	254.06
596.309	233.06
596.518	250.06
596.727	254.06
596.937	251.06
597.146	239.06
597.355	255.06
597.564	257.06
597.774	271.06
597.983	228.06
598.192	228.06
598.401	235.06
598.61	251.06
598.819	240.06
599.028	243.06
599.237	237.06
599.446	222.06
599.655	216.06
599.864	215.06
600.073	224.06
600.282	215.06
600.491	236.06
600.7	246.06
600.909	227.06
601.118	213.06
601.327	219.06
601.536	212.06
601.745	199.06
601.953	218.06
602.162	226.06
602.371	207.06
602.58	208.06
602.789	221.06
602.997	222.06
603.206	229.06
603.415	228.06
603.623	217.06
603.832	217.06
604.041	214.06
604.249	223.06
604.458	205.06
604.666	201.06
604.875	207.06
605.084	226.06
605.292	185.06
605.501	214.06
605.709	216.06
605.918	214.06
606.126	233.06
606.334	218.06
606.543	220.06
606.751	206.06
606.96	223.06
607.168	184.06
607.376	223.06
607.585	213.06
607.793	221.06
608.001	214.06
608.21	215.06
608.418	212.06
608.626	191.06
608.834	200.06
609.043	211.06
609.251	192.06
609.459	211.06
609.667	210.06
609.875	221.06
610.083	206.06
610.291	207.06
610.499	223.06
610.707	217.06
610.916	203.06
611.124	208.06
611.332	229.06
611.54	215.06
611.748	207.06
611.955	201.06
612.163	209.06
612.371	198.06
612.579	194.06
612.787	192.06
612.995	197.06
613.203	199.06
613.411	208.06
613.618	203.06
613.826	205.06
614.034	208.06
614.242	198.06
614.449	201.06
614.657	205.06
614.865	206.06
615.072	202.06
615.28	203.06
615.488	212.06
615.695	212.06
615.903	200.06
616.111	198.06
616.318	204.06
616.526	200.06
616.733	215.06
616.941	214.06
617.148	205.06
617.356	206.06
617.563	195.06
617.771	201.06
617.978	196.06
618.185	203.06
618.393	203.06
618.6	197.06
618.807	199.06
619.015	213.06
619.222	192.06
619.429	213.06
619.637	211.06
619.844	197.06
620.051	194.06
620.258	191.06
620.466	196.06
620.673	190.06
620.88	183.06
621.087	201.06
621.294	204.06
621.501	187.06
621.708	182.06
621.915	194.06
622.122	191.06
622.329	201.06
622.536	190.06
622.743	187.06
622.95	196.06
623.157	195.06
623.364	184.06
623.571	174.06
623.778	177.06
623.985	197.06
624.192	186.06
624.399	180.06
624.606	183.06
624.812	195.06
625.019	167.06
625.226	192.06
625.433	199.06
625.639	194.06
625.846	172.06
626.053	164.06
626.259	180.06
626.466	173.06
626.673	196.06
626.879	184.06
627.086	181.06
627.293	198.06
627.499	185.06
627.706	171.06
627.912	182.06
628.119	175.06
628.325	181.06
628.532	174.06
628.738	180.06
628.945	174.06
629.151	174.06
629.357	176.06
629.564	181.06
629.77	176.06
629.976	166.06
630.183	174.06
630.389	180.06
630.595	170.06
630.802	180.06
631.008	170.06
631.214	177.06
631.42	174.06
631.627	169.06
631.833	163.06
632.039	183.06
632.245	176.06
632.451	167.06
632.657	170.06
632.863	164.06
633.069	166.06
633.275	173.06
633.481	191.06
633.688	171.06
633.893	176.06
634.099	150.06
634.305	155.06
634.511	160.06
634.717	162.06
634.923	157.06
635.129	171.06
635.335	173.06
635.541	154.06
635.747	159.06
635.952	179.06
636.158	168.06
636.364	187.06
636.57	183.06
636.775	172.06
636.981	169.06
637.187	180.06
637.392	166.06
637.598	158.06
637.804	170.06
638.009	160.06
638.215	155.06
638.421	160.06
638.626	176.06
638.832	156.06
639.037	154.06
639.243	154.06
639.448	147.06
639.654	158.06
639.859	139.06
640.065	158.06
640.27	167.06
640.475	157.06
640.681	170.06
640.886	153.06
641.091	166.06
641.297	145.06
641.502	150.06
641.707	156.06
641.913	174.06
642.118	156.06
642.323	159.06
642.528	130.06
642.733	144.06
642.939	168.06
643.144	144.06
643.349	151.06
643.554	162.06
643.759	140.06
643.964	125.06
644.169	141.06
644.374	141.06
644.579	148.06
644.784	155.06
644.989	168.06
645.194	146.06
645.399	138.06
645.604	156.06
645.809	156.06
646.014	152.06
646.219	161.06
646.423	156.06
646.628	145.06
646.833	170.06
647.038	160.06
647.243	153.06
647.447	164.06
647.652	156.06
647.857	166.06
648.062	170.06
648.266	151.06
648.471	148.06
648.676	152.06
648.88	158.06
649.085	155.06
649.289	157.06
649.494	151.06
649.698	165.06
649.903	153.06
650.107	152.06
650.312	139.06
650.516	138.06
650.721	141.06
650.925	146.06
651.13	146.06
651.334	127.06
651.539	132.06
651.743	148.06
651.947	146.06
652.152	144.06
652.356	122.06
652.56	134.06
652.764	140.06
652.969	147.06
653.173	124.06
653.377	134.06
653.581	125.06
653.785	147.06
653.99	126.06
654.194	128.06
654.398	127.06
654.602	143.06
654.806	136.06
655.01	132.06
655.214	128.06
655.418	127.06
655.622	117.06
655.826	122.06
656.03	139.06
656.234	126.06
656.438	138.06
656.642	141.06
656.846	138.06
657.049	126.06
657.253	126.06
657.457	110.06
657.661	124.06
657.865	122.06
658.068	106.06
658.272	104.06
658.476	113.06
658.68	96.06
658.883	106.06
659.087	106.06
659.291	111.06
659.494	99.06
659.698	98.06
659.901	92.06
660.105	107.06
660.309	105.06
660.512	96.06
660.716	97.06
660.919	90.06
661.123	97.06
661.326	90.06
661.53	88.06
661.733	91.06
661.936	80.06
662.14	97.06
662.343	89.06
662.546	98.06
662.75	90.06
662.953	91.06
663.156	86.06
663.36	72.06
663.563	78.06
663.766	83.06
663.969	88.06
664.173	72.06
664.376	88.06
664.579	85.06
664.782	86.06
664.985	94.06
665.188	79.06
665.391	81.06
665.594	94.06
665.797	86.06
666	85.06
666.203	78.06
666.406	92.06
666.609	88.06
666.812	86.06
667.015	91.06
667.218	83.06
667.421	95.06
667.624	75.06
667.827	90.06
668.03	74.06
668.232	79.06
668.435	77.06
668.638	92.06
668.841	80.06
669.043	97.06
669.246	84.06
669.449	76.06
669.651	78.06
669.854	75.06
670.057	86.06
670.259	98.06
670.462	90.06
670.665	79.06
670.867	81.06
671.07	86.06
671.272	98.06
671.475	94.06
671.677	77.06
671.88	85.06
672.082	85.06
672.284	104.06
672.487	80.06
672.689	67.06
672.892	83.06
