Data from 1984.PennyLincolnUp.Lamp.En5.5.200Scan.071819.P1_HRD10591_16-59-42-969.txt Node
Date: Thu Jul 18 16:59:42 EDT 2019
User: cochatt
Spectrometer: HR+D1059
Trigger mode: 1
Integration Time (sec): 1.000000E-1
Scans to average: 1
Electric dark correction enabled: true
Nonlinearity correction enabled: false
Boxcar width: 0
XAxis mode: Wavelengths
Number of Pixels in Spectrum: 2048
>>>>>Begin Spectral Data<<<<<
223.165	-14.62
223.4	-14.62
223.635	-14.62
223.869	-18.62
224.104	-4.62
224.338	-23.62
224.573	-4.62
224.808	-19.62
225.042	-9.62
225.277	-5.62
225.511	1.38
225.746	5.38
225.98	8.38
226.215	1.38
226.449	15.38
226.683	19.38
226.918	19.38
227.152	30.38
227.387	25.38
227.621	30.38
227.856	62.38
228.09	42.38
228.324	48.38
228.559	51.38
228.793	60.38
229.027	86.38
229.262	84.38
229.496	99.38
229.73	113.38
229.964	115.38
230.199	97.38
230.433	103.38
230.667	124.38
230.901	96.38
231.136	97.38
231.37	106.38
231.604	94.38
231.838	100.38
232.072	102.38
232.306	99.38
232.541	123.38
232.775	127.38
233.009	111.38
233.243	119.38
233.477	115.38
233.711	102.38
233.945	102.38
234.179	114.38
234.413	120.38
234.647	103.38
234.881	102.38
235.115	99.38
235.349	101.38
235.583	104.38
235.817	106.38
236.051	112.38
236.285	111.38
236.519	108.38
236.753	106.38
236.987	105.38
237.221	148.38
237.455	172.38
237.689	145.38
237.922	114.38
238.156	108.38
238.39	123.38
238.624	126.38
238.858	111.38
239.091	118.38
239.325	109.38
239.559	115.38
239.793	121.38
240.027	125.38
240.26	123.38
240.494	131.38
240.728	121.38
240.961	131.38
241.195	132.38
241.429	136.38
241.662	128.38
241.896	121.38
242.13	121.38
242.363	104.38
242.597	123.38
242.83	127.38
243.064	131.38
243.298	127.38
243.531	144.38
243.765	129.38
243.998	134.38
244.232	146.38
244.465	151.38
244.699	117.38
244.932	125.38
245.166	126.38
245.399	119.38
245.633	139.38
245.866	137.38
246.099	136.38
246.333	140.38
246.566	131.38
246.8	145.38
247.033	146.38
247.266	141.38
247.5	153.38
247.733	151.38
247.966	154.38
248.2	162.38
248.433	166.38
248.666	147.38
248.899	168.38
249.133	172.38
249.366	181.38
249.599	168.38
249.832	158.38
250.066	163.38
250.299	177.38
250.532	182.38
250.765	200.38
250.998	213.38
251.231	194.38
251.465	184.38
251.698	200.38
251.931	180.38
252.164	167.38
252.397	163.38
252.63	167.38
252.863	183.38
253.096	203.38
253.329	202.38
253.562	188.38
253.795	179.38
254.028	185.38
254.261	193.38
254.494	194.38
254.727	219.38
254.96	223.38
255.193	202.38
255.426	211.38
255.659	203.38
255.892	221.38
256.124	255.38
256.357	278.38
256.59	241.38
256.823	216.38
257.056	202.38
257.289	214.38
257.521	207.38
257.754	196.38
257.987	179.38
258.22	174.38
258.452	178.38
258.685	193.38
258.918	194.38
259.151	183.38
259.383	197.38
259.616	208.38
259.849	187.38
260.081	194.38
260.314	213.38
260.547	218.38
260.779	216.38
261.012	198.38
261.244	202.38
261.477	187.38
261.71	198.38
261.942	207.38
262.175	198.38
262.407	203.38
262.64	206.38
262.872	195.38
263.105	183.38
263.337	197.38
263.57	189.38
263.802	217.38
264.035	205.38
264.267	196.38
264.499	195.38
264.732	186.38
264.964	200.38
265.197	209.38
265.429	201.38
265.661	206.38
265.894	189.38
266.126	203.38
266.358	194.38
266.591	198.38
266.823	206.38
267.055	213.38
267.287	218.38
267.52	199.38
267.752	213.38
267.984	197.38
268.216	215.38
268.448	194.38
268.681	209.38
268.913	216.38
269.145	233.38
269.377	232.38
269.609	237.38
269.841	231.38
270.073	246.38
270.306	245.38
270.538	246.38
270.77	249.38
271.002	238.38
271.234	256.38
271.466	257.38
271.698	265.38
271.93	267.38
272.162	258.38
272.394	264.38
272.626	243.38
272.858	255.38
273.09	248.38
273.322	254.38
273.553	230.38
273.785	260.38
274.017	247.38
274.249	262.38
274.481	245.38
274.713	245.38
274.945	244.38
275.176	231.38
275.408	241.38
275.64	233.38
275.872	246.38
276.104	265.38
276.335	240.38
276.567	245.38
276.799	268.38
277.031	267.38
277.262	272.38
277.494	279.38
277.726	273.38
277.957	251.38
278.189	263.38
278.421	262.38
278.652	266.38
278.884	242.38
279.115	239.38
279.347	261.38
279.579	255.38
279.81	258.38
280.042	269.38
280.273	255.38
280.505	277.38
280.736	263.38
280.968	279.38
281.199	273.38
281.431	259.38
281.662	269.38
281.894	265.38
282.125	249.38
282.356	282.38
282.588	299.38
282.819	273.38
283.051	267.38
283.282	264.38
283.513	277.38
283.745	257.38
283.976	252.38
284.207	273.38
284.439	251.38
284.67	260.38
284.901	276.38
285.132	266.38
285.364	265.38
285.595	266.38
285.826	272.38
286.057	287.38
286.288	279.38
286.52	277.38
286.751	261.38
286.982	277.38
287.213	275.38
287.444	277.38
287.675	273.38
287.906	294.38
288.138	290.38
288.369	268.38
288.6	293.38
288.831	282.38
289.062	280.38
289.293	284.38
289.524	273.38
289.755	261.38
289.986	257.38
290.217	280.38
290.448	268.38
290.679	282.38
290.91	297.38
291.141	283.38
291.371	291.38
291.602	298.38
291.833	285.38
292.064	282.38
292.295	295.38
292.526	288.38
292.757	298.38
292.987	281.38
293.218	285.38
293.449	296.38
293.68	283.38
293.91	283.38
294.141	289.38
294.372	289.38
294.603	282.38
294.833	271.38
295.064	282.38
295.295	295.38
295.525	282.38
295.756	276.38
295.987	297.38
296.217	298.38
296.448	310.38
296.679	289.38
296.909	296.38
297.14	294.38
297.37	295.38
297.601	295.38
297.831	296.38
298.062	309.38
298.292	302.38
298.523	321.38
298.753	298.38
298.984	301.38
299.214	305.38
299.445	305.38
299.675	289.38
299.905	302.38
300.136	302.38
300.366	305.38
300.597	305.38
300.827	302.38
301.057	317.38
301.288	317.38
301.518	321.38
301.748	315.38
301.979	309.38
302.209	318.38
302.439	323.38
302.669	324.38
302.9	331.38
303.13	319.38
303.36	325.38
303.59	320.38
303.82	336.38
304.051	342.38
304.281	335.38
304.511	313.38
304.741	325.38
304.971	322.38
305.201	303.38
305.431	328.38
305.661	329.38
305.891	321.38
306.121	329.38
306.352	327.38
306.582	325.38
306.812	324.38
307.042	309.38
307.272	313.38
307.502	312.38
307.731	322.38
307.961	339.38
308.191	323.38
308.421	341.38
308.651	329.38
308.881	306.38
309.111	315.38
309.341	308.38
309.571	310.38
309.8	338.38
310.03	343.38
310.26	367.38
310.49	349.38
310.72	329.38
310.949	346.38
311.179	362.38
311.409	339.38
311.639	348.38
311.868	342.38
312.098	364.38
312.328	345.38
312.557	351.38
312.787	380.38
313.017	371.38
313.246	360.38
313.476	354.38
313.706	354.38
313.935	360.38
314.165	368.38
314.394	362.38
314.624	350.38
314.853	350.38
315.083	358.38
315.312	340.38
315.542	351.38
315.771	365.38
316.001	359.38
316.23	356.38
316.46	350.38
316.689	342.38
316.919	362.38
317.148	353.38
317.377	360.38
317.607	360.38
317.836	349.38
318.065	351.38
318.295	341.38
318.524	366.38
318.753	347.38
318.983	343.38
319.212	362.38
319.441	373.38
319.67	350.38
319.9	339.38
320.129	359.38
320.358	351.38
320.587	353.38
320.816	352.38
321.046	374.38
321.275	369.38
321.504	355.38
321.733	375.38
321.962	365.38
322.191	375.38
322.42	372.38
322.649	378.38
322.878	408.38
323.108	392.38
323.337	409.38
323.566	409.38
323.795	441.38
324.024	459.38
324.253	548.38
324.482	743.38
324.71	1060.38
324.939	1482.38
325.168	1247.38
325.397	693.38
325.626	545.38
325.855	467.38
326.084	446.38
326.313	449.38
326.542	436.38
326.77	468.38
326.999	531.38
327.228	701.38
327.457	986.38
327.686	1169.38
327.914	823.38
328.143	599.38
328.372	552.38
328.6	533.38
328.829	491.38
329.058	486.38
329.287	505.38
329.515	478.38
329.744	491.38
329.972	532.38
330.201	581.38
330.43	606.38
330.658	592.38
330.887	552.38
331.115	511.38
331.344	465.38
331.572	472.38
331.801	455.38
332.03	452.38
332.258	437.38
332.486	443.38
332.715	450.38
332.943	460.38
333.172	485.38
333.4	473.38
333.629	527.38
333.857	547.38
334.085	577.38
334.314	631.38
334.542	701.38
334.771	706.38
334.999	578.38
335.227	505.38
335.455	507.38
335.684	477.38
335.912	477.38
336.14	462.38
336.369	434.38
336.597	437.38
336.825	416.38
337.053	452.38
337.281	430.38
337.51	429.38
337.738	414.38
337.966	424.38
338.194	429.38
338.422	405.38
338.65	416.38
338.878	421.38
339.106	408.38
339.334	416.38
339.562	419.38
339.79	391.38
340.018	384.38
340.246	383.38
340.474	389.38
340.702	390.38
340.93	399.38
341.158	371.38
341.386	390.38
341.614	393.38
341.842	403.38
342.07	405.38
342.298	377.38
342.526	395.38
342.754	389.38
342.981	389.38
343.209	391.38
343.437	389.38
343.665	391.38
343.893	421.38
344.12	447.38
344.348	442.38
344.576	428.38
344.804	409.38
345.031	421.38
345.259	412.38
345.487	404.38
345.714	375.38
345.942	383.38
346.17	377.38
346.397	380.38
346.625	381.38
346.853	388.38
347.08	366.38
347.308	373.38
347.535	369.38
347.763	383.38
347.99	374.38
348.218	364.38
348.445	374.38
348.673	375.38
348.9	373.38
349.128	381.38
349.355	364.38
349.583	374.38
349.81	374.38
350.037	349.38
350.265	347.38
350.492	355.38
350.72	383.38
350.947	371.38
351.174	372.38
351.402	389.38
351.629	377.38
351.856	370.38
352.083	353.38
352.311	373.38
352.538	378.38
352.765	375.38
352.992	382.38
353.22	354.38
353.447	368.38
353.674	373.38
353.901	359.38
354.128	331.38
354.355	365.38
354.583	359.38
354.81	359.38
355.037	335.38
355.264	361.38
355.491	357.38
355.718	350.38
355.945	363.38
356.172	360.38
356.399	359.38
356.626	350.38
356.853	348.38
357.08	358.38
357.307	344.38
357.534	355.38
357.761	363.38
357.988	369.38
358.215	347.38
358.441	358.38
358.668	358.38
358.895	358.38
359.122	368.38
359.349	358.38
359.576	358.38
359.802	381.38
360.029	381.38
360.256	384.38
360.483	373.38
360.709	365.38
360.936	375.38
361.163	360.38
361.39	346.38
361.616	367.38
361.843	366.38
362.07	376.38
362.296	377.38
362.523	358.38
362.749	361.38
362.976	356.38
363.203	373.38
363.429	344.38
363.656	349.38
363.882	351.38
364.109	345.38
364.335	325.38
364.562	357.38
364.788	368.38
365.015	352.38
365.241	362.38
365.468	363.38
365.694	353.38
365.92	350.38
366.147	354.38
366.373	344.38
366.599	334.38
366.826	351.38
367.052	350.38
367.278	349.38
367.505	343.38
367.731	340.38
367.957	351.38
368.184	354.38
368.41	348.38
368.636	390.38
368.862	377.38
369.089	361.38
369.315	357.38
369.541	351.38
369.767	369.38
369.993	371.38
370.219	342.38
370.445	361.38
370.672	377.38
370.898	352.38
371.124	367.38
371.35	365.38
371.576	371.38
371.802	345.38
372.028	349.38
372.254	375.38
372.48	357.38
372.706	373.38
372.932	377.38
373.158	373.38
373.384	369.38
373.61	367.38
373.835	348.38
374.061	365.38
374.287	409.38
374.513	375.38
374.739	385.38
374.965	386.38
375.191	387.38
375.416	394.38
375.642	389.38
375.868	375.38
376.094	375.38
376.319	370.38
376.545	369.38
376.771	362.38
376.997	344.38
377.222	355.38
377.448	372.38
377.674	368.38
377.899	363.38
378.125	358.38
378.35	358.38
378.576	358.38
378.802	362.38
379.027	356.38
379.253	337.38
379.478	337.38
379.704	337.38
379.929	345.38
380.155	360.38
380.38	350.38
380.606	366.38
380.831	363.38
381.057	359.38
381.282	364.38
381.507	353.38
381.733	358.38
381.958	360.38
382.184	381.38
382.409	367.38
382.634	366.38
382.86	352.38
383.085	369.38
383.31	399.38
383.535	379.38
383.761	388.38
383.986	383.38
384.211	378.38
384.436	390.38
384.662	399.38
384.887	399.38
385.112	431.38
385.337	409.38
385.562	417.38
385.787	410.38
386.013	422.38
386.238	398.38
386.463	425.38
386.688	415.38
386.913	409.38
387.138	400.38
387.363	408.38
387.588	411.38
387.813	413.38
388.038	391.38
388.263	396.38
388.488	395.38
388.713	391.38
388.938	391.38
389.163	412.38
389.387	413.38
389.612	409.38
389.837	398.38
390.062	387.38
390.287	401.38
390.512	392.38
390.736	395.38
390.961	409.38
391.186	420.38
391.411	416.38
391.636	414.38
391.86	439.38
392.085	433.38
392.31	429.38
392.534	438.38
392.759	419.38
392.984	413.38
393.208	407.38
393.433	415.38
393.658	412.38
393.882	416.38
394.107	411.38
394.331	399.38
394.556	436.38
394.78	421.38
395.005	413.38
395.229	406.38
395.454	435.38
395.678	437.38
395.903	443.38
396.127	444.38
396.352	453.38
396.576	445.38
396.801	416.38
397.025	418.38
397.249	434.38
397.474	450.38
397.698	455.38
397.922	424.38
398.147	444.38
398.371	450.38
398.595	445.38
398.82	456.38
399.044	498.38
399.268	521.38
399.492	558.38
399.717	643.38
399.941	649.38
400.165	613.38
400.389	621.38
400.613	573.38
400.837	493.38
401.062	497.38
401.286	494.38
401.51	487.38
401.734	487.38
401.958	481.38
402.182	493.38
402.406	478.38
402.63	505.38
402.854	505.38
403.078	513.38
403.302	523.38
403.526	498.38
403.75	508.38
403.974	514.38
404.198	529.38
404.422	528.38
404.645	521.38
404.869	536.38
405.093	569.38
405.317	610.38
405.541	616.38
405.765	591.38
405.988	539.38
406.212	538.38
406.436	548.38
406.66	534.38
406.883	543.38
407.107	571.38
407.331	599.38
407.555	653.38
407.778	636.38
408.002	591.38
408.226	569.38
408.449	562.38
408.673	538.38
408.896	562.38
409.12	592.38
409.344	532.38
409.567	538.38
409.791	511.38
410.014	500.38
410.238	513.38
410.461	491.38
410.685	494.38
410.908	499.38
411.132	526.38
411.355	536.38
411.578	513.38
411.802	520.38
412.025	479.38
412.249	517.38
412.472	563.38
412.695	613.38
412.919	583.38
413.142	546.38
413.365	509.38
413.589	478.38
413.812	510.38
414.035	489.38
414.258	487.38
414.482	457.38
414.705	490.38
414.928	478.38
415.151	496.38
415.374	491.38
415.597	476.38
415.821	443.38
416.044	467.38
416.267	454.38
416.49	459.38
416.713	467.38
416.936	465.38
417.159	470.38
417.382	462.38
417.605	486.38
417.828	483.38
418.051	460.38
418.274	499.38
418.497	487.38
418.72	491.38
418.943	479.38
419.166	500.38
419.389	519.38
419.611	521.38
419.834	531.38
420.057	514.38
420.28	543.38
420.503	535.38
420.726	536.38
420.948	539.38
421.171	510.38
421.394	522.38
421.617	486.38
421.839	485.38
422.062	490.38
422.285	505.38
422.507	520.38
422.73	549.38
422.953	542.38
423.175	488.38
423.398	507.38
423.621	490.38
423.843	533.38
424.066	505.38
424.288	493.38
424.511	521.38
424.733	561.38
424.956	616.38
425.178	598.38
425.401	580.38
425.623	563.38
425.846	528.38
426.068	484.38
426.291	478.38
426.513	482.38
426.735	500.38
426.958	511.38
427.18	563.38
427.402	641.38
427.625	677.38
427.847	609.38
428.069	582.38
428.292	527.38
428.514	457.38
428.736	470.38
428.958	467.38
429.181	446.38
429.403	459.38
429.625	433.38
429.847	470.38
430.069	487.38
430.292	509.38
430.514	440.38
430.736	428.38
430.958	436.38
431.18	416.38
431.402	406.38
431.624	407.38
431.846	432.38
432.068	424.38
432.29	439.38
432.512	431.38
432.734	417.38
432.956	458.38
433.178	440.38
433.4	459.38
433.622	421.38
433.844	451.38
434.066	447.38
434.287	424.38
434.509	456.38
434.731	453.38
434.953	458.38
435.175	476.38
435.397	478.38
435.618	480.38
435.84	495.38
436.062	540.38
436.284	585.38
436.505	509.38
436.727	493.38
436.949	451.38
437.17	443.38
437.392	441.38
437.614	453.38
437.835	451.38
438.057	513.38
438.278	573.38
438.5	568.38
438.721	605.38
438.943	583.38
439.165	479.38
439.386	447.38
439.608	476.38
439.829	465.38
440.05	481.38
440.272	514.38
440.493	483.38
440.715	452.38
440.936	450.38
441.158	469.38
441.379	456.38
441.6	484.38
441.822	484.38
442.043	532.38
442.264	541.38
442.486	563.38
442.707	490.38
442.928	487.38
443.149	496.38
443.371	497.38
443.592	518.38
443.813	567.38
444.034	640.38
444.255	553.38
444.476	513.38
444.698	534.38
444.919	543.38
445.14	616.38
445.361	550.38
445.582	502.38
445.803	536.38
446.024	571.38
446.245	585.38
446.466	543.38
446.687	474.38
446.908	458.38
447.129	447.38
447.35	444.38
447.571	433.38
447.792	410.38
448.013	415.38
448.234	450.38
448.455	490.38
448.675	539.38
448.896	574.38
449.117	539.38
449.338	506.38
449.559	547.38
449.779	635.38
450	478.38
450.221	449.38
450.442	445.38
450.662	415.38
450.883	431.38
451.104	433.38
451.324	412.38
451.545	381.38
451.766	397.38
451.986	394.38
452.207	389.38
452.428	391.38
452.648	411.38
452.869	396.38
453.089	407.38
453.31	387.38
453.53	401.38
453.751	393.38
453.971	402.38
454.192	385.38
454.412	391.38
454.633	381.38
454.853	374.38
455.073	387.38
455.294	415.38
455.514	446.38
455.734	427.38
455.955	381.38
456.175	385.38
456.395	366.38
456.616	363.38
456.836	369.38
457.056	363.38
457.276	367.38
457.497	371.38
457.717	369.38
457.937	367.38
458.157	395.38
458.377	383.38
458.598	404.38
458.818	410.38
459.038	481.38
459.258	491.38
459.478	453.38
459.698	426.38
459.918	453.38
460.138	458.38
460.358	475.38
460.578	474.38
460.798	481.38
461.018	470.38
461.238	473.38
461.458	460.38
461.678	461.38
461.898	474.38
462.118	485.38
462.338	483.38
462.558	511.38
462.777	487.38
462.997	528.38
463.217	554.38
463.437	537.38
463.657	535.38
463.876	511.38
464.096	522.38
464.316	537.38
464.536	539.38
464.755	509.38
464.975	511.38
465.195	520.38
465.414	539.38
465.634	459.38
465.854	452.38
466.073	449.38
466.293	431.38
466.512	435.38
466.732	402.38
466.951	399.38
467.171	415.38
467.391	411.38
467.61	431.38
467.829	434.38
468.049	422.38
468.268	448.38
468.488	439.38
468.707	411.38
468.927	420.38
469.146	395.38
469.365	405.38
469.585	401.38
469.804	401.38
470.023	440.38
470.243	445.38
470.462	438.38
470.681	445.38
470.901	449.38
471.12	445.38
471.339	422.38
471.558	424.38
471.777	420.38
471.997	430.38
472.216	433.38
472.435	524.38
472.654	497.38
472.873	465.38
473.092	447.38
473.311	424.38
473.53	418.38
473.749	423.38
473.968	457.38
474.187	459.38
474.406	512.38
474.625	460.38
474.844	422.38
475.063	424.38
475.282	413.38
475.501	404.38
475.72	419.38
475.939	417.38
476.158	416.38
476.377	424.38
476.596	414.38
476.814	427.38
477.033	423.38
477.252	417.38
477.471	451.38
477.69	455.38
477.908	453.38
478.127	468.38
478.346	446.38
478.564	477.38
478.783	468.38
479.002	508.38
479.22	493.38
479.439	470.38
479.658	480.38
479.876	495.38
480.095	502.38
480.313	535.38
480.532	533.38
480.751	531.38
480.969	539.38
481.188	701.38
481.406	765.38
481.624	601.38
481.843	544.38
482.061	514.38
482.28	489.38
482.498	497.38
482.717	477.38
482.935	473.38
483.153	471.38
483.372	485.38
483.59	479.38
483.808	457.38
484.027	459.38
484.245	487.38
484.463	493.38
484.681	496.38
484.9	502.38
485.118	482.38
485.336	467.38
485.554	487.38
485.772	499.38
485.99	486.38
486.209	509.38
486.427	498.38
486.645	481.38
486.863	529.38
487.081	499.38
487.299	504.38
487.517	484.38
487.735	495.38
487.953	479.38
488.171	511.38
488.389	485.38
488.607	483.38
488.825	516.38
489.043	498.38
489.261	500.38
489.479	485.38
489.696	497.38
489.914	510.38
490.132	517.38
490.35	525.38
490.568	532.38
490.786	537.38
491.003	545.38
491.221	545.38
491.439	542.38
491.657	583.38
491.874	560.38
492.092	595.38
492.31	553.38
492.527	601.38
492.745	584.38
492.963	600.38
493.18	607.38
493.398	602.38
493.615	597.38
493.833	600.38
494.05	578.38
494.268	567.38
494.485	589.38
494.703	594.38
494.92	584.38
495.138	584.38
495.355	580.38
495.573	589.38
495.79	573.38
496.008	568.38
496.225	579.38
496.442	595.38
496.66	569.38
496.877	589.38
497.094	592.38
497.312	571.38
497.529	624.38
497.746	611.38
497.963	618.38
498.181	654.38
498.398	656.38
498.615	704.38
498.832	707.38
499.049	746.38
499.267	783.38
499.484	793.38
499.701	858.38
499.918	936.38
500.135	1010.38
500.352	1085.38
500.569	1112.38
500.786	1130.38
501.003	1101.38
501.22	1016.38
501.437	953.38
501.654	875.38
501.871	832.38
502.088	774.38
502.305	739.38
502.522	723.38
502.739	712.38
502.956	666.38
503.172	656.38
503.389	582.38
503.606	584.38
503.823	611.38
504.04	615.38
504.256	622.38
504.473	608.38
504.69	605.38
504.907	611.38
505.123	577.38
505.34	565.38
505.557	557.38
505.773	540.38
505.99	520.38
506.207	531.38
506.423	529.38
506.64	516.38
506.856	517.38
507.073	524.38
507.289	499.38
507.506	499.38
507.722	503.38
507.939	518.38
508.155	528.38
508.372	512.38
508.588	491.38
508.805	497.38
509.021	476.38
509.238	495.38
509.454	491.38
509.67	499.38
509.887	498.38
510.103	500.38
510.319	497.38
510.536	572.38
510.752	839.38
510.968	692.38
511.184	496.38
511.401	495.38
511.617	513.38
511.833	487.38
512.049	500.38
512.265	509.38
512.481	498.38
512.698	481.38
512.914	453.38
513.13	473.38
513.346	485.38
513.562	461.38
513.778	470.38
513.994	480.38
514.21	470.38
514.426	485.38
514.642	515.38
514.858	522.38
515.074	553.38
515.29	612.38
515.506	825.38
515.721	703.38
515.937	566.38
516.153	529.38
516.369	536.38
516.585	528.38
516.801	527.38
517.016	540.38
517.232	529.38
517.448	578.38
517.664	567.38
517.879	589.38
518.095	572.38
518.311	563.38
518.527	557.38
518.742	538.38
518.958	494.38
519.173	497.38
519.389	504.38
519.605	494.38
519.82	460.38
520.036	477.38
520.251	497.38
520.467	499.38
520.682	478.38
520.898	502.38
521.113	502.38
521.329	536.38
521.544	558.38
521.76	666.38
521.975	1006.38
522.19	985.38
522.406	593.38
522.621	495.38
522.836	465.38
523.052	463.38
523.267	436.38
523.482	431.38
523.698	416.38
523.913	432.38
524.128	433.38
524.343	436.38
524.559	430.38
524.774	403.38
524.989	416.38
525.204	413.38
525.419	416.38
525.634	396.38
525.849	418.38
526.064	415.38
526.28	410.38
526.495	397.38
526.71	403.38
526.925	396.38
527.14	424.38
527.355	401.38
527.57	407.38
527.785	392.38
527.999	386.38
528.214	400.38
528.429	388.38
528.644	417.38
528.859	417.38
529.074	401.38
529.289	406.38
529.503	448.38
529.718	441.38
529.933	415.38
530.148	408.38
530.363	403.38
530.577	401.38
530.792	405.38
531.007	382.38
531.221	400.38
531.436	415.38
531.651	405.38
531.865	388.38
532.08	389.38
532.295	403.38
532.509	384.38
532.724	404.38
532.938	410.38
533.153	385.38
533.367	390.38
533.582	390.38
533.796	401.38
534.011	422.38
534.225	395.38
534.44	398.38
534.654	401.38
534.868	377.38
535.083	395.38
535.297	386.38
535.511	374.38
535.726	381.38
535.94	375.38
536.154	377.38
536.369	396.38
536.583	373.38
536.797	357.38
537.011	377.38
537.225	383.38
537.44	366.38
537.654	368.38
537.868	370.38
538.082	361.38
538.296	372.38
538.51	373.38
538.724	347.38
538.938	370.38
539.153	385.38
539.367	368.38
539.581	377.38
539.795	356.38
540.009	349.38
540.222	387.38
540.436	371.38
540.65	357.38
540.864	359.38
541.078	377.38
541.292	393.38
541.506	383.38
541.72	382.38
541.934	371.38
542.147	369.38
542.361	362.38
542.575	354.38
542.789	385.38
543.002	385.38
543.216	384.38
543.43	377.38
543.644	379.38
543.857	360.38
544.071	367.38
544.285	377.38
544.498	374.38
544.712	349.38
544.925	375.38
545.139	375.38
545.352	378.38
545.566	360.38
545.779	383.38
545.993	373.38
546.206	357.38
546.42	376.38
546.633	381.38
546.847	376.38
547.06	372.38
547.274	357.38
547.487	373.38
547.7	375.38
547.914	366.38
548.127	357.38
548.34	365.38
548.554	374.38
548.767	367.38
548.98	365.38
549.193	354.38
549.407	375.38
549.62	378.38
549.833	378.38
550.046	379.38
550.259	377.38
550.473	377.38
550.686	365.38
550.899	367.38
551.112	377.38
551.325	359.38
551.538	358.38
551.751	357.38
551.964	366.38
552.177	383.38
552.39	367.38
552.603	397.38
552.816	376.38
553.029	379.38
553.242	396.38
553.455	397.38
553.667	418.38
553.88	374.38
554.093	377.38
554.306	408.38
554.519	375.38
554.732	370.38
554.944	354.38
555.157	369.38
555.37	362.38
555.583	363.38
555.795	355.38
556.008	347.38
556.221	340.38
556.433	318.38
556.646	335.38
556.859	329.38
557.071	332.38
557.284	323.38
557.496	331.38
557.709	324.38
557.921	325.38
558.134	329.38
558.346	325.38
558.559	330.38
558.771	352.38
558.984	317.38
559.196	349.38
559.409	321.38
559.621	310.38
559.833	317.38
560.046	301.38
560.258	315.38
560.47	330.38
560.683	344.38
560.895	328.38
561.107	314.38
561.32	302.38
561.532	297.38
561.744	339.38
561.956	322.38
562.168	309.38
562.381	342.38
562.593	318.38
562.805	318.38
563.017	313.38
563.229	333.38
563.441	326.38
563.653	329.38
563.865	334.38
564.077	319.38
564.289	332.38
564.501	338.38
564.713	331.38
564.925	348.38
565.137	366.38
565.349	363.38
565.561	364.38
565.773	394.38
565.985	386.38
566.197	389.38
566.408	414.38
566.62	464.38
566.832	471.38
567.044	473.38
567.255	477.38
567.467	471.38
567.679	504.38
567.891	532.38
568.102	510.38
568.314	494.38
568.526	450.38
568.737	434.38
568.949	443.38
569.161	389.38
569.372	367.38
569.584	358.38
569.795	356.38
570.007	346.38
570.218	358.38
570.43	379.38
570.641	353.38
570.853	325.38
571.064	330.38
571.276	344.38
571.487	347.38
571.698	309.38
571.91	315.38
572.121	323.38
572.333	328.38
572.544	307.38
572.755	293.38
572.966	305.38
573.178	294.38
573.389	294.38
573.6	283.38
573.811	280.38
574.023	292.38
574.234	272.38
574.445	299.38
574.656	293.38
574.867	271.38
575.078	287.38
575.289	293.38
575.501	265.38
575.712	304.38
575.923	277.38
576.134	280.38
576.345	267.38
576.556	267.38
576.767	291.38
576.978	272.38
577.188	271.38
577.399	289.38
577.61	267.38
577.821	263.38
578.032	276.38
578.243	282.38
578.454	408.38
578.665	327.38
578.875	265.38
579.086	252.38
579.297	278.38
579.508	270.38
579.718	260.38
579.929	277.38
580.14	267.38
580.35	251.38
580.561	257.38
580.772	242.38
580.982	250.38
581.193	260.38
581.403	265.38
581.614	257.38
581.825	260.38
582.035	255.38
582.246	265.38
582.456	228.38
582.667	272.38
582.877	251.38
583.087	266.38
583.298	240.38
583.508	262.38
583.719	253.38
583.929	272.38
584.139	264.38
584.35	253.38
584.56	257.38
584.77	235.38
584.981	260.38
585.191	229.38
585.401	247.38
585.611	252.38
585.821	273.38
586.032	268.38
586.242	246.38
586.452	253.38
586.662	257.38
586.872	258.38
587.082	234.38
587.292	232.38
587.502	262.38
587.713	237.38
587.923	257.38
588.133	253.38
588.343	237.38
588.553	244.38
588.762	265.38
588.972	250.38
589.182	249.38
589.392	248.38
589.602	244.38
589.812	251.38
590.022	249.38
590.232	260.38
590.441	251.38
590.651	251.38
590.861	243.38
591.071	248.38
591.281	250.38
591.49	256.38
591.7	257.38
591.91	247.38
592.119	266.38
592.329	257.38
592.539	270.38
592.748	292.38
592.958	285.38
593.167	293.38
593.377	283.38
593.587	288.38
593.796	304.38
594.006	303.38
594.215	295.38
594.424	294.38
594.634	283.38
594.843	255.38
595.053	268.38
595.262	265.38
595.472	259.38
595.681	255.38
595.89	255.38
596.1	247.38
596.309	261.38
596.518	246.38
596.727	243.38
596.937	248.38
597.146	239.38
597.355	238.38
597.564	225.38
597.774	237.38
597.983	228.38
598.192	250.38
598.401	226.38
598.61	237.38
598.819	223.38
599.028	237.38
599.237	234.38
599.446	225.38
599.655	213.38
599.864	227.38
600.073	221.38
600.282	226.38
600.491	212.38
600.7	223.38
600.909	228.38
601.118	223.38
601.327	209.38
601.536	214.38
601.745	234.38
601.953	227.38
602.162	228.38
602.371	226.38
602.58	220.38
602.789	216.38
602.997	231.38
603.206	215.38
603.415	218.38
603.623	205.38
603.832	211.38
604.041	200.38
604.249	213.38
604.458	211.38
604.666	224.38
604.875	211.38
605.084	204.38
605.292	213.38
605.501	206.38
605.709	224.38
605.918	220.38
606.126	209.38
606.334	211.38
606.543	218.38
606.751	218.38
606.96	218.38
607.168	199.38
607.376	201.38
607.585	205.38
607.793	215.38
608.001	203.38
608.21	189.38
608.418	201.38
608.626	196.38
608.834	214.38
609.043	198.38
609.251	202.38
609.459	210.38
609.667	208.38
609.875	208.38
610.083	213.38
610.291	193.38
610.499	213.38
610.707	209.38
610.916	213.38
611.124	210.38
611.332	213.38
611.54	214.38
611.748	215.38
611.955	217.38
612.163	192.38
612.371	203.38
612.579	202.38
612.787	198.38
612.995	209.38
613.203	203.38
613.411	195.38
613.618	198.38
613.826	200.38
614.034	212.38
614.242	184.38
614.449	212.38
614.657	201.38
614.865	203.38
615.072	202.38
615.28	201.38
615.488	193.38
615.695	222.38
615.903	211.38
616.111	198.38
616.318	214.38
616.526	203.38
616.733	207.38
616.941	194.38
617.148	223.38
617.356	201.38
617.563	205.38
617.771	207.38
617.978	211.38
618.185	215.38
618.393	204.38
618.6	203.38
618.807	209.38
619.015	194.38
619.222	207.38
619.429	185.38
619.637	185.38
619.844	190.38
620.051	195.38
620.258	193.38
620.466	169.38
620.673	186.38
620.88	179.38
621.087	193.38
621.294	185.38
621.501	171.38
621.708	188.38
621.915	192.38
622.122	195.38
622.329	201.38
622.536	191.38
622.743	186.38
622.95	184.38
623.157	184.38
623.364	190.38
623.571	187.38
623.778	183.38
623.985	197.38
624.192	186.38
624.399	175.38
624.606	177.38
624.812	179.38
625.019	185.38
625.226	192.38
625.433	187.38
625.639	179.38
625.846	177.38
626.053	180.38
626.259	170.38
626.466	208.38
626.673	176.38
626.879	185.38
627.086	177.38
627.293	179.38
627.499	173.38
627.706	173.38
627.912	172.38
628.119	168.38
628.325	177.38
628.532	179.38
628.738	165.38
628.945	171.38
629.151	160.38
629.357	170.38
629.564	174.38
629.77	177.38
629.976	158.38
630.183	185.38
630.389	179.38
630.595	165.38
630.802	162.38
631.008	170.38
631.214	154.38
631.42	174.38
631.627	154.38
631.833	159.38
632.039	177.38
632.245	169.38
632.451	160.38
632.657	169.38
632.863	166.38
633.069	166.38
633.275	171.38
633.481	168.38
633.688	161.38
633.893	166.38
634.099	164.38
634.305	172.38
634.511	153.38
634.717	177.38
634.923	162.38
635.129	158.38
635.335	169.38
635.541	158.38
635.747	145.38
635.952	163.38
636.158	153.38
636.364	162.38
636.57	164.38
636.775	165.38
636.981	155.38
637.187	167.38
637.392	157.38
637.598	153.38
637.804	151.38
638.009	152.38
638.215	147.38
638.421	149.38
638.626	151.38
638.832	166.38
639.037	139.38
639.243	163.38
639.448	168.38
639.654	140.38
639.859	145.38
640.065	149.38
640.27	152.38
640.475	162.38
640.681	155.38
640.886	149.38
641.091	157.38
641.297	155.38
641.502	150.38
641.707	150.38
641.913	152.38
642.118	145.38
642.323	146.38
642.528	143.38
642.733	131.38
642.939	137.38
643.144	139.38
643.349	144.38
643.554	140.38
643.759	150.38
643.964	142.38
644.169	151.38
644.374	137.38
644.579	142.38
644.784	133.38
644.989	145.38
645.194	145.38
645.399	144.38
645.604	137.38
645.809	157.38
646.014	145.38
646.219	133.38
646.423	143.38
646.628	136.38
646.833	146.38
647.038	140.38
647.243	157.38
647.447	152.38
647.652	155.38
647.857	129.38
648.062	143.38
648.266	167.38
648.471	161.38
648.676	159.38
648.88	156.38
649.085	142.38
649.289	153.38
649.494	153.38
649.698	155.38
649.903	141.38
650.107	145.38
650.312	152.38
650.516	144.38
650.721	148.38
650.925	122.38
651.13	138.38
651.334	128.38
651.539	134.38
651.743	153.38
651.947	138.38
652.152	128.38
652.356	145.38
652.56	130.38
652.764	125.38
652.969	129.38
653.173	133.38
653.377	134.38
653.581	127.38
653.785	147.38
653.99	118.38
654.194	123.38
654.398	131.38
654.602	123.38
654.806	133.38
655.01	130.38
655.214	136.38
655.418	125.38
655.622	111.38
655.826	131.38
656.03	125.38
656.234	118.38
656.438	139.38
656.642	139.38
656.846	133.38
657.049	119.38
657.253	109.38
657.457	119.38
657.661	117.38
657.865	103.38
658.068	85.38
658.272	104.38
658.476	112.38
658.68	98.38
658.883	93.38
659.087	87.38
659.291	100.38
659.494	101.38
659.698	81.38
659.901	84.38
660.105	98.38
660.309	85.38
660.512	76.38
660.716	96.38
660.919	90.38
661.123	95.38
661.326	106.38
661.53	73.38
661.733	99.38
661.936	90.38
662.14	79.38
662.343	93.38
662.546	86.38
662.75	92.38
662.953	108.38
663.156	77.38
663.36	97.38
663.563	98.38
663.766	84.38
663.969	61.38
664.173	70.38
664.376	80.38
664.579	93.38
664.782	85.38
664.985	68.38
665.188	68.38
665.391	84.38
665.594	79.38
665.797	74.38
666	75.38
666.203	76.38
666.406	74.38
666.609	99.38
666.812	81.38
667.015	80.38
667.218	84.38
667.421	74.38
667.624	77.38
667.827	90.38
668.03	91.38
668.232	69.38
668.435	88.38
668.638	73.38
668.841	88.38
669.043	86.38
669.246	64.38
669.449	51.38
669.651	74.38
669.854	90.38
670.057	101.38
670.259	72.38
670.462	78.38
670.665	66.38
670.867	78.38
671.07	65.38
671.272	99.38
671.475	85.38
671.677	86.38
671.88	96.38
672.082	72.38
672.284	75.38
672.487	76.38
672.689	62.38
672.892	77.38
