Data from 1984.PennyLincolnUp.Lamp.En5.5.200Scan.071819.P1_HRD10591_17-00-09-969.txt Node
Date: Thu Jul 18 17:00:09 EDT 2019
User: cochatt
Spectrometer: HR+D1059
Trigger mode: 1
Integration Time (sec): 1.000000E-1
Scans to average: 1
Electric dark correction enabled: true
Nonlinearity correction enabled: false
Boxcar width: 0
XAxis mode: Wavelengths
Number of Pixels in Spectrum: 2048
>>>>>Begin Spectral Data<<<<<
223.165	-23.31
223.4	-23.31
223.635	-23.31
223.869	4.69
224.104	-13.31
224.338	-7.31
224.573	-5.31
224.808	-10.31
225.042	-4.31
225.277	-4.31
225.511	-9.31
225.746	-9.31
225.98	-15.31
226.215	12.69
226.449	8.69
226.683	23.69
226.918	23.69
227.152	28.69
227.387	31.69
227.621	53.69
227.856	52.69
228.09	52.69
228.324	39.69
228.559	53.69
228.793	62.69
229.027	84.69
229.262	89.69
229.496	94.69
229.73	111.69
229.964	108.69
230.199	104.69
230.433	107.69
230.667	94.69
230.901	93.69
231.136	92.69
231.37	111.69
231.604	102.69
231.838	85.69
232.072	118.69
232.306	101.69
232.541	97.69
232.775	100.69
233.009	99.69
233.243	99.69
233.477	116.69
233.711	114.69
233.945	100.69
234.179	113.69
234.413	126.69
234.647	115.69
234.881	126.69
235.115	109.69
235.349	118.69
235.583	131.69
235.817	113.69
236.051	124.69
236.285	127.69
236.519	115.69
236.753	118.69
236.987	125.69
237.221	137.69
237.455	169.69
237.689	154.69
237.922	120.69
238.156	124.69
238.39	108.69
238.624	125.69
238.858	131.69
239.091	129.69
239.325	147.69
239.559	134.69
239.793	128.69
240.027	108.69
240.26	134.69
240.494	126.69
240.728	148.69
240.961	137.69
241.195	132.69
241.429	127.69
241.662	142.69
241.896	131.69
242.13	148.69
242.363	130.69
242.597	131.69
242.83	139.69
243.064	135.69
243.298	140.69
243.531	136.69
243.765	131.69
243.998	140.69
244.232	124.69
244.465	142.69
244.699	130.69
244.932	143.69
245.166	133.69
245.399	150.69
245.633	150.69
245.866	158.69
246.099	138.69
246.333	149.69
246.566	149.69
246.8	147.69
247.033	150.69
247.266	139.69
247.5	153.69
247.733	156.69
247.966	145.69
248.2	162.69
248.433	146.69
248.666	160.69
248.899	169.69
249.133	184.69
249.366	178.69
249.599	166.69
249.832	180.69
250.066	158.69
250.299	164.69
250.532	227.69
250.765	223.69
250.998	236.69
251.231	204.69
251.465	184.69
251.698	173.69
251.931	173.69
252.164	192.69
252.397	182.69
252.63	175.69
252.863	206.69
253.096	171.69
253.329	191.69
253.562	202.69
253.795	179.69
254.028	210.69
254.261	198.69
254.494	195.69
254.727	199.69
254.96	222.69
255.193	218.69
255.426	211.69
255.659	215.69
255.892	260.69
256.124	290.69
256.357	263.69
256.59	248.69
256.823	223.69
257.056	218.69
257.289	205.69
257.521	195.69
257.754	192.69
257.987	200.69
258.22	200.69
258.452	208.69
258.685	197.69
258.918	200.69
259.151	196.69
259.383	195.69
259.616	210.69
259.849	205.69
260.081	216.69
260.314	210.69
260.547	208.69
260.779	219.69
261.012	220.69
261.244	202.69
261.477	213.69
261.71	228.69
261.942	210.69
262.175	203.69
262.407	215.69
262.64	190.69
262.872	212.69
263.105	182.69
263.337	197.69
263.57	203.69
263.802	209.69
264.035	199.69
264.267	205.69
264.499	201.69
264.732	205.69
264.964	218.69
265.197	207.69
265.429	215.69
265.661	222.69
265.894	206.69
266.126	208.69
266.358	192.69
266.591	201.69
266.823	218.69
267.055	219.69
267.287	208.69
267.52	222.69
267.752	221.69
267.984	227.69
268.216	231.69
268.448	213.69
268.681	220.69
268.913	223.69
269.145	249.69
269.377	262.69
269.609	239.69
269.841	231.69
270.073	248.69
270.306	258.69
270.538	272.69
270.77	276.69
271.002	261.69
271.234	251.69
271.466	264.69
271.698	271.69
271.93	279.69
272.162	276.69
272.394	270.69
272.626	235.69
272.858	261.69
273.09	257.69
273.322	239.69
273.553	249.69
273.785	250.69
274.017	237.69
274.249	248.69
274.481	247.69
274.713	252.69
274.945	245.69
275.176	262.69
275.408	255.69
275.64	262.69
275.872	262.69
276.104	256.69
276.335	264.69
276.567	259.69
276.799	254.69
277.031	275.69
277.262	300.69
277.494	297.69
277.726	290.69
277.957	272.69
278.189	266.69
278.421	262.69
278.652	266.69
278.884	260.69
279.115	269.69
279.347	259.69
279.579	252.69
279.81	261.69
280.042	270.69
280.273	271.69
280.505	258.69
280.736	262.69
280.968	279.69
281.199	271.69
281.431	268.69
281.662	258.69
281.894	280.69
282.125	263.69
282.356	261.69
282.588	290.69
282.819	299.69
283.051	286.69
283.282	271.69
283.513	273.69
283.745	262.69
283.976	280.69
284.207	268.69
284.439	282.69
284.67	282.69
284.901	281.69
285.132	280.69
285.364	251.69
285.595	283.69
285.826	272.69
286.057	274.69
286.288	280.69
286.52	278.69
286.751	279.69
286.982	275.69
287.213	287.69
287.444	277.69
287.675	277.69
287.906	292.69
288.138	299.69
288.369	290.69
288.6	288.69
288.831	296.69
289.062	291.69
289.293	293.69
289.524	297.69
289.755	296.69
289.986	289.69
290.217	278.69
290.448	290.69
290.679	288.69
290.91	299.69
291.141	279.69
291.371	297.69
291.602	291.69
291.833	312.69
292.064	284.69
292.295	285.69
292.526	281.69
292.757	303.69
292.987	275.69
293.218	287.69
293.449	317.69
293.68	295.69
293.91	308.69
294.141	312.69
294.372	292.69
294.603	288.69
294.833	287.69
295.064	276.69
295.295	286.69
295.525	294.69
295.756	297.69
295.987	304.69
296.217	302.69
296.448	312.69
296.679	289.69
296.909	303.69
297.14	286.69
297.37	295.69
297.601	299.69
297.831	299.69
298.062	316.69
298.292	300.69
298.523	323.69
298.753	298.69
298.984	318.69
299.214	323.69
299.445	303.69
299.675	302.69
299.905	309.69
300.136	307.69
300.366	308.69
300.597	321.69
300.827	308.69
301.057	314.69
301.288	332.69
301.518	324.69
301.748	330.69
301.979	318.69
302.209	335.69
302.439	340.69
302.669	319.69
302.9	323.69
303.13	327.69
303.36	331.69
303.59	348.69
303.82	320.69
304.051	354.69
304.281	339.69
304.511	310.69
304.741	322.69
304.971	337.69
305.201	333.69
305.431	310.69
305.661	322.69
305.891	302.69
306.121	312.69
306.352	322.69
306.582	324.69
306.812	339.69
307.042	325.69
307.272	335.69
307.502	328.69
307.731	336.69
307.961	326.69
308.191	309.69
308.421	328.69
308.651	336.69
308.881	318.69
309.111	334.69
309.341	322.69
309.571	342.69
309.8	335.69
310.03	346.69
310.26	348.69
310.49	366.69
310.72	349.69
310.949	364.69
311.179	374.69
311.409	338.69
311.639	330.69
311.868	342.69
312.098	349.69
312.328	363.69
312.557	372.69
312.787	367.69
313.017	361.69
313.246	364.69
313.476	350.69
313.706	339.69
313.935	358.69
314.165	374.69
314.394	376.69
314.624	387.69
314.853	364.69
315.083	384.69
315.312	365.69
315.542	365.69
315.771	359.69
316.001	360.69
316.23	356.69
316.46	360.69
316.689	345.69
316.919	338.69
317.148	376.69
317.377	374.69
317.607	366.69
317.836	358.69
318.065	344.69
318.295	357.69
318.524	362.69
318.753	351.69
318.983	364.69
319.212	374.69
319.441	364.69
319.67	363.69
319.9	369.69
320.129	360.69
320.358	358.69
320.587	360.69
320.816	358.69
321.046	379.69
321.275	376.69
321.504	378.69
321.733	380.69
321.962	370.69
322.191	390.69
322.42	381.69
322.649	398.69
322.878	393.69
323.108	399.69
323.337	439.69
323.566	439.69
323.795	440.69
324.024	489.69
324.253	571.69
324.482	744.69
324.71	1080.69
324.939	1479.69
325.168	1257.69
325.397	702.69
325.626	525.69
325.855	471.69
326.084	460.69
326.313	440.69
326.542	460.69
326.77	513.69
326.999	570.69
327.228	706.69
327.457	988.69
327.686	1184.69
327.914	797.69
328.143	629.69
328.372	568.69
328.6	566.69
328.829	519.69
329.058	516.69
329.287	499.69
329.515	490.69
329.744	538.69
329.972	538.69
330.201	631.69
330.43	685.69
330.658	639.69
330.887	586.69
331.115	542.69
331.344	509.69
331.572	466.69
331.801	492.69
332.03	475.69
332.258	468.69
332.486	470.69
332.715	446.69
332.943	477.69
333.172	494.69
333.4	512.69
333.629	520.69
333.857	548.69
334.085	621.69
334.314	687.69
334.542	788.69
334.771	804.69
334.999	642.69
335.227	562.69
335.455	518.69
335.684	522.69
335.912	466.69
336.14	443.69
336.369	445.69
336.597	471.69
336.825	448.69
337.053	451.69
337.281	435.69
337.51	413.69
337.738	428.69
337.966	422.69
338.194	415.69
338.422	417.69
338.65	386.69
338.878	418.69
339.106	412.69
339.334	387.69
339.562	421.69
339.79	415.69
340.018	403.69
340.246	412.69
340.474	412.69
340.702	412.69
340.93	413.69
341.158	387.69
341.386	413.69
341.614	408.69
341.842	391.69
342.07	385.69
342.298	405.69
342.526	396.69
342.754	390.69
342.981	379.69
343.209	385.69
343.437	396.69
343.665	410.69
343.893	452.69
344.12	424.69
344.348	437.69
344.576	438.69
344.804	398.69
345.031	430.69
345.259	412.69
345.487	416.69
345.714	402.69
345.942	399.69
346.17	398.69
346.397	408.69
346.625	378.69
346.853	362.69
347.08	372.69
347.308	392.69
347.535	390.69
347.763	391.69
347.99	392.69
348.218	387.69
348.445	386.69
348.673	387.69
348.9	383.69
349.128	386.69
349.355	366.69
349.583	367.69
349.81	353.69
350.037	370.69
350.265	374.69
350.492	374.69
350.72	380.69
350.947	378.69
351.174	369.69
351.402	378.69
351.629	399.69
351.856	406.69
352.083	369.69
352.311	369.69
352.538	386.69
352.765	396.69
352.992	382.69
353.22	365.69
353.447	370.69
353.674	367.69
353.901	361.69
354.128	350.69
354.355	349.69
354.583	352.69
354.81	358.69
355.037	358.69
355.264	368.69
355.491	366.69
355.718	382.69
355.945	350.69
356.172	344.69
356.399	367.69
356.626	363.69
356.853	353.69
357.08	356.69
357.307	354.69
357.534	339.69
357.761	361.69
357.988	346.69
358.215	336.69
358.441	362.69
358.668	358.69
358.895	365.69
359.122	366.69
359.349	383.69
359.576	380.69
359.802	384.69
360.029	401.69
360.256	392.69
360.483	398.69
360.709	368.69
360.936	367.69
361.163	365.69
361.39	362.69
361.616	380.69
361.843	361.69
362.07	378.69
362.296	373.69
362.523	370.69
362.749	363.69
362.976	374.69
363.203	365.69
363.429	350.69
363.656	355.69
363.882	382.69
364.109	376.69
364.335	377.69
364.562	365.69
364.788	358.69
365.015	380.69
365.241	375.69
365.468	365.69
365.694	374.69
365.92	356.69
366.147	348.69
366.373	377.69
366.599	358.69
366.826	354.69
367.052	344.69
367.278	354.69
367.505	362.69
367.731	360.69
367.957	381.69
368.184	348.69
368.41	367.69
368.636	358.69
368.862	376.69
369.089	363.69
369.315	343.69
369.541	355.69
369.767	370.69
369.993	358.69
370.219	341.69
370.445	382.69
370.672	365.69
370.898	359.69
371.124	362.69
371.35	351.69
371.576	374.69
371.802	368.69
372.028	360.69
372.254	344.69
372.48	368.69
372.706	376.69
372.932	382.69
373.158	381.69
373.384	384.69
373.61	360.69
373.835	363.69
374.061	371.69
374.287	392.69
374.513	370.69
374.739	382.69
374.965	409.69
375.191	389.69
375.416	380.69
375.642	380.69
375.868	360.69
376.094	372.69
376.319	366.69
376.545	374.69
376.771	361.69
376.997	362.69
377.222	380.69
377.448	350.69
377.674	386.69
377.899	370.69
378.125	366.69
378.35	348.69
378.576	364.69
378.802	363.69
379.027	348.69
379.253	374.69
379.478	362.69
379.704	374.69
379.929	378.69
380.155	368.69
380.38	381.69
380.606	360.69
380.831	392.69
381.057	374.69
381.282	359.69
381.507	366.69
381.733	359.69
381.958	374.69
382.184	367.69
382.409	377.69
382.634	380.69
382.86	381.69
383.085	383.69
383.31	384.69
383.535	400.69
383.761	409.69
383.986	400.69
384.211	388.69
384.436	393.69
384.662	407.69
384.887	396.69
385.112	426.69
385.337	380.69
385.562	387.69
385.787	412.69
386.013	431.69
386.238	430.69
386.463	414.69
386.688	411.69
386.913	423.69
387.138	413.69
387.363	419.69
387.588	415.69
387.813	413.69
388.038	405.69
388.263	418.69
388.488	418.69
388.713	418.69
388.938	412.69
389.163	437.69
389.387	409.69
389.612	420.69
389.837	411.69
390.062	402.69
390.287	406.69
390.512	403.69
390.736	412.69
390.961	418.69
391.186	399.69
391.411	409.69
391.636	436.69
391.86	424.69
392.085	446.69
392.31	454.69
392.534	448.69
392.759	416.69
392.984	426.69
393.208	415.69
393.433	431.69
393.658	432.69
393.882	406.69
394.107	422.69
394.331	414.69
394.556	402.69
394.78	432.69
395.005	442.69
395.229	411.69
395.454	443.69
395.678	447.69
395.903	457.69
396.127	470.69
396.352	454.69
396.576	421.69
396.801	411.69
397.025	434.69
397.249	448.69
397.474	458.69
397.698	439.69
397.922	445.69
398.147	443.69
398.371	456.69
398.595	461.69
398.82	486.69
399.044	518.69
399.268	544.69
399.492	589.69
399.717	626.69
399.941	658.69
400.165	623.69
400.389	587.69
400.613	530.69
400.837	512.69
401.062	498.69
401.286	487.69
401.51	487.69
401.734	494.69
401.958	491.69
402.182	494.69
402.406	499.69
402.63	508.69
402.854	512.69
403.078	500.69
403.302	525.69
403.526	524.69
403.75	536.69
403.974	536.69
404.198	525.69
404.422	525.69
404.645	537.69
404.869	541.69
405.093	591.69
405.317	611.69
405.541	644.69
405.765	602.69
405.988	558.69
406.212	532.69
406.436	558.69
406.66	571.69
406.883	578.69
407.107	553.69
407.331	611.69
407.555	634.69
407.778	637.69
408.002	601.69
408.226	563.69
408.449	589.69
408.673	558.69
408.896	577.69
409.12	562.69
409.344	579.69
409.567	516.69
409.791	547.69
410.014	490.69
410.238	507.69
410.461	502.69
410.685	505.69
410.908	516.69
411.132	531.69
411.355	531.69
411.578	538.69
411.802	504.69
412.025	519.69
412.249	545.69
412.472	532.69
412.695	604.69
412.919	613.69
413.142	563.69
413.365	525.69
413.589	539.69
413.812	510.69
414.035	499.69
414.258	496.69
414.482	488.69
414.705	476.69
414.928	494.69
415.151	478.69
415.374	481.69
415.597	482.69
415.821	473.69
416.044	489.69
416.267	472.69
416.49	475.69
416.713	477.69
416.936	476.69
417.159	464.69
417.382	484.69
417.605	487.69
417.828	474.69
418.051	515.69
418.274	506.69
418.497	477.69
418.72	489.69
418.943	459.69
419.166	494.69
419.389	541.69
419.611	535.69
419.834	519.69
420.057	516.69
420.28	539.69
420.503	560.69
420.726	530.69
420.948	532.69
421.171	558.69
421.394	539.69
421.617	502.69
421.839	500.69
422.062	485.69
422.285	518.69
422.507	535.69
422.73	564.69
422.953	549.69
423.175	507.69
423.398	510.69
423.621	519.69
423.843	535.69
424.066	539.69
424.288	520.69
424.511	528.69
424.733	547.69
424.956	604.69
425.178	582.69
425.401	562.69
425.623	581.69
425.846	520.69
426.068	494.69
426.291	490.69
426.513	504.69
426.735	500.69
426.958	513.69
427.18	566.69
427.402	658.69
427.625	702.69
427.847	634.69
428.069	619.69
428.292	550.69
428.514	485.69
428.736	468.69
428.958	470.69
429.181	455.69
429.403	463.69
429.625	466.69
429.847	462.69
430.069	518.69
430.292	501.69
430.514	460.69
430.736	462.69
430.958	469.69
431.18	442.69
431.402	458.69
431.624	431.69
431.846	429.69
432.068	427.69
432.29	428.69
432.512	445.69
432.734	462.69
432.956	442.69
433.178	458.69
433.4	468.69
433.622	456.69
433.844	440.69
434.066	438.69
434.287	453.69
434.509	479.69
434.731	472.69
434.953	493.69
435.175	492.69
435.397	482.69
435.618	502.69
435.84	506.69
436.062	580.69
436.284	602.69
436.505	517.69
436.727	478.69
436.949	465.69
437.17	445.69
437.392	440.69
437.614	415.69
437.835	456.69
438.057	507.69
438.278	568.69
438.5	567.69
438.721	628.69
438.943	574.69
439.165	510.69
439.386	477.69
439.608	474.69
439.829	475.69
440.05	489.69
440.272	519.69
440.493	487.69
440.715	476.69
440.936	470.69
441.158	482.69
441.379	463.69
441.6	478.69
441.822	485.69
442.043	528.69
442.264	568.69
442.486	603.69
442.707	521.69
442.928	489.69
443.149	494.69
443.371	522.69
443.592	539.69
443.813	581.69
444.034	624.69
444.255	566.69
444.476	540.69
444.698	532.69
444.919	550.69
445.14	623.69
445.361	589.69
445.582	538.69
445.803	541.69
446.024	618.69
446.245	629.69
446.466	570.69
446.687	497.69
446.908	499.69
447.129	445.69
447.35	440.69
447.571	449.69
447.792	422.69
448.013	423.69
448.234	454.69
448.455	479.69
448.675	536.69
448.896	606.69
449.117	524.69
449.338	508.69
449.559	553.69
449.779	642.69
450	532.69
450.221	448.69
450.442	453.69
450.662	427.69
450.883	432.69
451.104	417.69
451.324	459.69
451.545	433.69
451.766	427.69
451.986	410.69
452.207	436.69
452.428	419.69
452.648	406.69
452.869	399.69
453.089	406.69
453.31	417.69
453.53	414.69
453.751	406.69
453.971	396.69
454.192	414.69
454.412	387.69
454.633	407.69
454.853	402.69
455.073	407.69
455.294	424.69
455.514	420.69
455.734	426.69
455.955	403.69
456.175	396.69
456.395	365.69
456.616	373.69
456.836	399.69
457.056	360.69
457.276	370.69
457.497	382.69
457.717	365.69
457.937	386.69
458.157	397.69
458.377	397.69
458.598	414.69
458.818	431.69
459.038	477.69
459.258	494.69
459.478	445.69
459.698	452.69
459.918	444.69
460.138	472.69
460.358	463.69
460.578	492.69
460.798	476.69
461.018	490.69
461.238	468.69
461.458	482.69
461.678	475.69
461.898	486.69
462.118	476.69
462.338	489.69
462.558	500.69
462.777	518.69
462.997	564.69
463.217	579.69
463.437	576.69
463.657	544.69
463.876	500.69
464.096	528.69
464.316	533.69
464.536	520.69
464.755	499.69
464.975	484.69
465.195	528.69
465.414	532.69
465.634	485.69
465.854	470.69
466.073	442.69
466.293	456.69
466.512	424.69
466.732	421.69
466.951	429.69
467.171	427.69
467.391	408.69
467.61	422.69
467.829	444.69
468.049	448.69
468.268	442.69
468.488	453.69
468.707	412.69
468.927	407.69
469.146	406.69
469.365	422.69
469.585	412.69
469.804	434.69
470.023	464.69
470.243	422.69
470.462	427.69
470.681	452.69
470.901	448.69
471.12	442.69
471.339	418.69
471.558	428.69
471.777	406.69
471.997	429.69
472.216	474.69
472.435	573.69
472.654	533.69
472.873	472.69
473.092	447.69
473.311	441.69
473.53	450.69
473.749	423.69
473.968	448.69
474.187	498.69
474.406	505.69
474.625	443.69
474.844	420.69
475.063	415.69
475.282	409.69
475.501	419.69
475.72	422.69
475.939	412.69
476.158	420.69
476.377	449.69
476.596	437.69
476.814	436.69
477.033	451.69
477.252	442.69
477.471	430.69
477.69	467.69
477.908	462.69
478.127	442.69
478.346	471.69
478.564	482.69
478.783	482.69
479.002	515.69
479.22	515.69
479.439	500.69
479.658	494.69
479.876	508.69
480.095	514.69
480.313	546.69
480.532	532.69
480.751	564.69
480.969	576.69
481.188	709.69
481.406	830.69
481.624	658.69
481.843	559.69
482.061	525.69
482.28	518.69
482.498	512.69
482.717	514.69
482.935	514.69
483.153	484.69
483.372	489.69
483.59	507.69
483.808	516.69
484.027	484.69
484.245	494.69
484.463	487.69
484.681	502.69
484.9	511.69
485.118	499.69
485.336	487.69
485.554	511.69
485.772	504.69
485.99	514.69
486.209	500.69
486.427	504.69
486.645	516.69
486.863	523.69
487.081	492.69
487.299	512.69
487.517	510.69
487.735	489.69
487.953	489.69
488.171	512.69
488.389	507.69
488.607	523.69
488.825	506.69
489.043	509.69
489.261	525.69
489.479	531.69
489.696	499.69
489.914	510.69
490.132	533.69
490.35	516.69
490.568	543.69
490.786	548.69
491.003	564.69
491.221	570.69
491.439	577.69
491.657	591.69
491.874	592.69
492.092	605.69
492.31	600.69
492.527	632.69
492.745	628.69
492.963	628.69
493.18	618.69
493.398	620.69
493.615	615.69
493.833	629.69
494.05	600.69
494.268	598.69
494.485	585.69
494.703	617.69
494.92	613.69
495.138	603.69
495.355	596.69
495.573	593.69
495.79	602.69
496.008	590.69
496.225	600.69
496.442	601.69
496.66	596.69
496.877	622.69
497.094	599.69
497.312	604.69
497.529	607.69
497.746	617.69
497.963	620.69
498.181	658.69
498.398	656.69
498.615	686.69
498.832	720.69
499.049	744.69
499.267	791.69
499.484	824.69
499.701	884.69
499.918	937.69
500.135	986.69
500.352	1089.69
500.569	1128.69
500.786	1140.69
501.003	1088.69
501.22	1021.69
501.437	951.69
501.654	894.69
501.871	837.69
502.088	830.69
502.305	738.69
502.522	732.69
502.739	713.69
502.956	680.69
503.172	643.69
503.389	642.69
503.606	638.69
503.823	608.69
504.04	630.69
504.256	625.69
504.473	622.69
504.69	603.69
504.907	619.69
505.123	606.69
505.34	582.69
505.557	538.69
505.773	543.69
505.99	543.69
506.207	527.69
506.423	530.69
506.64	526.69
506.856	528.69
507.073	514.69
507.289	512.69
507.506	540.69
507.722	528.69
507.939	535.69
508.155	523.69
508.372	518.69
508.588	481.69
508.805	500.69
509.021	514.69
509.238	504.69
509.454	503.69
509.67	494.69
509.887	492.69
510.103	492.69
510.319	512.69
510.536	560.69
510.752	833.69
510.968	664.69
511.184	501.69
511.401	498.69
511.617	500.69
511.833	516.69
512.049	536.69
512.265	509.69
512.481	507.69
512.698	506.69
512.914	474.69
513.13	466.69
513.346	469.69
513.562	470.69
513.778	499.69
513.994	488.69
514.21	490.69
514.426	489.69
514.642	523.69
514.858	522.69
515.074	523.69
515.29	598.69
515.506	778.69
515.721	680.69
515.937	564.69
516.153	508.69
516.369	517.69
516.585	522.69
516.801	536.69
517.016	504.69
517.232	551.69
517.448	571.69
517.664	574.69
517.879	558.69
518.095	581.69
518.311	564.69
518.527	542.69
518.742	522.69
518.958	527.69
519.173	542.69
519.389	509.69
519.605	489.69
519.82	504.69
520.036	510.69
520.251	522.69
520.467	518.69
520.682	498.69
520.898	502.69
521.113	520.69
521.329	534.69
521.544	579.69
521.76	638.69
521.975	985.69
522.19	923.69
522.406	595.69
522.621	501.69
522.836	475.69
523.052	454.69
523.267	459.69
523.482	434.69
523.698	455.69
523.913	440.69
524.128	432.69
524.343	438.69
524.559	416.69
524.774	433.69
524.989	445.69
525.204	438.69
525.419	416.69
525.634	421.69
525.849	431.69
526.064	410.69
526.28	403.69
526.495	419.69
526.71	414.69
526.925	421.69
527.14	419.69
527.355	416.69
527.57	419.69
527.785	406.69
527.999	406.69
528.214	411.69
528.429	413.69
528.644	404.69
528.859	404.69
529.074	409.69
529.289	419.69
529.503	448.69
529.718	438.69
529.933	410.69
530.148	421.69
530.363	414.69
530.577	407.69
530.792	404.69
531.007	418.69
531.221	398.69
531.436	401.69
531.651	396.69
531.865	392.69
532.08	401.69
532.295	416.69
532.509	395.69
532.724	422.69
532.938	396.69
533.153	394.69
533.367	379.69
533.582	395.69
533.796	391.69
534.011	394.69
534.225	402.69
534.44	391.69
534.654	408.69
534.868	395.69
535.083	408.69
535.297	386.69
535.511	387.69
535.726	400.69
535.94	375.69
536.154	365.69
536.369	410.69
536.583	385.69
536.797	384.69
537.011	359.69
537.225	376.69
537.44	374.69
537.654	362.69
537.868	382.69
538.082	374.69
538.296	403.69
538.51	378.69
538.724	391.69
538.938	388.69
539.153	382.69
539.367	375.69
539.581	367.69
539.795	382.69
540.009	375.69
540.222	361.69
540.436	386.69
540.65	370.69
540.864	388.69
541.078	372.69
541.292	385.69
541.506	380.69
541.72	364.69
541.934	380.69
542.147	379.69
542.361	377.69
542.575	376.69
542.789	361.69
543.002	348.69
543.216	372.69
543.43	366.69
543.644	370.69
543.857	380.69
544.071	382.69
544.285	396.69
544.498	382.69
544.712	367.69
544.925	372.69
545.139	392.69
545.352	366.69
545.566	364.69
545.779	392.69
545.993	372.69
546.206	374.69
546.42	377.69
546.633	379.69
546.847	379.69
547.06	388.69
547.274	349.69
547.487	384.69
547.7	370.69
547.914	368.69
548.127	386.69
548.34	383.69
548.554	376.69
548.767	389.69
548.98	386.69
549.193	392.69
549.407	389.69
549.62	379.69
549.833	380.69
550.046	366.69
550.259	376.69
550.473	356.69
550.686	372.69
550.899	372.69
551.112	350.69
551.325	360.69
551.538	372.69
551.751	362.69
551.964	372.69
552.177	381.69
552.39	382.69
552.603	375.69
552.816	388.69
553.029	393.69
553.242	385.69
553.455	400.69
553.667	400.69
553.88	397.69
554.093	383.69
554.306	396.69
554.519	387.69
554.732	382.69
554.944	384.69
555.157	386.69
555.37	367.69
555.583	342.69
555.795	370.69
556.008	360.69
556.221	370.69
556.433	340.69
556.646	325.69
556.859	335.69
557.071	320.69
557.284	351.69
557.496	314.69
557.709	330.69
557.921	331.69
558.134	332.69
558.346	330.69
558.559	324.69
558.771	333.69
558.984	334.69
559.196	310.69
559.409	307.69
559.621	326.69
559.833	310.69
560.046	329.69
560.258	323.69
560.47	343.69
560.683	326.69
560.895	314.69
561.107	321.69
561.32	338.69
561.532	341.69
561.744	328.69
561.956	324.69
562.168	322.69
562.381	319.69
562.593	335.69
562.805	326.69
563.017	337.69
563.229	334.69
563.441	342.69
563.653	348.69
563.865	324.69
564.077	348.69
564.289	344.69
564.501	324.69
564.713	365.69
564.925	352.69
565.137	331.69
565.349	343.69
565.561	378.69
565.773	383.69
565.985	395.69
566.197	391.69
566.408	438.69
566.62	456.69
566.832	457.69
567.044	452.69
567.255	471.69
567.467	491.69
567.679	490.69
567.891	532.69
568.102	522.69
568.314	510.69
568.526	463.69
568.737	442.69
568.949	407.69
569.161	399.69
569.372	367.69
569.584	364.69
569.795	357.69
570.007	372.69
570.218	374.69
570.43	371.69
570.641	353.69
570.853	327.69
571.064	346.69
571.276	333.69
571.487	341.69
571.698	334.69
571.91	312.69
572.121	300.69
572.333	322.69
572.544	302.69
572.755	307.69
572.966	293.69
573.178	288.69
573.389	322.69
573.6	283.69
573.811	290.69
574.023	312.69
574.234	290.69
574.445	310.69
574.656	301.69
574.867	306.69
575.078	312.69
575.289	278.69
575.501	283.69
575.712	282.69
575.923	286.69
576.134	286.69
576.345	279.69
576.556	281.69
576.767	272.69
576.978	268.69
577.188	271.69
577.399	287.69
577.61	287.69
577.821	276.69
578.032	283.69
578.243	293.69
578.454	374.69
578.665	327.69
578.875	280.69
579.086	267.69
579.297	299.69
579.508	263.69
579.718	245.69
579.929	267.69
580.14	263.69
580.35	252.69
580.561	263.69
580.772	270.69
580.982	262.69
581.193	263.69
581.403	263.69
581.614	251.69
581.825	262.69
582.035	265.69
582.246	252.69
582.456	251.69
582.667	262.69
582.877	246.69
583.087	261.69
583.298	251.69
583.508	269.69
583.719	272.69
583.929	269.69
584.139	254.69
584.35	262.69
584.56	261.69
584.77	266.69
584.981	259.69
585.191	251.69
585.401	244.69
585.611	262.69
585.821	256.69
586.032	259.69
586.242	246.69
586.452	264.69
586.662	243.69
586.872	237.69
587.082	247.69
587.292	242.69
587.502	268.69
587.713	247.69
587.923	260.69
588.133	240.69
588.343	228.69
588.553	232.69
588.762	266.69
588.972	263.69
589.182	256.69
589.392	256.69
589.602	248.69
589.812	268.69
590.022	247.69
590.232	243.69
590.441	252.69
590.651	246.69
590.861	219.69
591.071	256.69
591.281	269.69
591.49	262.69
591.7	261.69
591.91	252.69
592.119	277.69
592.329	276.69
592.539	277.69
592.748	277.69
592.958	283.69
593.167	288.69
593.377	299.69
593.587	289.69
593.796	300.69
594.006	308.69
594.215	301.69
594.424	318.69
594.634	289.69
594.843	271.69
595.053	293.69
595.262	262.69
595.472	275.69
595.681	271.69
595.89	270.69
596.1	258.69
596.309	260.69
596.518	241.69
596.727	247.69
596.937	233.69
597.146	244.69
597.355	251.69
597.564	253.69
597.774	229.69
597.983	230.69
598.192	228.69
598.401	228.69
598.61	235.69
598.819	219.69
599.028	238.69
599.237	219.69
599.446	226.69
599.655	233.69
599.864	237.69
600.073	237.69
600.282	217.69
600.491	205.69
600.7	227.69
600.909	225.69
601.118	230.69
601.327	225.69
601.536	228.69
601.745	212.69
601.953	234.69
602.162	228.69
602.371	208.69
602.58	219.69
602.789	220.69
602.997	217.69
603.206	211.69
603.415	202.69
603.623	228.69
603.832	219.69
604.041	210.69
604.249	227.69
604.458	224.69
604.666	222.69
604.875	194.69
605.084	212.69
605.292	204.69
605.501	199.69
605.709	199.69
605.918	211.69
606.126	205.69
606.334	227.69
606.543	216.69
606.751	221.69
606.96	222.69
607.168	220.69
607.376	208.69
607.585	218.69
607.793	202.69
608.001	226.69
608.21	216.69
608.418	203.69
608.626	209.69
608.834	219.69
609.043	195.69
609.251	218.69
609.459	185.69
609.667	206.69
609.875	225.69
610.083	217.69
610.291	208.69
610.499	227.69
610.707	210.69
610.916	211.69
611.124	210.69
611.332	217.69
611.54	229.69
611.748	222.69
611.955	211.69
612.163	219.69
612.371	208.69
612.579	208.69
612.787	218.69
612.995	216.69
613.203	212.69
613.411	214.69
613.618	207.69
613.826	203.69
614.034	211.69
614.242	205.69
614.449	193.69
614.657	188.69
614.865	191.69
615.072	216.69
615.28	208.69
615.488	194.69
615.695	201.69
615.903	202.69
616.111	200.69
616.318	219.69
616.526	214.69
616.733	211.69
616.941	190.69
617.148	204.69
617.356	226.69
617.563	199.69
617.771	205.69
617.978	214.69
618.185	203.69
618.393	198.69
618.6	211.69
618.807	195.69
619.015	202.69
619.222	205.69
619.429	198.69
619.637	196.69
619.844	209.69
620.051	194.69
620.258	209.69
620.466	204.69
620.673	192.69
620.88	190.69
621.087	215.69
621.294	193.69
621.501	183.69
621.708	212.69
621.915	204.69
622.122	195.69
622.329	197.69
622.536	198.69
622.743	193.69
622.95	182.69
623.157	197.69
623.364	185.69
623.571	190.69
623.778	185.69
623.985	182.69
624.192	190.69
624.399	188.69
624.606	184.69
624.812	189.69
625.019	170.69
625.226	178.69
625.433	175.69
625.639	178.69
625.846	182.69
626.053	188.69
626.259	194.69
626.466	187.69
626.673	191.69
626.879	171.69
627.086	188.69
627.293	180.69
627.499	187.69
627.706	173.69
627.912	180.69
628.119	174.69
628.325	170.69
628.532	176.69
628.738	182.69
628.945	178.69
629.151	182.69
629.357	168.69
629.564	187.69
629.77	202.69
629.976	178.69
630.183	184.69
630.389	175.69
630.595	165.69
630.802	182.69
631.008	178.69
631.214	155.69
631.42	179.69
631.627	170.69
631.833	167.69
632.039	166.69
632.245	180.69
632.451	156.69
632.657	170.69
632.863	183.69
633.069	161.69
633.275	166.69
633.481	152.69
633.688	163.69
633.893	163.69
634.099	182.69
634.305	160.69
634.511	168.69
634.717	157.69
634.923	170.69
635.129	163.69
635.335	164.69
635.541	158.69
635.747	164.69
635.952	143.69
636.158	162.69
636.364	170.69
636.57	178.69
636.775	172.69
636.981	170.69
637.187	170.69
637.392	167.69
637.598	162.69
637.804	164.69
638.009	170.69
638.215	159.69
638.421	138.69
638.626	164.69
638.832	157.69
639.037	155.69
639.243	148.69
639.448	159.69
639.654	162.69
639.859	163.69
640.065	158.69
640.27	157.69
640.475	152.69
640.681	157.69
640.886	163.69
641.091	155.69
641.297	153.69
641.502	148.69
641.707	160.69
641.913	152.69
642.118	149.69
642.323	157.69
642.528	154.69
642.733	161.69
642.939	153.69
643.144	155.69
643.349	160.69
643.554	170.69
643.759	155.69
643.964	157.69
644.169	142.69
644.374	157.69
644.579	156.69
644.784	150.69
644.989	145.69
645.194	152.69
645.399	147.69
645.604	148.69
645.809	155.69
646.014	158.69
646.219	170.69
646.423	158.69
646.628	160.69
646.833	157.69
647.038	144.69
647.243	148.69
647.447	151.69
647.652	148.69
647.857	153.69
648.062	167.69
648.266	175.69
648.471	154.69
648.676	150.69
648.88	140.69
649.085	145.69
649.289	158.69
649.494	158.69
649.698	171.69
649.903	173.69
650.107	159.69
650.312	152.69
650.516	156.69
650.721	160.69
650.925	150.69
651.13	132.69
651.334	143.69
651.539	156.69
651.743	134.69
651.947	142.69
652.152	140.69
652.356	124.69
652.56	130.69
652.764	140.69
652.969	125.69
653.173	140.69
653.377	148.69
653.581	143.69
653.785	150.69
653.99	128.69
654.194	141.69
654.398	134.69
654.602	124.69
654.806	130.69
655.01	133.69
655.214	148.69
655.418	114.69
655.622	126.69
655.826	127.69
656.03	131.69
656.234	135.69
656.438	135.69
656.642	138.69
656.846	143.69
657.049	139.69
657.253	124.69
657.457	115.69
657.661	116.69
657.865	107.69
658.068	109.69
658.272	115.69
658.476	102.69
658.68	105.69
658.883	109.69
659.087	100.69
659.291	114.69
659.494	103.69
659.698	107.69
659.901	114.69
660.105	86.69
660.309	101.69
660.512	90.69
660.716	99.69
660.919	97.69
661.123	100.69
661.326	88.69
661.53	83.69
661.733	75.69
661.936	95.69
662.14	89.69
662.343	94.69
662.546	100.69
662.75	92.69
662.953	86.69
663.156	94.69
663.36	92.69
663.563	93.69
663.766	91.69
663.969	86.69
664.173	89.69
664.376	78.69
664.579	81.69
664.782	88.69
664.985	95.69
665.188	92.69
665.391	77.69
665.594	89.69
665.797	81.69
666	93.69
666.203	91.69
666.406	93.69
666.609	67.69
666.812	89.69
667.015	92.69
667.218	98.69
667.421	79.69
667.624	75.69
667.827	79.69
668.03	87.69
668.232	80.69
668.435	79.69
668.638	91.69
668.841	68.69
669.043	94.69
669.246	84.69
669.449	88.69
669.651	102.69
669.854	85.69
670.057	90.69
670.259	85.69
670.462	93.69
670.665	83.69
670.867	96.69
671.07	94.69
671.272	102.69
671.475	89.69
671.677	83.69
671.88	80.69
672.082	85.69
672.284	100.69
672.487	92.69
672.689	80.69
672.892	86.69
