Data from 1984.PennyLincolnUp.Lamp.En5.5.200Scan.071819.P1_HRD10591_16-58-50-968.txt Node
Date: Thu Jul 18 16:58:50 EDT 2019
User: cochatt
Spectrometer: HR+D1059
Trigger mode: 1
Integration Time (sec): 1.000000E-1
Scans to average: 1
Electric dark correction enabled: true
Nonlinearity correction enabled: false
Boxcar width: 0
XAxis mode: Wavelengths
Number of Pixels in Spectrum: 2048
>>>>>Begin Spectral Data<<<<<
223.165	-9.94
223.4	-9.94
223.635	-9.94
223.869	-23.94
224.104	-28.94
224.338	-30.94
224.573	-16.94
224.808	-11.94
225.042	3.06
225.277	12.06
225.511	-3.94
225.746	6.06
225.98	-8.94
226.215	20.06
226.449	18.06
226.683	16.06
226.918	25.06
227.152	35.06
227.387	47.06
227.621	31.06
227.856	32.06
228.09	39.06
228.324	48.06
228.559	44.06
228.793	53.06
229.027	90.06
229.262	96.06
229.496	97.06
229.73	101.06
229.964	109.06
230.199	102.06
230.433	95.06
230.667	113.06
230.901	106.06
231.136	96.06
231.37	117.06
231.604	96.06
231.838	102.06
232.072	100.06
232.306	108.06
232.541	104.06
232.775	96.06
233.009	125.06
233.243	112.06
233.477	126.06
233.711	107.06
233.945	115.06
234.179	112.06
234.413	114.06
234.647	123.06
234.881	123.06
235.115	116.06
235.349	106.06
235.583	107.06
235.817	124.06
236.051	104.06
236.285	107.06
236.519	97.06
236.753	117.06
236.987	121.06
237.221	145.06
237.455	186.06
237.689	141.06
237.922	120.06
238.156	124.06
238.39	131.06
238.624	115.06
238.858	117.06
239.091	111.06
239.325	119.06
239.559	126.06
239.793	123.06
240.027	117.06
240.26	122.06
240.494	133.06
240.728	125.06
240.961	132.06
241.195	130.06
241.429	140.06
241.662	121.06
241.896	105.06
242.13	115.06
242.363	125.06
242.597	128.06
242.83	126.06
243.064	132.06
243.298	133.06
243.531	153.06
243.765	121.06
243.998	136.06
244.232	126.06
244.465	128.06
244.699	151.06
244.932	140.06
245.166	125.06
245.399	132.06
245.633	143.06
245.866	141.06
246.099	142.06
246.333	135.06
246.566	151.06
246.8	147.06
247.033	136.06
247.266	149.06
247.5	152.06
247.733	146.06
247.966	155.06
248.2	152.06
248.433	136.06
248.666	140.06
248.899	160.06
249.133	157.06
249.366	178.06
249.599	163.06
249.832	151.06
250.066	166.06
250.299	169.06
250.532	182.06
250.765	199.06
250.998	190.06
251.231	187.06
251.465	182.06
251.698	170.06
251.931	172.06
252.164	173.06
252.397	181.06
252.63	160.06
252.863	173.06
253.096	171.06
253.329	187.06
253.562	187.06
253.795	163.06
254.028	187.06
254.261	179.06
254.494	193.06
254.727	198.06
254.96	223.06
255.193	203.06
255.426	204.06
255.659	198.06
255.892	199.06
256.124	223.06
256.357	243.06
256.59	220.06
256.823	200.06
257.056	202.06
257.289	189.06
257.521	192.06
257.754	189.06
257.987	177.06
258.22	181.06
258.452	180.06
258.685	176.06
258.918	199.06
259.151	198.06
259.383	204.06
259.616	189.06
259.849	196.06
260.081	203.06
260.314	206.06
260.547	219.06
260.779	223.06
261.012	195.06
261.244	188.06
261.477	198.06
261.71	210.06
261.942	202.06
262.175	203.06
262.407	197.06
262.64	201.06
262.872	195.06
263.105	188.06
263.337	193.06
263.57	197.06
263.802	176.06
264.035	200.06
264.267	197.06
264.499	184.06
264.732	204.06
264.964	198.06
265.197	214.06
265.429	195.06
265.661	203.06
265.894	206.06
266.126	196.06
266.358	202.06
266.591	196.06
266.823	207.06
267.055	197.06
267.287	221.06
267.52	202.06
267.752	205.06
267.984	218.06
268.216	198.06
268.448	201.06
268.681	216.06
268.913	230.06
269.145	237.06
269.377	212.06
269.609	230.06
269.841	231.06
270.073	235.06
270.306	254.06
270.538	249.06
270.77	253.06
271.002	247.06
271.234	266.06
271.466	233.06
271.698	253.06
271.93	266.06
272.162	258.06
272.394	263.06
272.626	252.06
272.858	263.06
273.09	272.06
273.322	247.06
273.553	240.06
273.785	240.06
274.017	220.06
274.249	226.06
274.481	253.06
274.713	234.06
274.945	251.06
275.176	239.06
275.408	231.06
275.64	235.06
275.872	233.06
276.104	247.06
276.335	239.06
276.567	245.06
276.799	261.06
277.031	256.06
277.262	263.06
277.494	267.06
277.726	253.06
277.957	262.06
278.189	260.06
278.421	250.06
278.652	244.06
278.884	249.06
279.115	247.06
279.347	248.06
279.579	263.06
279.81	253.06
280.042	258.06
280.273	262.06
280.505	276.06
280.736	254.06
280.968	244.06
281.199	254.06
281.431	247.06
281.662	245.06
281.894	260.06
282.125	261.06
282.356	272.06
282.588	272.06
282.819	261.06
283.051	273.06
283.282	267.06
283.513	248.06
283.745	278.06
283.976	251.06
284.207	262.06
284.439	278.06
284.67	276.06
284.901	267.06
285.132	277.06
285.364	285.06
285.595	263.06
285.826	274.06
286.057	283.06
286.288	287.06
286.52	272.06
286.751	273.06
286.982	272.06
287.213	283.06
287.444	289.06
287.675	287.06
287.906	276.06
288.138	288.06
288.369	300.06
288.6	294.06
288.831	293.06
289.062	288.06
289.293	285.06
289.524	276.06
289.755	284.06
289.986	269.06
290.217	285.06
290.448	286.06
290.679	282.06
290.91	283.06
291.141	257.06
291.371	282.06
291.602	286.06
291.833	270.06
292.064	285.06
292.295	272.06
292.526	287.06
292.757	288.06
292.987	272.06
293.218	283.06
293.449	290.06
293.68	287.06
293.91	265.06
294.141	269.06
294.372	281.06
294.603	268.06
294.833	281.06
295.064	293.06
295.295	284.06
295.525	282.06
295.756	300.06
295.987	298.06
296.217	302.06
296.448	319.06
296.679	297.06
296.909	283.06
297.14	295.06
297.37	309.06
297.601	293.06
297.831	304.06
298.062	293.06
298.292	288.06
298.523	279.06
298.753	301.06
298.984	299.06
299.214	302.06
299.445	286.06
299.675	308.06
299.905	317.06
300.136	300.06
300.366	312.06
300.597	302.06
300.827	308.06
301.057	311.06
301.288	336.06
301.518	314.06
301.748	319.06
301.979	331.06
302.209	328.06
302.439	331.06
302.669	322.06
302.9	301.06
303.13	320.06
303.36	324.06
303.59	291.06
303.82	306.06
304.051	349.06
304.281	318.06
304.511	296.06
304.741	310.06
304.971	329.06
305.201	320.06
305.431	310.06
305.661	287.06
305.891	302.06
306.121	315.06
306.352	320.06
306.582	309.06
306.812	297.06
307.042	325.06
307.272	305.06
307.502	313.06
307.731	323.06
307.961	318.06
308.191	319.06
308.421	311.06
308.651	314.06
308.881	316.06
309.111	316.06
309.341	316.06
309.571	311.06
309.8	325.06
310.03	329.06
310.26	345.06
310.49	342.06
310.72	355.06
310.949	332.06
311.179	338.06
311.409	338.06
311.639	332.06
311.868	327.06
312.098	327.06
312.328	353.06
312.557	349.06
312.787	347.06
313.017	351.06
313.246	353.06
313.476	347.06
313.706	345.06
313.935	361.06
314.165	337.06
314.394	378.06
314.624	373.06
314.853	357.06
315.083	346.06
315.312	336.06
315.542	359.06
315.771	341.06
316.001	349.06
316.23	348.06
316.46	363.06
316.689	356.06
316.919	344.06
317.148	333.06
317.377	345.06
317.607	321.06
317.836	360.06
318.065	328.06
318.295	361.06
318.524	331.06
318.753	342.06
318.983	339.06
319.212	333.06
319.441	364.06
319.67	350.06
319.9	343.06
320.129	341.06
320.358	339.06
320.587	343.06
320.816	352.06
321.046	345.06
321.275	355.06
321.504	348.06
321.733	356.06
321.962	363.06
322.191	361.06
322.42	364.06
322.649	384.06
322.878	383.06
323.108	390.06
323.337	413.06
323.566	422.06
323.795	437.06
324.024	461.06
324.253	534.06
324.482	685.06
324.71	1007.06
324.939	1340.06
325.168	1160.06
325.397	681.06
325.626	531.06
325.855	476.06
326.084	416.06
326.313	425.06
326.542	435.06
326.77	432.06
326.999	515.06
327.228	668.06
327.457	934.06
327.686	1056.06
327.914	736.06
328.143	529.06
328.372	528.06
328.6	505.06
328.829	487.06
329.058	475.06
329.287	476.06
329.515	478.06
329.744	453.06
329.972	480.06
330.201	509.06
330.43	543.06
330.658	532.06
330.887	502.06
331.115	502.06
331.344	470.06
331.572	462.06
331.801	437.06
332.03	444.06
332.258	426.06
332.486	417.06
332.715	423.06
332.943	443.06
333.172	432.06
333.4	449.06
333.629	464.06
333.857	506.06
334.085	539.06
334.314	559.06
334.542	620.06
334.771	625.06
334.999	538.06
335.227	473.06
335.455	447.06
335.684	443.06
335.912	446.06
336.14	436.06
336.369	436.06
336.597	423.06
336.825	425.06
337.053	412.06
337.281	431.06
337.51	412.06
337.738	392.06
337.966	415.06
338.194	419.06
338.422	419.06
338.65	396.06
338.878	405.06
339.106	397.06
339.334	404.06
339.562	396.06
339.79	384.06
340.018	404.06
340.246	391.06
340.474	391.06
340.702	391.06
340.93	393.06
341.158	402.06
341.386	399.06
341.614	391.06
341.842	384.06
342.07	381.06
342.298	364.06
342.526	351.06
342.754	386.06
342.981	383.06
343.209	399.06
343.437	393.06
343.665	410.06
343.893	417.06
344.12	446.06
344.348	433.06
344.576	403.06
344.804	396.06
345.031	413.06
345.259	381.06
345.487	378.06
345.714	399.06
345.942	393.06
346.17	380.06
346.397	360.06
346.625	359.06
346.853	371.06
347.08	361.06
347.308	355.06
347.535	374.06
347.763	363.06
347.99	386.06
348.218	377.06
348.445	361.06
348.673	389.06
348.9	379.06
349.128	372.06
349.355	371.06
349.583	361.06
349.81	351.06
350.037	356.06
350.265	370.06
350.492	347.06
350.72	361.06
350.947	360.06
351.174	367.06
351.402	356.06
351.629	368.06
351.856	376.06
352.083	363.06
352.311	376.06
352.538	373.06
352.765	361.06
352.992	381.06
353.22	373.06
353.447	376.06
353.674	379.06
353.901	353.06
354.128	340.06
354.355	339.06
354.583	352.06
354.81	349.06
355.037	344.06
355.264	355.06
355.491	365.06
355.718	329.06
355.945	337.06
356.172	361.06
356.399	352.06
356.626	354.06
356.853	333.06
357.08	351.06
357.307	362.06
357.534	337.06
357.761	353.06
357.988	354.06
358.215	345.06
358.441	337.06
358.668	352.06
358.895	365.06
359.122	367.06
359.349	357.06
359.576	356.06
359.802	358.06
360.029	385.06
360.256	360.06
360.483	393.06
360.709	364.06
360.936	362.06
361.163	376.06
361.39	353.06
361.616	363.06
361.843	356.06
362.07	359.06
362.296	349.06
362.523	371.06
362.749	364.06
362.976	349.06
363.203	353.06
363.429	357.06
363.656	350.06
363.882	342.06
364.109	347.06
364.335	356.06
364.562	364.06
364.788	338.06
365.015	345.06
365.241	351.06
365.468	342.06
365.694	350.06
365.92	351.06
366.147	348.06
366.373	347.06
366.599	350.06
366.826	336.06
367.052	348.06
367.278	344.06
367.505	357.06
367.731	345.06
367.957	352.06
368.184	347.06
368.41	352.06
368.636	354.06
368.862	353.06
369.089	366.06
369.315	334.06
369.541	353.06
369.767	353.06
369.993	358.06
370.219	371.06
370.445	340.06
370.672	348.06
370.898	353.06
371.124	359.06
371.35	344.06
371.576	351.06
371.802	360.06
372.028	354.06
372.254	359.06
372.48	345.06
372.706	352.06
372.932	349.06
373.158	361.06
373.384	331.06
373.61	349.06
373.835	365.06
374.061	354.06
374.287	356.06
374.513	355.06
374.739	367.06
374.965	385.06
375.191	393.06
375.416	372.06
375.642	351.06
375.868	347.06
376.094	365.06
376.319	350.06
376.545	356.06
376.771	356.06
376.997	345.06
377.222	357.06
377.448	347.06
377.674	337.06
377.899	347.06
378.125	346.06
378.35	355.06
378.576	368.06
378.802	344.06
379.027	339.06
379.253	359.06
379.478	358.06
379.704	355.06
379.929	364.06
380.155	350.06
380.38	358.06
380.606	353.06
380.831	347.06
381.057	354.06
381.282	365.06
381.507	359.06
381.733	361.06
381.958	339.06
382.184	361.06
382.409	357.06
382.634	367.06
382.86	350.06
383.085	378.06
383.31	371.06
383.535	380.06
383.761	388.06
383.986	377.06
384.211	399.06
384.436	381.06
384.662	397.06
384.887	377.06
385.112	390.06
385.337	396.06
385.562	394.06
385.787	383.06
386.013	421.06
386.238	395.06
386.463	412.06
386.688	407.06
386.913	408.06
387.138	395.06
387.363	387.06
387.588	394.06
387.813	399.06
388.038	413.06
388.263	391.06
388.488	398.06
388.713	394.06
388.938	394.06
389.163	395.06
389.387	397.06
389.612	381.06
389.837	383.06
390.062	393.06
390.287	387.06
390.512	392.06
390.736	403.06
390.961	402.06
391.186	401.06
391.411	416.06
391.636	395.06
391.86	419.06
392.085	426.06
392.31	432.06
392.534	408.06
392.759	413.06
392.984	423.06
393.208	409.06
393.433	398.06
393.658	420.06
393.882	398.06
394.107	407.06
394.331	407.06
394.556	407.06
394.78	394.06
395.005	416.06
395.229	411.06
395.454	430.06
395.678	419.06
395.903	416.06
396.127	443.06
396.352	435.06
396.576	428.06
396.801	411.06
397.025	411.06
397.249	456.06
397.474	415.06
397.698	435.06
397.922	420.06
398.147	462.06
398.371	445.06
398.595	448.06
398.82	459.06
399.044	503.06
399.268	511.06
399.492	567.06
399.717	584.06
399.941	617.06
400.165	586.06
400.389	555.06
400.613	517.06
400.837	497.06
401.062	468.06
401.286	451.06
401.51	475.06
401.734	483.06
401.958	456.06
402.182	465.06
402.406	491.06
402.63	477.06
402.854	477.06
403.078	483.06
403.302	497.06
403.526	506.06
403.75	512.06
403.974	490.06
404.198	505.06
404.422	499.06
404.645	526.06
404.869	531.06
405.093	552.06
405.317	593.06
405.541	600.06
405.765	559.06
405.988	530.06
406.212	507.06
406.436	531.06
406.66	538.06
406.883	513.06
407.107	570.06
407.331	554.06
407.555	612.06
407.778	645.06
408.002	586.06
408.226	559.06
408.449	539.06
408.673	504.06
408.896	537.06
409.12	553.06
409.344	535.06
409.567	496.06
409.791	481.06
410.014	480.06
410.238	499.06
410.461	497.06
410.685	503.06
410.908	490.06
411.132	533.06
411.355	531.06
411.578	520.06
411.802	503.06
412.025	480.06
412.249	487.06
412.472	539.06
412.695	545.06
412.919	557.06
413.142	496.06
413.365	512.06
413.589	507.06
413.812	469.06
414.035	448.06
414.258	465.06
414.482	468.06
414.705	467.06
414.928	452.06
415.151	457.06
415.374	455.06
415.597	468.06
415.821	453.06
416.044	451.06
416.267	475.06
416.49	439.06
416.713	449.06
416.936	449.06
417.159	460.06
417.382	468.06
417.605	445.06
417.828	456.06
418.051	469.06
418.274	474.06
418.497	469.06
418.72	475.06
418.943	488.06
419.166	507.06
419.389	515.06
419.611	501.06
419.834	499.06
420.057	501.06
420.28	510.06
420.503	515.06
420.726	496.06
420.948	468.06
421.171	505.06
421.394	519.06
421.617	500.06
421.839	462.06
422.062	474.06
422.285	455.06
422.507	501.06
422.73	536.06
422.953	545.06
423.175	510.06
423.398	480.06
423.621	489.06
423.843	510.06
424.066	523.06
424.288	484.06
424.511	506.06
424.733	537.06
424.956	576.06
425.178	557.06
425.401	536.06
425.623	576.06
425.846	514.06
426.068	489.06
426.291	479.06
426.513	463.06
426.735	466.06
426.958	482.06
427.18	542.06
427.402	621.06
427.625	663.06
427.847	589.06
428.069	554.06
428.292	517.06
428.514	453.06
428.736	463.06
428.958	439.06
429.181	435.06
429.403	431.06
429.625	453.06
429.847	451.06
430.069	482.06
430.292	473.06
430.514	429.06
430.736	418.06
430.958	449.06
431.18	411.06
431.402	430.06
431.624	420.06
431.846	429.06
432.068	429.06
432.29	410.06
432.512	439.06
432.734	429.06
432.956	429.06
433.178	439.06
433.4	431.06
433.622	436.06
433.844	426.06
434.066	443.06
434.287	422.06
434.509	444.06
434.731	440.06
434.953	449.06
435.175	471.06
435.397	485.06
435.618	459.06
435.84	512.06
436.062	555.06
436.284	597.06
436.505	505.06
436.727	452.06
436.949	423.06
437.17	417.06
437.392	427.06
437.614	428.06
437.835	437.06
438.057	501.06
438.278	552.06
438.5	556.06
438.721	626.06
438.943	570.06
439.165	485.06
439.386	470.06
439.608	459.06
439.829	463.06
440.05	471.06
440.272	504.06
440.493	479.06
440.715	459.06
440.936	450.06
441.158	442.06
441.379	473.06
441.6	493.06
441.822	483.06
442.043	507.06
442.264	528.06
442.486	576.06
442.707	509.06
442.928	480.06
443.149	472.06
443.371	504.06
443.592	519.06
443.813	565.06
444.034	612.06
444.255	533.06
444.476	521.06
444.698	500.06
444.919	524.06
445.14	598.06
445.361	525.06
445.582	517.06
445.803	544.06
446.024	599.06
446.245	579.06
446.466	546.06
446.687	483.06
446.908	445.06
447.129	450.06
447.35	418.06
447.571	439.06
447.792	425.06
448.013	412.06
448.234	446.06
448.455	464.06
448.675	523.06
448.896	576.06
449.117	512.06
449.338	476.06
449.559	536.06
449.779	575.06
450	496.06
450.221	432.06
450.442	459.06
450.662	400.06
450.883	416.06
451.104	407.06
451.324	422.06
451.545	400.06
451.766	404.06
451.986	407.06
452.207	386.06
452.428	390.06
452.648	372.06
452.869	398.06
453.089	387.06
453.31	390.06
453.53	386.06
453.751	401.06
453.971	403.06
454.192	398.06
454.412	391.06
454.633	381.06
454.853	375.06
455.073	368.06
455.294	373.06
455.514	404.06
455.734	432.06
455.955	380.06
456.175	377.06
456.395	368.06
456.616	359.06
456.836	400.06
457.056	377.06
457.276	352.06
457.497	377.06
457.717	361.06
457.937	370.06
458.157	377.06
458.377	375.06
458.598	398.06
458.818	428.06
459.038	469.06
459.258	474.06
459.478	454.06
459.698	431.06
459.918	427.06
460.138	446.06
460.358	449.06
460.578	464.06
460.798	454.06
461.018	460.06
461.238	475.06
461.458	447.06
461.678	472.06
461.898	453.06
462.118	478.06
462.338	488.06
462.558	486.06
462.777	504.06
462.997	533.06
463.217	547.06
463.437	553.06
463.657	516.06
463.876	493.06
464.096	495.06
464.316	489.06
464.536	522.06
464.755	504.06
464.975	512.06
465.195	503.06
465.414	497.06
465.634	465.06
465.854	450.06
466.073	441.06
466.293	407.06
466.512	407.06
466.732	400.06
466.951	389.06
467.171	383.06
467.391	419.06
467.61	391.06
467.829	384.06
468.049	406.06
468.268	451.06
468.488	400.06
468.707	408.06
468.927	392.06
469.146	394.06
469.365	397.06
469.585	398.06
469.804	415.06
470.023	409.06
470.243	409.06
470.462	416.06
470.681	434.06
470.901	408.06
471.12	408.06
471.339	408.06
471.558	404.06
471.777	398.06
471.997	408.06
472.216	432.06
472.435	471.06
472.654	446.06
472.873	420.06
473.092	409.06
473.311	399.06
473.53	394.06
473.749	414.06
473.968	438.06
474.187	465.06
474.406	480.06
474.625	402.06
474.844	402.06
475.063	410.06
475.282	393.06
475.501	392.06
475.72	406.06
475.939	388.06
476.158	390.06
476.377	415.06
476.596	401.06
476.814	398.06
477.033	415.06
477.252	407.06
477.471	396.06
477.69	431.06
477.908	436.06
478.127	449.06
478.346	449.06
478.564	451.06
478.783	460.06
479.002	473.06
479.22	473.06
479.439	484.06
479.658	489.06
479.876	462.06
480.095	490.06
480.313	499.06
480.532	519.06
480.751	519.06
480.969	534.06
481.188	596.06
481.406	623.06
481.624	563.06
481.843	518.06
482.061	491.06
482.28	492.06
482.498	473.06
482.717	454.06
482.935	475.06
483.153	456.06
483.372	448.06
483.59	451.06
483.808	452.06
484.027	461.06
484.245	469.06
484.463	444.06
484.681	457.06
484.9	473.06
485.118	471.06
485.336	467.06
485.554	472.06
485.772	500.06
485.99	464.06
486.209	470.06
486.427	488.06
486.645	477.06
486.863	481.06
487.081	487.06
487.299	494.06
487.517	487.06
487.735	480.06
487.953	469.06
488.171	492.06
488.389	479.06
488.607	464.06
488.825	495.06
489.043	494.06
489.261	479.06
489.479	506.06
489.696	488.06
489.914	492.06
490.132	488.06
490.35	483.06
490.568	495.06
490.786	501.06
491.003	511.06
491.221	555.06
491.439	544.06
491.657	541.06
491.874	528.06
492.092	550.06
492.31	557.06
492.527	547.06
492.745	566.06
492.963	543.06
493.18	549.06
493.398	565.06
493.615	566.06
493.833	553.06
494.05	569.06
494.268	555.06
494.485	585.06
494.703	584.06
494.92	564.06
495.138	537.06
495.355	578.06
495.573	557.06
495.79	565.06
496.008	549.06
496.225	562.06
496.442	575.06
496.66	572.06
496.877	571.06
497.094	576.06
497.312	576.06
497.529	570.06
497.746	593.06
497.963	593.06
498.181	617.06
498.398	621.06
498.615	651.06
498.832	680.06
499.049	714.06
499.267	759.06
499.484	791.06
499.701	831.06
499.918	894.06
500.135	972.06
500.352	1038.06
500.569	1084.06
500.786	1085.06
501.003	1063.06
501.22	941.06
501.437	909.06
501.654	821.06
501.871	805.06
502.088	736.06
502.305	715.06
502.522	695.06
502.739	665.06
502.956	646.06
503.172	613.06
503.389	600.06
503.606	608.06
503.823	592.06
504.04	605.06
504.256	598.06
504.473	582.06
504.69	585.06
504.907	599.06
505.123	583.06
505.34	549.06
505.557	512.06
505.773	501.06
505.99	531.06
506.207	527.06
506.423	525.06
506.64	484.06
506.856	486.06
507.073	492.06
507.289	493.06
507.506	506.06
507.722	499.06
507.939	512.06
508.155	489.06
508.372	481.06
508.588	476.06
508.805	489.06
509.021	484.06
509.238	494.06
509.454	487.06
509.67	478.06
509.887	482.06
510.103	479.06
510.319	498.06
510.536	525.06
510.752	779.06
510.968	620.06
511.184	485.06
511.401	452.06
511.617	463.06
511.833	468.06
512.049	481.06
512.265	469.06
512.481	465.06
512.698	447.06
512.914	465.06
513.13	469.06
513.346	472.06
513.562	448.06
513.778	462.06
513.994	459.06
514.21	442.06
514.426	471.06
514.642	494.06
514.858	496.06
515.074	549.06
515.29	579.06
515.506	757.06
515.721	678.06
515.937	517.06
516.153	493.06
516.369	504.06
516.585	499.06
516.801	495.06
517.016	499.06
517.232	529.06
517.448	555.06
517.664	530.06
517.879	532.06
518.095	554.06
518.311	550.06
518.527	528.06
518.742	503.06
518.958	488.06
519.173	491.06
519.389	471.06
519.605	480.06
519.82	468.06
520.036	459.06
520.251	474.06
520.467	498.06
520.682	483.06
520.898	479.06
521.113	480.06
521.329	505.06
521.544	529.06
521.76	631.06
521.975	921.06
522.19	898.06
522.406	573.06
522.621	475.06
522.836	466.06
523.052	457.06
523.267	451.06
523.482	424.06
523.698	416.06
523.913	436.06
524.128	416.06
524.343	402.06
524.559	423.06
524.774	409.06
524.989	406.06
525.204	405.06
525.419	431.06
525.634	375.06
525.849	412.06
526.064	404.06
526.28	394.06
526.495	377.06
526.71	402.06
526.925	372.06
527.14	381.06
527.355	399.06
527.57	397.06
527.785	410.06
527.999	383.06
528.214	391.06
528.429	397.06
528.644	393.06
528.859	403.06
529.074	401.06
529.289	401.06
529.503	432.06
529.718	410.06
529.933	411.06
530.148	406.06
530.363	393.06
530.577	383.06
530.792	387.06
531.007	384.06
531.221	383.06
531.436	383.06
531.651	394.06
531.865	393.06
532.08	366.06
532.295	393.06
532.509	383.06
532.724	377.06
532.938	375.06
533.153	385.06
533.367	377.06
533.582	384.06
533.796	397.06
534.011	365.06
534.225	401.06
534.44	371.06
534.654	373.06
534.868	396.06
535.083	386.06
535.297	386.06
535.511	381.06
535.726	382.06
535.94	383.06
536.154	361.06
536.369	370.06
536.583	371.06
536.797	376.06
537.011	367.06
537.225	370.06
537.44	363.06
537.654	356.06
537.868	359.06
538.082	368.06
538.296	365.06
538.51	360.06
538.724	382.06
538.938	363.06
539.153	362.06
539.367	360.06
539.581	371.06
539.795	357.06
540.009	354.06
540.222	362.06
540.436	360.06
540.65	354.06
540.864	366.06
541.078	378.06
541.292	366.06
541.506	373.06
541.72	351.06
541.934	365.06
542.147	359.06
542.361	357.06
542.575	351.06
542.789	374.06
543.002	357.06
543.216	357.06
543.43	365.06
543.644	366.06
543.857	379.06
544.071	383.06
544.285	350.06
544.498	379.06
544.712	366.06
544.925	369.06
545.139	369.06
545.352	373.06
545.566	357.06
545.779	381.06
545.993	359.06
546.206	371.06
546.42	383.06
546.633	356.06
546.847	355.06
547.06	354.06
547.274	343.06
547.487	354.06
547.7	349.06
547.914	353.06
548.127	358.06
548.34	365.06
548.554	358.06
548.767	360.06
548.98	372.06
549.193	341.06
549.407	340.06
549.62	364.06
549.833	348.06
550.046	367.06
550.259	347.06
550.473	333.06
550.686	351.06
550.899	364.06
551.112	360.06
551.325	357.06
551.538	359.06
551.751	360.06
551.964	356.06
552.177	372.06
552.39	360.06
552.603	379.06
552.816	358.06
553.029	380.06
553.242	364.06
553.455	385.06
553.667	399.06
553.88	377.06
554.093	379.06
554.306	387.06
554.519	372.06
554.732	367.06
554.944	364.06
555.157	360.06
555.37	348.06
555.583	359.06
555.795	346.06
556.008	337.06
556.221	323.06
556.433	336.06
556.646	352.06
556.859	347.06
557.071	338.06
557.284	320.06
557.496	335.06
557.709	315.06
557.921	326.06
558.134	338.06
558.346	325.06
558.559	326.06
558.771	335.06
558.984	324.06
559.196	318.06
559.409	318.06
559.621	326.06
559.833	325.06
560.046	307.06
560.258	311.06
560.47	327.06
560.683	316.06
560.895	293.06
561.107	311.06
561.32	325.06
561.532	301.06
561.744	313.06
561.956	318.06
562.168	314.06
562.381	301.06
562.593	314.06
562.805	323.06
563.017	312.06
563.229	315.06
563.441	336.06
563.653	329.06
563.865	320.06
564.077	313.06
564.289	331.06
564.501	357.06
564.713	330.06
564.925	344.06
565.137	363.06
565.349	367.06
565.561	364.06
565.773	382.06
565.985	358.06
566.197	382.06
566.408	405.06
566.62	427.06
566.832	456.06
567.044	435.06
567.255	463.06
567.467	467.06
567.679	478.06
567.891	523.06
568.102	523.06
568.314	512.06
568.526	448.06
568.737	414.06
568.949	413.06
569.161	396.06
569.372	337.06
569.584	345.06
569.795	336.06
570.007	352.06
570.218	375.06
570.43	335.06
570.641	327.06
570.853	334.06
571.064	334.06
571.276	341.06
571.487	335.06
571.698	308.06
571.91	318.06
572.121	309.06
572.333	296.06
572.544	296.06
572.755	288.06
572.966	304.06
573.178	281.06
573.389	286.06
573.6	291.06
573.811	285.06
574.023	286.06
574.234	283.06
574.445	292.06
574.656	284.06
574.867	299.06
575.078	267.06
575.289	279.06
575.501	283.06
575.712	276.06
575.923	265.06
576.134	271.06
576.345	267.06
576.556	280.06
576.767	283.06
576.978	281.06
577.188	270.06
577.399	261.06
577.61	254.06
577.821	266.06
578.032	262.06
578.243	295.06
578.454	386.06
578.665	320.06
578.875	247.06
579.086	245.06
579.297	275.06
579.508	258.06
579.718	254.06
579.929	244.06
580.14	265.06
580.35	278.06
580.561	256.06
580.772	239.06
580.982	262.06
581.193	259.06
581.403	254.06
581.614	249.06
581.825	251.06
582.035	254.06
582.246	238.06
582.456	265.06
582.667	273.06
582.877	252.06
583.087	251.06
583.298	240.06
583.508	251.06
583.719	279.06
583.929	263.06
584.139	271.06
584.35	265.06
584.56	240.06
584.77	250.06
584.981	259.06
585.191	245.06
585.401	236.06
585.611	265.06
585.821	265.06
586.032	265.06
586.242	260.06
586.452	239.06
586.662	235.06
586.872	256.06
587.082	248.06
587.292	251.06
587.502	247.06
587.713	257.06
587.923	257.06
588.133	231.06
588.343	249.06
588.553	263.06
588.762	231.06
588.972	260.06
589.182	259.06
589.392	246.06
589.602	252.06
589.812	258.06
590.022	255.06
590.232	259.06
590.441	236.06
590.651	241.06
590.861	239.06
591.071	240.06
591.281	260.06
591.49	252.06
591.7	250.06
591.91	257.06
592.119	263.06
592.329	267.06
592.539	287.06
592.748	285.06
592.958	268.06
593.167	298.06
593.377	292.06
593.587	302.06
593.796	274.06
594.006	293.06
594.215	283.06
594.424	286.06
594.634	289.06
594.843	271.06
595.053	277.06
595.262	268.06
595.472	260.06
595.681	263.06
595.89	257.06
596.1	236.06
596.309	245.06
596.518	234.06
596.727	269.06
596.937	248.06
597.146	233.06
597.355	240.06
597.564	237.06
597.774	220.06
597.983	232.06
598.192	229.06
598.401	238.06
598.61	230.06
598.819	229.06
599.028	221.06
599.237	245.06
599.446	234.06
599.655	201.06
599.864	222.06
600.073	213.06
600.282	220.06
600.491	205.06
600.7	220.06
600.909	228.06
601.118	201.06
601.327	209.06
601.536	224.06
601.745	208.06
601.953	217.06
602.162	208.06
602.371	210.06
602.58	216.06
602.789	218.06
602.997	211.06
603.206	203.06
603.415	213.06
603.623	219.06
603.832	214.06
604.041	216.06
604.249	212.06
604.458	204.06
604.666	210.06
604.875	214.06
605.084	195.06
605.292	208.06
605.501	208.06
605.709	195.06
605.918	215.06
606.126	216.06
606.334	206.06
606.543	200.06
606.751	207.06
606.96	207.06
607.168	200.06
607.376	197.06
607.585	209.06
607.793	203.06
608.001	205.06
608.21	213.06
608.418	199.06
608.626	209.06
608.834	219.06
609.043	204.06
609.251	204.06
609.459	215.06
609.667	200.06
609.875	195.06
610.083	215.06
610.291	206.06
610.499	209.06
610.707	220.06
610.916	215.06
611.124	211.06
611.332	219.06
611.54	219.06
611.748	198.06
611.955	216.06
612.163	212.06
612.371	219.06
612.579	203.06
612.787	192.06
612.995	222.06
613.203	220.06
613.411	199.06
613.618	231.06
613.826	186.06
614.034	189.06
614.242	196.06
614.449	205.06
614.657	197.06
614.865	200.06
615.072	214.06
615.28	206.06
615.488	204.06
615.695	198.06
615.903	184.06
616.111	206.06
616.318	195.06
616.526	202.06
616.733	192.06
616.941	191.06
617.148	210.06
617.356	185.06
617.563	192.06
617.771	207.06
617.978	192.06
618.185	196.06
618.393	195.06
618.6	199.06
618.807	208.06
619.015	194.06
619.222	210.06
619.429	191.06
619.637	197.06
619.844	190.06
620.051	200.06
620.258	214.06
620.466	185.06
620.673	181.06
620.88	183.06
621.087	176.06
621.294	187.06
621.501	190.06
621.708	204.06
621.915	179.06
622.122	187.06
622.329	180.06
622.536	193.06
622.743	195.06
622.95	182.06
623.157	184.06
623.364	187.06
623.571	176.06
623.778	183.06
623.985	199.06
624.192	171.06
624.399	180.06
624.606	193.06
624.812	181.06
625.019	177.06
625.226	166.06
625.433	180.06
625.639	189.06
625.846	190.06
626.053	198.06
626.259	180.06
626.466	168.06
626.673	168.06
626.879	189.06
627.086	167.06
627.293	177.06
627.499	179.06
627.706	173.06
627.912	175.06
628.119	183.06
628.325	184.06
628.532	175.06
628.738	168.06
628.945	164.06
629.151	174.06
629.357	181.06
629.564	175.06
629.77	181.06
629.976	189.06
630.183	171.06
630.389	167.06
630.595	158.06
630.802	163.06
631.008	196.06
631.214	163.06
631.42	177.06
631.627	173.06
631.833	166.06
632.039	185.06
632.245	172.06
632.451	155.06
632.657	164.06
632.863	164.06
633.069	164.06
633.275	173.06
633.481	157.06
633.688	160.06
633.893	173.06
634.099	164.06
634.305	164.06
634.511	184.06
634.717	158.06
634.923	163.06
635.129	159.06
635.335	171.06
635.541	155.06
635.747	172.06
635.952	154.06
636.158	167.06
636.364	179.06
636.57	168.06
636.775	171.06
636.981	163.06
637.187	150.06
637.392	152.06
637.598	161.06
637.804	147.06
638.009	165.06
638.215	167.06
638.421	169.06
638.626	145.06
638.832	156.06
639.037	143.06
639.243	157.06
639.448	154.06
639.654	167.06
639.859	168.06
640.065	170.06
640.27	153.06
640.475	158.06
640.681	169.06
640.886	158.06
641.091	152.06
641.297	154.06
641.502	155.06
641.707	147.06
641.913	137.06
642.118	159.06
642.323	154.06
642.528	160.06
642.733	143.06
642.939	138.06
643.144	144.06
643.349	152.06
643.554	139.06
643.759	151.06
643.964	151.06
644.169	144.06
644.374	151.06
644.579	141.06
644.784	155.06
644.989	149.06
645.194	139.06
645.399	152.06
645.604	136.06
645.809	137.06
646.014	158.06
646.219	157.06
646.423	151.06
646.628	140.06
646.833	138.06
647.038	148.06
647.243	150.06
647.447	146.06
647.652	137.06
647.857	158.06
648.062	161.06
648.266	167.06
648.471	161.06
648.676	158.06
648.88	168.06
649.085	150.06
649.289	149.06
649.494	155.06
649.698	171.06
649.903	159.06
650.107	139.06
650.312	151.06
650.516	137.06
650.721	151.06
650.925	153.06
651.13	129.06
651.334	144.06
651.539	143.06
651.743	141.06
651.947	140.06
652.152	141.06
652.356	135.06
652.56	127.06
652.764	139.06
652.969	133.06
653.173	133.06
653.377	120.06
653.581	127.06
653.785	123.06
653.99	130.06
654.194	129.06
654.398	138.06
654.602	135.06
654.806	127.06
655.01	139.06
655.214	131.06
655.418	136.06
655.622	134.06
655.826	130.06
656.03	129.06
656.234	134.06
656.438	136.06
656.642	144.06
656.846	121.06
657.049	108.06
657.253	127.06
657.457	120.06
657.661	119.06
657.865	126.06
658.068	115.06
658.272	100.06
658.476	97.06
658.68	104.06
658.883	116.06
659.087	111.06
659.291	101.06
659.494	107.06
659.698	91.06
659.901	86.06
660.105	92.06
660.309	90.06
660.512	86.06
660.716	90.06
660.919	90.06
661.123	93.06
661.326	92.06
661.53	80.06
661.733	84.06
661.936	77.06
662.14	93.06
662.343	98.06
662.546	88.06
662.75	77.06
662.953	92.06
663.156	99.06
663.36	89.06
663.563	79.06
663.766	90.06
663.969	81.06
664.173	81.06
664.376	87.06
664.579	87.06
664.782	86.06
664.985	91.06
665.188	88.06
665.391	92.06
665.594	99.06
665.797	96.06
666	73.06
666.203	97.06
666.406	88.06
666.609	74.06
666.812	92.06
667.015	93.06
667.218	93.06
667.421	91.06
667.624	101.06
667.827	99.06
668.03	89.06
668.232	83.06
668.435	91.06
668.638	91.06
668.841	80.06
669.043	78.06
669.246	89.06
669.449	93.06
669.651	94.06
669.854	84.06
670.057	92.06
670.259	81.06
670.462	93.06
670.665	87.06
670.867	86.06
671.07	78.06
671.272	76.06
671.475	79.06
671.677	98.06
671.88	90.06
672.082	77.06
672.284	86.06
672.487	80.06
672.689	83.06
672.892	78.06
