Data from 1984.PennyLincolnUp.Lamp.En5.5.200Scan.071819.P1_HRD10591_16-58-30-969.txt Node
Date: Thu Jul 18 16:58:30 EDT 2019
User: cochatt
Spectrometer: HR+D1059
Trigger mode: 1
Integration Time (sec): 1.000000E-1
Scans to average: 1
Electric dark correction enabled: true
Nonlinearity correction enabled: false
Boxcar width: 0
XAxis mode: Wavelengths
Number of Pixels in Spectrum: 2048
>>>>>Begin Spectral Data<<<<<
223.165	-12.62
223.4	-12.62
223.635	-12.62
223.869	-16.62
224.104	-21.62
224.338	-19.62
224.573	-19.62
224.808	-19.62
225.042	4.38
225.277	-5.62
225.511	7.38
225.746	0.38
225.98	3.38
226.215	1.38
226.449	14.38
226.683	31.38
226.918	23.38
227.152	29.38
227.387	39.38
227.621	41.38
227.856	41.38
228.09	47.38
228.324	54.38
228.559	56.38
228.793	62.38
229.027	94.38
229.262	107.38
229.496	95.38
229.73	108.38
229.964	145.38
230.199	121.38
230.433	119.38
230.667	106.38
230.901	113.38
231.136	86.38
231.37	97.38
231.604	103.38
231.838	104.38
232.072	97.38
232.306	117.38
232.541	118.38
232.775	108.38
233.009	124.38
233.243	103.38
233.477	125.38
233.711	122.38
233.945	119.38
234.179	124.38
234.413	120.38
234.647	109.38
234.881	127.38
235.115	111.38
235.349	122.38
235.583	112.38
235.817	102.38
236.051	117.38
236.285	97.38
236.519	118.38
236.753	122.38
236.987	136.38
237.221	153.38
237.455	172.38
237.689	151.38
237.922	124.38
238.156	125.38
238.39	122.38
238.624	123.38
238.858	121.38
239.091	106.38
239.325	120.38
239.559	116.38
239.793	117.38
240.027	111.38
240.26	123.38
240.494	139.38
240.728	139.38
240.961	128.38
241.195	139.38
241.429	133.38
241.662	128.38
241.896	135.38
242.13	136.38
242.363	129.38
242.597	127.38
242.83	106.38
243.064	123.38
243.298	127.38
243.531	137.38
243.765	131.38
243.998	133.38
244.232	125.38
244.465	134.38
244.699	131.38
244.932	124.38
245.166	139.38
245.399	130.38
245.633	135.38
245.866	141.38
246.099	137.38
246.333	135.38
246.566	136.38
246.8	142.38
247.033	131.38
247.266	144.38
247.5	155.38
247.733	140.38
247.966	151.38
248.2	145.38
248.433	155.38
248.666	157.38
248.899	165.38
249.133	176.38
249.366	169.38
249.599	175.38
249.832	176.38
250.066	165.38
250.299	173.38
250.532	177.38
250.765	198.38
250.998	189.38
251.231	186.38
251.465	189.38
251.698	191.38
251.931	171.38
252.164	170.38
252.397	169.38
252.63	173.38
252.863	193.38
253.096	184.38
253.329	195.38
253.562	184.38
253.795	181.38
254.028	190.38
254.261	177.38
254.494	203.38
254.727	207.38
254.96	216.38
255.193	217.38
255.426	214.38
255.659	211.38
255.892	225.38
256.124	230.38
256.357	222.38
256.59	205.38
256.823	193.38
257.056	208.38
257.289	197.38
257.521	170.38
257.754	196.38
257.987	180.38
258.22	205.38
258.452	189.38
258.685	183.38
258.918	196.38
259.151	192.38
259.383	192.38
259.616	197.38
259.849	187.38
260.081	217.38
260.314	211.38
260.547	220.38
260.779	194.38
261.012	201.38
261.244	188.38
261.477	200.38
261.71	203.38
261.942	205.38
262.175	206.38
262.407	197.38
262.64	201.38
262.872	203.38
263.105	188.38
263.337	204.38
263.57	187.38
263.802	185.38
264.035	192.38
264.267	199.38
264.499	192.38
264.732	206.38
264.964	201.38
265.197	204.38
265.429	211.38
265.661	204.38
265.894	210.38
266.126	206.38
266.358	213.38
266.591	199.38
266.823	219.38
267.055	203.38
267.287	208.38
267.52	207.38
267.752	193.38
267.984	213.38
268.216	217.38
268.448	236.38
268.681	228.38
268.913	215.38
269.145	222.38
269.377	236.38
269.609	224.38
269.841	233.38
270.073	250.38
270.306	249.38
270.538	239.38
270.77	263.38
271.002	252.38
271.234	249.38
271.466	254.38
271.698	261.38
271.93	267.38
272.162	264.38
272.394	239.38
272.626	260.38
272.858	249.38
273.09	240.38
273.322	237.38
273.553	247.38
273.785	233.38
274.017	225.38
274.249	265.38
274.481	233.38
274.713	239.38
274.945	240.38
275.176	234.38
275.408	230.38
275.64	245.38
275.872	246.38
276.104	239.38
276.335	255.38
276.567	258.38
276.799	242.38
277.031	249.38
277.262	281.38
277.494	270.38
277.726	263.38
277.957	257.38
278.189	268.38
278.421	269.38
278.652	238.38
278.884	238.38
279.115	245.38
279.347	239.38
279.579	246.38
279.81	251.38
280.042	252.38
280.273	265.38
280.505	259.38
280.736	248.38
280.968	247.38
281.199	269.38
281.431	262.38
281.662	268.38
281.894	277.38
282.125	260.38
282.356	260.38
282.588	279.38
282.819	273.38
283.051	247.38
283.282	268.38
283.513	263.38
283.745	255.38
283.976	254.38
284.207	263.38
284.439	264.38
284.67	282.38
284.901	267.38
285.132	255.38
285.364	289.38
285.595	270.38
285.826	263.38
286.057	265.38
286.288	268.38
286.52	283.38
286.751	270.38
286.982	255.38
287.213	282.38
287.444	279.38
287.675	275.38
287.906	273.38
288.138	281.38
288.369	294.38
288.6	280.38
288.831	280.38
289.062	272.38
289.293	299.38
289.524	304.38
289.755	281.38
289.986	271.38
290.217	277.38
290.448	278.38
290.679	311.38
290.91	270.38
291.141	283.38
291.371	284.38
291.602	279.38
291.833	290.38
292.064	284.38
292.295	276.38
292.526	265.38
292.757	287.38
292.987	288.38
293.218	277.38
293.449	263.38
293.68	288.38
293.91	282.38
294.141	284.38
294.372	287.38
294.603	277.38
294.833	283.38
295.064	282.38
295.295	285.38
295.525	272.38
295.756	288.38
295.987	311.38
296.217	300.38
296.448	302.38
296.679	299.38
296.909	284.38
297.14	294.38
297.37	315.38
297.601	288.38
297.831	289.38
298.062	308.38
298.292	304.38
298.523	293.38
298.753	305.38
298.984	307.38
299.214	289.38
299.445	297.38
299.675	302.38
299.905	292.38
300.136	279.38
300.366	310.38
300.597	287.38
300.827	314.38
301.057	335.38
301.288	326.38
301.518	323.38
301.748	320.38
301.979	313.38
302.209	320.38
302.439	332.38
302.669	325.38
302.9	319.38
303.13	320.38
303.36	331.38
303.59	334.38
303.82	325.38
304.051	317.38
304.281	284.38
304.511	298.38
304.741	320.38
304.971	311.38
305.201	321.38
305.431	305.38
305.661	330.38
305.891	299.38
306.121	328.38
306.352	328.38
306.582	311.38
306.812	329.38
307.042	323.38
307.272	325.38
307.502	331.38
307.731	312.38
307.961	313.38
308.191	337.38
308.421	319.38
308.651	314.38
308.881	326.38
309.111	329.38
309.341	339.38
309.571	343.38
309.8	334.38
310.03	343.38
310.26	337.38
310.49	327.38
310.72	345.38
310.949	351.38
311.179	345.38
311.409	348.38
311.639	342.38
311.868	341.38
312.098	337.38
312.328	342.38
312.557	351.38
312.787	373.38
313.017	364.38
313.246	375.38
313.476	360.38
313.706	356.38
313.935	365.38
314.165	368.38
314.394	370.38
314.624	346.38
314.853	353.38
315.083	371.38
315.312	337.38
315.542	337.38
315.771	348.38
316.001	338.38
316.23	364.38
316.46	336.38
316.689	347.38
316.919	355.38
317.148	365.38
317.377	360.38
317.607	340.38
317.836	342.38
318.065	348.38
318.295	348.38
318.524	357.38
318.753	348.38
318.983	359.38
319.212	333.38
319.441	364.38
319.67	365.38
319.9	347.38
320.129	353.38
320.358	337.38
320.587	347.38
320.816	352.38
321.046	360.38
321.275	364.38
321.504	371.38
321.733	363.38
321.962	351.38
322.191	368.38
322.42	379.38
322.649	387.38
322.878	377.38
323.108	392.38
323.337	414.38
323.566	418.38
323.795	450.38
324.024	460.38
324.253	542.38
324.482	682.38
324.71	1026.38
324.939	1438.38
325.168	1208.38
325.397	681.38
325.626	502.38
325.855	475.38
326.084	436.38
326.313	412.38
326.542	418.38
326.77	463.38
326.999	523.38
327.228	657.38
327.457	938.38
327.686	1099.38
327.914	767.38
328.143	565.38
328.372	519.38
328.6	492.38
328.829	473.38
329.058	476.38
329.287	459.38
329.515	453.38
329.744	454.38
329.972	475.38
330.201	508.38
330.43	533.38
330.658	517.38
330.887	533.38
331.115	479.38
331.344	447.38
331.572	432.38
331.801	425.38
332.03	439.38
332.258	421.38
332.486	421.38
332.715	439.38
332.943	460.38
333.172	469.38
333.4	466.38
333.629	491.38
333.857	508.38
334.085	507.38
334.314	557.38
334.542	601.38
334.771	627.38
334.999	535.38
335.227	488.38
335.455	474.38
335.684	443.38
335.912	423.38
336.14	414.38
336.369	425.38
336.597	443.38
336.825	433.38
337.053	409.38
337.281	404.38
337.51	405.38
337.738	421.38
337.966	410.38
338.194	413.38
338.422	399.38
338.65	407.38
338.878	395.38
339.106	409.38
339.334	407.38
339.562	411.38
339.79	407.38
340.018	381.38
340.246	380.38
340.474	399.38
340.702	396.38
340.93	396.38
341.158	372.38
341.386	392.38
341.614	399.38
341.842	397.38
342.07	405.38
342.298	375.38
342.526	389.38
342.754	368.38
342.981	364.38
343.209	397.38
343.437	385.38
343.665	411.38
343.893	435.38
344.12	457.38
344.348	416.38
344.576	419.38
344.804	424.38
345.031	412.38
345.259	405.38
345.487	394.38
345.714	381.38
345.942	378.38
346.17	383.38
346.397	369.38
346.625	364.38
346.853	376.38
347.08	375.38
347.308	377.38
347.535	376.38
347.763	371.38
347.99	384.38
348.218	389.38
348.445	361.38
348.673	375.38
348.9	370.38
349.128	362.38
349.355	375.38
349.583	365.38
349.81	368.38
350.037	367.38
350.265	372.38
350.492	371.38
350.72	372.38
350.947	359.38
351.174	373.38
351.402	366.38
351.629	369.38
351.856	382.38
352.083	381.38
352.311	400.38
352.538	374.38
352.765	366.38
352.992	375.38
353.22	364.38
353.447	366.38
353.674	361.38
353.901	349.38
354.128	351.38
354.355	348.38
354.583	340.38
354.81	336.38
355.037	354.38
355.264	352.38
355.491	359.38
355.718	350.38
355.945	363.38
356.172	355.38
356.399	336.38
356.626	350.38
356.853	340.38
357.08	345.38
357.307	331.38
357.534	352.38
357.761	350.38
357.988	351.38
358.215	346.38
358.441	353.38
358.668	355.38
358.895	352.38
359.122	352.38
359.349	379.38
359.576	366.38
359.802	367.38
360.029	384.38
360.256	375.38
360.483	374.38
360.709	359.38
360.936	357.38
361.163	374.38
361.39	373.38
361.616	360.38
361.843	375.38
362.07	361.38
362.296	352.38
362.523	382.38
362.749	373.38
362.976	352.38
363.203	364.38
363.429	352.38
363.656	359.38
363.882	354.38
364.109	341.38
364.335	359.38
364.562	385.38
364.788	354.38
365.015	373.38
365.241	341.38
365.468	355.38
365.694	367.38
365.92	339.38
366.147	372.38
366.373	345.38
366.599	351.38
366.826	360.38
367.052	340.38
367.278	344.38
367.505	346.38
367.731	348.38
367.957	350.38
368.184	363.38
368.41	344.38
368.636	329.38
368.862	358.38
369.089	373.38
369.315	357.38
369.541	349.38
369.767	333.38
369.993	348.38
370.219	350.38
370.445	344.38
370.672	357.38
370.898	350.38
371.124	351.38
371.35	365.38
371.576	363.38
371.802	367.38
372.028	364.38
372.254	369.38
372.48	360.38
372.706	376.38
372.932	361.38
373.158	375.38
373.384	367.38
373.61	345.38
373.835	375.38
374.061	358.38
374.287	369.38
374.513	380.38
374.739	377.38
374.965	383.38
375.191	368.38
375.416	372.38
375.642	378.38
375.868	368.38
376.094	371.38
376.319	354.38
376.545	351.38
376.771	346.38
376.997	353.38
377.222	364.38
377.448	348.38
377.674	356.38
377.899	356.38
378.125	351.38
378.35	336.38
378.576	339.38
378.802	349.38
379.027	348.38
379.253	340.38
379.478	345.38
379.704	358.38
379.929	347.38
380.155	348.38
380.38	356.38
380.606	352.38
380.831	342.38
381.057	350.38
381.282	350.38
381.507	358.38
381.733	339.38
381.958	356.38
382.184	361.38
382.409	364.38
382.634	365.38
382.86	380.38
383.085	363.38
383.31	381.38
383.535	379.38
383.761	396.38
383.986	359.38
384.211	391.38
384.436	380.38
384.662	383.38
384.887	384.38
385.112	398.38
385.337	415.38
385.562	396.38
385.787	383.38
386.013	412.38
386.238	422.38
386.463	422.38
386.688	401.38
386.913	390.38
387.138	377.38
387.363	402.38
387.588	401.38
387.813	396.38
388.038	393.38
388.263	390.38
388.488	398.38
388.713	401.38
388.938	387.38
389.163	387.38
389.387	393.38
389.612	385.38
389.837	412.38
390.062	396.38
390.287	399.38
390.512	405.38
390.736	399.38
390.961	411.38
391.186	423.38
391.411	418.38
391.636	412.38
391.86	432.38
392.085	449.38
392.31	437.38
392.534	416.38
392.759	413.38
392.984	407.38
393.208	416.38
393.433	401.38
393.658	415.38
393.882	412.38
394.107	414.38
394.331	416.38
394.556	391.38
394.78	409.38
395.005	417.38
395.229	408.38
395.454	407.38
395.678	425.38
395.903	431.38
396.127	435.38
396.352	448.38
396.576	443.38
396.801	401.38
397.025	414.38
397.249	428.38
397.474	441.38
397.698	422.38
397.922	443.38
398.147	430.38
398.371	489.38
398.595	462.38
398.82	442.38
399.044	501.38
399.268	531.38
399.492	575.38
399.717	629.38
399.941	651.38
400.165	613.38
400.389	572.38
400.613	538.38
400.837	495.38
401.062	497.38
401.286	493.38
401.51	445.38
401.734	484.38
401.958	483.38
402.182	490.38
402.406	468.38
402.63	494.38
402.854	480.38
403.078	472.38
403.302	506.38
403.526	502.38
403.75	516.38
403.974	513.38
404.198	516.38
404.422	509.38
404.645	515.38
404.869	527.38
405.093	538.38
405.317	539.38
405.541	583.38
405.765	545.38
405.988	532.38
406.212	537.38
406.436	530.38
406.66	545.38
406.883	535.38
407.107	541.38
407.331	590.38
407.555	617.38
407.778	637.38
408.002	604.38
408.226	553.38
408.449	550.38
408.673	565.38
408.896	562.38
409.12	583.38
409.344	556.38
409.567	507.38
409.791	480.38
410.014	492.38
410.238	481.38
410.461	488.38
410.685	487.38
410.908	510.38
411.132	526.38
411.355	523.38
411.578	532.38
411.802	485.38
412.025	497.38
412.249	521.38
412.472	517.38
412.695	533.38
412.919	543.38
413.142	530.38
413.365	480.38
413.589	473.38
413.812	462.38
414.035	470.38
414.258	466.38
414.482	474.38
414.705	483.38
414.928	471.38
415.151	470.38
415.374	452.38
415.597	470.38
415.821	456.38
416.044	456.38
416.267	443.38
416.49	481.38
416.713	460.38
416.936	454.38
417.159	452.38
417.382	471.38
417.605	467.38
417.828	469.38
418.051	485.38
418.274	485.38
418.497	459.38
418.72	473.38
418.943	465.38
419.166	471.38
419.389	496.38
419.611	508.38
419.834	523.38
420.057	484.38
420.28	494.38
420.503	503.38
420.726	477.38
420.948	513.38
421.171	510.38
421.394	507.38
421.617	485.38
421.839	474.38
422.062	489.38
422.285	460.38
422.507	498.38
422.73	551.38
422.953	533.38
423.175	501.38
423.398	494.38
423.621	489.38
423.843	500.38
424.066	501.38
424.288	493.38
424.511	530.38
424.733	519.38
424.956	571.38
425.178	542.38
425.401	547.38
425.623	593.38
425.846	507.38
426.068	489.38
426.291	478.38
426.513	470.38
426.735	494.38
426.958	517.38
427.18	547.38
427.402	616.38
427.625	652.38
427.847	611.38
428.069	563.38
428.292	521.38
428.514	466.38
428.736	461.38
428.958	455.38
429.181	443.38
429.403	447.38
429.625	451.38
429.847	470.38
430.069	495.38
430.292	501.38
430.514	471.38
430.736	438.38
430.958	453.38
431.18	448.38
431.402	411.38
431.624	408.38
431.846	427.38
432.068	411.38
432.29	426.38
432.512	440.38
432.734	446.38
432.956	424.38
433.178	430.38
433.4	441.38
433.622	440.38
433.844	419.38
434.066	413.38
434.287	445.38
434.509	448.38
434.731	457.38
434.953	449.38
435.175	468.38
435.397	473.38
435.618	482.38
435.84	484.38
436.062	530.38
436.284	564.38
436.505	511.38
436.727	476.38
436.949	468.38
437.17	452.38
437.392	433.38
437.614	436.38
437.835	465.38
438.057	497.38
438.278	556.38
438.5	581.38
438.721	611.38
438.943	617.38
439.165	496.38
439.386	468.38
439.608	458.38
439.829	482.38
440.05	489.38
440.272	515.38
440.493	463.38
440.715	460.38
440.936	449.38
441.158	451.38
441.379	481.38
441.6	492.38
441.822	482.38
442.043	515.38
442.264	533.38
442.486	573.38
442.707	495.38
442.928	476.38
443.149	485.38
443.371	495.38
443.592	513.38
443.813	578.38
444.034	626.38
444.255	541.38
444.476	536.38
444.698	516.38
444.919	536.38
445.14	630.38
445.361	526.38
445.582	519.38
445.803	525.38
446.024	599.38
446.245	593.38
446.466	578.38
446.687	492.38
446.908	474.38
447.129	455.38
447.35	439.38
447.571	419.38
447.792	415.38
448.013	439.38
448.234	422.38
448.455	452.38
448.675	539.38
448.896	603.38
449.117	536.38
449.338	481.38
449.559	561.38
449.779	587.38
450	513.38
450.221	460.38
450.442	430.38
450.662	427.38
450.883	416.38
451.104	419.38
451.324	437.38
451.545	395.38
451.766	398.38
451.986	389.38
452.207	395.38
452.428	403.38
452.648	387.38
452.869	385.38
453.089	415.38
453.31	402.38
453.53	384.38
453.751	378.38
453.971	377.38
454.192	384.38
454.412	387.38
454.633	375.38
454.853	369.38
455.073	391.38
455.294	384.38
455.514	429.38
455.734	430.38
455.955	397.38
456.175	366.38
456.395	362.38
456.616	357.38
456.836	356.38
457.056	360.38
457.276	360.38
457.497	379.38
457.717	377.38
457.937	384.38
458.157	379.38
458.377	382.38
458.598	408.38
458.818	418.38
459.038	467.38
459.258	496.38
459.478	456.38
459.698	421.38
459.918	448.38
460.138	423.38
460.358	457.38
460.578	469.38
460.798	450.38
461.018	457.38
461.238	468.38
461.458	466.38
461.678	482.38
461.898	454.38
462.118	464.38
462.338	473.38
462.558	484.38
462.777	473.38
462.997	517.38
463.217	571.38
463.437	561.38
463.657	523.38
463.876	503.38
464.096	535.38
464.316	505.38
464.536	503.38
464.755	520.38
464.975	491.38
465.195	523.38
465.414	510.38
465.634	453.38
465.854	434.38
466.073	441.38
466.293	404.38
466.512	405.38
466.732	404.38
466.951	412.38
467.171	398.38
467.391	424.38
467.61	409.38
467.829	414.38
468.049	414.38
468.268	409.38
468.488	401.38
468.707	385.38
468.927	397.38
469.146	379.38
469.365	394.38
469.585	407.38
469.804	419.38
470.023	419.38
470.243	420.38
470.462	423.38
470.681	420.38
470.901	412.38
471.12	414.38
471.339	410.38
471.558	390.38
471.777	423.38
471.997	426.38
472.216	428.38
472.435	467.38
472.654	475.38
472.873	427.38
473.092	421.38
473.311	419.38
473.53	413.38
473.749	380.38
473.968	441.38
474.187	458.38
474.406	464.38
474.625	435.38
474.844	421.38
475.063	415.38
475.282	413.38
475.501	389.38
475.72	404.38
475.939	405.38
476.158	412.38
476.377	410.38
476.596	402.38
476.814	418.38
477.033	416.38
477.252	416.38
477.471	437.38
477.69	440.38
477.908	443.38
478.127	439.38
478.346	461.38
478.564	449.38
478.783	466.38
479.002	476.38
479.22	463.38
479.439	473.38
479.658	461.38
479.876	481.38
480.095	499.38
480.313	510.38
480.532	511.38
480.751	517.38
480.969	523.38
481.188	603.38
481.406	630.38
481.624	555.38
481.843	503.38
482.061	492.38
482.28	469.38
482.498	469.38
482.717	465.38
482.935	465.38
483.153	444.38
483.372	452.38
483.59	457.38
483.808	460.38
484.027	473.38
484.245	463.38
484.463	461.38
484.681	464.38
484.9	483.38
485.118	470.38
485.336	451.38
485.554	482.38
485.772	461.38
485.99	471.38
486.209	473.38
486.427	483.38
486.645	463.38
486.863	494.38
487.081	509.38
487.299	490.38
487.517	483.38
487.735	497.38
487.953	470.38
488.171	477.38
488.389	469.38
488.607	492.38
488.825	483.38
489.043	487.38
489.261	489.38
489.479	480.38
489.696	474.38
489.914	505.38
490.132	495.38
490.35	513.38
490.568	509.38
490.786	509.38
491.003	523.38
491.221	521.38
491.439	537.38
491.657	531.38
491.874	542.38
492.092	565.38
492.31	547.38
492.527	548.38
492.745	555.38
492.963	577.38
493.18	571.38
493.398	567.38
493.615	565.38
493.833	585.38
494.05	552.38
494.268	564.38
494.485	581.38
494.703	572.38
494.92	556.38
495.138	559.38
495.355	575.38
495.573	556.38
495.79	557.38
496.008	555.38
496.225	566.38
496.442	575.38
496.66	549.38
496.877	568.38
497.094	569.38
497.312	591.38
497.529	592.38
497.746	586.38
497.963	589.38
498.181	641.38
498.398	643.38
498.615	665.38
498.832	691.38
499.049	709.38
499.267	756.38
499.484	801.38
499.701	843.38
499.918	919.38
500.135	984.38
500.352	1035.38
500.569	1079.38
500.786	1112.38
501.003	1085.38
501.22	996.38
501.437	898.38
501.654	846.38
501.871	798.38
502.088	755.38
502.305	732.38
502.522	689.38
502.739	676.38
502.956	649.38
503.172	609.38
503.389	622.38
503.606	604.38
503.823	585.38
504.04	604.38
504.256	591.38
504.473	594.38
504.69	590.38
504.907	598.38
505.123	571.38
505.34	549.38
505.557	511.38
505.773	542.38
505.99	544.38
506.207	533.38
506.423	516.38
506.64	522.38
506.856	521.38
507.073	492.38
507.289	517.38
507.506	515.38
507.722	494.38
507.939	494.38
508.155	480.38
508.372	486.38
508.588	494.38
508.805	489.38
509.021	508.38
509.238	488.38
509.454	499.38
509.67	483.38
509.887	475.38
510.103	467.38
510.319	483.38
510.536	553.38
510.752	810.38
510.968	661.38
511.184	509.38
511.401	473.38
511.617	475.38
511.833	466.38
512.049	477.38
512.265	463.38
512.481	474.38
512.698	459.38
512.914	459.38
513.13	487.38
513.346	465.38
513.562	464.38
513.778	468.38
513.994	456.38
514.21	471.38
514.426	496.38
514.642	519.38
514.858	511.38
515.074	524.38
515.29	592.38
515.506	791.38
515.721	705.38
515.937	520.38
516.153	512.38
516.369	487.38
516.585	517.38
516.801	506.38
517.016	521.38
517.232	517.38
517.448	531.38
517.664	563.38
517.879	549.38
518.095	551.38
518.311	564.38
518.527	542.38
518.742	499.38
518.958	491.38
519.173	519.38
519.389	504.38
519.605	495.38
519.82	479.38
520.036	474.38
520.251	485.38
520.467	482.38
520.682	459.38
520.898	488.38
521.113	491.38
521.329	505.38
521.544	533.38
521.76	652.38
521.975	958.38
522.19	962.38
522.406	587.38
522.621	488.38
522.836	472.38
523.052	463.38
523.267	437.38
523.482	438.38
523.698	429.38
523.913	428.38
524.128	459.38
524.343	417.38
524.559	418.38
524.774	411.38
524.989	389.38
525.204	443.38
525.419	413.38
525.634	401.38
525.849	397.38
526.064	429.38
526.28	411.38
526.495	392.38
526.71	395.38
526.925	383.38
527.14	381.38
527.355	394.38
527.57	389.38
527.785	400.38
527.999	399.38
528.214	411.38
528.429	407.38
528.644	403.38
528.859	406.38
529.074	398.38
529.289	384.38
529.503	439.38
529.718	419.38
529.933	416.38
530.148	399.38
530.363	389.38
530.577	391.38
530.792	401.38
531.007	382.38
531.221	405.38
531.436	398.38
531.651	396.38
531.865	385.38
532.08	401.38
532.295	378.38
532.509	369.38
532.724	385.38
532.938	397.38
533.153	381.38
533.367	383.38
533.582	379.38
533.796	392.38
534.011	395.38
534.225	387.38
534.44	375.38
534.654	390.38
534.868	374.38
535.083	391.38
535.297	389.38
535.511	378.38
535.726	380.38
535.94	386.38
536.154	380.38
536.369	369.38
536.583	363.38
536.797	367.38
537.011	367.38
537.225	355.38
537.44	365.38
537.654	383.38
537.868	371.38
538.082	371.38
538.296	372.38
538.51	360.38
538.724	370.38
538.938	357.38
539.153	367.38
539.367	375.38
539.581	365.38
539.795	355.38
540.009	362.38
540.222	383.38
540.436	365.38
540.65	378.38
540.864	378.38
541.078	373.38
541.292	365.38
541.506	347.38
541.72	344.38
541.934	366.38
542.147	350.38
542.361	360.38
542.575	381.38
542.789	342.38
543.002	344.38
543.216	361.38
543.43	379.38
543.644	365.38
543.857	355.38
544.071	366.38
544.285	384.38
544.498	368.38
544.712	397.38
544.925	366.38
545.139	379.38
545.352	359.38
545.566	383.38
545.779	368.38
545.993	376.38
546.206	391.38
546.42	388.38
546.633	383.38
546.847	362.38
547.06	361.38
547.274	360.38
547.487	366.38
547.7	374.38
547.914	369.38
548.127	353.38
548.34	365.38
548.554	371.38
548.767	378.38
548.98	377.38
549.193	365.38
549.407	359.38
549.62	374.38
549.833	362.38
550.046	367.38
550.259	360.38
550.473	348.38
550.686	346.38
550.899	363.38
551.112	347.38
551.325	352.38
551.538	361.38
551.751	356.38
551.964	341.38
552.177	370.38
552.39	358.38
552.603	385.38
552.816	387.38
553.029	396.38
553.242	386.38
553.455	402.38
553.667	385.38
553.88	391.38
554.093	379.38
554.306	375.38
554.519	377.38
554.732	361.38
554.944	368.38
555.157	361.38
555.37	373.38
555.583	358.38
555.795	350.38
556.008	327.38
556.221	348.38
556.433	349.38
556.646	335.38
556.859	327.38
557.071	355.38
557.284	331.38
557.496	328.38
557.709	314.38
557.921	329.38
558.134	324.38
558.346	321.38
558.559	313.38
558.771	323.38
558.984	309.38
559.196	307.38
559.409	301.38
559.621	305.38
559.833	316.38
560.046	313.38
560.258	317.38
560.47	307.38
560.683	319.38
560.895	319.38
561.107	325.38
561.32	321.38
561.532	336.38
561.744	321.38
561.956	318.38
562.168	323.38
562.381	323.38
562.593	315.38
562.805	318.38
563.017	302.38
563.229	334.38
563.441	319.38
563.653	311.38
563.865	338.38
564.077	343.38
564.289	331.38
564.501	321.38
564.713	332.38
564.925	349.38
565.137	335.38
565.349	361.38
565.561	364.38
565.773	360.38
565.985	377.38
566.197	399.38
566.408	419.38
566.62	453.38
566.832	439.38
567.044	459.38
567.255	464.38
567.467	456.38
567.679	477.38
567.891	492.38
568.102	511.38
568.314	491.38
568.526	454.38
568.737	443.38
568.949	421.38
569.161	391.38
569.372	376.38
569.584	352.38
569.795	377.38
570.007	362.38
570.218	362.38
570.43	357.38
570.641	339.38
570.853	348.38
571.064	354.38
571.276	327.38
571.487	320.38
571.698	319.38
571.91	309.38
572.121	323.38
572.333	319.38
572.544	305.38
572.755	288.38
572.966	287.38
573.178	304.38
573.389	295.38
573.6	281.38
573.811	282.38
574.023	289.38
574.234	280.38
574.445	266.38
574.656	288.38
574.867	294.38
575.078	269.38
575.289	285.38
575.501	300.38
575.712	287.38
575.923	265.38
576.134	276.38
576.345	273.38
576.556	287.38
576.767	269.38
576.978	272.38
577.188	283.38
577.399	268.38
577.61	269.38
577.821	289.38
578.032	269.38
578.243	304.38
578.454	389.38
578.665	327.38
578.875	270.38
579.086	275.38
579.297	264.38
579.508	262.38
579.718	252.38
579.929	259.38
580.14	263.38
580.35	259.38
580.561	279.38
580.772	264.38
580.982	270.38
581.193	243.38
581.403	242.38
581.614	264.38
581.825	239.38
582.035	267.38
582.246	249.38
582.456	253.38
582.667	252.38
582.877	238.38
583.087	249.38
583.298	234.38
583.508	244.38
583.719	257.38
583.929	277.38
584.139	254.38
584.35	240.38
584.56	237.38
584.77	261.38
584.981	265.38
585.191	244.38
585.401	236.38
585.611	243.38
585.821	247.38
586.032	261.38
586.242	250.38
586.452	266.38
586.662	256.38
586.872	253.38
587.082	243.38
587.292	237.38
587.502	256.38
587.713	261.38
587.923	255.38
588.133	248.38
588.343	264.38
588.553	249.38
588.762	231.38
588.972	254.38
589.182	255.38
589.392	269.38
589.602	275.38
589.812	259.38
590.022	260.38
590.232	259.38
590.441	240.38
590.651	238.38
590.861	243.38
591.071	250.38
591.281	275.38
591.49	262.38
591.7	245.38
591.91	265.38
592.119	248.38
592.329	266.38
592.539	278.38
592.748	284.38
592.958	290.38
593.167	284.38
593.377	276.38
593.587	313.38
593.796	293.38
594.006	279.38
594.215	292.38
594.424	287.38
594.634	280.38
594.843	287.38
595.053	266.38
595.262	265.38
595.472	274.38
595.681	266.38
595.89	242.38
596.1	239.38
596.309	229.38
596.518	247.38
596.727	240.38
596.937	244.38
597.146	222.38
597.355	257.38
597.564	236.38
597.774	240.38
597.983	243.38
598.192	231.38
598.401	237.38
598.61	217.38
598.819	207.38
599.028	215.38
599.237	220.38
599.446	215.38
599.655	238.38
599.864	216.38
600.073	243.38
600.282	221.38
600.491	210.38
600.7	215.38
600.909	228.38
601.118	227.38
601.327	230.38
601.536	227.38
601.745	209.38
601.953	224.38
602.162	224.38
602.371	199.38
602.58	227.38
602.789	200.38
602.997	209.38
603.206	216.38
603.415	226.38
603.623	217.38
603.832	226.38
604.041	199.38
604.249	211.38
604.458	206.38
604.666	201.38
604.875	209.38
605.084	212.38
605.292	223.38
605.501	217.38
605.709	208.38
605.918	216.38
606.126	212.38
606.334	216.38
606.543	208.38
606.751	205.38
606.96	209.38
607.168	221.38
607.376	204.38
607.585	224.38
607.793	214.38
608.001	207.38
608.21	190.38
608.418	212.38
608.626	185.38
608.834	212.38
609.043	201.38
609.251	215.38
609.459	199.38
609.667	203.38
609.875	210.38
610.083	220.38
610.291	201.38
610.499	224.38
610.707	203.38
610.916	229.38
611.124	218.38
611.332	216.38
611.54	214.38
611.748	209.38
611.955	231.38
612.163	219.38
612.371	202.38
612.579	196.38
612.787	203.38
612.995	214.38
613.203	206.38
613.411	209.38
613.618	207.38
613.826	199.38
614.034	207.38
614.242	196.38
614.449	192.38
614.657	199.38
614.865	205.38
615.072	208.38
615.28	187.38
615.488	196.38
615.695	208.38
615.903	211.38
616.111	205.38
616.318	202.38
616.526	216.38
616.733	221.38
616.941	215.38
617.148	207.38
617.356	195.38
617.563	198.38
617.771	208.38
617.978	200.38
618.185	222.38
618.393	192.38
618.6	201.38
618.807	198.38
619.015	208.38
619.222	201.38
619.429	190.38
619.637	198.38
619.844	203.38
620.051	199.38
620.258	193.38
620.466	189.38
620.673	196.38
620.88	198.38
621.087	195.38
621.294	195.38
621.501	180.38
621.708	205.38
621.915	192.38
622.122	191.38
622.329	188.38
622.536	183.38
622.743	192.38
622.95	185.38
623.157	168.38
623.364	173.38
623.571	198.38
623.778	183.38
623.985	196.38
624.192	199.38
624.399	171.38
624.606	176.38
624.812	185.38
625.019	173.38
625.226	190.38
625.433	179.38
625.639	181.38
625.846	200.38
626.053	189.38
626.259	185.38
626.466	202.38
626.673	195.38
626.879	183.38
627.086	189.38
627.293	183.38
627.499	186.38
627.706	177.38
627.912	189.38
628.119	184.38
628.325	165.38
628.532	187.38
628.738	177.38
628.945	174.38
629.151	166.38
629.357	194.38
629.564	175.38
629.77	169.38
629.976	173.38
630.183	172.38
630.389	175.38
630.595	173.38
630.802	166.38
631.008	173.38
631.214	181.38
631.42	168.38
631.627	175.38
631.833	155.38
632.039	162.38
632.245	182.38
632.451	165.38
632.657	169.38
632.863	155.38
633.069	176.38
633.275	174.38
633.481	179.38
633.688	161.38
633.893	159.38
634.099	164.38
634.305	164.38
634.511	164.38
634.717	165.38
634.923	148.38
635.129	163.38
635.335	161.38
635.541	166.38
635.747	160.38
635.952	163.38
636.158	164.38
636.364	172.38
636.57	176.38
636.775	156.38
636.981	156.38
637.187	159.38
637.392	150.38
637.598	155.38
637.804	163.38
638.009	146.38
638.215	143.38
638.421	166.38
638.626	154.38
638.832	171.38
639.037	141.38
639.243	146.38
639.448	164.38
639.654	151.38
639.859	146.38
640.065	154.38
640.27	169.38
640.475	160.38
640.681	171.38
640.886	161.38
641.091	151.38
641.297	155.38
641.502	153.38
641.707	161.38
641.913	145.38
642.118	146.38
642.323	149.38
642.528	155.38
642.733	153.38
642.939	146.38
643.144	145.38
643.349	149.38
643.554	159.38
643.759	160.38
643.964	157.38
644.169	155.38
644.374	165.38
644.579	161.38
644.784	159.38
644.989	144.38
645.194	132.38
645.399	142.38
645.604	128.38
645.809	164.38
646.014	149.38
646.219	142.38
646.423	158.38
646.628	140.38
646.833	145.38
647.038	153.38
647.243	155.38
647.447	146.38
647.652	157.38
647.857	163.38
648.062	152.38
648.266	158.38
648.471	157.38
648.676	176.38
648.88	159.38
649.085	156.38
649.289	164.38
649.494	157.38
649.698	165.38
649.903	160.38
650.107	135.38
650.312	157.38
650.516	139.38
650.721	127.38
650.925	127.38
651.13	151.38
651.334	140.38
651.539	131.38
651.743	137.38
651.947	129.38
652.152	128.38
652.356	128.38
652.56	138.38
652.764	130.38
652.969	135.38
653.173	136.38
653.377	117.38
653.581	134.38
653.785	124.38
653.99	105.38
654.194	123.38
654.398	115.38
654.602	117.38
654.806	143.38
655.01	131.38
655.214	134.38
655.418	124.38
655.622	135.38
655.826	120.38
656.03	150.38
656.234	133.38
656.438	119.38
656.642	122.38
656.846	119.38
657.049	131.38
657.253	140.38
657.457	112.38
657.661	128.38
657.865	111.38
658.068	112.38
658.272	121.38
658.476	120.38
658.68	110.38
658.883	111.38
659.087	104.38
659.291	102.38
659.494	96.38
659.698	96.38
659.901	105.38
660.105	90.38
660.309	97.38
660.512	91.38
660.716	101.38
660.919	101.38
661.123	89.38
661.326	90.38
661.53	78.38
661.733	93.38
661.936	101.38
662.14	80.38
662.343	87.38
662.546	94.38
662.75	80.38
662.953	91.38
663.156	101.38
663.36	90.38
663.563	87.38
663.766	69.38
663.969	77.38
664.173	76.38
664.376	86.38
664.579	85.38
664.782	91.38
664.985	71.38
665.188	83.38
665.391	90.38
665.594	93.38
665.797	84.38
666	89.38
666.203	85.38
666.406	80.38
666.609	89.38
666.812	79.38
667.015	85.38
667.218	77.38
667.421	72.38
667.624	92.38
667.827	80.38
668.03	92.38
668.232	95.38
668.435	96.38
668.638	85.38
668.841	93.38
669.043	75.38
669.246	75.38
669.449	82.38
669.651	81.38
669.854	90.38
670.057	76.38
670.259	76.38
670.462	91.38
670.665	79.38
670.867	93.38
671.07	86.38
671.272	78.38
671.475	92.38
671.677	89.38
671.88	85.38
672.082	65.38
672.284	98.38
672.487	77.38
672.689	81.38
672.892	80.38
