Data from 1984.PennyLincolnUp.Lamp.En5.5.200Scan.071819.P1_HRD10591_16-57-08-967.txt Node
Date: Thu Jul 18 16:57:08 EDT 2019
User: cochatt
Spectrometer: HR+D1059
Trigger mode: 1
Integration Time (sec): 1.000000E-1
Scans to average: 1
Electric dark correction enabled: true
Nonlinearity correction enabled: false
Boxcar width: 0
XAxis mode: Wavelengths
Number of Pixels in Spectrum: 2048
>>>>>Begin Spectral Data<<<<<
223.165	-23.94
223.4	-23.94
223.635	-23.94
223.869	-25.94
224.104	-16.94
224.338	-20.94
224.573	-15.94
224.808	-9.94
225.042	-24.94
225.277	-3.94
225.511	17.06
225.746	10.06
225.98	1.06
226.215	9.06
226.449	16.06
226.683	26.06
226.918	32.06
227.152	31.06
227.387	40.06
227.621	41.06
227.856	31.06
228.09	60.06
228.324	35.06
228.559	55.06
228.793	70.06
229.027	77.06
229.262	102.06
229.496	100.06
229.73	121.06
229.964	146.06
230.199	134.06
230.433	121.06
230.667	109.06
230.901	106.06
231.136	96.06
231.37	109.06
231.604	115.06
231.838	107.06
232.072	108.06
232.306	121.06
232.541	116.06
232.775	113.06
233.009	103.06
233.243	121.06
233.477	98.06
233.711	113.06
233.945	119.06
234.179	105.06
234.413	117.06
234.647	102.06
234.881	113.06
235.115	118.06
235.349	119.06
235.583	127.06
235.817	107.06
236.051	116.06
236.285	118.06
236.519	118.06
236.753	122.06
236.987	131.06
237.221	175.06
237.455	194.06
237.689	158.06
237.922	136.06
238.156	129.06
238.39	141.06
238.624	126.06
238.858	105.06
239.091	115.06
239.325	127.06
239.559	121.06
239.793	127.06
240.027	127.06
240.26	126.06
240.494	155.06
240.728	147.06
240.961	133.06
241.195	115.06
241.429	138.06
241.662	123.06
241.896	118.06
242.13	115.06
242.363	122.06
242.597	120.06
242.83	117.06
243.064	135.06
243.298	132.06
243.531	122.06
243.765	128.06
243.998	127.06
244.232	131.06
244.465	133.06
244.699	128.06
244.932	135.06
245.166	131.06
245.399	135.06
245.633	147.06
245.866	137.06
246.099	133.06
246.333	134.06
246.566	142.06
246.8	142.06
247.033	144.06
247.266	138.06
247.5	151.06
247.733	155.06
247.966	154.06
248.2	188.06
248.433	193.06
248.666	175.06
248.899	185.06
249.133	179.06
249.366	193.06
249.599	187.06
249.832	174.06
250.066	159.06
250.299	156.06
250.532	163.06
250.765	170.06
250.998	201.06
251.231	212.06
251.465	178.06
251.698	199.06
251.931	175.06
252.164	181.06
252.397	173.06
252.63	187.06
252.863	177.06
253.096	183.06
253.329	188.06
253.562	185.06
253.795	189.06
254.028	173.06
254.261	183.06
254.494	198.06
254.727	226.06
254.96	229.06
255.193	230.06
255.426	207.06
255.659	183.06
255.892	167.06
256.124	178.06
256.357	174.06
256.59	181.06
256.823	192.06
257.056	200.06
257.289	195.06
257.521	197.06
257.754	187.06
257.987	164.06
258.22	181.06
258.452	162.06
258.685	188.06
258.918	194.06
259.151	189.06
259.383	190.06
259.616	196.06
259.849	191.06
260.081	221.06
260.314	225.06
260.547	226.06
260.779	207.06
261.012	201.06
261.244	197.06
261.477	214.06
261.71	211.06
261.942	214.06
262.175	268.06
262.407	236.06
262.64	216.06
262.872	214.06
263.105	201.06
263.337	229.06
263.57	208.06
263.802	207.06
264.035	191.06
264.267	204.06
264.499	181.06
264.732	197.06
264.964	207.06
265.197	199.06
265.429	185.06
265.661	201.06
265.894	204.06
266.126	211.06
266.358	202.06
266.591	204.06
266.823	206.06
267.055	210.06
267.287	206.06
267.52	200.06
267.752	208.06
267.984	203.06
268.216	206.06
268.448	218.06
268.681	222.06
268.913	214.06
269.145	246.06
269.377	230.06
269.609	237.06
269.841	236.06
270.073	246.06
270.306	237.06
270.538	270.06
270.77	251.06
271.002	257.06
271.234	269.06
271.466	253.06
271.698	278.06
271.93	262.06
272.162	283.06
272.394	290.06
272.626	268.06
272.858	258.06
273.09	242.06
273.322	252.06
273.553	270.06
273.785	258.06
274.017	245.06
274.249	267.06
274.481	255.06
274.713	269.06
274.945	268.06
275.176	284.06
275.408	271.06
275.64	266.06
275.872	264.06
276.104	270.06
276.335	266.06
276.567	289.06
276.799	271.06
277.031	299.06
277.262	305.06
277.494	284.06
277.726	297.06
277.957	279.06
278.189	275.06
278.421	276.06
278.652	259.06
278.884	269.06
279.115	280.06
279.347	305.06
279.579	412.06
279.81	514.06
280.042	449.06
280.273	381.06
280.505	401.06
280.736	361.06
280.968	301.06
281.199	264.06
281.431	265.06
281.662	247.06
281.894	257.06
282.125	274.06
282.356	289.06
282.588	328.06
282.819	337.06
283.051	266.06
283.282	267.06
283.513	265.06
283.745	267.06
283.976	280.06
284.207	262.06
284.439	269.06
284.67	260.06
284.901	279.06
285.132	296.06
285.364	319.06
285.595	313.06
285.826	301.06
286.057	275.06
286.288	273.06
286.52	269.06
286.751	268.06
286.982	286.06
287.213	263.06
287.444	276.06
287.675	279.06
287.906	296.06
288.138	305.06
288.369	316.06
288.6	313.06
288.831	306.06
289.062	272.06
289.293	276.06
289.524	281.06
289.755	290.06
289.986	283.06
290.217	274.06
290.448	262.06
290.679	277.06
290.91	291.06
291.141	286.06
291.371	281.06
291.602	281.06
291.833	292.06
292.064	273.06
292.295	273.06
292.526	295.06
292.757	281.06
292.987	289.06
293.218	294.06
293.449	292.06
293.68	292.06
293.91	283.06
294.141	284.06
294.372	275.06
294.603	282.06
294.833	295.06
295.064	291.06
295.295	303.06
295.525	282.06
295.756	309.06
295.987	309.06
296.217	343.06
296.448	368.06
296.679	321.06
296.909	324.06
297.14	301.06
297.37	294.06
297.601	289.06
297.831	293.06
298.062	306.06
298.292	297.06
298.523	310.06
298.753	311.06
298.984	314.06
299.214	303.06
299.445	315.06
299.675	302.06
299.905	313.06
300.136	330.06
300.366	309.06
300.597	309.06
300.827	319.06
301.057	327.06
301.288	332.06
301.518	354.06
301.748	310.06
301.979	340.06
302.209	341.06
302.439	339.06
302.669	325.06
302.9	321.06
303.13	321.06
303.36	326.06
303.59	343.06
303.82	340.06
304.051	336.06
304.281	333.06
304.511	323.06
304.741	304.06
304.971	308.06
305.201	314.06
305.431	316.06
305.661	321.06
305.891	315.06
306.121	322.06
306.352	334.06
306.582	343.06
306.812	327.06
307.042	330.06
307.272	327.06
307.502	329.06
307.731	330.06
307.961	329.06
308.191	335.06
308.421	336.06
308.651	346.06
308.881	341.06
309.111	359.06
309.341	363.06
309.571	381.06
309.8	378.06
310.03	370.06
310.26	378.06
310.49	377.06
310.72	400.06
310.949	410.06
311.179	396.06
311.409	378.06
311.639	370.06
311.868	375.06
312.098	372.06
312.328	389.06
312.557	416.06
312.787	429.06
313.017	421.06
313.246	414.06
313.476	352.06
313.706	357.06
313.935	388.06
314.165	388.06
314.394	415.06
314.624	399.06
314.853	387.06
315.083	387.06
315.312	366.06
315.542	377.06
315.771	360.06
316.001	393.06
316.23	405.06
316.46	390.06
316.689	391.06
316.919	395.06
317.148	412.06
317.377	397.06
317.607	405.06
317.836	423.06
318.065	459.06
318.295	465.06
318.524	411.06
318.753	390.06
318.983	389.06
319.212	390.06
319.441	390.06
319.67	412.06
319.9	391.06
320.129	376.06
320.358	379.06
320.587	382.06
320.816	397.06
321.046	388.06
321.275	397.06
321.504	409.06
321.733	395.06
321.962	393.06
322.191	413.06
322.42	440.06
322.649	465.06
322.878	452.06
323.108	481.06
323.337	531.06
323.566	571.06
323.795	615.06
324.024	717.06
324.253	917.06
324.482	1501.06
324.71	2451.06
324.939	3523.06
325.168	2833.06
325.397	1279.06
325.626	780.06
325.855	613.06
326.084	561.06
326.313	544.06
326.542	546.06
326.77	639.06
326.999	856.06
327.228	1311.06
327.457	2174.06
327.686	2580.06
327.914	1497.06
328.143	878.06
328.372	731.06
328.6	639.06
328.829	596.06
329.058	633.06
329.287	649.06
329.515	582.06
329.744	509.06
329.972	493.06
330.201	500.06
330.43	545.06
330.658	612.06
330.887	679.06
331.115	650.06
331.344	538.06
331.572	518.06
331.801	505.06
332.03	494.06
332.258	468.06
332.486	441.06
332.715	447.06
332.943	449.06
333.172	446.06
333.4	466.06
333.629	463.06
333.857	481.06
334.085	502.06
334.314	462.06
334.542	473.06
334.771	475.06
334.999	483.06
335.227	490.06
335.455	454.06
335.684	454.06
335.912	459.06
336.14	456.06
336.369	453.06
336.597	454.06
336.825	453.06
337.053	437.06
337.281	446.06
337.51	452.06
337.738	422.06
337.966	428.06
338.194	442.06
338.422	465.06
338.65	422.06
338.878	415.06
339.106	420.06
339.334	415.06
339.562	434.06
339.79	422.06
340.018	418.06
340.246	398.06
340.474	419.06
340.702	433.06
340.93	401.06
341.158	393.06
341.386	407.06
341.614	429.06
341.842	425.06
342.07	379.06
342.298	390.06
342.526	398.06
342.754	400.06
342.981	404.06
343.209	380.06
343.437	410.06
343.665	417.06
343.893	430.06
344.12	425.06
344.348	445.06
344.576	440.06
344.804	439.06
345.031	420.06
345.259	462.06
345.487	427.06
345.714	415.06
345.942	390.06
346.17	395.06
346.397	405.06
346.625	389.06
346.853	398.06
347.08	391.06
347.308	393.06
347.535	424.06
347.763	422.06
347.99	414.06
348.218	407.06
348.445	437.06
348.673	411.06
348.9	393.06
349.128	401.06
349.355	362.06
349.583	387.06
349.81	380.06
350.037	375.06
350.265	392.06
350.492	378.06
350.72	394.06
350.947	376.06
351.174	398.06
351.402	424.06
351.629	431.06
351.856	405.06
352.083	419.06
352.311	438.06
352.538	435.06
352.765	451.06
352.992	429.06
353.22	405.06
353.447	398.06
353.674	404.06
353.901	385.06
354.128	360.06
354.355	358.06
354.583	354.06
354.81	365.06
355.037	365.06
355.264	366.06
355.491	357.06
355.718	353.06
355.945	362.06
356.172	379.06
356.399	351.06
356.626	371.06
356.853	364.06
357.08	381.06
357.307	349.06
357.534	352.06
357.761	369.06
357.988	377.06
358.215	366.06
358.441	393.06
358.668	377.06
358.895	390.06
359.122	381.06
359.349	387.06
359.576	402.06
359.802	439.06
360.029	494.06
360.256	507.06
360.483	481.06
360.709	410.06
360.936	382.06
361.163	401.06
361.39	417.06
361.616	397.06
361.843	421.06
362.07	413.06
362.296	402.06
362.523	405.06
362.749	387.06
362.976	393.06
363.203	392.06
363.429	393.06
363.656	406.06
363.882	375.06
364.109	377.06
364.335	370.06
364.562	366.06
364.788	364.06
365.015	382.06
365.241	381.06
365.468	393.06
365.694	397.06
365.92	390.06
366.147	387.06
366.373	345.06
366.599	379.06
366.826	362.06
367.052	350.06
367.278	378.06
367.505	374.06
367.731	371.06
367.957	351.06
368.184	363.06
368.41	382.06
368.636	393.06
368.862	396.06
369.089	394.06
369.315	371.06
369.541	359.06
369.767	351.06
369.993	362.06
370.219	373.06
370.445	354.06
370.672	370.06
370.898	384.06
371.124	384.06
371.35	387.06
371.576	388.06
371.802	376.06
372.028	365.06
372.254	396.06
372.48	380.06
372.706	356.06
372.932	382.06
373.158	391.06
373.384	389.06
373.61	434.06
373.835	418.06
374.061	403.06
374.287	397.06
374.513	397.06
374.739	403.06
374.965	407.06
375.191	404.06
375.416	383.06
375.642	393.06
375.868	387.06
376.094	393.06
376.319	380.06
376.545	380.06
376.771	360.06
376.997	377.06
377.222	385.06
377.448	366.06
377.674	361.06
377.899	353.06
378.125	359.06
378.35	351.06
378.576	358.06
378.802	354.06
379.027	354.06
379.253	358.06
379.478	380.06
379.704	361.06
379.929	369.06
380.155	376.06
380.38	353.06
380.606	385.06
380.831	378.06
381.057	374.06
381.282	385.06
381.507	373.06
381.733	377.06
381.958	412.06
382.184	401.06
382.409	417.06
382.634	403.06
382.86	408.06
383.085	407.06
383.31	415.06
383.535	403.06
383.761	411.06
383.986	423.06
384.211	426.06
384.436	414.06
384.662	419.06
384.887	435.06
385.112	432.06
385.337	454.06
385.562	430.06
385.787	472.06
386.013	482.06
386.238	489.06
386.463	480.06
386.688	464.06
386.913	466.06
387.138	434.06
387.363	443.06
387.588	422.06
387.813	439.06
388.038	444.06
388.263	465.06
388.488	465.06
388.713	439.06
388.938	423.06
389.163	420.06
389.387	418.06
389.612	408.06
389.837	386.06
390.062	405.06
390.287	406.06
390.512	404.06
390.736	417.06
390.961	412.06
391.186	421.06
391.411	399.06
391.636	416.06
391.86	437.06
392.085	442.06
392.31	457.06
392.534	480.06
392.759	515.06
392.984	588.06
393.208	897.06
393.433	1495.06
393.658	1623.06
393.882	801.06
394.107	509.06
394.331	470.06
394.556	503.06
394.78	486.06
395.005	451.06
395.229	424.06
395.454	444.06
395.678	463.06
395.903	470.06
396.127	542.06
396.352	613.06
396.576	638.06
396.801	903.06
397.025	1242.06
397.249	911.06
397.474	557.06
397.698	469.06
397.922	455.06
398.147	477.06
398.371	476.06
398.595	454.06
398.82	459.06
399.044	468.06
399.268	515.06
399.492	549.06
399.717	574.06
399.941	622.06
400.165	599.06
400.389	603.06
400.613	533.06
400.837	510.06
401.062	484.06
401.286	487.06
401.51	491.06
401.734	479.06
401.958	481.06
402.182	505.06
402.406	521.06
402.63	535.06
402.854	515.06
403.078	504.06
403.302	505.06
403.526	501.06
403.75	490.06
403.974	501.06
404.198	507.06
404.422	520.06
404.645	524.06
404.869	513.06
405.093	528.06
405.317	524.06
405.541	573.06
405.765	543.06
405.988	517.06
406.212	569.06
406.436	605.06
406.66	620.06
406.883	556.06
407.107	596.06
407.331	623.06
407.555	671.06
407.778	661.06
408.002	601.06
408.226	566.06
408.449	542.06
408.673	534.06
408.896	570.06
409.12	605.06
409.344	560.06
409.567	535.06
409.791	531.06
410.014	501.06
410.238	503.06
410.461	493.06
410.685	494.06
410.908	521.06
411.132	541.06
411.355	549.06
411.578	524.06
411.802	502.06
412.025	467.06
412.249	478.06
412.472	458.06
412.695	499.06
412.919	469.06
413.142	466.06
413.365	450.06
413.589	475.06
413.812	445.06
414.035	456.06
414.258	439.06
414.482	455.06
414.705	446.06
414.928	451.06
415.151	439.06
415.374	459.06
415.597	441.06
415.821	442.06
416.044	439.06
416.267	461.06
416.49	449.06
416.713	447.06
416.936	446.06
417.159	469.06
417.382	454.06
417.605	452.06
417.828	473.06
418.051	480.06
418.274	485.06
418.497	471.06
418.72	441.06
418.943	463.06
419.166	473.06
419.389	513.06
419.611	480.06
419.834	492.06
420.057	502.06
420.28	491.06
420.503	470.06
420.726	467.06
420.948	487.06
421.171	520.06
421.394	531.06
421.617	477.06
421.839	481.06
422.062	464.06
422.285	528.06
422.507	597.06
422.73	852.06
422.953	941.06
423.175	614.06
423.398	509.06
423.621	497.06
423.843	492.06
424.066	515.06
424.288	497.06
424.511	503.06
424.733	568.06
424.956	639.06
425.178	593.06
425.401	610.06
425.623	618.06
425.846	536.06
426.068	492.06
426.291	517.06
426.513	475.06
426.735	515.06
426.958	509.06
427.18	602.06
427.402	739.06
427.625	839.06
427.847	733.06
428.069	615.06
428.292	529.06
428.514	486.06
428.736	476.06
428.958	494.06
429.181	471.06
429.403	443.06
429.625	445.06
429.847	488.06
430.069	570.06
430.292	587.06
430.514	524.06
430.736	475.06
430.958	475.06
431.18	436.06
431.402	446.06
431.624	421.06
431.846	458.06
432.068	457.06
432.29	412.06
432.512	424.06
432.734	467.06
432.956	449.06
433.178	440.06
433.4	473.06
433.622	469.06
433.844	434.06
434.066	433.06
434.287	453.06
434.509	447.06
434.731	467.06
434.953	466.06
435.175	469.06
435.397	493.06
435.618	501.06
435.84	523.06
436.062	605.06
436.284	662.06
436.505	528.06
436.727	513.06
436.949	492.06
437.17	461.06
437.392	443.06
437.614	487.06
437.835	503.06
438.057	593.06
438.278	681.06
438.5	664.06
438.721	707.06
438.943	678.06
439.165	541.06
439.386	502.06
439.608	508.06
439.829	504.06
440.05	534.06
440.272	625.06
440.493	568.06
440.715	515.06
440.936	523.06
441.158	466.06
441.379	462.06
441.6	497.06
441.822	515.06
442.043	547.06
442.264	587.06
442.486	661.06
442.707	556.06
442.928	539.06
443.149	536.06
443.371	556.06
443.592	587.06
443.813	679.06
444.034	703.06
444.255	568.06
444.476	527.06
444.698	537.06
444.919	526.06
445.14	657.06
445.361	600.06
445.582	627.06
445.803	713.06
446.024	744.06
446.245	719.06
446.466	662.06
446.687	531.06
446.908	496.06
447.129	469.06
447.35	457.06
447.571	454.06
447.792	429.06
448.013	453.06
448.234	495.06
448.455	528.06
448.675	611.06
448.896	689.06
449.117	584.06
449.338	549.06
449.559	631.06
449.779	728.06
450	577.06
450.221	480.06
450.442	451.06
450.662	445.06
450.883	458.06
451.104	501.06
451.324	486.06
451.545	458.06
451.766	410.06
451.986	421.06
452.207	409.06
452.428	412.06
452.648	425.06
452.869	418.06
453.089	423.06
453.31	452.06
453.53	430.06
453.751	435.06
453.971	437.06
454.192	471.06
454.412	453.06
454.633	408.06
454.853	390.06
455.073	398.06
455.294	430.06
455.514	516.06
455.734	519.06
455.955	406.06
456.175	386.06
456.395	381.06
456.616	349.06
456.836	371.06
457.056	375.06
457.276	359.06
457.497	399.06
457.717	389.06
457.937	403.06
458.157	405.06
458.377	409.06
458.598	423.06
458.818	536.06
459.038	657.06
459.258	603.06
459.478	515.06
459.698	481.06
459.918	475.06
460.138	464.06
460.358	454.06
460.578	445.06
460.798	459.06
461.018	489.06
461.238	461.06
461.458	444.06
461.678	439.06
461.898	462.06
462.118	472.06
462.338	478.06
462.558	486.06
462.777	479.06
462.997	513.06
463.217	523.06
463.437	541.06
463.657	531.06
463.876	506.06
464.096	513.06
464.316	509.06
464.536	515.06
464.755	519.06
464.975	518.06
465.195	630.06
465.414	738.06
465.634	564.06
465.854	497.06
466.073	489.06
466.293	464.06
466.512	434.06
466.732	423.06
466.951	411.06
467.171	430.06
467.391	439.06
467.61	437.06
467.829	430.06
468.049	411.06
468.268	421.06
468.488	409.06
468.707	391.06
468.927	409.06
469.146	427.06
469.365	406.06
469.585	418.06
469.804	422.06
470.023	445.06
470.243	461.06
470.462	454.06
470.681	514.06
470.901	471.06
471.12	446.06
471.339	418.06
471.558	423.06
471.777	434.06
471.997	421.06
472.216	421.06
472.435	411.06
472.654	432.06
472.873	402.06
473.092	418.06
473.311	411.06
473.53	411.06
473.749	405.06
473.968	444.06
474.187	532.06
474.406	561.06
474.625	474.06
474.844	417.06
475.063	419.06
475.282	426.06
475.501	414.06
475.72	435.06
475.939	408.06
476.158	440.06
476.377	438.06
476.596	414.06
476.814	445.06
477.033	462.06
477.252	452.06
477.471	449.06
477.69	461.06
477.908	458.06
478.127	469.06
478.346	457.06
478.564	461.06
478.783	504.06
479.002	513.06
479.22	513.06
479.439	519.06
479.658	547.06
479.876	557.06
480.095	538.06
480.313	541.06
480.532	545.06
480.751	508.06
480.969	495.06
481.188	520.06
481.406	501.06
481.624	513.06
481.843	488.06
482.061	499.06
482.28	501.06
482.498	500.06
482.717	474.06
482.935	458.06
483.153	485.06
483.372	493.06
483.59	501.06
483.808	492.06
484.027	481.06
484.245	493.06
484.463	506.06
484.681	486.06
484.9	478.06
485.118	499.06
485.336	517.06
485.554	541.06
485.772	509.06
485.99	531.06
486.209	518.06
486.427	532.06
486.645	545.06
486.863	544.06
487.081	554.06
487.299	536.06
487.517	535.06
487.735	517.06
487.953	531.06
488.171	541.06
488.389	524.06
488.607	532.06
488.825	523.06
489.043	525.06
489.261	516.06
489.479	501.06
489.696	521.06
489.914	525.06
490.132	504.06
490.35	523.06
490.568	506.06
490.786	523.06
491.003	518.06
491.221	517.06
491.439	562.06
491.657	552.06
491.874	545.06
492.092	553.06
492.31	567.06
492.527	545.06
492.745	561.06
492.963	540.06
493.18	587.06
493.398	558.06
493.615	655.06
493.833	591.06
494.05	553.06
494.268	557.06
494.485	589.06
494.703	574.06
494.92	577.06
495.138	575.06
495.355	551.06
495.573	579.06
495.79	589.06
496.008	637.06
496.225	625.06
496.442	553.06
496.66	581.06
496.877	577.06
497.094	587.06
497.312	595.06
497.529	609.06
497.746	623.06
497.963	614.06
498.181	665.06
498.398	677.06
498.615	698.06
498.832	722.06
499.049	757.06
499.267	758.06
499.484	798.06
499.701	834.06
499.918	864.06
500.135	926.06
500.352	989.06
500.569	1013.06
500.786	1036.06
501.003	1007.06
501.22	940.06
501.437	887.06
501.654	865.06
501.871	829.06
502.088	801.06
502.305	733.06
502.522	725.06
502.739	701.06
502.956	664.06
503.172	642.06
503.389	655.06
503.606	680.06
503.823	668.06
504.04	609.06
504.256	630.06
504.473	639.06
504.69	620.06
504.907	609.06
505.123	573.06
505.34	570.06
505.557	576.06
505.773	566.06
505.99	543.06
506.207	557.06
506.423	539.06
506.64	528.06
506.856	541.06
507.073	530.06
507.289	534.06
507.506	532.06
507.722	558.06
507.939	596.06
508.155	557.06
508.372	508.06
508.588	519.06
508.805	516.06
509.021	510.06
509.238	546.06
509.454	533.06
509.67	534.06
509.887	539.06
510.103	538.06
510.319	554.06
510.536	777.06
510.752	1898.06
510.968	1337.06
511.184	627.06
511.401	520.06
511.617	503.06
511.833	523.06
512.049	473.06
512.265	498.06
512.481	501.06
512.698	499.06
512.914	478.06
513.13	505.06
513.346	513.06
513.562	516.06
513.778	513.06
513.994	530.06
514.21	565.06
514.426	606.06
514.642	679.06
514.858	754.06
515.074	831.06
515.29	1194.06
515.506	2215.06
515.721	1582.06
515.937	815.06
516.153	672.06
516.369	614.06
516.585	597.06
516.801	600.06
517.016	590.06
517.232	598.06
517.448	600.06
517.664	593.06
517.879	600.06
518.095	596.06
518.311	599.06
518.527	590.06
518.742	588.06
518.958	556.06
519.173	551.06
519.389	557.06
519.605	565.06
519.82	571.06
520.036	594.06
520.251	639.06
520.467	660.06
520.682	663.06
520.898	657.06
521.113	738.06
521.329	802.06
521.544	1004.06
521.76	1537.06
521.975	3219.06
522.19	2993.06
522.406	1284.06
522.621	759.06
522.836	659.06
523.052	611.06
523.267	545.06
523.482	521.06
523.698	516.06
523.913	518.06
524.128	524.06
524.343	483.06
524.559	484.06
524.774	444.06
524.989	462.06
525.204	481.06
525.419	491.06
525.634	476.06
525.849	457.06
526.064	439.06
526.28	456.06
526.495	464.06
526.71	462.06
526.925	425.06
527.14	473.06
527.355	464.06
527.57	429.06
527.785	420.06
527.999	430.06
528.214	417.06
528.429	434.06
528.644	422.06
528.859	413.06
529.074	439.06
529.289	477.06
529.503	594.06
529.718	557.06
529.933	467.06
530.148	429.06
530.363	418.06
530.577	423.06
530.792	420.06
531.007	423.06
531.221	404.06
531.436	393.06
531.651	423.06
531.865	423.06
532.08	412.06
532.295	428.06
532.509	410.06
532.724	409.06
532.938	405.06
533.153	407.06
533.367	385.06
533.582	414.06
533.796	411.06
534.011	419.06
534.225	406.06
534.44	386.06
534.654	388.06
534.868	394.06
535.083	421.06
535.297	399.06
535.511	412.06
535.726	422.06
535.94	439.06
536.154	407.06
536.369	409.06
536.583	392.06
536.797	387.06
537.011	375.06
537.225	411.06
537.44	389.06
537.654	386.06
537.868	394.06
538.082	398.06
538.296	388.06
538.51	396.06
538.724	396.06
538.938	383.06
539.153	383.06
539.367	405.06
539.581	403.06
539.795	403.06
540.009	390.06
540.222	393.06
540.436	380.06
540.65	398.06
540.864	390.06
541.078	379.06
541.292	396.06
541.506	386.06
541.72	378.06
541.934	407.06
542.147	383.06
542.361	392.06
542.575	397.06
542.789	381.06
543.002	370.06
543.216	378.06
543.43	407.06
543.644	412.06
543.857	371.06
544.071	397.06
544.285	391.06
544.498	385.06
544.712	396.06
544.925	395.06
545.139	380.06
545.352	369.06
545.566	367.06
545.779	387.06
545.993	381.06
546.206	389.06
546.42	392.06
546.633	398.06
546.847	377.06
547.06	361.06
547.274	377.06
547.487	387.06
547.7	398.06
547.914	378.06
548.127	384.06
548.34	389.06
548.554	370.06
548.767	387.06
548.98	382.06
549.193	379.06
549.407	380.06
549.62	392.06
549.833	376.06
550.046	399.06
550.259	393.06
550.473	379.06
550.686	378.06
550.899	374.06
551.112	378.06
551.325	379.06
551.538	401.06
551.751	378.06
551.964	379.06
552.177	399.06
552.39	380.06
552.603	397.06
552.816	380.06
553.029	396.06
553.242	393.06
553.455	409.06
553.667	442.06
553.88	474.06
554.093	426.06
554.306	404.06
554.519	389.06
554.732	386.06
554.944	383.06
555.157	367.06
555.37	362.06
555.583	357.06
555.795	351.06
556.008	366.06
556.221	358.06
556.433	351.06
556.646	370.06
556.859	379.06
557.071	339.06
557.284	344.06
557.496	348.06
557.709	354.06
557.921	343.06
558.134	325.06
558.346	352.06
558.559	363.06
558.771	332.06
558.984	376.06
559.196	445.06
559.409	410.06
559.621	378.06
559.833	375.06
560.046	375.06
560.258	372.06
560.47	366.06
560.683	360.06
560.895	365.06
561.107	345.06
561.32	347.06
561.532	333.06
561.744	343.06
561.956	334.06
562.168	338.06
562.381	350.06
562.593	339.06
562.805	325.06
563.017	347.06
563.229	344.06
563.441	334.06
563.653	328.06
563.865	336.06
564.077	340.06
564.289	331.06
564.501	339.06
564.713	355.06
564.925	356.06
565.137	352.06
565.349	382.06
565.561	383.06
565.773	374.06
565.985	403.06
566.197	396.06
566.408	397.06
566.62	447.06
566.832	467.06
567.044	465.06
567.255	473.06
567.467	483.06
567.679	485.06
567.891	482.06
568.102	479.06
568.314	500.06
568.526	468.06
568.737	463.06
568.949	426.06
569.161	470.06
569.372	397.06
569.584	382.06
569.795	372.06
570.007	390.06
570.218	521.06
570.43	472.06
570.641	356.06
570.853	375.06
571.064	353.06
571.276	334.06
571.487	361.06
571.698	339.06
571.91	324.06
572.121	345.06
572.333	335.06
572.544	313.06
572.755	308.06
572.966	303.06
573.178	311.06
573.389	307.06
573.6	297.06
573.811	318.06
574.023	310.06
574.234	292.06
574.445	306.06
574.656	305.06
574.867	297.06
575.078	321.06
575.289	283.06
575.501	284.06
575.712	301.06
575.923	298.06
576.134	294.06
576.345	279.06
576.556	295.06
576.767	303.06
576.978	307.06
577.188	293.06
577.399	293.06
577.61	291.06
577.821	296.06
578.032	325.06
578.243	391.06
578.454	972.06
578.665	601.06
578.875	307.06
579.086	283.06
579.297	293.06
579.508	281.06
579.718	268.06
579.929	283.06
580.14	281.06
580.35	265.06
580.561	286.06
580.772	282.06
580.982	278.06
581.193	275.06
581.403	266.06
581.614	254.06
581.825	270.06
582.035	283.06
582.246	282.06
582.456	254.06
582.667	246.06
582.877	276.06
583.087	261.06
583.298	265.06
583.508	277.06
583.719	276.06
583.929	267.06
584.139	289.06
584.35	267.06
584.56	265.06
584.77	290.06
584.981	267.06
585.191	260.06
585.401	275.06
585.611	269.06
585.821	286.06
586.032	315.06
586.242	272.06
586.452	282.06
586.662	278.06
586.872	277.06
587.082	271.06
587.292	268.06
587.502	275.06
587.713	287.06
587.923	308.06
588.133	286.06
588.343	321.06
588.553	339.06
588.762	415.06
588.972	700.06
589.182	1982.06
589.392	1974.06
589.602	978.06
589.812	1781.06
590.022	1297.06
590.232	543.06
590.441	375.06
590.651	331.06
590.861	315.06
591.071	279.06
591.281	287.06
591.49	317.06
591.7	283.06
591.91	281.06
592.119	270.06
592.329	293.06
592.539	292.06
592.748	313.06
592.958	286.06
593.167	313.06
593.377	305.06
593.587	296.06
593.796	292.06
594.006	312.06
594.215	292.06
594.424	311.06
594.634	285.06
594.843	288.06
595.053	291.06
595.262	290.06
595.472	287.06
595.681	281.06
595.89	271.06
596.1	275.06
596.309	272.06
596.518	280.06
596.727	265.06
596.937	286.06
597.146	263.06
597.355	255.06
597.564	252.06
597.774	271.06
597.983	266.06
598.192	263.06
598.401	243.06
598.61	242.06
598.819	254.06
599.028	245.06
599.237	249.06
599.446	231.06
599.655	261.06
599.864	246.06
600.073	235.06
600.282	252.06
600.491	239.06
600.7	241.06
600.909	225.06
601.118	244.06
601.327	254.06
601.536	226.06
601.745	252.06
601.953	225.06
602.162	246.06
602.371	233.06
602.58	222.06
602.789	222.06
602.997	229.06
603.206	227.06
603.415	218.06
603.623	230.06
603.832	242.06
604.041	229.06
604.249	220.06
604.458	228.06
604.666	216.06
604.875	218.06
605.084	228.06
605.292	234.06
605.501	228.06
605.709	228.06
605.918	228.06
606.126	242.06
606.334	236.06
606.543	251.06
606.751	225.06
606.96	234.06
607.168	236.06
607.376	224.06
607.585	233.06
607.793	226.06
608.001	219.06
608.21	234.06
608.418	223.06
608.626	230.06
608.834	214.06
609.043	221.06
609.251	243.06
609.459	230.06
609.667	230.06
609.875	221.06
610.083	209.06
610.291	222.06
610.499	237.06
610.707	244.06
610.916	223.06
611.124	242.06
611.332	226.06
611.54	229.06
611.748	237.06
611.955	238.06
612.163	235.06
612.371	263.06
612.579	268.06
612.787	234.06
612.995	230.06
613.203	233.06
613.411	218.06
613.618	231.06
613.826	220.06
614.034	218.06
614.242	223.06
614.449	244.06
614.657	216.06
614.865	214.06
615.072	231.06
615.28	225.06
615.488	211.06
615.695	221.06
615.903	243.06
616.111	238.06
616.318	269.06
616.526	322.06
616.733	259.06
616.941	229.06
617.148	247.06
617.356	246.06
617.563	243.06
617.771	235.06
617.978	238.06
618.185	217.06
618.393	225.06
618.6	219.06
618.807	216.06
619.015	231.06
619.222	211.06
619.429	213.06
619.637	218.06
619.844	205.06
620.051	230.06
620.258	216.06
620.466	214.06
620.673	213.06
620.88	207.06
621.087	220.06
621.294	211.06
621.501	216.06
621.708	200.06
621.915	210.06
622.122	204.06
622.329	219.06
622.536	226.06
622.743	209.06
622.95	201.06
623.157	219.06
623.364	219.06
623.571	195.06
623.778	210.06
623.985	208.06
624.192	206.06
624.399	233.06
624.606	210.06
624.812	194.06
625.019	211.06
625.226	202.06
625.433	211.06
625.639	216.06
625.846	204.06
626.053	202.06
626.259	187.06
626.466	215.06
626.673	195.06
626.879	218.06
627.086	202.06
627.293	211.06
627.499	193.06
627.706	205.06
627.912	196.06
628.119	202.06
628.325	201.06
628.532	202.06
628.738	197.06
628.945	205.06
629.151	197.06
629.357	187.06
629.564	185.06
629.77	205.06
629.976	188.06
630.183	202.06
630.389	188.06
630.595	188.06
630.802	197.06
631.008	204.06
631.214	185.06
631.42	201.06
631.627	183.06
631.833	185.06
632.039	197.06
632.245	188.06
632.451	194.06
632.657	203.06
632.863	168.06
633.069	172.06
633.275	175.06
633.481	182.06
633.688	193.06
633.893	181.06
634.099	181.06
634.305	172.06
634.511	195.06
634.717	179.06
634.923	174.06
635.129	173.06
635.335	171.06
635.541	192.06
635.747	169.06
635.952	177.06
636.158	181.06
636.364	187.06
636.57	183.06
636.775	179.06
636.981	187.06
637.187	165.06
637.392	183.06
637.598	161.06
637.804	161.06
638.009	181.06
638.215	188.06
638.421	167.06
638.626	185.06
638.832	156.06
639.037	170.06
639.243	173.06
639.448	145.06
639.654	178.06
639.859	163.06
640.065	184.06
640.27	173.06
640.475	165.06
640.681	162.06
640.886	176.06
641.091	168.06
641.297	163.06
641.502	160.06
641.707	160.06
641.913	172.06
642.118	155.06
642.323	154.06
642.528	167.06
642.733	182.06
642.939	179.06
643.144	177.06
643.349	167.06
643.554	161.06
643.759	151.06
643.964	183.06
644.169	212.06
644.374	172.06
644.579	158.06
644.784	175.06
644.989	182.06
645.194	169.06
645.399	164.06
645.604	167.06
645.809	187.06
646.014	182.06
646.219	175.06
646.423	182.06
646.628	175.06
646.833	179.06
647.038	167.06
647.243	177.06
647.447	187.06
647.652	162.06
647.857	168.06
648.062	181.06
648.266	155.06
648.471	171.06
648.676	180.06
648.88	183.06
649.085	195.06
649.289	166.06
649.494	198.06
649.698	233.06
649.903	226.06
650.107	191.06
650.312	193.06
650.516	164.06
650.721	179.06
650.925	163.06
651.13	164.06
651.334	170.06
651.539	156.06
651.743	165.06
651.947	163.06
652.152	166.06
652.356	157.06
652.56	152.06
652.764	160.06
652.969	154.06
653.173	155.06
653.377	166.06
653.581	156.06
653.785	174.06
653.99	161.06
654.194	149.06
654.398	158.06
654.602	163.06
654.806	181.06
655.01	187.06
655.214	180.06
655.418	171.06
655.622	170.06
655.826	186.06
656.03	201.06
656.234	195.06
656.438	214.06
656.642	200.06
656.846	207.06
657.049	191.06
657.253	182.06
657.457	178.06
657.661	140.06
657.865	132.06
658.068	136.06
658.272	147.06
658.476	124.06
658.68	119.06
658.883	121.06
659.087	114.06
659.291	115.06
659.494	113.06
659.698	104.06
659.901	101.06
660.105	102.06
660.309	94.06
660.512	99.06
660.716	98.06
660.919	102.06
661.123	103.06
661.326	104.06
661.53	77.06
661.733	93.06
661.936	115.06
662.14	97.06
662.343	92.06
662.546	86.06
662.75	90.06
662.953	103.06
663.156	102.06
663.36	83.06
663.563	74.06
663.766	95.06
663.969	98.06
664.173	94.06
664.376	92.06
664.579	80.06
664.782	83.06
664.985	95.06
665.188	82.06
665.391	83.06
665.594	84.06
665.797	77.06
666	89.06
666.203	89.06
666.406	77.06
666.609	87.06
666.812	90.06
667.015	92.06
667.218	87.06
667.421	89.06
667.624	78.06
667.827	89.06
668.03	80.06
668.232	84.06
668.435	91.06
668.638	79.06
668.841	84.06
669.043	81.06
669.246	82.06
669.449	84.06
669.651	87.06
669.854	84.06
670.057	77.06
670.259	87.06
670.462	89.06
670.665	91.06
670.867	95.06
671.07	83.06
671.272	86.06
671.475	95.06
671.677	77.06
671.88	86.06
672.082	77.06
672.284	80.06
672.487	85.06
672.689	78.06
672.892	78.06
