Data from 1984.PennyLincolnUp.Lamp.En5.5.200Scan.071819.P1_HRD10591_16-57-30-967.txt Node
Date: Thu Jul 18 16:57:30 EDT 2019
User: cochatt
Spectrometer: HR+D1059
Trigger mode: 1
Integration Time (sec): 1.000000E-1
Scans to average: 1
Electric dark correction enabled: true
Nonlinearity correction enabled: false
Boxcar width: 0
XAxis mode: Wavelengths
Number of Pixels in Spectrum: 2048
>>>>>Begin Spectral Data<<<<<
223.165	-6.62
223.4	-6.62
223.635	-6.62
223.869	-16.62
224.104	-25.62
224.338	-10.62
224.573	-10.62
224.808	-15.62
225.042	-6.62
225.277	-11.62
225.511	4.38
225.746	-4.62
225.98	1.38
226.215	12.38
226.449	20.38
226.683	25.38
226.918	16.38
227.152	28.38
227.387	59.38
227.621	36.38
227.856	22.38
228.09	45.38
228.324	40.38
228.559	61.38
228.793	64.38
229.027	64.38
229.262	88.38
229.496	94.38
229.73	100.38
229.964	121.38
230.199	100.38
230.433	91.38
230.667	118.38
230.901	109.38
231.136	97.38
231.37	101.38
231.604	115.38
231.838	123.38
232.072	113.38
232.306	110.38
232.541	100.38
232.775	108.38
233.009	109.38
233.243	109.38
233.477	108.38
233.711	106.38
233.945	99.38
234.179	97.38
234.413	102.38
234.647	112.38
234.881	100.38
235.115	108.38
235.349	111.38
235.583	104.38
235.817	119.38
236.051	111.38
236.285	110.38
236.519	116.38
236.753	120.38
236.987	126.38
237.221	123.38
237.455	166.38
237.689	144.38
237.922	102.38
238.156	104.38
238.39	112.38
238.624	123.38
238.858	118.38
239.091	110.38
239.325	109.38
239.559	120.38
239.793	105.38
240.027	120.38
240.26	112.38
240.494	121.38
240.728	132.38
240.961	117.38
241.195	121.38
241.429	105.38
241.662	125.38
241.896	129.38
242.13	130.38
242.363	116.38
242.597	120.38
242.83	103.38
243.064	126.38
243.298	117.38
243.531	117.38
243.765	122.38
243.998	147.38
244.232	138.38
244.465	117.38
244.699	132.38
244.932	151.38
245.166	130.38
245.399	128.38
245.633	132.38
245.866	135.38
246.099	130.38
246.333	132.38
246.566	141.38
246.8	128.38
247.033	135.38
247.266	134.38
247.5	148.38
247.733	156.38
247.966	151.38
248.2	151.38
248.433	155.38
248.666	158.38
248.899	152.38
249.133	172.38
249.366	156.38
249.599	170.38
249.832	158.38
250.066	145.38
250.299	148.38
250.532	160.38
250.765	155.38
250.998	173.38
251.231	178.38
251.465	178.38
251.698	180.38
251.931	165.38
252.164	170.38
252.397	156.38
252.63	172.38
252.863	153.38
253.096	168.38
253.329	171.38
253.562	184.38
253.795	171.38
254.028	185.38
254.261	176.38
254.494	183.38
254.727	198.38
254.96	211.38
255.193	207.38
255.426	192.38
255.659	176.38
255.892	180.38
256.124	165.38
256.357	180.38
256.59	163.38
256.823	188.38
257.056	165.38
257.289	172.38
257.521	172.38
257.754	185.38
257.987	152.38
258.22	194.38
258.452	179.38
258.685	175.38
258.918	178.38
259.151	166.38
259.383	184.38
259.616	180.38
259.849	202.38
260.081	194.38
260.314	211.38
260.547	204.38
260.779	212.38
261.012	194.38
261.244	192.38
261.477	202.38
261.71	177.38
261.942	171.38
262.175	186.38
262.407	180.38
262.64	200.38
262.872	192.38
263.105	174.38
263.337	182.38
263.57	181.38
263.802	202.38
264.035	189.38
264.267	188.38
264.499	195.38
264.732	195.38
264.964	202.38
265.197	205.38
265.429	200.38
265.661	189.38
265.894	192.38
266.126	194.38
266.358	202.38
266.591	194.38
266.823	206.38
267.055	217.38
267.287	205.38
267.52	203.38
267.752	204.38
267.984	184.38
268.216	189.38
268.448	214.38
268.681	212.38
268.913	208.38
269.145	212.38
269.377	228.38
269.609	234.38
269.841	219.38
270.073	213.38
270.306	241.38
270.538	231.38
270.77	245.38
271.002	240.38
271.234	268.38
271.466	258.38
271.698	237.38
271.93	237.38
272.162	236.38
272.394	248.38
272.626	234.38
272.858	232.38
273.09	223.38
273.322	227.38
273.553	244.38
273.785	234.38
274.017	213.38
274.249	246.38
274.481	228.38
274.713	232.38
274.945	234.38
275.176	226.38
275.408	228.38
275.64	236.38
275.872	238.38
276.104	241.38
276.335	235.38
276.567	232.38
276.799	249.38
277.031	252.38
277.262	252.38
277.494	254.38
277.726	261.38
277.957	226.38
278.189	259.38
278.421	250.38
278.652	242.38
278.884	249.38
279.115	245.38
279.347	237.38
279.579	245.38
279.81	235.38
280.042	230.38
280.273	240.38
280.505	236.38
280.736	258.38
280.968	256.38
281.199	260.38
281.431	246.38
281.662	249.38
281.894	247.38
282.125	236.38
282.356	274.38
282.588	271.38
282.819	278.38
283.051	267.38
283.282	240.38
283.513	275.38
283.745	272.38
283.976	266.38
284.207	264.38
284.439	243.38
284.67	254.38
284.901	263.38
285.132	288.38
285.364	248.38
285.595	272.38
285.826	251.38
286.057	240.38
286.288	230.38
286.52	241.38
286.751	264.38
286.982	246.38
287.213	264.38
287.444	260.38
287.675	270.38
287.906	250.38
288.138	264.38
288.369	264.38
288.6	287.38
288.831	279.38
289.062	248.38
289.293	275.38
289.524	274.38
289.755	281.38
289.986	285.38
290.217	274.38
290.448	267.38
290.679	264.38
290.91	291.38
291.141	262.38
291.371	284.38
291.602	276.38
291.833	284.38
292.064	282.38
292.295	285.38
292.526	262.38
292.757	277.38
292.987	270.38
293.218	266.38
293.449	270.38
293.68	294.38
293.91	282.38
294.141	280.38
294.372	297.38
294.603	295.38
294.833	277.38
295.064	276.38
295.295	255.38
295.525	270.38
295.756	284.38
295.987	277.38
296.217	286.38
296.448	288.38
296.679	284.38
296.909	280.38
297.14	296.38
297.37	294.38
297.601	288.38
297.831	308.38
298.062	281.38
298.292	278.38
298.523	285.38
298.753	308.38
298.984	296.38
299.214	288.38
299.445	288.38
299.675	305.38
299.905	308.38
300.136	297.38
300.366	292.38
300.597	297.38
300.827	301.38
301.057	285.38
301.288	305.38
301.518	305.38
301.748	314.38
301.979	329.38
302.209	309.38
302.439	306.38
302.669	307.38
302.9	307.38
303.13	310.38
303.36	325.38
303.59	315.38
303.82	301.38
304.051	316.38
304.281	313.38
304.511	300.38
304.741	309.38
304.971	300.38
305.201	294.38
305.431	296.38
305.661	317.38
305.891	308.38
306.121	308.38
306.352	315.38
306.582	310.38
306.812	306.38
307.042	299.38
307.272	300.38
307.502	299.38
307.731	299.38
307.961	304.38
308.191	298.38
308.421	329.38
308.651	280.38
308.881	310.38
309.111	300.38
309.341	297.38
309.571	309.38
309.8	325.38
310.03	300.38
310.26	323.38
310.49	320.38
310.72	321.38
310.949	325.38
311.179	317.38
311.409	339.38
311.639	315.38
311.868	317.38
312.098	318.38
312.328	325.38
312.557	337.38
312.787	356.38
313.017	317.38
313.246	338.38
313.476	327.38
313.706	329.38
313.935	324.38
314.165	360.38
314.394	351.38
314.624	337.38
314.853	338.38
315.083	362.38
315.312	347.38
315.542	346.38
315.771	342.38
316.001	330.38
316.23	340.38
316.46	341.38
316.689	331.38
316.919	344.38
317.148	332.38
317.377	355.38
317.607	346.38
317.836	322.38
318.065	332.38
318.295	332.38
318.524	349.38
318.753	331.38
318.983	334.38
319.212	348.38
319.441	339.38
319.67	336.38
319.9	353.38
320.129	342.38
320.358	340.38
320.587	341.38
320.816	365.38
321.046	358.38
321.275	329.38
321.504	358.38
321.733	337.38
321.962	374.38
322.191	363.38
322.42	348.38
322.649	368.38
322.878	366.38
323.108	376.38
323.337	366.38
323.566	384.38
323.795	392.38
324.024	418.38
324.253	443.38
324.482	561.38
324.71	778.38
324.939	1107.38
325.168	958.38
325.397	576.38
325.626	450.38
325.855	399.38
326.084	396.38
326.313	400.38
326.542	395.38
326.77	423.38
326.999	454.38
327.228	565.38
327.457	738.38
327.686	856.38
327.914	624.38
328.143	461.38
328.372	435.38
328.6	401.38
328.829	412.38
329.058	404.38
329.287	393.38
329.515	398.38
329.744	422.38
329.972	380.38
330.201	380.38
330.43	389.38
330.658	394.38
330.887	404.38
331.115	426.38
331.344	405.38
331.572	409.38
331.801	402.38
332.03	388.38
332.258	416.38
332.486	411.38
332.715	408.38
332.943	407.38
333.172	424.38
333.4	452.38
333.629	438.38
333.857	429.38
334.085	416.38
334.314	449.38
334.542	426.38
334.771	415.38
334.999	438.38
335.227	406.38
335.455	413.38
335.684	422.38
335.912	424.38
336.14	404.38
336.369	401.38
336.597	404.38
336.825	395.38
337.053	393.38
337.281	405.38
337.51	392.38
337.738	397.38
337.966	376.38
338.194	387.38
338.422	402.38
338.65	398.38
338.878	395.38
339.106	357.38
339.334	374.38
339.562	381.38
339.79	373.38
340.018	378.38
340.246	371.38
340.474	382.38
340.702	374.38
340.93	358.38
341.158	366.38
341.386	377.38
341.614	364.38
341.842	377.38
342.07	378.38
342.298	358.38
342.526	367.38
342.754	375.38
342.981	373.38
343.209	370.38
343.437	388.38
343.665	394.38
343.893	414.38
344.12	424.38
344.348	398.38
344.576	392.38
344.804	407.38
345.031	386.38
345.259	382.38
345.487	375.38
345.714	347.38
345.942	368.38
346.17	360.38
346.397	360.38
346.625	374.38
346.853	357.38
347.08	344.38
347.308	353.38
347.535	350.38
347.763	356.38
347.99	351.38
348.218	354.38
348.445	352.38
348.673	346.38
348.9	366.38
349.128	352.38
349.355	349.38
349.583	346.38
349.81	368.38
350.037	335.38
350.265	334.38
350.492	330.38
350.72	345.38
350.947	333.38
351.174	351.38
351.402	356.38
351.629	342.38
351.856	350.38
352.083	361.38
352.311	348.38
352.538	357.38
352.765	344.38
352.992	340.38
353.22	353.38
353.447	333.38
353.674	347.38
353.901	329.38
354.128	330.38
354.355	333.38
354.583	336.38
354.81	354.38
355.037	349.38
355.264	357.38
355.491	350.38
355.718	344.38
355.945	330.38
356.172	359.38
356.399	360.38
356.626	348.38
356.853	337.38
357.08	333.38
357.307	343.38
357.534	354.38
357.761	313.38
357.988	344.38
358.215	341.38
358.441	322.38
358.668	339.38
358.895	341.38
359.122	343.38
359.349	341.38
359.576	372.38
359.802	355.38
360.029	352.38
360.256	353.38
360.483	355.38
360.709	337.38
360.936	350.38
361.163	354.38
361.39	340.38
361.616	340.38
361.843	346.38
362.07	352.38
362.296	358.38
362.523	342.38
362.749	366.38
362.976	340.38
363.203	342.38
363.429	346.38
363.656	329.38
363.882	328.38
364.109	344.38
364.335	341.38
364.562	348.38
364.788	336.38
365.015	357.38
365.241	348.38
365.468	340.38
365.694	322.38
365.92	345.38
366.147	336.38
366.373	337.38
366.599	339.38
366.826	343.38
367.052	338.38
367.278	324.38
367.505	339.38
367.731	343.38
367.957	329.38
368.184	339.38
368.41	331.38
368.636	347.38
368.862	344.38
369.089	330.38
369.315	338.38
369.541	345.38
369.767	332.38
369.993	334.38
370.219	328.38
370.445	329.38
370.672	343.38
370.898	352.38
371.124	341.38
371.35	354.38
371.576	358.38
371.802	358.38
372.028	342.38
372.254	327.38
372.48	340.38
372.706	355.38
372.932	372.38
373.158	366.38
373.384	352.38
373.61	354.38
373.835	360.38
374.061	369.38
374.287	368.38
374.513	384.38
374.739	357.38
374.965	370.38
375.191	379.38
375.416	372.38
375.642	362.38
375.868	372.38
376.094	351.38
376.319	340.38
376.545	342.38
376.771	342.38
376.997	370.38
377.222	334.38
377.448	360.38
377.674	331.38
377.899	345.38
378.125	341.38
378.35	317.38
378.576	332.38
378.802	343.38
379.027	338.38
379.253	347.38
379.478	347.38
379.704	352.38
379.929	350.38
380.155	354.38
380.38	345.38
380.606	357.38
380.831	357.38
381.057	355.38
381.282	342.38
381.507	356.38
381.733	353.38
381.958	345.38
382.184	359.38
382.409	351.38
382.634	350.38
382.86	373.38
383.085	378.38
383.31	361.38
383.535	338.38
383.761	384.38
383.986	368.38
384.211	372.38
384.436	379.38
384.662	371.38
384.887	389.38
385.112	386.38
385.337	395.38
385.562	404.38
385.787	422.38
386.013	383.38
386.238	393.38
386.463	378.38
386.688	396.38
386.913	398.38
387.138	394.38
387.363	395.38
387.588	394.38
387.813	397.38
388.038	392.38
388.263	394.38
388.488	419.38
388.713	400.38
388.938	378.38
389.163	414.38
389.387	414.38
389.612	392.38
389.837	387.38
390.062	380.38
390.287	388.38
390.512	396.38
390.736	404.38
390.961	392.38
391.186	405.38
391.411	402.38
391.636	417.38
391.86	432.38
392.085	437.38
392.31	412.38
392.534	424.38
392.759	414.38
392.984	404.38
393.208	405.38
393.433	418.38
393.658	397.38
393.882	422.38
394.107	394.38
394.331	402.38
394.556	412.38
394.78	398.38
395.005	405.38
395.229	409.38
395.454	413.38
395.678	405.38
395.903	397.38
396.127	441.38
396.352	399.38
396.576	399.38
396.801	405.38
397.025	401.38
397.249	422.38
397.474	430.38
397.698	438.38
397.922	441.38
398.147	435.38
398.371	464.38
398.595	461.38
398.82	446.38
399.044	448.38
399.268	514.38
399.492	564.38
399.717	616.38
399.941	631.38
400.165	589.38
400.389	572.38
400.613	522.38
400.837	499.38
401.062	469.38
401.286	461.38
401.51	457.38
401.734	442.38
401.958	463.38
402.182	487.38
402.406	476.38
402.63	474.38
402.854	471.38
403.078	480.38
403.302	478.38
403.526	513.38
403.75	501.38
403.974	523.38
404.198	507.38
404.422	492.38
404.645	484.38
404.869	485.38
405.093	494.38
405.317	509.38
405.541	516.38
405.765	515.38
405.988	485.38
406.212	522.38
406.436	503.38
406.66	531.38
406.883	516.38
407.107	548.38
407.331	592.38
407.555	610.38
407.778	598.38
408.002	563.38
408.226	535.38
408.449	554.38
408.673	519.38
408.896	518.38
409.12	534.38
409.344	540.38
409.567	497.38
409.791	494.38
410.014	475.38
410.238	486.38
410.461	489.38
410.685	501.38
410.908	485.38
411.132	513.38
411.355	526.38
411.578	520.38
411.802	474.38
412.025	471.38
412.249	477.38
412.472	493.38
412.695	459.38
412.919	460.38
413.142	460.38
413.365	444.38
413.589	473.38
413.812	456.38
414.035	460.38
414.258	451.38
414.482	460.38
414.705	446.38
414.928	465.38
415.151	452.38
415.374	457.38
415.597	443.38
415.821	455.38
416.044	447.38
416.267	455.38
416.49	445.38
416.713	448.38
416.936	461.38
417.159	448.38
417.382	436.38
417.605	469.38
417.828	442.38
418.051	468.38
418.274	458.38
418.497	459.38
418.72	464.38
418.943	445.38
419.166	464.38
419.389	502.38
419.611	493.38
419.834	488.38
420.057	480.38
420.28	485.38
420.503	460.38
420.726	468.38
420.948	469.38
421.171	478.38
421.394	493.38
421.617	479.38
421.839	460.38
422.062	468.38
422.285	462.38
422.507	514.38
422.73	520.38
422.953	513.38
423.175	468.38
423.398	474.38
423.621	492.38
423.843	485.38
424.066	483.38
424.288	491.38
424.511	481.38
424.733	525.38
424.956	552.38
425.178	520.38
425.401	524.38
425.623	555.38
425.846	512.38
426.068	474.38
426.291	479.38
426.513	464.38
426.735	474.38
426.958	484.38
427.18	504.38
427.402	584.38
427.625	618.38
427.847	557.38
428.069	496.38
428.292	448.38
428.514	442.38
428.736	433.38
428.958	424.38
429.181	420.38
429.403	436.38
429.625	449.38
429.847	435.38
430.069	451.38
430.292	465.38
430.514	426.38
430.736	423.38
430.958	435.38
431.18	412.38
431.402	436.38
431.624	419.38
431.846	418.38
432.068	405.38
432.29	428.38
432.512	423.38
432.734	416.38
432.956	420.38
433.178	426.38
433.4	440.38
433.622	433.38
433.844	406.38
434.066	430.38
434.287	429.38
434.509	430.38
434.731	447.38
434.953	430.38
435.175	484.38
435.397	473.38
435.618	479.38
435.84	466.38
436.062	525.38
436.284	540.38
436.505	485.38
436.727	429.38
436.949	429.38
437.17	424.38
437.392	417.38
437.614	436.38
437.835	440.38
438.057	499.38
438.278	544.38
438.5	529.38
438.721	563.38
438.943	557.38
439.165	477.38
439.386	458.38
439.608	449.38
439.829	459.38
440.05	457.38
440.272	458.38
440.493	440.38
440.715	446.38
440.936	433.38
441.158	475.38
441.379	437.38
441.6	442.38
441.822	470.38
442.043	504.38
442.264	525.38
442.486	539.38
442.707	475.38
442.928	469.38
443.149	477.38
443.371	476.38
443.592	504.38
443.813	571.38
444.034	588.38
444.255	522.38
444.476	527.38
444.698	542.38
444.919	496.38
445.14	621.38
445.361	553.38
445.582	508.38
445.803	480.38
446.024	535.38
446.245	544.38
446.466	508.38
446.687	467.38
446.908	453.38
447.129	410.38
447.35	424.38
447.571	403.38
447.792	425.38
448.013	423.38
448.234	430.38
448.455	438.38
448.675	502.38
448.896	567.38
449.117	494.38
449.338	472.38
449.559	491.38
449.779	581.38
450	475.38
450.221	445.38
450.442	422.38
450.662	405.38
450.883	413.38
451.104	424.38
451.324	412.38
451.545	400.38
451.766	398.38
451.986	378.38
452.207	364.38
452.428	400.38
452.648	384.38
452.869	384.38
453.089	399.38
453.31	391.38
453.53	388.38
453.751	370.38
453.971	380.38
454.192	374.38
454.412	365.38
454.633	360.38
454.853	363.38
455.073	372.38
455.294	398.38
455.514	404.38
455.734	431.38
455.955	364.38
456.175	380.38
456.395	358.38
456.616	357.38
456.836	371.38
457.056	372.38
457.276	345.38
457.497	384.38
457.717	361.38
457.937	368.38
458.157	380.38
458.377	370.38
458.598	379.38
458.818	427.38
459.038	448.38
459.258	452.38
459.478	437.38
459.698	397.38
459.918	418.38
460.138	422.38
460.358	452.38
460.578	452.38
460.798	464.38
461.018	440.38
461.238	457.38
461.458	434.38
461.678	429.38
461.898	453.38
462.118	454.38
462.338	476.38
462.558	484.38
462.777	477.38
462.997	503.38
463.217	553.38
463.437	551.38
463.657	503.38
463.876	494.38
464.096	478.38
464.316	498.38
464.536	510.38
464.755	520.38
464.975	474.38
465.195	468.38
465.414	456.38
465.634	452.38
465.854	420.38
466.073	438.38
466.293	409.38
466.512	382.38
466.732	401.38
466.951	386.38
467.171	388.38
467.391	398.38
467.61	405.38
467.829	378.38
468.049	392.38
468.268	404.38
468.488	381.38
468.707	388.38
468.927	398.38
469.146	375.38
469.365	412.38
469.585	408.38
469.804	417.38
470.023	400.38
470.243	411.38
470.462	400.38
470.681	423.38
470.901	390.38
471.12	391.38
471.339	397.38
471.558	371.38
471.777	414.38
471.997	391.38
472.216	376.38
472.435	390.38
472.654	378.38
472.873	362.38
473.092	371.38
473.311	380.38
473.53	376.38
473.749	385.38
473.968	404.38
474.187	449.38
474.406	458.38
474.625	414.38
474.844	396.38
475.063	387.38
475.282	397.38
475.501	375.38
475.72	389.38
475.939	397.38
476.158	392.38
476.377	371.38
476.596	402.38
476.814	391.38
477.033	386.38
477.252	409.38
477.471	402.38
477.69	433.38
477.908	416.38
478.127	413.38
478.346	432.38
478.564	476.38
478.783	448.38
479.002	459.38
479.22	464.38
479.439	458.38
479.658	475.38
479.876	468.38
480.095	479.38
480.313	515.38
480.532	509.38
480.751	482.38
480.969	498.38
481.188	498.38
481.406	478.38
481.624	453.38
481.843	443.38
482.061	444.38
482.28	432.38
482.498	428.38
482.717	456.38
482.935	441.38
483.153	422.38
483.372	420.38
483.59	442.38
483.808	439.38
484.027	459.38
484.245	435.38
484.463	446.38
484.681	434.38
484.9	440.38
485.118	450.38
485.336	463.38
485.554	458.38
485.772	472.38
485.99	471.38
486.209	478.38
486.427	471.38
486.645	454.38
486.863	460.38
487.081	462.38
487.299	466.38
487.517	458.38
487.735	433.38
487.953	468.38
488.171	478.38
488.389	468.38
488.607	465.38
488.825	453.38
489.043	454.38
489.261	457.38
489.479	471.38
489.696	467.38
489.914	472.38
490.132	475.38
490.35	473.38
490.568	475.38
490.786	490.38
491.003	496.38
491.221	487.38
491.439	477.38
491.657	497.38
491.874	496.38
492.092	512.38
492.31	517.38
492.527	487.38
492.745	515.38
492.963	532.38
493.18	507.38
493.398	520.38
493.615	542.38
493.833	512.38
494.05	536.38
494.268	523.38
494.485	536.38
494.703	531.38
494.92	527.38
495.138	531.38
495.355	542.38
495.573	534.38
495.79	530.38
496.008	536.38
496.225	538.38
496.442	526.38
496.66	546.38
496.877	513.38
497.094	538.38
497.312	558.38
497.529	564.38
497.746	588.38
497.963	587.38
498.181	613.38
498.398	625.38
498.615	646.38
498.832	678.38
499.049	692.38
499.267	715.38
499.484	750.38
499.701	830.38
499.918	882.38
500.135	938.38
500.352	1000.38
500.569	1079.38
500.786	1045.38
501.003	1029.38
501.22	972.38
501.437	896.38
501.654	824.38
501.871	772.38
502.088	727.38
502.305	712.38
502.522	667.38
502.739	672.38
502.956	611.38
503.172	610.38
503.389	584.38
503.606	569.38
503.823	572.38
504.04	583.38
504.256	577.38
504.473	593.38
504.69	604.38
504.907	611.38
505.123	568.38
505.34	560.38
505.557	521.38
505.773	496.38
505.99	523.38
506.207	489.38
506.423	510.38
506.64	494.38
506.856	489.38
507.073	485.38
507.289	526.38
507.506	464.38
507.722	481.38
507.939	469.38
508.155	484.38
508.372	460.38
508.588	440.38
508.805	462.38
509.021	452.38
509.238	455.38
509.454	458.38
509.67	464.38
509.887	455.38
510.103	467.38
510.319	460.38
510.536	469.38
510.752	685.38
510.968	586.38
511.184	470.38
511.401	449.38
511.617	432.38
511.833	436.38
512.049	451.38
512.265	457.38
512.481	445.38
512.698	432.38
512.914	429.38
513.13	440.38
513.346	435.38
513.562	447.38
513.778	446.38
513.994	448.38
514.21	453.38
514.426	450.38
514.642	462.38
514.858	462.38
515.074	475.38
515.29	516.38
515.506	650.38
515.721	577.38
515.937	516.38
516.153	466.38
516.369	484.38
516.585	480.38
516.801	486.38
517.016	485.38
517.232	512.38
517.448	548.38
517.664	539.38
517.879	530.38
518.095	533.38
518.311	508.38
518.527	485.38
518.742	525.38
518.958	506.38
519.173	477.38
519.389	472.38
519.605	449.38
519.82	471.38
520.036	454.38
520.251	448.38
520.467	457.38
520.682	476.38
520.898	456.38
521.113	466.38
521.329	468.38
521.544	499.38
521.76	537.38
521.975	744.38
522.19	732.38
522.406	501.38
522.621	442.38
522.836	402.38
523.052	426.38
523.267	410.38
523.482	386.38
523.698	418.38
523.913	409.38
524.128	390.38
524.343	404.38
524.559	386.38
524.774	388.38
524.989	396.38
525.204	390.38
525.419	393.38
525.634	388.38
525.849	380.38
526.064	395.38
526.28	391.38
526.495	388.38
526.71	391.38
526.925	377.38
527.14	368.38
527.355	372.38
527.57	387.38
527.785	366.38
527.999	384.38
528.214	369.38
528.429	375.38
528.644	378.38
528.859	394.38
529.074	382.38
529.289	392.38
529.503	410.38
529.718	389.38
529.933	403.38
530.148	388.38
530.363	378.38
530.577	368.38
530.792	364.38
531.007	376.38
531.221	392.38
531.436	372.38
531.651	388.38
531.865	386.38
532.08	379.38
532.295	384.38
532.509	367.38
532.724	381.38
532.938	376.38
533.153	377.38
533.367	384.38
533.582	373.38
533.796	379.38
534.011	357.38
534.225	378.38
534.44	381.38
534.654	386.38
534.868	374.38
535.083	377.38
535.297	366.38
535.511	374.38
535.726	374.38
535.94	374.38
536.154	371.38
536.369	386.38
536.583	338.38
536.797	352.38
537.011	346.38
537.225	356.38
537.44	362.38
537.654	352.38
537.868	347.38
538.082	353.38
538.296	359.38
538.51	374.38
538.724	357.38
538.938	360.38
539.153	356.38
539.367	353.38
539.581	359.38
539.795	347.38
540.009	347.38
540.222	346.38
540.436	370.38
540.65	354.38
540.864	362.38
541.078	380.38
541.292	348.38
541.506	366.38
541.72	339.38
541.934	339.38
542.147	362.38
542.361	353.38
542.575	344.38
542.789	374.38
543.002	341.38
543.216	350.38
543.43	352.38
543.644	343.38
543.857	352.38
544.071	353.38
544.285	354.38
544.498	366.38
544.712	359.38
544.925	343.38
545.139	354.38
545.352	351.38
545.566	350.38
545.779	362.38
545.993	363.38
546.206	376.38
546.42	376.38
546.633	377.38
546.847	347.38
547.06	353.38
547.274	337.38
547.487	348.38
547.7	368.38
547.914	357.38
548.127	344.38
548.34	371.38
548.554	362.38
548.767	355.38
548.98	355.38
549.193	362.38
549.407	359.38
549.62	357.38
549.833	337.38
550.046	356.38
550.259	363.38
550.473	348.38
550.686	343.38
550.899	359.38
551.112	350.38
551.325	363.38
551.538	343.38
551.751	340.38
551.964	374.38
552.177	355.38
552.39	335.38
552.603	370.38
552.816	372.38
553.029	362.38
553.242	362.38
553.455	394.38
553.667	380.38
553.88	375.38
554.093	366.38
554.306	380.38
554.519	360.38
554.732	337.38
554.944	344.38
555.157	351.38
555.37	345.38
555.583	326.38
555.795	325.38
556.008	337.38
556.221	338.38
556.433	327.38
556.646	329.38
556.859	314.38
557.071	321.38
557.284	320.38
557.496	291.38
557.709	318.38
557.921	326.38
558.134	327.38
558.346	305.38
558.559	316.38
558.771	306.38
558.984	305.38
559.196	292.38
559.409	317.38
559.621	324.38
559.833	318.38
560.046	319.38
560.258	316.38
560.47	280.38
560.683	306.38
560.895	312.38
561.107	315.38
561.32	309.38
561.532	299.38
561.744	322.38
561.956	306.38
562.168	307.38
562.381	301.38
562.593	306.38
562.805	308.38
563.017	321.38
563.229	304.38
563.441	310.38
563.653	326.38
563.865	306.38
564.077	317.38
564.289	328.38
564.501	331.38
564.713	346.38
564.925	322.38
565.137	318.38
565.349	334.38
565.561	341.38
565.773	346.38
565.985	370.38
566.197	395.38
566.408	398.38
566.62	411.38
566.832	440.38
567.044	458.38
567.255	460.38
567.467	442.38
567.679	483.38
567.891	509.38
568.102	499.38
568.314	488.38
568.526	453.38
568.737	442.38
568.949	415.38
569.161	390.38
569.372	374.38
569.584	356.38
569.795	356.38
570.007	353.38
570.218	345.38
570.43	348.38
570.641	318.38
570.853	326.38
571.064	319.38
571.276	317.38
571.487	321.38
571.698	301.38
571.91	314.38
572.121	292.38
572.333	296.38
572.544	280.38
572.755	280.38
572.966	279.38
573.178	280.38
573.389	287.38
573.6	267.38
573.811	271.38
574.023	276.38
574.234	291.38
574.445	286.38
574.656	285.38
574.867	292.38
575.078	260.38
575.289	274.38
575.501	264.38
575.712	277.38
575.923	294.38
576.134	262.38
576.345	262.38
576.556	281.38
576.767	248.38
576.978	248.38
577.188	273.38
577.399	276.38
577.61	268.38
577.821	263.38
578.032	256.38
578.243	279.38
578.454	339.38
578.665	292.38
578.875	265.38
579.086	255.38
579.297	250.38
579.508	248.38
579.718	249.38
579.929	243.38
580.14	251.38
580.35	237.38
580.561	236.38
580.772	257.38
580.982	236.38
581.193	254.38
581.403	229.38
581.614	245.38
581.825	240.38
582.035	255.38
582.246	265.38
582.456	239.38
582.667	235.38
582.877	234.38
583.087	250.38
583.298	251.38
583.508	245.38
583.719	253.38
583.929	257.38
584.139	264.38
584.35	240.38
584.56	237.38
584.77	250.38
584.981	230.38
585.191	250.38
585.401	244.38
585.611	250.38
585.821	246.38
586.032	244.38
586.242	225.38
586.452	246.38
586.662	244.38
586.872	245.38
587.082	246.38
587.292	245.38
587.502	251.38
587.713	242.38
587.923	231.38
588.133	246.38
588.343	234.38
588.553	244.38
588.762	268.38
588.972	251.38
589.182	283.38
589.392	283.38
589.602	254.38
589.812	291.38
590.022	267.38
590.232	261.38
590.441	229.38
590.651	237.38
590.861	234.38
591.071	240.38
591.281	234.38
591.49	249.38
591.7	237.38
591.91	250.38
592.119	253.38
592.329	242.38
592.539	264.38
592.748	275.38
592.958	294.38
593.167	290.38
593.377	291.38
593.587	284.38
593.796	280.38
594.006	274.38
594.215	288.38
594.424	291.38
594.634	286.38
594.843	264.38
595.053	274.38
595.262	265.38
595.472	269.38
595.681	256.38
595.89	263.38
596.1	221.38
596.309	235.38
596.518	237.38
596.727	224.38
596.937	242.38
597.146	224.38
597.355	208.38
597.564	237.38
597.774	241.38
597.983	233.38
598.192	232.38
598.401	226.38
598.61	229.38
598.819	221.38
599.028	218.38
599.237	216.38
599.446	223.38
599.655	249.38
599.864	210.38
600.073	199.38
600.282	224.38
600.491	209.38
600.7	223.38
600.909	217.38
601.118	209.38
601.327	230.38
601.536	228.38
601.745	230.38
601.953	224.38
602.162	217.38
602.371	219.38
602.58	223.38
602.789	206.38
602.997	214.38
603.206	210.38
603.415	202.38
603.623	200.38
603.832	214.38
604.041	219.38
604.249	202.38
604.458	219.38
604.666	206.38
604.875	210.38
605.084	198.38
605.292	203.38
605.501	215.38
605.709	202.38
605.918	202.38
606.126	193.38
606.334	208.38
606.543	191.38
606.751	204.38
606.96	201.38
607.168	197.38
607.376	203.38
607.585	214.38
607.793	197.38
608.001	180.38
608.21	208.38
608.418	196.38
608.626	192.38
608.834	203.38
609.043	203.38
609.251	205.38
609.459	194.38
609.667	214.38
609.875	180.38
610.083	217.38
610.291	200.38
610.499	201.38
610.707	198.38
610.916	193.38
611.124	189.38
611.332	209.38
611.54	214.38
611.748	228.38
611.955	198.38
612.163	202.38
612.371	204.38
612.579	198.38
612.787	186.38
612.995	212.38
613.203	199.38
613.411	190.38
613.618	182.38
613.826	190.38
614.034	188.38
614.242	210.38
614.449	196.38
614.657	208.38
614.865	198.38
615.072	213.38
615.28	196.38
615.488	184.38
615.695	193.38
615.903	202.38
616.111	188.38
616.318	208.38
616.526	196.38
616.733	194.38
616.941	195.38
617.148	193.38
617.356	208.38
617.563	186.38
617.771	210.38
617.978	186.38
618.185	205.38
618.393	200.38
618.6	201.38
618.807	192.38
619.015	190.38
619.222	176.38
619.429	207.38
619.637	195.38
619.844	196.38
620.051	186.38
620.258	191.38
620.466	185.38
620.673	187.38
620.88	185.38
621.087	197.38
621.294	177.38
621.501	168.38
621.708	188.38
621.915	184.38
622.122	178.38
622.329	185.38
622.536	182.38
622.743	175.38
622.95	184.38
623.157	197.38
623.364	193.38
623.571	179.38
623.778	187.38
623.985	187.38
624.192	197.38
624.399	184.38
624.606	190.38
624.812	185.38
625.019	180.38
625.226	163.38
625.433	184.38
625.639	179.38
625.846	171.38
626.053	189.38
626.259	173.38
626.466	168.38
626.673	168.38
626.879	154.38
627.086	180.38
627.293	167.38
627.499	173.38
627.706	168.38
627.912	171.38
628.119	170.38
628.325	161.38
628.532	164.38
628.738	179.38
628.945	174.38
629.151	178.38
629.357	165.38
629.564	165.38
629.77	157.38
629.976	166.38
630.183	159.38
630.389	150.38
630.595	169.38
630.802	172.38
631.008	149.38
631.214	161.38
631.42	172.38
631.627	157.38
631.833	166.38
632.039	160.38
632.245	163.38
632.451	164.38
632.657	164.38
632.863	166.38
633.069	180.38
633.275	168.38
633.481	169.38
633.688	159.38
633.893	165.38
634.099	166.38
634.305	153.38
634.511	151.38
634.717	158.38
634.923	141.38
635.129	147.38
635.335	149.38
635.541	164.38
635.747	159.38
635.952	148.38
636.158	167.38
636.364	167.38
636.57	133.38
636.775	155.38
636.981	164.38
637.187	161.38
637.392	158.38
637.598	162.38
637.804	142.38
638.009	149.38
638.215	157.38
638.421	160.38
638.626	157.38
638.832	153.38
639.037	134.38
639.243	149.38
639.448	160.38
639.654	165.38
639.859	149.38
640.065	141.38
640.27	159.38
640.475	150.38
640.681	160.38
640.886	159.38
641.091	141.38
641.297	135.38
641.502	153.38
641.707	144.38
641.913	144.38
642.118	148.38
642.323	153.38
642.528	166.38
642.733	150.38
642.939	140.38
643.144	161.38
643.349	146.38
643.554	142.38
643.759	142.38
643.964	156.38
644.169	136.38
644.374	134.38
644.579	161.38
644.784	139.38
644.989	145.38
645.194	131.38
645.399	128.38
645.604	151.38
645.809	159.38
646.014	157.38
646.219	149.38
646.423	154.38
646.628	161.38
646.833	152.38
647.038	138.38
647.243	138.38
647.447	143.38
647.652	136.38
647.857	150.38
648.062	143.38
648.266	136.38
648.471	151.38
648.676	166.38
648.88	144.38
649.085	144.38
649.289	168.38
649.494	138.38
649.698	157.38
649.903	146.38
650.107	141.38
650.312	157.38
650.516	153.38
650.721	142.38
650.925	137.38
651.13	138.38
651.334	148.38
651.539	132.38
651.743	129.38
651.947	132.38
652.152	138.38
652.356	143.38
652.56	117.38
652.764	138.38
652.969	143.38
653.173	124.38
653.377	130.38
653.581	134.38
653.785	128.38
653.99	128.38
654.194	123.38
654.398	130.38
654.602	139.38
654.806	124.38
655.01	126.38
655.214	122.38
655.418	124.38
655.622	123.38
655.826	132.38
656.03	135.38
656.234	130.38
656.438	135.38
656.642	141.38
656.846	142.38
657.049	138.38
657.253	123.38
657.457	119.38
657.661	132.38
657.865	104.38
658.068	112.38
658.272	118.38
658.476	124.38
658.68	106.38
658.883	99.38
659.087	95.38
659.291	113.38
659.494	100.38
659.698	85.38
659.901	83.38
660.105	109.38
660.309	104.38
660.512	91.38
660.716	113.38
660.919	90.38
661.123	95.38
661.326	89.38
661.53	95.38
661.733	75.38
661.936	85.38
662.14	88.38
662.343	92.38
662.546	71.38
662.75	93.38
662.953	93.38
663.156	95.38
663.36	80.38
663.563	68.38
663.766	94.38
663.969	89.38
664.173	101.38
664.376	81.38
664.579	85.38
664.782	76.38
664.985	84.38
665.188	81.38
665.391	69.38
665.594	74.38
665.797	74.38
666	76.38
666.203	75.38
666.406	100.38
666.609	85.38
666.812	93.38
667.015	78.38
667.218	88.38
667.421	75.38
667.624	81.38
667.827	74.38
668.03	93.38
668.232	72.38
668.435	80.38
668.638	73.38
668.841	81.38
669.043	77.38
669.246	71.38
669.449	85.38
669.651	98.38
669.854	78.38
670.057	84.38
670.259	86.38
670.462	73.38
670.665	89.38
670.867	78.38
671.07	86.38
671.272	82.38
671.475	96.38
671.677	78.38
671.88	71.38
672.082	77.38
672.284	74.38
672.487	87.38
672.689	85.38
672.892	81.38
