Data from 1984.PennyLincolnUp.Lamp.En5.5.200Scan.071819.P1_HRD10591_16-57-24-967.txt Node
Date: Thu Jul 18 16:57:24 EDT 2019
User: cochatt
Spectrometer: HR+D1059
Trigger mode: 1
Integration Time (sec): 1.000000E-1
Scans to average: 1
Electric dark correction enabled: true
Nonlinearity correction enabled: false
Boxcar width: 0
XAxis mode: Wavelengths
Number of Pixels in Spectrum: 2048
>>>>>Begin Spectral Data<<<<<
223.165	-16.94
223.4	-16.94
223.635	-16.94
223.869	-5.94
224.104	-17.94
224.338	-3.94
224.573	-18.94
224.808	-14.94
225.042	-0.94
225.277	-7.94
225.511	-6.94
225.746	5.06
225.98	-10.94
226.215	-2.94
226.449	26.06
226.683	27.06
226.918	30.06
227.152	20.06
227.387	41.06
227.621	21.06
227.856	37.06
228.09	36.06
228.324	42.06
228.559	51.06
228.793	54.06
229.027	79.06
229.262	82.06
229.496	91.06
229.73	100.06
229.964	116.06
230.199	87.06
230.433	110.06
230.667	104.06
230.901	100.06
231.136	93.06
231.37	102.06
231.604	108.06
231.838	114.06
232.072	113.06
232.306	117.06
232.541	106.06
232.775	113.06
233.009	113.06
233.243	103.06
233.477	115.06
233.711	135.06
233.945	110.06
234.179	122.06
234.413	113.06
234.647	113.06
234.881	113.06
235.115	107.06
235.349	97.06
235.583	102.06
235.817	111.06
236.051	108.06
236.285	103.06
236.519	105.06
236.753	120.06
236.987	130.06
237.221	133.06
237.455	118.06
237.689	124.06
237.922	124.06
238.156	104.06
238.39	100.06
238.624	104.06
238.858	114.06
239.091	105.06
239.325	109.06
239.559	106.06
239.793	111.06
240.027	125.06
240.26	116.06
240.494	114.06
240.728	125.06
240.961	131.06
241.195	125.06
241.429	122.06
241.662	122.06
241.896	114.06
242.13	109.06
242.363	116.06
242.597	128.06
242.83	118.06
243.064	106.06
243.298	126.06
243.531	149.06
243.765	131.06
243.998	124.06
244.232	127.06
244.465	133.06
244.699	125.06
244.932	127.06
245.166	119.06
245.399	134.06
245.633	122.06
245.866	152.06
246.099	135.06
246.333	122.06
246.566	127.06
246.8	144.06
247.033	149.06
247.266	134.06
247.5	129.06
247.733	147.06
247.966	149.06
248.2	147.06
248.433	143.06
248.666	156.06
248.899	152.06
249.133	159.06
249.366	160.06
249.599	161.06
249.832	151.06
250.066	158.06
250.299	151.06
250.532	154.06
250.765	143.06
250.998	159.06
251.231	169.06
251.465	167.06
251.698	143.06
251.931	159.06
252.164	147.06
252.397	166.06
252.63	164.06
252.863	185.06
253.096	169.06
253.329	169.06
253.562	147.06
253.795	174.06
254.028	180.06
254.261	177.06
254.494	186.06
254.727	173.06
254.96	182.06
255.193	204.06
255.426	196.06
255.659	177.06
255.892	189.06
256.124	189.06
256.357	183.06
256.59	191.06
256.823	179.06
257.056	178.06
257.289	171.06
257.521	155.06
257.754	178.06
257.987	180.06
258.22	172.06
258.452	189.06
258.685	174.06
258.918	170.06
259.151	185.06
259.383	177.06
259.616	182.06
259.849	185.06
260.081	194.06
260.314	187.06
260.547	202.06
260.779	180.06
261.012	181.06
261.244	192.06
261.477	186.06
261.71	187.06
261.942	185.06
262.175	185.06
262.407	172.06
262.64	196.06
262.872	190.06
263.105	183.06
263.337	199.06
263.57	196.06
263.802	191.06
264.035	183.06
264.267	189.06
264.499	184.06
264.732	200.06
264.964	187.06
265.197	179.06
265.429	186.06
265.661	193.06
265.894	204.06
266.126	202.06
266.358	194.06
266.591	215.06
266.823	199.06
267.055	186.06
267.287	201.06
267.52	200.06
267.752	181.06
267.984	197.06
268.216	193.06
268.448	194.06
268.681	216.06
268.913	201.06
269.145	237.06
269.377	217.06
269.609	214.06
269.841	237.06
270.073	222.06
270.306	225.06
270.538	230.06
270.77	244.06
271.002	247.06
271.234	229.06
271.466	230.06
271.698	254.06
271.93	245.06
272.162	241.06
272.394	228.06
272.626	240.06
272.858	240.06
273.09	238.06
273.322	229.06
273.553	234.06
273.785	219.06
274.017	212.06
274.249	218.06
274.481	223.06
274.713	226.06
274.945	234.06
275.176	223.06
275.408	235.06
275.64	229.06
275.872	220.06
276.104	246.06
276.335	228.06
276.567	245.06
276.799	267.06
277.031	258.06
277.262	247.06
277.494	257.06
277.726	252.06
277.957	261.06
278.189	246.06
278.421	241.06
278.652	247.06
278.884	243.06
279.115	265.06
279.347	249.06
279.579	223.06
279.81	232.06
280.042	239.06
280.273	230.06
280.505	229.06
280.736	227.06
280.968	232.06
281.199	251.06
281.431	241.06
281.662	265.06
281.894	262.06
282.125	250.06
282.356	259.06
282.588	247.06
282.819	252.06
283.051	235.06
283.282	243.06
283.513	256.06
283.745	259.06
283.976	255.06
284.207	273.06
284.439	239.06
284.67	254.06
284.901	257.06
285.132	239.06
285.364	256.06
285.595	239.06
285.826	249.06
286.057	245.06
286.288	264.06
286.52	255.06
286.751	280.06
286.982	260.06
287.213	262.06
287.444	255.06
287.675	281.06
287.906	282.06
288.138	289.06
288.369	286.06
288.6	267.06
288.831	269.06
289.062	271.06
289.293	249.06
289.524	267.06
289.755	261.06
289.986	269.06
290.217	264.06
290.448	259.06
290.679	290.06
290.91	281.06
291.141	274.06
291.371	262.06
291.602	273.06
291.833	258.06
292.064	262.06
292.295	252.06
292.526	275.06
292.757	263.06
292.987	277.06
293.218	286.06
293.449	272.06
293.68	263.06
293.91	259.06
294.141	269.06
294.372	268.06
294.603	252.06
294.833	270.06
295.064	272.06
295.295	285.06
295.525	260.06
295.756	285.06
295.987	268.06
296.217	292.06
296.448	294.06
296.679	284.06
296.909	297.06
297.14	288.06
297.37	279.06
297.601	273.06
297.831	278.06
298.062	291.06
298.292	291.06
298.523	294.06
298.753	301.06
298.984	298.06
299.214	289.06
299.445	289.06
299.675	302.06
299.905	310.06
300.136	287.06
300.366	303.06
300.597	285.06
300.827	302.06
301.057	297.06
301.288	301.06
301.518	300.06
301.748	307.06
301.979	314.06
302.209	313.06
302.439	299.06
302.669	297.06
302.9	310.06
303.13	300.06
303.36	296.06
303.59	301.06
303.82	311.06
304.051	314.06
304.281	295.06
304.511	302.06
304.741	304.06
304.971	279.06
305.201	301.06
305.431	295.06
305.661	278.06
305.891	296.06
306.121	293.06
306.352	288.06
306.582	290.06
306.812	290.06
307.042	294.06
307.272	304.06
307.502	294.06
307.731	316.06
307.961	294.06
308.191	279.06
308.421	299.06
308.651	299.06
308.881	306.06
309.111	318.06
309.341	294.06
309.571	297.06
309.8	313.06
310.03	306.06
310.26	313.06
310.49	313.06
310.72	318.06
310.949	305.06
311.179	313.06
311.409	326.06
311.639	329.06
311.868	323.06
312.098	343.06
312.328	321.06
312.557	329.06
312.787	335.06
313.017	332.06
313.246	342.06
313.476	340.06
313.706	310.06
313.935	327.06
314.165	346.06
314.394	337.06
314.624	327.06
314.853	333.06
315.083	336.06
315.312	311.06
315.542	303.06
315.771	337.06
316.001	312.06
316.23	323.06
316.46	325.06
316.689	327.06
316.919	325.06
317.148	331.06
317.377	345.06
317.607	315.06
317.836	310.06
318.065	329.06
318.295	333.06
318.524	326.06
318.753	309.06
318.983	323.06
319.212	315.06
319.441	323.06
319.67	327.06
319.9	336.06
320.129	341.06
320.358	324.06
320.587	330.06
320.816	324.06
321.046	329.06
321.275	330.06
321.504	338.06
321.733	319.06
321.962	346.06
322.191	350.06
322.42	325.06
322.649	333.06
322.878	341.06
323.108	345.06
323.337	365.06
323.566	354.06
323.795	355.06
324.024	376.06
324.253	435.06
324.482	547.06
324.71	757.06
324.939	975.06
325.168	853.06
325.397	518.06
325.626	438.06
325.855	386.06
326.084	382.06
326.313	384.06
326.542	360.06
326.77	379.06
326.999	418.06
327.228	519.06
327.457	697.06
327.686	769.06
327.914	567.06
328.143	425.06
328.372	389.06
328.6	415.06
328.829	412.06
329.058	397.06
329.287	387.06
329.515	395.06
329.744	391.06
329.972	366.06
330.201	375.06
330.43	401.06
330.658	393.06
330.887	396.06
331.115	411.06
331.344	411.06
331.572	389.06
331.801	405.06
332.03	381.06
332.258	388.06
332.486	371.06
332.715	399.06
332.943	402.06
333.172	409.06
333.4	407.06
333.629	411.06
333.857	450.06
334.085	441.06
334.314	423.06
334.542	427.06
334.771	402.06
334.999	404.06
335.227	397.06
335.455	389.06
335.684	403.06
335.912	405.06
336.14	402.06
336.369	380.06
336.597	389.06
336.825	379.06
337.053	402.06
337.281	392.06
337.51	376.06
337.738	381.06
337.966	379.06
338.194	366.06
338.422	375.06
338.65	369.06
338.878	375.06
339.106	373.06
339.334	365.06
339.562	364.06
339.79	353.06
340.018	358.06
340.246	343.06
340.474	369.06
340.702	361.06
340.93	364.06
341.158	360.06
341.386	350.06
341.614	361.06
341.842	357.06
342.07	364.06
342.298	367.06
342.526	355.06
342.754	375.06
342.981	353.06
343.209	385.06
343.437	373.06
343.665	375.06
343.893	388.06
344.12	405.06
344.348	385.06
344.576	383.06
344.804	398.06
345.031	378.06
345.259	364.06
345.487	369.06
345.714	357.06
345.942	354.06
346.17	342.06
346.397	330.06
346.625	363.06
346.853	336.06
347.08	328.06
347.308	368.06
347.535	333.06
347.763	358.06
347.99	353.06
348.218	356.06
348.445	346.06
348.673	342.06
348.9	341.06
349.128	329.06
349.355	343.06
349.583	335.06
349.81	322.06
350.037	344.06
350.265	334.06
350.492	316.06
350.72	330.06
350.947	337.06
351.174	346.06
351.402	349.06
351.629	355.06
351.856	337.06
352.083	335.06
352.311	325.06
352.538	337.06
352.765	333.06
352.992	327.06
353.22	324.06
353.447	334.06
353.674	338.06
353.901	319.06
354.128	345.06
354.355	329.06
354.583	327.06
354.81	328.06
355.037	339.06
355.264	333.06
355.491	322.06
355.718	329.06
355.945	343.06
356.172	331.06
356.399	333.06
356.626	319.06
356.853	317.06
357.08	340.06
357.307	317.06
357.534	339.06
357.761	335.06
357.988	330.06
358.215	331.06
358.441	325.06
358.668	335.06
358.895	340.06
359.122	321.06
359.349	329.06
359.576	354.06
359.802	324.06
360.029	358.06
360.256	361.06
360.483	350.06
360.709	325.06
360.936	325.06
361.163	340.06
361.39	347.06
361.616	338.06
361.843	343.06
362.07	322.06
362.296	324.06
362.523	320.06
362.749	327.06
362.976	326.06
363.203	330.06
363.429	330.06
363.656	310.06
363.882	309.06
364.109	318.06
364.335	318.06
364.562	330.06
364.788	333.06
365.015	321.06
365.241	327.06
365.468	336.06
365.694	339.06
365.92	323.06
366.147	338.06
366.373	330.06
366.599	317.06
366.826	302.06
367.052	303.06
367.278	351.06
367.505	330.06
367.731	331.06
367.957	329.06
368.184	330.06
368.41	320.06
368.636	326.06
368.862	314.06
369.089	319.06
369.315	320.06
369.541	341.06
369.767	334.06
369.993	331.06
370.219	326.06
370.445	336.06
370.672	337.06
370.898	330.06
371.124	330.06
371.35	340.06
371.576	340.06
371.802	357.06
372.028	348.06
372.254	330.06
372.48	335.06
372.706	348.06
372.932	338.06
373.158	357.06
373.384	345.06
373.61	327.06
373.835	335.06
374.061	332.06
374.287	347.06
374.513	353.06
374.739	363.06
374.965	373.06
375.191	381.06
375.416	357.06
375.642	358.06
375.868	351.06
376.094	369.06
376.319	346.06
376.545	337.06
376.771	341.06
376.997	345.06
377.222	350.06
377.448	358.06
377.674	348.06
377.899	332.06
378.125	355.06
378.35	337.06
378.576	339.06
378.802	339.06
379.027	340.06
379.253	329.06
379.478	331.06
379.704	342.06
379.929	334.06
380.155	339.06
380.38	348.06
380.606	336.06
380.831	330.06
381.057	335.06
381.282	333.06
381.507	335.06
381.733	354.06
381.958	342.06
382.184	353.06
382.409	357.06
382.634	341.06
382.86	340.06
383.085	354.06
383.31	359.06
383.535	367.06
383.761	341.06
383.986	343.06
384.211	388.06
384.436	387.06
384.662	363.06
384.887	391.06
385.112	398.06
385.337	383.06
385.562	377.06
385.787	385.06
386.013	381.06
386.238	388.06
386.463	397.06
386.688	387.06
386.913	382.06
387.138	393.06
387.363	381.06
387.588	384.06
387.813	389.06
388.038	367.06
388.263	383.06
388.488	383.06
388.713	381.06
388.938	380.06
389.163	382.06
389.387	379.06
389.612	371.06
389.837	376.06
390.062	373.06
390.287	371.06
390.512	358.06
390.736	377.06
390.961	395.06
391.186	398.06
391.411	374.06
391.636	395.06
391.86	404.06
392.085	407.06
392.31	415.06
392.534	407.06
392.759	406.06
392.984	418.06
393.208	389.06
393.433	398.06
393.658	393.06
393.882	391.06
394.107	398.06
394.331	395.06
394.556	413.06
394.78	415.06
395.005	399.06
395.229	398.06
395.454	421.06
395.678	420.06
395.903	435.06
396.127	411.06
396.352	419.06
396.576	408.06
396.801	379.06
397.025	419.06
397.249	414.06
397.474	450.06
397.698	425.06
397.922	421.06
398.147	429.06
398.371	428.06
398.595	397.06
398.82	437.06
399.044	453.06
399.268	509.06
399.492	539.06
399.717	589.06
399.941	613.06
400.165	596.06
400.389	548.06
400.613	473.06
400.837	474.06
401.062	455.06
401.286	423.06
401.51	472.06
401.734	444.06
401.958	466.06
402.182	456.06
402.406	470.06
402.63	453.06
402.854	478.06
403.078	467.06
403.302	475.06
403.526	490.06
403.75	485.06
403.974	493.06
404.198	481.06
404.422	480.06
404.645	486.06
404.869	485.06
405.093	483.06
405.317	485.06
405.541	497.06
405.765	489.06
405.988	487.06
406.212	493.06
406.436	485.06
406.66	500.06
406.883	497.06
407.107	503.06
407.331	551.06
407.555	581.06
407.778	586.06
408.002	566.06
408.226	541.06
408.449	509.06
408.673	497.06
408.896	533.06
409.12	525.06
409.344	515.06
409.567	470.06
409.791	473.06
410.014	489.06
410.238	480.06
410.461	466.06
410.685	489.06
410.908	489.06
411.132	487.06
411.355	504.06
411.578	476.06
411.802	465.06
412.025	468.06
412.249	457.06
412.472	469.06
412.695	447.06
412.919	468.06
413.142	458.06
413.365	466.06
413.589	452.06
413.812	442.06
414.035	459.06
414.258	427.06
414.482	458.06
414.705	449.06
414.928	444.06
415.151	462.06
415.374	433.06
415.597	460.06
415.821	438.06
416.044	426.06
416.267	453.06
416.49	419.06
416.713	430.06
416.936	437.06
417.159	428.06
417.382	407.06
417.605	445.06
417.828	457.06
418.051	465.06
418.274	465.06
418.497	446.06
418.72	445.06
418.943	435.06
419.166	478.06
419.389	499.06
419.611	471.06
419.834	457.06
420.057	481.06
420.28	441.06
420.503	449.06
420.726	421.06
420.948	452.06
421.171	458.06
421.394	479.06
421.617	446.06
421.839	453.06
422.062	445.06
422.285	463.06
422.507	467.06
422.73	528.06
422.953	500.06
423.175	481.06
423.398	463.06
423.621	467.06
423.843	469.06
424.066	465.06
424.288	477.06
424.511	472.06
424.733	502.06
424.956	521.06
425.178	510.06
425.401	504.06
425.623	504.06
425.846	485.06
426.068	462.06
426.291	452.06
426.513	441.06
426.735	457.06
426.958	464.06
427.18	492.06
427.402	555.06
427.625	601.06
427.847	508.06
428.069	468.06
428.292	441.06
428.514	429.06
428.736	411.06
428.958	415.06
429.181	404.06
429.403	428.06
429.625	415.06
429.847	417.06
430.069	439.06
430.292	459.06
430.514	414.06
430.736	412.06
430.958	392.06
431.18	413.06
431.402	414.06
431.624	408.06
431.846	408.06
432.068	389.06
432.29	412.06
432.512	403.06
432.734	388.06
432.956	396.06
433.178	409.06
433.4	414.06
433.622	403.06
433.844	405.06
434.066	403.06
434.287	421.06
434.509	411.06
434.731	450.06
434.953	465.06
435.175	439.06
435.397	464.06
435.618	454.06
435.84	457.06
436.062	480.06
436.284	513.06
436.505	478.06
436.727	435.06
436.949	422.06
437.17	421.06
437.392	404.06
437.614	401.06
437.835	424.06
438.057	452.06
438.278	479.06
438.5	467.06
438.721	550.06
438.943	553.06
439.165	458.06
439.386	416.06
439.608	428.06
439.829	439.06
440.05	435.06
440.272	449.06
440.493	437.06
440.715	419.06
440.936	405.06
441.158	421.06
441.379	405.06
441.6	416.06
441.822	461.06
442.043	457.06
442.264	515.06
442.486	502.06
442.707	474.06
442.928	448.06
443.149	464.06
443.371	483.06
443.592	478.06
443.813	522.06
444.034	558.06
444.255	493.06
444.476	486.06
444.698	482.06
444.919	492.06
445.14	613.06
445.361	509.06
445.582	485.06
445.803	485.06
446.024	538.06
446.245	528.06
446.466	487.06
446.687	439.06
446.908	450.06
447.129	400.06
447.35	404.06
447.571	410.06
447.792	380.06
448.013	401.06
448.234	385.06
448.455	412.06
448.675	484.06
448.896	540.06
449.117	467.06
449.338	443.06
449.559	504.06
449.779	542.06
450	463.06
450.221	408.06
450.442	385.06
450.662	386.06
450.883	396.06
451.104	397.06
451.324	364.06
451.545	377.06
451.766	373.06
451.986	362.06
452.207	366.06
452.428	374.06
452.648	369.06
452.869	376.06
453.089	347.06
453.31	382.06
453.53	361.06
453.751	362.06
453.971	364.06
454.192	365.06
454.412	354.06
454.633	364.06
454.853	362.06
455.073	340.06
455.294	364.06
455.514	395.06
455.734	376.06
455.955	340.06
456.175	349.06
456.395	346.06
456.616	361.06
456.836	366.06
457.056	347.06
457.276	361.06
457.497	361.06
457.717	354.06
457.937	356.06
458.157	352.06
458.377	353.06
458.598	392.06
458.818	395.06
459.038	421.06
459.258	444.06
459.478	419.06
459.698	421.06
459.918	395.06
460.138	410.06
460.358	434.06
460.578	426.06
460.798	441.06
461.018	428.06
461.238	429.06
461.458	435.06
461.678	412.06
461.898	430.06
462.118	444.06
462.338	468.06
462.558	468.06
462.777	484.06
462.997	493.06
463.217	507.06
463.437	526.06
463.657	487.06
463.876	476.06
464.096	491.06
464.316	477.06
464.536	493.06
464.755	486.06
464.975	472.06
465.195	480.06
465.414	463.06
465.634	419.06
465.854	402.06
466.073	402.06
466.293	392.06
466.512	397.06
466.732	390.06
466.951	388.06
467.171	374.06
467.391	415.06
467.61	394.06
467.829	382.06
468.049	374.06
468.268	356.06
468.488	361.06
468.707	375.06
468.927	389.06
469.146	389.06
469.365	372.06
469.585	359.06
469.804	377.06
470.023	394.06
470.243	406.06
470.462	395.06
470.681	401.06
470.901	393.06
471.12	396.06
471.339	387.06
471.558	378.06
471.777	388.06
471.997	383.06
472.216	374.06
472.435	365.06
472.654	352.06
472.873	377.06
473.092	376.06
473.311	361.06
473.53	372.06
473.749	377.06
473.968	394.06
474.187	450.06
474.406	444.06
474.625	376.06
474.844	386.06
475.063	361.06
475.282	376.06
475.501	393.06
475.72	366.06
475.939	382.06
476.158	385.06
476.377	392.06
476.596	385.06
476.814	398.06
477.033	391.06
477.252	414.06
477.471	409.06
477.69	407.06
477.908	403.06
478.127	428.06
478.346	423.06
478.564	467.06
478.783	444.06
479.002	417.06
479.22	455.06
479.439	452.06
479.658	446.06
479.876	456.06
480.095	479.06
480.313	480.06
480.532	477.06
480.751	477.06
480.969	481.06
481.188	466.06
481.406	425.06
481.624	456.06
481.843	434.06
482.061	422.06
482.28	438.06
482.498	427.06
482.717	403.06
482.935	419.06
483.153	421.06
483.372	431.06
483.59	425.06
483.808	419.06
484.027	442.06
484.245	448.06
484.463	421.06
484.681	430.06
484.9	450.06
485.118	451.06
485.336	441.06
485.554	455.06
485.772	441.06
485.99	452.06
486.209	454.06
486.427	434.06
486.645	449.06
486.863	470.06
487.081	443.06
487.299	450.06
487.517	437.06
487.735	459.06
487.953	463.06
488.171	470.06
488.389	451.06
488.607	450.06
488.825	439.06
489.043	445.06
489.261	472.06
489.479	476.06
489.696	448.06
489.914	451.06
490.132	460.06
490.35	468.06
490.568	462.06
490.786	461.06
491.003	475.06
491.221	464.06
491.439	479.06
491.657	484.06
491.874	486.06
492.092	472.06
492.31	477.06
492.527	482.06
492.745	477.06
492.963	482.06
493.18	497.06
493.398	519.06
493.615	502.06
493.833	499.06
494.05	483.06
494.268	489.06
494.485	490.06
494.703	502.06
494.92	484.06
495.138	491.06
495.355	531.06
495.573	513.06
495.79	498.06
496.008	516.06
496.225	531.06
496.442	523.06
496.66	527.06
496.877	522.06
497.094	512.06
497.312	537.06
497.529	533.06
497.746	562.06
497.963	551.06
498.181	578.06
498.398	614.06
498.615	617.06
498.832	655.06
499.049	680.06
499.267	718.06
499.484	767.06
499.701	814.06
499.918	854.06
500.135	944.06
500.352	1036.06
500.569	1047.06
500.786	1028.06
501.003	959.06
501.22	917.06
501.437	861.06
501.654	801.06
501.871	735.06
502.088	735.06
502.305	665.06
502.522	631.06
502.739	633.06
502.956	611.06
503.172	600.06
503.389	572.06
503.606	567.06
503.823	566.06
504.04	579.06
504.256	571.06
504.473	555.06
504.69	564.06
504.907	563.06
505.123	539.06
505.34	508.06
505.557	492.06
505.773	490.06
505.99	502.06
506.207	495.06
506.423	482.06
506.64	487.06
506.856	447.06
507.073	452.06
507.289	470.06
507.506	453.06
507.722	447.06
507.939	445.06
508.155	450.06
508.372	445.06
508.588	455.06
508.805	436.06
509.021	443.06
509.238	454.06
509.454	430.06
509.67	443.06
509.887	442.06
510.103	446.06
510.319	458.06
510.536	483.06
510.752	629.06
510.968	561.06
511.184	424.06
511.401	414.06
511.617	424.06
511.833	421.06
512.049	433.06
512.265	415.06
512.481	441.06
512.698	441.06
512.914	401.06
513.13	402.06
513.346	434.06
513.562	421.06
513.778	423.06
513.994	407.06
514.21	420.06
514.426	414.06
514.642	460.06
514.858	442.06
515.074	450.06
515.29	496.06
515.506	579.06
515.721	522.06
515.937	454.06
516.153	482.06
516.369	465.06
516.585	454.06
516.801	476.06
517.016	481.06
517.232	492.06
517.448	489.06
517.664	515.06
517.879	519.06
518.095	500.06
518.311	497.06
518.527	488.06
518.742	497.06
518.958	469.06
519.173	447.06
519.389	458.06
519.605	440.06
519.82	442.06
520.036	444.06
520.251	438.06
520.467	437.06
520.682	445.06
520.898	428.06
521.113	445.06
521.329	449.06
521.544	466.06
521.76	509.06
521.975	689.06
522.19	651.06
522.406	472.06
522.621	427.06
522.836	414.06
523.052	396.06
523.267	385.06
523.482	384.06
523.698	386.06
523.913	396.06
524.128	387.06
524.343	375.06
524.559	397.06
524.774	386.06
524.989	394.06
525.204	398.06
525.419	373.06
525.634	377.06
525.849	391.06
526.064	379.06
526.28	385.06
526.495	396.06
526.71	349.06
526.925	352.06
527.14	394.06
527.355	383.06
527.57	387.06
527.785	375.06
527.999	353.06
528.214	377.06
528.429	377.06
528.644	370.06
528.859	383.06
529.074	368.06
529.289	377.06
529.503	385.06
529.718	413.06
529.933	389.06
530.148	374.06
530.363	361.06
530.577	363.06
530.792	374.06
531.007	365.06
531.221	372.06
531.436	383.06
531.651	361.06
531.865	369.06
532.08	363.06
532.295	383.06
532.509	362.06
532.724	366.06
532.938	373.06
533.153	390.06
533.367	377.06
533.582	364.06
533.796	369.06
534.011	368.06
534.225	338.06
534.44	359.06
534.654	345.06
534.868	347.06
535.083	372.06
535.297	345.06
535.511	348.06
535.726	367.06
535.94	358.06
536.154	373.06
536.369	349.06
536.583	350.06
536.797	347.06
537.011	355.06
537.225	346.06
537.44	349.06
537.654	339.06
537.868	334.06
538.082	343.06
538.296	349.06
538.51	362.06
538.724	369.06
538.938	343.06
539.153	355.06
539.367	349.06
539.581	348.06
539.795	349.06
540.009	354.06
540.222	342.06
540.436	334.06
540.65	348.06
540.864	335.06
541.078	333.06
541.292	356.06
541.506	337.06
541.72	335.06
541.934	337.06
542.147	356.06
542.361	350.06
542.575	343.06
542.789	366.06
543.002	350.06
543.216	335.06
543.43	321.06
543.644	340.06
543.857	355.06
544.071	348.06
544.285	350.06
544.498	347.06
544.712	342.06
544.925	345.06
545.139	361.06
545.352	357.06
545.566	353.06
545.779	356.06
545.993	357.06
546.206	362.06
546.42	349.06
546.633	337.06
546.847	347.06
547.06	359.06
547.274	356.06
547.487	350.06
547.7	331.06
547.914	336.06
548.127	343.06
548.34	347.06
548.554	348.06
548.767	344.06
548.98	338.06
549.193	344.06
549.407	324.06
549.62	366.06
549.833	354.06
550.046	363.06
550.259	344.06
550.473	354.06
550.686	324.06
550.899	338.06
551.112	347.06
551.325	349.06
551.538	342.06
551.751	330.06
551.964	332.06
552.177	364.06
552.39	340.06
552.603	364.06
552.816	363.06
553.029	359.06
553.242	379.06
553.455	355.06
553.667	403.06
553.88	369.06
554.093	371.06
554.306	341.06
554.519	361.06
554.732	353.06
554.944	348.06
555.157	313.06
555.37	332.06
555.583	326.06
555.795	341.06
556.008	330.06
556.221	294.06
556.433	316.06
556.646	305.06
556.859	310.06
557.071	297.06
557.284	319.06
557.496	337.06
557.709	322.06
557.921	334.06
558.134	318.06
558.346	315.06
558.559	316.06
558.771	296.06
558.984	309.06
559.196	308.06
559.409	315.06
559.621	301.06
559.833	318.06
560.046	289.06
560.258	292.06
560.47	302.06
560.683	324.06
560.895	300.06
561.107	300.06
561.32	298.06
561.532	300.06
561.744	324.06
561.956	301.06
562.168	303.06
562.381	299.06
562.593	309.06
562.805	322.06
563.017	332.06
563.229	319.06
563.441	328.06
563.653	311.06
563.865	297.06
564.077	315.06
564.289	311.06
564.501	312.06
564.713	340.06
564.925	337.06
565.137	346.06
565.349	339.06
565.561	353.06
565.773	356.06
565.985	345.06
566.197	379.06
566.408	403.06
566.62	429.06
566.832	438.06
567.044	427.06
567.255	443.06
567.467	427.06
567.679	466.06
567.891	494.06
568.102	504.06
568.314	477.06
568.526	437.06
568.737	425.06
568.949	381.06
569.161	373.06
569.372	361.06
569.584	348.06
569.795	331.06
570.007	313.06
570.218	346.06
570.43	327.06
570.641	321.06
570.853	319.06
571.064	333.06
571.276	322.06
571.487	330.06
571.698	309.06
571.91	311.06
572.121	311.06
572.333	284.06
572.544	296.06
572.755	283.06
572.966	299.06
573.178	285.06
573.389	274.06
573.6	285.06
573.811	270.06
574.023	263.06
574.234	261.06
574.445	263.06
574.656	277.06
574.867	276.06
575.078	270.06
575.289	281.06
575.501	267.06
575.712	259.06
575.923	280.06
576.134	245.06
576.345	270.06
576.556	263.06
576.767	271.06
576.978	277.06
577.188	260.06
577.399	278.06
577.61	256.06
577.821	266.06
578.032	265.06
578.243	241.06
578.454	343.06
578.665	282.06
578.875	270.06
579.086	246.06
579.297	237.06
579.508	251.06
579.718	247.06
579.929	243.06
580.14	236.06
580.35	239.06
580.561	246.06
580.772	233.06
580.982	259.06
581.193	231.06
581.403	254.06
581.614	244.06
581.825	254.06
582.035	248.06
582.246	243.06
582.456	245.06
582.667	230.06
582.877	224.06
583.087	234.06
583.298	248.06
583.508	239.06
583.719	237.06
583.929	249.06
584.139	243.06
584.35	233.06
584.56	255.06
584.77	227.06
584.981	250.06
585.191	249.06
585.401	236.06
585.611	229.06
585.821	244.06
586.032	246.06
586.242	246.06
586.452	238.06
586.662	254.06
586.872	245.06
587.082	229.06
587.292	219.06
587.502	232.06
587.713	233.06
587.923	241.06
588.133	243.06
588.343	253.06
588.553	228.06
588.762	250.06
588.972	231.06
589.182	309.06
589.392	299.06
589.602	242.06
589.812	281.06
590.022	271.06
590.232	238.06
590.441	237.06
590.651	242.06
590.861	246.06
591.071	242.06
591.281	236.06
591.49	239.06
591.7	236.06
591.91	249.06
592.119	249.06
592.329	258.06
592.539	257.06
592.748	281.06
592.958	279.06
593.167	279.06
593.377	292.06
593.587	299.06
593.796	289.06
594.006	283.06
594.215	305.06
594.424	300.06
594.634	283.06
594.843	273.06
595.053	263.06
595.262	254.06
595.472	251.06
595.681	248.06
595.89	250.06
596.1	237.06
596.309	241.06
596.518	228.06
596.727	228.06
596.937	244.06
597.146	214.06
597.355	222.06
597.564	222.06
597.774	226.06
597.983	226.06
598.192	221.06
598.401	225.06
598.61	217.06
598.819	216.06
599.028	222.06
599.237	205.06
599.446	207.06
599.655	207.06
599.864	218.06
600.073	228.06
600.282	214.06
600.491	217.06
600.7	218.06
600.909	199.06
601.118	199.06
601.327	224.06
601.536	211.06
601.745	214.06
601.953	217.06
602.162	192.06
602.371	212.06
602.58	204.06
602.789	204.06
602.997	197.06
603.206	201.06
603.415	196.06
603.623	187.06
603.832	207.06
604.041	193.06
604.249	197.06
604.458	190.06
604.666	197.06
604.875	196.06
605.084	199.06
605.292	198.06
605.501	187.06
605.709	203.06
605.918	194.06
606.126	200.06
606.334	217.06
606.543	208.06
606.751	200.06
606.96	214.06
607.168	188.06
607.376	194.06
607.585	203.06
607.793	183.06
608.001	201.06
608.21	177.06
608.418	197.06
608.626	194.06
608.834	193.06
609.043	191.06
609.251	203.06
609.459	195.06
609.667	217.06
609.875	206.06
610.083	199.06
610.291	189.06
610.499	201.06
610.707	198.06
610.916	205.06
611.124	196.06
611.332	218.06
611.54	199.06
611.748	209.06
611.955	190.06
612.163	193.06
612.371	198.06
612.579	188.06
612.787	187.06
612.995	189.06
613.203	202.06
613.411	189.06
613.618	194.06
613.826	196.06
614.034	202.06
614.242	216.06
614.449	189.06
614.657	197.06
614.865	206.06
615.072	186.06
615.28	204.06
615.488	206.06
615.695	178.06
615.903	193.06
616.111	209.06
616.318	202.06
616.526	179.06
616.733	205.06
616.941	197.06
617.148	195.06
617.356	204.06
617.563	195.06
617.771	197.06
617.978	184.06
618.185	181.06
618.393	182.06
618.6	187.06
618.807	182.06
619.015	207.06
619.222	196.06
619.429	174.06
619.637	194.06
619.844	190.06
620.051	174.06
620.258	174.06
620.466	187.06
620.673	185.06
620.88	185.06
621.087	174.06
621.294	175.06
621.501	169.06
621.708	186.06
621.915	183.06
622.122	193.06
622.329	191.06
622.536	186.06
622.743	200.06
622.95	189.06
623.157	187.06
623.364	177.06
623.571	183.06
623.778	194.06
623.985	180.06
624.192	182.06
624.399	169.06
624.606	167.06
624.812	168.06
625.019	172.06
625.226	162.06
625.433	189.06
625.639	161.06
625.846	173.06
626.053	172.06
626.259	157.06
626.466	184.06
626.673	162.06
626.879	175.06
627.086	170.06
627.293	175.06
627.499	189.06
627.706	181.06
627.912	165.06
628.119	183.06
628.325	185.06
628.532	163.06
628.738	147.06
628.945	174.06
629.151	176.06
629.357	168.06
629.564	164.06
629.77	156.06
629.976	168.06
630.183	171.06
630.389	153.06
630.595	165.06
630.802	165.06
631.008	155.06
631.214	172.06
631.42	157.06
631.627	179.06
631.833	165.06
632.039	157.06
632.245	160.06
632.451	161.06
632.657	169.06
632.863	166.06
633.069	173.06
633.275	161.06
633.481	161.06
633.688	161.06
633.893	158.06
634.099	162.06
634.305	154.06
634.511	166.06
634.717	164.06
634.923	163.06
635.129	163.06
635.335	162.06
635.541	152.06
635.747	149.06
635.952	160.06
636.158	152.06
636.364	143.06
636.57	160.06
636.775	160.06
636.981	151.06
637.187	141.06
637.392	141.06
637.598	159.06
637.804	144.06
638.009	145.06
638.215	137.06
638.421	142.06
638.626	142.06
638.832	147.06
639.037	153.06
639.243	162.06
639.448	147.06
639.654	169.06
639.859	157.06
640.065	152.06
640.27	146.06
640.475	157.06
640.681	160.06
640.886	138.06
641.091	144.06
641.297	159.06
641.502	141.06
641.707	149.06
641.913	139.06
642.118	157.06
642.323	148.06
642.528	159.06
642.733	128.06
642.939	141.06
643.144	140.06
643.349	149.06
643.554	134.06
643.759	142.06
643.964	145.06
644.169	149.06
644.374	146.06
644.579	134.06
644.784	150.06
644.989	144.06
645.194	142.06
645.399	147.06
645.604	151.06
645.809	143.06
646.014	135.06
646.219	142.06
646.423	148.06
646.628	141.06
646.833	165.06
647.038	155.06
647.243	151.06
647.447	151.06
647.652	148.06
647.857	160.06
648.062	138.06
648.266	157.06
648.471	155.06
648.676	146.06
648.88	163.06
649.085	159.06
649.289	146.06
649.494	146.06
649.698	151.06
649.903	140.06
650.107	153.06
650.312	149.06
650.516	143.06
650.721	134.06
650.925	146.06
651.13	127.06
651.334	145.06
651.539	131.06
651.743	125.06
651.947	150.06
652.152	137.06
652.356	137.06
652.56	121.06
652.764	122.06
652.969	139.06
653.173	137.06
653.377	119.06
653.581	133.06
653.785	128.06
653.99	119.06
654.194	139.06
654.398	115.06
654.602	119.06
654.806	138.06
655.01	126.06
655.214	125.06
655.418	140.06
655.622	133.06
655.826	120.06
656.03	133.06
656.234	129.06
656.438	130.06
656.642	129.06
656.846	118.06
657.049	111.06
657.253	129.06
657.457	118.06
657.661	118.06
657.865	110.06
658.068	103.06
658.272	113.06
658.476	89.06
658.68	90.06
658.883	104.06
659.087	93.06
659.291	82.06
659.494	99.06
659.698	102.06
659.901	85.06
660.105	97.06
660.309	91.06
660.512	94.06
660.716	87.06
660.919	101.06
661.123	100.06
661.326	83.06
661.53	78.06
661.733	91.06
661.936	87.06
662.14	83.06
662.343	80.06
662.546	93.06
662.75	85.06
662.953	78.06
663.156	80.06
663.36	100.06
663.563	79.06
663.766	74.06
663.969	75.06
664.173	78.06
664.376	76.06
664.579	90.06
664.782	101.06
664.985	74.06
665.188	77.06
665.391	84.06
665.594	95.06
665.797	86.06
666	70.06
666.203	77.06
666.406	83.06
666.609	90.06
666.812	78.06
667.015	75.06
667.218	86.06
667.421	81.06
667.624	85.06
667.827	65.06
668.03	78.06
668.232	76.06
668.435	70.06
668.638	75.06
668.841	89.06
669.043	85.06
669.246	99.06
669.449	84.06
669.651	72.06
669.854	83.06
670.057	83.06
670.259	77.06
670.462	88.06
670.665	82.06
670.867	81.06
671.07	79.06
671.272	92.06
671.475	93.06
671.677	77.06
671.88	75.06
672.082	90.06
672.284	94.06
672.487	76.06
672.689	88.06
672.892	85.06
