Data from 1984.PennyLincolnUp.Lamp.En5.5.200Scan.071819.P1_HRD10591_16-58-10-968.txt Node
Date: Thu Jul 18 16:58:10 EDT 2019
User: cochatt
Spectrometer: HR+D1059
Trigger mode: 1
Integration Time (sec): 1.000000E-1
Scans to average: 1
Electric dark correction enabled: true
Nonlinearity correction enabled: false
Boxcar width: 0
XAxis mode: Wavelengths
Number of Pixels in Spectrum: 2048
>>>>>Begin Spectral Data<<<<<
223.165	-13.62
223.4	-13.62
223.635	-13.62
223.869	-15.62
224.104	-20.62
224.338	-9.62
224.573	-17.62
224.808	-20.62
225.042	4.38
225.277	-23.62
225.511	4.38
225.746	3.38
225.98	13.38
226.215	-6.62
226.449	16.38
226.683	28.38
226.918	22.38
227.152	35.38
227.387	29.38
227.621	47.38
227.856	39.38
228.09	55.38
228.324	70.38
228.559	62.38
228.793	70.38
229.027	88.38
229.262	94.38
229.496	108.38
229.73	100.38
229.964	114.38
230.199	119.38
230.433	90.38
230.667	99.38
230.901	97.38
231.136	106.38
231.37	94.38
231.604	110.38
231.838	120.38
232.072	96.38
232.306	116.38
232.541	120.38
232.775	116.38
233.009	116.38
233.243	103.38
233.477	120.38
233.711	117.38
233.945	117.38
234.179	101.38
234.413	110.38
234.647	114.38
234.881	103.38
235.115	106.38
235.349	110.38
235.583	125.38
235.817	134.38
236.051	120.38
236.285	112.38
236.519	126.38
236.753	120.38
236.987	137.38
237.221	157.38
237.455	182.38
237.689	143.38
237.922	134.38
238.156	127.38
238.39	114.38
238.624	109.38
238.858	117.38
239.091	118.38
239.325	120.38
239.559	121.38
239.793	133.38
240.027	135.38
240.26	135.38
240.494	137.38
240.728	154.38
240.961	140.38
241.195	135.38
241.429	128.38
241.662	124.38
241.896	123.38
242.13	134.38
242.363	130.38
242.597	128.38
242.83	150.38
243.064	123.38
243.298	137.38
243.531	150.38
243.765	143.38
243.998	142.38
244.232	130.38
244.465	138.38
244.699	136.38
244.932	135.38
245.166	149.38
245.399	130.38
245.633	143.38
245.866	143.38
246.099	147.38
246.333	144.38
246.566	142.38
246.8	130.38
247.033	138.38
247.266	146.38
247.5	147.38
247.733	146.38
247.966	164.38
248.2	128.38
248.433	154.38
248.666	157.38
248.899	173.38
249.133	160.38
249.366	182.38
249.599	172.38
249.832	161.38
250.066	164.38
250.299	169.38
250.532	200.38
250.765	186.38
250.998	185.38
251.231	203.38
251.465	184.38
251.698	175.38
251.931	170.38
252.164	173.38
252.397	164.38
252.63	173.38
252.863	185.38
253.096	175.38
253.329	199.38
253.562	203.38
253.795	191.38
254.028	193.38
254.261	178.38
254.494	206.38
254.727	201.38
254.96	223.38
255.193	207.38
255.426	200.38
255.659	199.38
255.892	210.38
256.124	225.38
256.357	226.38
256.59	235.38
256.823	197.38
257.056	174.38
257.289	202.38
257.521	182.38
257.754	181.38
257.987	176.38
258.22	184.38
258.452	186.38
258.685	189.38
258.918	182.38
259.151	185.38
259.383	194.38
259.616	190.38
259.849	208.38
260.081	204.38
260.314	223.38
260.547	221.38
260.779	213.38
261.012	209.38
261.244	202.38
261.477	192.38
261.71	192.38
261.942	202.38
262.175	214.38
262.407	199.38
262.64	207.38
262.872	202.38
263.105	204.38
263.337	200.38
263.57	195.38
263.802	204.38
264.035	196.38
264.267	188.38
264.499	194.38
264.732	196.38
264.964	196.38
265.197	188.38
265.429	197.38
265.661	205.38
265.894	203.38
266.126	198.38
266.358	205.38
266.591	212.38
266.823	198.38
267.055	212.38
267.287	210.38
267.52	207.38
267.752	208.38
267.984	212.38
268.216	214.38
268.448	220.38
268.681	208.38
268.913	215.38
269.145	234.38
269.377	240.38
269.609	240.38
269.841	253.38
270.073	250.38
270.306	247.38
270.538	262.38
270.77	252.38
271.002	241.38
271.234	259.38
271.466	246.38
271.698	270.38
271.93	264.38
272.162	262.38
272.394	270.38
272.626	253.38
272.858	257.38
273.09	248.38
273.322	239.38
273.553	242.38
273.785	249.38
274.017	226.38
274.249	237.38
274.481	228.38
274.713	225.38
274.945	239.38
275.176	245.38
275.408	246.38
275.64	240.38
275.872	225.38
276.104	241.38
276.335	247.38
276.567	249.38
276.799	260.38
277.031	267.38
277.262	260.38
277.494	278.38
277.726	268.38
277.957	263.38
278.189	268.38
278.421	257.38
278.652	248.38
278.884	264.38
279.115	238.38
279.347	247.38
279.579	258.38
279.81	239.38
280.042	256.38
280.273	254.38
280.505	246.38
280.736	252.38
280.968	241.38
281.199	266.38
281.431	257.38
281.662	261.38
281.894	253.38
282.125	246.38
282.356	260.38
282.588	277.38
282.819	269.38
283.051	254.38
283.282	266.38
283.513	263.38
283.745	257.38
283.976	284.38
284.207	272.38
284.439	278.38
284.67	262.38
284.901	268.38
285.132	254.38
285.364	269.38
285.595	236.38
285.826	265.38
286.057	296.38
286.288	261.38
286.52	274.38
286.751	276.38
286.982	264.38
287.213	273.38
287.444	264.38
287.675	282.38
287.906	305.38
288.138	270.38
288.369	297.38
288.6	274.38
288.831	274.38
289.062	287.38
289.293	299.38
289.524	292.38
289.755	273.38
289.986	280.38
290.217	273.38
290.448	296.38
290.679	277.38
290.91	276.38
291.141	287.38
291.371	280.38
291.602	288.38
291.833	288.38
292.064	274.38
292.295	283.38
292.526	289.38
292.757	290.38
292.987	300.38
293.218	276.38
293.449	298.38
293.68	287.38
293.91	267.38
294.141	281.38
294.372	280.38
294.603	288.38
294.833	277.38
295.064	292.38
295.295	292.38
295.525	290.38
295.756	299.38
295.987	306.38
296.217	317.38
296.448	333.38
296.679	311.38
296.909	293.38
297.14	299.38
297.37	290.38
297.601	290.38
297.831	314.38
298.062	295.38
298.292	321.38
298.523	298.38
298.753	307.38
298.984	300.38
299.214	298.38
299.445	313.38
299.675	304.38
299.905	316.38
300.136	297.38
300.366	316.38
300.597	298.38
300.827	315.38
301.057	300.38
301.288	319.38
301.518	324.38
301.748	311.38
301.979	318.38
302.209	297.38
302.439	335.38
302.669	309.38
302.9	322.38
303.13	324.38
303.36	312.38
303.59	329.38
303.82	350.38
304.051	331.38
304.281	319.38
304.511	320.38
304.741	325.38
304.971	319.38
305.201	322.38
305.431	303.38
305.661	313.38
305.891	328.38
306.121	319.38
306.352	327.38
306.582	339.38
306.812	327.38
307.042	316.38
307.272	314.38
307.502	314.38
307.731	333.38
307.961	308.38
308.191	322.38
308.421	317.38
308.651	321.38
308.881	337.38
309.111	322.38
309.341	316.38
309.571	323.38
309.8	346.38
310.03	336.38
310.26	325.38
310.49	340.38
310.72	346.38
310.949	332.38
311.179	352.38
311.409	331.38
311.639	339.38
311.868	346.38
312.098	337.38
312.328	358.38
312.557	388.38
312.787	355.38
313.017	342.38
313.246	362.38
313.476	350.38
313.706	369.38
313.935	342.38
314.165	354.38
314.394	369.38
314.624	326.38
314.853	355.38
315.083	348.38
315.312	350.38
315.542	335.38
315.771	332.38
316.001	332.38
316.23	344.38
316.46	339.38
316.689	354.38
316.919	343.38
317.148	350.38
317.377	330.38
317.607	356.38
317.836	363.38
318.065	341.38
318.295	350.38
318.524	364.38
318.753	350.38
318.983	349.38
319.212	335.38
319.441	337.38
319.67	353.38
319.9	354.38
320.129	368.38
320.358	362.38
320.587	327.38
320.816	369.38
321.046	351.38
321.275	357.38
321.504	357.38
321.733	357.38
321.962	353.38
322.191	384.38
322.42	369.38
322.649	400.38
322.878	390.38
323.108	392.38
323.337	395.38
323.566	424.38
323.795	406.38
324.024	431.38
324.253	528.38
324.482	686.38
324.71	1008.38
324.939	1370.38
325.168	1169.38
325.397	667.38
325.626	518.38
325.855	460.38
326.084	450.38
326.313	409.38
326.542	422.38
326.77	450.38
326.999	530.38
327.228	650.38
327.457	917.38
327.686	1050.38
327.914	747.38
328.143	564.38
328.372	510.38
328.6	480.38
328.829	472.38
329.058	473.38
329.287	449.38
329.515	452.38
329.744	450.38
329.972	450.38
330.201	466.38
330.43	487.38
330.658	488.38
330.887	473.38
331.115	480.38
331.344	442.38
331.572	432.38
331.801	442.38
332.03	451.38
332.258	443.38
332.486	429.38
332.715	429.38
332.943	452.38
333.172	465.38
333.4	472.38
333.629	463.38
333.857	473.38
334.085	484.38
334.314	502.38
334.542	527.38
334.771	540.38
334.999	472.38
335.227	470.38
335.455	456.38
335.684	453.38
335.912	444.38
336.14	450.38
336.369	419.38
336.597	428.38
336.825	443.38
337.053	447.38
337.281	405.38
337.51	429.38
337.738	414.38
337.966	393.38
338.194	416.38
338.422	391.38
338.65	404.38
338.878	405.38
339.106	394.38
339.334	410.38
339.562	383.38
339.79	389.38
340.018	394.38
340.246	395.38
340.474	388.38
340.702	395.38
340.93	378.38
341.158	397.38
341.386	402.38
341.614	387.38
341.842	368.38
342.07	376.38
342.298	388.38
342.526	373.38
342.754	385.38
342.981	380.38
343.209	396.38
343.437	382.38
343.665	421.38
343.893	431.38
344.12	431.38
344.348	428.38
344.576	400.38
344.804	399.38
345.031	412.38
345.259	393.38
345.487	396.38
345.714	374.38
345.942	360.38
346.17	390.38
346.397	382.38
346.625	353.38
346.853	374.38
347.08	376.38
347.308	372.38
347.535	381.38
347.763	386.38
347.99	380.38
348.218	394.38
348.445	377.38
348.673	361.38
348.9	365.38
349.128	376.38
349.355	372.38
349.583	388.38
349.81	367.38
350.037	372.38
350.265	366.38
350.492	377.38
350.72	370.38
350.947	380.38
351.174	360.38
351.402	373.38
351.629	374.38
351.856	358.38
352.083	367.38
352.311	367.38
352.538	361.38
352.765	365.38
352.992	365.38
353.22	373.38
353.447	357.38
353.674	366.38
353.901	361.38
354.128	358.38
354.355	359.38
354.583	344.38
354.81	356.38
355.037	355.38
355.264	359.38
355.491	340.38
355.718	342.38
355.945	347.38
356.172	360.38
356.399	348.38
356.626	369.38
356.853	369.38
357.08	346.38
357.307	351.38
357.534	348.38
357.761	350.38
357.988	378.38
358.215	372.38
358.441	365.38
358.668	353.38
358.895	353.38
359.122	317.38
359.349	358.38
359.576	366.38
359.802	387.38
360.029	373.38
360.256	393.38
360.483	384.38
360.709	382.38
360.936	386.38
361.163	349.38
361.39	354.38
361.616	375.38
361.843	366.38
362.07	360.38
362.296	355.38
362.523	349.38
362.749	355.38
362.976	337.38
363.203	357.38
363.429	348.38
363.656	342.38
363.882	357.38
364.109	366.38
364.335	343.38
364.562	349.38
364.788	348.38
365.015	364.38
365.241	356.38
365.468	344.38
365.694	367.38
365.92	374.38
366.147	377.38
366.373	337.38
366.599	362.38
366.826	338.38
367.052	341.38
367.278	330.38
367.505	349.38
367.731	354.38
367.957	339.38
368.184	356.38
368.41	347.38
368.636	369.38
368.862	349.38
369.089	373.38
369.315	336.38
369.541	344.38
369.767	337.38
369.993	356.38
370.219	357.38
370.445	351.38
370.672	360.38
370.898	342.38
371.124	372.38
371.35	361.38
371.576	356.38
371.802	351.38
372.028	363.38
372.254	353.38
372.48	374.38
372.706	360.38
372.932	373.38
373.158	375.38
373.384	346.38
373.61	356.38
373.835	369.38
374.061	383.38
374.287	372.38
374.513	363.38
374.739	369.38
374.965	369.38
375.191	390.38
375.416	390.38
375.642	380.38
375.868	361.38
376.094	351.38
376.319	354.38
376.545	349.38
376.771	361.38
376.997	375.38
377.222	366.38
377.448	349.38
377.674	349.38
377.899	350.38
378.125	343.38
378.35	344.38
378.576	347.38
378.802	365.38
379.027	352.38
379.253	355.38
379.478	349.38
379.704	354.38
379.929	335.38
380.155	363.38
380.38	346.38
380.606	373.38
380.831	360.38
381.057	353.38
381.282	360.38
381.507	341.38
381.733	367.38
381.958	367.38
382.184	357.38
382.409	372.38
382.634	355.38
382.86	372.38
383.085	367.38
383.31	358.38
383.535	369.38
383.761	374.38
383.986	376.38
384.211	382.38
384.436	397.38
384.662	390.38
384.887	395.38
385.112	398.38
385.337	396.38
385.562	413.38
385.787	404.38
386.013	409.38
386.238	396.38
386.463	396.38
386.688	410.38
386.913	384.38
387.138	405.38
387.363	408.38
387.588	390.38
387.813	392.38
388.038	407.38
388.263	404.38
388.488	408.38
388.713	385.38
388.938	408.38
389.163	394.38
389.387	392.38
389.612	400.38
389.837	384.38
390.062	387.38
390.287	403.38
390.512	389.38
390.736	405.38
390.961	402.38
391.186	399.38
391.411	439.38
391.636	434.38
391.86	429.38
392.085	441.38
392.31	444.38
392.534	407.38
392.759	425.38
392.984	420.38
393.208	414.38
393.433	405.38
393.658	413.38
393.882	412.38
394.107	414.38
394.331	416.38
394.556	403.38
394.78	423.38
395.005	418.38
395.229	416.38
395.454	421.38
395.678	438.38
395.903	420.38
396.127	436.38
396.352	434.38
396.576	402.38
396.801	413.38
397.025	410.38
397.249	431.38
397.474	433.38
397.698	433.38
397.922	440.38
398.147	452.38
398.371	440.38
398.595	457.38
398.82	459.38
399.044	489.38
399.268	500.38
399.492	584.38
399.717	617.38
399.941	633.38
400.165	621.38
400.389	567.38
400.613	520.38
400.837	497.38
401.062	496.38
401.286	490.38
401.51	497.38
401.734	484.38
401.958	492.38
402.182	469.38
402.406	503.38
402.63	492.38
402.854	494.38
403.078	505.38
403.302	490.38
403.526	523.38
403.75	530.38
403.974	535.38
404.198	513.38
404.422	520.38
404.645	518.38
404.869	539.38
405.093	552.38
405.317	561.38
405.541	598.38
405.765	521.38
405.988	517.38
406.212	521.38
406.436	528.38
406.66	542.38
406.883	533.38
407.107	584.38
407.331	590.38
407.555	630.38
407.778	614.38
408.002	585.38
408.226	554.38
408.449	551.38
408.673	543.38
408.896	531.38
409.12	562.38
409.344	559.38
409.567	515.38
409.791	520.38
410.014	514.38
410.238	510.38
410.461	512.38
410.685	502.38
410.908	517.38
411.132	529.38
411.355	542.38
411.578	524.38
411.802	497.38
412.025	504.38
412.249	508.38
412.472	505.38
412.695	554.38
412.919	508.38
413.142	480.38
413.365	484.38
413.589	474.38
413.812	458.38
414.035	461.38
414.258	466.38
414.482	466.38
414.705	457.38
414.928	436.38
415.151	483.38
415.374	467.38
415.597	453.38
415.821	456.38
416.044	467.38
416.267	453.38
416.49	444.38
416.713	462.38
416.936	458.38
417.159	462.38
417.382	452.38
417.605	455.38
417.828	469.38
418.051	477.38
418.274	487.38
418.497	447.38
418.72	442.38
418.943	456.38
419.166	491.38
419.389	516.38
419.611	495.38
419.834	489.38
420.057	502.38
420.28	513.38
420.503	506.38
420.726	491.38
420.948	492.38
421.171	505.38
421.394	530.38
421.617	477.38
421.839	469.38
422.062	478.38
422.285	484.38
422.507	523.38
422.73	560.38
422.953	558.38
423.175	506.38
423.398	515.38
423.621	488.38
423.843	522.38
424.066	510.38
424.288	505.38
424.511	507.38
424.733	515.38
424.956	585.38
425.178	538.38
425.401	554.38
425.623	566.38
425.846	506.38
426.068	485.38
426.291	499.38
426.513	488.38
426.735	485.38
426.958	526.38
427.18	548.38
427.402	600.38
427.625	677.38
427.847	581.38
428.069	549.38
428.292	504.38
428.514	471.38
428.736	441.38
428.958	460.38
429.181	437.38
429.403	418.38
429.625	449.38
429.847	479.38
430.069	490.38
430.292	493.38
430.514	454.38
430.736	453.38
430.958	457.38
431.18	424.38
431.402	414.38
431.624	410.38
431.846	447.38
432.068	444.38
432.29	420.38
432.512	412.38
432.734	418.38
432.956	432.38
433.178	441.38
433.4	436.38
433.622	431.38
433.844	407.38
434.066	427.38
434.287	448.38
434.509	438.38
434.731	463.38
434.953	470.38
435.175	458.38
435.397	490.38
435.618	455.38
435.84	497.38
436.062	541.38
436.284	572.38
436.505	493.38
436.727	469.38
436.949	441.38
437.17	434.38
437.392	424.38
437.614	421.38
437.835	463.38
438.057	524.38
438.278	557.38
438.5	556.38
438.721	614.38
438.943	574.38
439.165	486.38
439.386	465.38
439.608	480.38
439.829	474.38
440.05	468.38
440.272	493.38
440.493	490.38
440.715	473.38
440.936	446.38
441.158	466.38
441.379	424.38
441.6	453.38
441.822	489.38
442.043	531.38
442.264	562.38
442.486	567.38
442.707	524.38
442.928	493.38
443.149	488.38
443.371	518.38
443.592	549.38
443.813	559.38
444.034	593.38
444.255	547.38
444.476	536.38
444.698	534.38
444.919	519.38
445.14	594.38
445.361	543.38
445.582	542.38
445.803	538.38
446.024	585.38
446.245	598.38
446.466	544.38
446.687	508.38
446.908	469.38
447.129	432.38
447.35	443.38
447.571	438.38
447.792	412.38
448.013	424.38
448.234	438.38
448.455	442.38
448.675	522.38
448.896	586.38
449.117	489.38
449.338	473.38
449.559	547.38
449.779	620.38
450	509.38
450.221	460.38
450.442	426.38
450.662	406.38
450.883	418.38
451.104	426.38
451.324	407.38
451.545	415.38
451.766	398.38
451.986	395.38
452.207	392.38
452.428	416.38
452.648	384.38
452.869	386.38
453.089	395.38
453.31	393.38
453.53	402.38
453.751	402.38
453.971	407.38
454.192	410.38
454.412	387.38
454.633	359.38
454.853	388.38
455.073	381.38
455.294	387.38
455.514	411.38
455.734	427.38
455.955	385.38
456.175	373.38
456.395	382.38
456.616	382.38
456.836	379.38
457.056	359.38
457.276	357.38
457.497	389.38
457.717	360.38
457.937	397.38
458.157	359.38
458.377	386.38
458.598	400.38
458.818	440.38
459.038	456.38
459.258	481.38
459.478	445.38
459.698	399.38
459.918	428.38
460.138	445.38
460.358	465.38
460.578	454.38
460.798	465.38
461.018	465.38
461.238	457.38
461.458	476.38
461.678	455.38
461.898	459.38
462.118	467.38
462.338	483.38
462.558	484.38
462.777	494.38
462.997	522.38
463.217	553.38
463.437	549.38
463.657	530.38
463.876	540.38
464.096	539.38
464.316	503.38
464.536	502.38
464.755	500.38
464.975	497.38
465.195	500.38
465.414	513.38
465.634	472.38
465.854	456.38
466.073	464.38
466.293	453.38
466.512	403.38
466.732	391.38
466.951	406.38
467.171	430.38
467.391	409.38
467.61	440.38
467.829	409.38
468.049	415.38
468.268	391.38
468.488	402.38
468.707	402.38
468.927	393.38
469.146	361.38
469.365	397.38
469.585	400.38
469.804	403.38
470.023	425.38
470.243	420.38
470.462	408.38
470.681	431.38
470.901	428.38
471.12	422.38
471.339	414.38
471.558	427.38
471.777	406.38
471.997	396.38
472.216	408.38
472.435	436.38
472.654	433.38
472.873	414.38
473.092	407.38
473.311	412.38
473.53	405.38
473.749	442.38
473.968	421.38
474.187	450.38
474.406	481.38
474.625	418.38
474.844	392.38
475.063	399.38
475.282	412.38
475.501	394.38
475.72	420.38
475.939	410.38
476.158	407.38
476.377	420.38
476.596	408.38
476.814	382.38
477.033	416.38
477.252	416.38
477.471	414.38
477.69	448.38
477.908	432.38
478.127	447.38
478.346	451.38
478.564	456.38
478.783	458.38
479.002	442.38
479.22	471.38
479.439	489.38
479.658	502.38
479.876	480.38
480.095	487.38
480.313	492.38
480.532	529.38
480.751	510.38
480.969	519.38
481.188	544.38
481.406	554.38
481.624	499.38
481.843	484.38
482.061	472.38
482.28	476.38
482.498	452.38
482.717	478.38
482.935	448.38
483.153	445.38
483.372	467.38
483.59	463.38
483.808	458.38
484.027	450.38
484.245	477.38
484.463	482.38
484.681	481.38
484.9	450.38
485.118	477.38
485.336	473.38
485.554	468.38
485.772	476.38
485.99	469.38
486.209	478.38
486.427	497.38
486.645	487.38
486.863	491.38
487.081	491.38
487.299	477.38
487.517	477.38
487.735	487.38
487.953	484.38
488.171	494.38
488.389	488.38
488.607	462.38
488.825	500.38
489.043	485.38
489.261	505.38
489.479	492.38
489.696	495.38
489.914	500.38
490.132	500.38
490.35	493.38
490.568	485.38
490.786	505.38
491.003	518.38
491.221	535.38
491.439	544.38
491.657	514.38
491.874	540.38
492.092	535.38
492.31	547.38
492.527	555.38
492.745	544.38
492.963	558.38
493.18	549.38
493.398	575.38
493.615	538.38
493.833	552.38
494.05	557.38
494.268	556.38
494.485	561.38
494.703	555.38
494.92	554.38
495.138	566.38
495.355	585.38
495.573	549.38
495.79	558.38
496.008	565.38
496.225	556.38
496.442	570.38
496.66	552.38
496.877	562.38
497.094	596.38
497.312	568.38
497.529	582.38
497.746	593.38
497.963	613.38
498.181	625.38
498.398	656.38
498.615	664.38
498.832	685.38
499.049	721.38
499.267	747.38
499.484	798.38
499.701	854.38
499.918	912.38
500.135	953.38
500.352	1049.38
500.569	1096.38
500.786	1101.38
501.003	1042.38
501.22	992.38
501.437	900.38
501.654	826.38
501.871	814.38
502.088	751.38
502.305	723.38
502.522	686.38
502.739	688.38
502.956	653.38
503.172	640.38
503.389	620.38
503.606	594.38
503.823	598.38
504.04	592.38
504.256	578.38
504.473	591.38
504.69	602.38
504.907	632.38
505.123	552.38
505.34	556.38
505.557	544.38
505.773	533.38
505.99	538.38
506.207	519.38
506.423	521.38
506.64	521.38
506.856	516.38
507.073	510.38
507.289	473.38
507.506	476.38
507.722	505.38
507.939	484.38
508.155	487.38
508.372	486.38
508.588	482.38
508.805	477.38
509.021	484.38
509.238	473.38
509.454	482.38
509.67	471.38
509.887	495.38
510.103	488.38
510.319	496.38
510.536	551.38
510.752	816.38
510.968	655.38
511.184	484.38
511.401	487.38
511.617	468.38
511.833	449.38
512.049	481.38
512.265	487.38
512.481	482.38
512.698	457.38
512.914	462.38
513.13	461.38
513.346	454.38
513.562	461.38
513.778	458.38
513.994	461.38
514.21	470.38
514.426	470.38
514.642	512.38
514.858	520.38
515.074	545.38
515.29	607.38
515.506	760.38
515.721	664.38
515.937	545.38
516.153	519.38
516.369	502.38
516.585	495.38
516.801	524.38
517.016	524.38
517.232	518.38
517.448	544.38
517.664	555.38
517.879	549.38
518.095	554.38
518.311	542.38
518.527	549.38
518.742	524.38
518.958	509.38
519.173	493.38
519.389	479.38
519.605	459.38
519.82	473.38
520.036	494.38
520.251	476.38
520.467	484.38
520.682	503.38
520.898	494.38
521.113	484.38
521.329	501.38
521.544	535.38
521.76	634.38
521.975	911.38
522.19	904.38
522.406	572.38
522.621	482.38
522.836	466.38
523.052	457.38
523.267	442.38
523.482	449.38
523.698	425.38
523.913	429.38
524.128	409.38
524.343	416.38
524.559	399.38
524.774	385.38
524.989	421.38
525.204	433.38
525.419	421.38
525.634	405.38
525.849	384.38
526.064	407.38
526.28	411.38
526.495	383.38
526.71	414.38
526.925	406.38
527.14	397.38
527.355	416.38
527.57	404.38
527.785	395.38
527.999	385.38
528.214	385.38
528.429	394.38
528.644	404.38
528.859	409.38
529.074	392.38
529.289	391.38
529.503	441.38
529.718	407.38
529.933	411.38
530.148	394.38
530.363	408.38
530.577	410.38
530.792	401.38
531.007	392.38
531.221	397.38
531.436	392.38
531.651	378.38
531.865	385.38
532.08	377.38
532.295	404.38
532.509	388.38
532.724	374.38
532.938	388.38
533.153	388.38
533.367	382.38
533.582	395.38
533.796	384.38
534.011	394.38
534.225	391.38
534.44	402.38
534.654	388.38
534.868	388.38
535.083	396.38
535.297	364.38
535.511	373.38
535.726	376.38
535.94	393.38
536.154	386.38
536.369	373.38
536.583	377.38
536.797	378.38
537.011	365.38
537.225	392.38
537.44	388.38
537.654	382.38
537.868	367.38
538.082	365.38
538.296	373.38
538.51	388.38
538.724	371.38
538.938	368.38
539.153	360.38
539.367	368.38
539.581	379.38
539.795	365.38
540.009	353.38
540.222	379.38
540.436	368.38
540.65	346.38
540.864	379.38
541.078	366.38
541.292	363.38
541.506	370.38
541.72	380.38
541.934	372.38
542.147	365.38
542.361	372.38
542.575	367.38
542.789	341.38
543.002	374.38
543.216	362.38
543.43	361.38
543.644	352.38
543.857	363.38
544.071	369.38
544.285	372.38
544.498	344.38
544.712	358.38
544.925	368.38
545.139	370.38
545.352	382.38
545.566	351.38
545.779	351.38
545.993	368.38
546.206	377.38
546.42	384.38
546.633	371.38
546.847	372.38
547.06	366.38
547.274	377.38
547.487	344.38
547.7	340.38
547.914	374.38
548.127	379.38
548.34	379.38
548.554	375.38
548.767	374.38
548.98	350.38
549.193	363.38
549.407	360.38
549.62	358.38
549.833	361.38
550.046	383.38
550.259	352.38
550.473	392.38
550.686	370.38
550.899	355.38
551.112	347.38
551.325	341.38
551.538	360.38
551.751	361.38
551.964	356.38
552.177	358.38
552.39	379.38
552.603	374.38
552.816	378.38
553.029	373.38
553.242	398.38
553.455	385.38
553.667	396.38
553.88	386.38
554.093	374.38
554.306	362.38
554.519	362.38
554.732	348.38
554.944	374.38
555.157	359.38
555.37	358.38
555.583	351.38
555.795	372.38
556.008	338.38
556.221	334.38
556.433	335.38
556.646	321.38
556.859	333.38
557.071	324.38
557.284	314.38
557.496	323.38
557.709	330.38
557.921	344.38
558.134	322.38
558.346	335.38
558.559	339.38
558.771	321.38
558.984	327.38
559.196	327.38
559.409	322.38
559.621	333.38
559.833	319.38
560.046	332.38
560.258	322.38
560.47	310.38
560.683	293.38
560.895	305.38
561.107	313.38
561.32	312.38
561.532	312.38
561.744	319.38
561.956	306.38
562.168	313.38
562.381	330.38
562.593	334.38
562.805	333.38
563.017	335.38
563.229	336.38
563.441	318.38
563.653	310.38
563.865	341.38
564.077	322.38
564.289	335.38
564.501	325.38
564.713	336.38
564.925	326.38
565.137	349.38
565.349	354.38
565.561	376.38
565.773	374.38
565.985	388.38
566.197	394.38
566.408	402.38
566.62	453.38
566.832	453.38
567.044	465.38
567.255	449.38
567.467	467.38
567.679	487.38
567.891	492.38
568.102	492.38
568.314	475.38
568.526	469.38
568.737	420.38
568.949	409.38
569.161	400.38
569.372	374.38
569.584	357.38
569.795	337.38
570.007	358.38
570.218	372.38
570.43	354.38
570.641	333.38
570.853	329.38
571.064	326.38
571.276	349.38
571.487	328.38
571.698	307.38
571.91	316.38
572.121	287.38
572.333	284.38
572.544	296.38
572.755	303.38
572.966	281.38
573.178	280.38
573.389	294.38
573.6	277.38
573.811	289.38
574.023	299.38
574.234	292.38
574.445	267.38
574.656	298.38
574.867	299.38
575.078	292.38
575.289	304.38
575.501	270.38
575.712	274.38
575.923	281.38
576.134	272.38
576.345	272.38
576.556	293.38
576.767	284.38
576.978	276.38
577.188	278.38
577.399	275.38
577.61	275.38
577.821	271.38
578.032	271.38
578.243	286.38
578.454	409.38
578.665	320.38
578.875	281.38
579.086	257.38
579.297	244.38
579.508	272.38
579.718	266.38
579.929	247.38
580.14	244.38
580.35	256.38
580.561	271.38
580.772	254.38
580.982	262.38
581.193	232.38
581.403	250.38
581.614	249.38
581.825	247.38
582.035	246.38
582.246	258.38
582.456	256.38
582.667	244.38
582.877	261.38
583.087	247.38
583.298	262.38
583.508	265.38
583.719	256.38
583.929	264.38
584.139	232.38
584.35	246.38
584.56	234.38
584.77	251.38
584.981	255.38
585.191	250.38
585.401	260.38
585.611	252.38
585.821	263.38
586.032	258.38
586.242	253.38
586.452	240.38
586.662	270.38
586.872	234.38
587.082	247.38
587.292	262.38
587.502	260.38
587.713	247.38
587.923	261.38
588.133	254.38
588.343	231.38
588.553	228.38
588.762	250.38
588.972	259.38
589.182	259.38
589.392	256.38
589.602	252.38
589.812	269.38
590.022	275.38
590.232	252.38
590.441	254.38
590.651	246.38
590.861	278.38
591.071	241.38
591.281	248.38
591.49	244.38
591.7	247.38
591.91	266.38
592.119	278.38
592.329	250.38
592.539	276.38
592.748	277.38
592.958	308.38
593.167	273.38
593.377	300.38
593.587	293.38
593.796	308.38
594.006	304.38
594.215	300.38
594.424	304.38
594.634	282.38
594.843	280.38
595.053	272.38
595.262	272.38
595.472	272.38
595.681	249.38
595.89	250.38
596.1	261.38
596.309	265.38
596.518	245.38
596.727	238.38
596.937	263.38
597.146	248.38
597.355	236.38
597.564	224.38
597.774	231.38
597.983	237.38
598.192	217.38
598.401	217.38
598.61	220.38
598.819	249.38
599.028	208.38
599.237	217.38
599.446	220.38
599.655	222.38
599.864	217.38
600.073	228.38
600.282	232.38
600.491	223.38
600.7	208.38
600.909	233.38
601.118	235.38
601.327	228.38
601.536	213.38
601.745	226.38
601.953	213.38
602.162	214.38
602.371	217.38
602.58	221.38
602.789	216.38
602.997	213.38
603.206	201.38
603.415	206.38
603.623	199.38
603.832	219.38
604.041	223.38
604.249	221.38
604.458	226.38
604.666	217.38
604.875	218.38
605.084	216.38
605.292	210.38
605.501	209.38
605.709	193.38
605.918	208.38
606.126	209.38
606.334	208.38
606.543	219.38
606.751	197.38
606.96	219.38
607.168	198.38
607.376	214.38
607.585	218.38
607.793	206.38
608.001	208.38
608.21	209.38
608.418	205.38
608.626	203.38
608.834	191.38
609.043	205.38
609.251	215.38
609.459	201.38
609.667	229.38
609.875	205.38
610.083	202.38
610.291	213.38
610.499	202.38
610.707	205.38
610.916	190.38
611.124	190.38
611.332	202.38
611.54	227.38
611.748	210.38
611.955	202.38
612.163	215.38
612.371	216.38
612.579	214.38
612.787	212.38
612.995	209.38
613.203	205.38
613.411	216.38
613.618	205.38
613.826	205.38
614.034	198.38
614.242	197.38
614.449	201.38
614.657	208.38
614.865	204.38
615.072	201.38
615.28	187.38
615.488	206.38
615.695	203.38
615.903	194.38
616.111	217.38
616.318	218.38
616.526	206.38
616.733	192.38
616.941	192.38
617.148	209.38
617.356	205.38
617.563	207.38
617.771	201.38
617.978	199.38
618.185	200.38
618.393	215.38
618.6	200.38
618.807	214.38
619.015	212.38
619.222	196.38
619.429	199.38
619.637	209.38
619.844	203.38
620.051	183.38
620.258	201.38
620.466	192.38
620.673	195.38
620.88	181.38
621.087	181.38
621.294	193.38
621.501	181.38
621.708	201.38
621.915	189.38
622.122	183.38
622.329	174.38
622.536	190.38
622.743	181.38
622.95	189.38
623.157	190.38
623.364	190.38
623.571	187.38
623.778	186.38
623.985	192.38
624.192	176.38
624.399	185.38
624.606	193.38
624.812	185.38
625.019	202.38
625.226	176.38
625.433	174.38
625.639	190.38
625.846	197.38
626.053	185.38
626.259	177.38
626.466	188.38
626.673	189.38
626.879	169.38
627.086	190.38
627.293	176.38
627.499	184.38
627.706	165.38
627.912	173.38
628.119	180.38
628.325	188.38
628.532	184.38
628.738	178.38
628.945	173.38
629.151	168.38
629.357	185.38
629.564	169.38
629.77	183.38
629.976	172.38
630.183	168.38
630.389	167.38
630.595	164.38
630.802	185.38
631.008	167.38
631.214	173.38
631.42	177.38
631.627	168.38
631.833	171.38
632.039	188.38
632.245	177.38
632.451	172.38
632.657	158.38
632.863	172.38
633.069	152.38
633.275	152.38
633.481	178.38
633.688	178.38
633.893	161.38
634.099	169.38
634.305	169.38
634.511	161.38
634.717	165.38
634.923	161.38
635.129	163.38
635.335	162.38
635.541	158.38
635.747	154.38
635.952	157.38
636.158	159.38
636.364	161.38
636.57	166.38
636.775	165.38
636.981	165.38
637.187	174.38
637.392	165.38
637.598	176.38
637.804	167.38
638.009	166.38
638.215	163.38
638.421	150.38
638.626	160.38
638.832	154.38
639.037	153.38
639.243	156.38
639.448	154.38
639.654	147.38
639.859	149.38
640.065	144.38
640.27	160.38
640.475	146.38
640.681	154.38
640.886	165.38
641.091	156.38
641.297	146.38
641.502	154.38
641.707	158.38
641.913	165.38
642.118	150.38
642.323	151.38
642.528	158.38
642.733	130.38
642.939	152.38
643.144	168.38
643.349	141.38
643.554	150.38
643.759	147.38
643.964	144.38
644.169	160.38
644.374	155.38
644.579	162.38
644.784	138.38
644.989	150.38
645.194	135.38
645.399	160.38
645.604	155.38
645.809	153.38
646.014	161.38
646.219	145.38
646.423	129.38
646.628	149.38
646.833	154.38
647.038	142.38
647.243	150.38
647.447	135.38
647.652	160.38
647.857	159.38
648.062	160.38
648.266	160.38
648.471	161.38
648.676	158.38
648.88	153.38
649.085	161.38
649.289	161.38
649.494	158.38
649.698	160.38
649.903	167.38
650.107	159.38
650.312	144.38
650.516	149.38
650.721	132.38
650.925	153.38
651.13	146.38
651.334	142.38
651.539	136.38
651.743	136.38
651.947	152.38
652.152	141.38
652.356	139.38
652.56	122.38
652.764	125.38
652.969	122.38
653.173	134.38
653.377	128.38
653.581	134.38
653.785	125.38
653.99	138.38
654.194	131.38
654.398	130.38
654.602	136.38
654.806	132.38
655.01	132.38
655.214	130.38
655.418	142.38
655.622	145.38
655.826	129.38
656.03	133.38
656.234	134.38
656.438	129.38
656.642	128.38
656.846	125.38
657.049	129.38
657.253	112.38
657.457	116.38
657.661	98.38
657.865	117.38
658.068	114.38
658.272	120.38
658.476	111.38
658.68	102.38
658.883	86.38
659.087	110.38
659.291	99.38
659.494	103.38
659.698	90.38
659.901	104.38
660.105	93.38
660.309	87.38
660.512	103.38
660.716	94.38
660.919	90.38
661.123	87.38
661.326	80.38
661.53	98.38
661.733	94.38
661.936	107.38
662.14	96.38
662.343	85.38
662.546	76.38
662.75	89.38
662.953	96.38
663.156	84.38
663.36	93.38
663.563	86.38
663.766	90.38
663.969	86.38
664.173	92.38
664.376	90.38
664.579	82.38
664.782	81.38
664.985	85.38
665.188	91.38
665.391	96.38
665.594	82.38
665.797	77.38
666	69.38
666.203	87.38
666.406	80.38
666.609	89.38
666.812	78.38
667.015	72.38
667.218	89.38
667.421	98.38
667.624	81.38
667.827	100.38
668.03	87.38
668.232	71.38
668.435	88.38
668.638	83.38
668.841	89.38
669.043	57.38
669.246	89.38
669.449	82.38
669.651	85.38
669.854	88.38
670.057	80.38
670.259	106.38
670.462	83.38
670.665	89.38
670.867	84.38
671.07	88.38
671.272	100.38
671.475	88.38
671.677	90.38
671.88	86.38
672.082	94.38
672.284	91.38
672.487	96.38
672.689	90.38
672.892	90.38
