Data from 1984.PennyLincolnUp.Lamp.En5.5.200Scan.071819.P1_HRD10591_16-57-21-967.txt Node
Date: Thu Jul 18 16:57:21 EDT 2019
User: cochatt
Spectrometer: HR+D1059
Trigger mode: 1
Integration Time (sec): 1.000000E-1
Scans to average: 1
Electric dark correction enabled: true
Nonlinearity correction enabled: false
Boxcar width: 0
XAxis mode: Wavelengths
Number of Pixels in Spectrum: 2048
>>>>>Begin Spectral Data<<<<<
223.165	-24.62
223.4	-24.62
223.635	-24.62
223.869	-16.62
224.104	-17.62
224.338	-17.62
224.573	-7.62
224.808	-4.62
225.042	-15.62
225.277	-17.62
225.511	5.38
225.746	2.38
225.98	6.38
226.215	9.38
226.449	11.38
226.683	27.38
226.918	32.38
227.152	27.38
227.387	22.38
227.621	24.38
227.856	42.38
228.09	43.38
228.324	51.38
228.559	51.38
228.793	63.38
229.027	83.38
229.262	97.38
229.496	97.38
229.73	96.38
229.964	118.38
230.199	90.38
230.433	114.38
230.667	93.38
230.901	100.38
231.136	104.38
231.37	108.38
231.604	111.38
231.838	118.38
232.072	107.38
232.306	112.38
232.541	94.38
232.775	104.38
233.009	114.38
233.243	104.38
233.477	117.38
233.711	114.38
233.945	104.38
234.179	105.38
234.413	120.38
234.647	99.38
234.881	100.38
235.115	108.38
235.349	101.38
235.583	102.38
235.817	109.38
236.051	117.38
236.285	115.38
236.519	114.38
236.753	103.38
236.987	118.38
237.221	121.38
237.455	159.38
237.689	142.38
237.922	101.38
238.156	94.38
238.39	119.38
238.624	105.38
238.858	118.38
239.091	112.38
239.325	100.38
239.559	100.38
239.793	99.38
240.027	116.38
240.26	130.38
240.494	122.38
240.728	120.38
240.961	128.38
241.195	131.38
241.429	119.38
241.662	125.38
241.896	131.38
242.13	121.38
242.363	125.38
242.597	134.38
242.83	130.38
243.064	121.38
243.298	120.38
243.531	114.38
243.765	114.38
243.998	125.38
244.232	124.38
244.465	142.38
244.699	132.38
244.932	107.38
245.166	140.38
245.399	143.38
245.633	147.38
245.866	124.38
246.099	126.38
246.333	141.38
246.566	127.38
246.8	127.38
247.033	135.38
247.266	148.38
247.5	150.38
247.733	135.38
247.966	142.38
248.2	145.38
248.433	150.38
248.666	130.38
248.899	146.38
249.133	165.38
249.366	151.38
249.599	160.38
249.832	144.38
250.066	142.38
250.299	150.38
250.532	143.38
250.765	163.38
250.998	173.38
251.231	157.38
251.465	159.38
251.698	150.38
251.931	167.38
252.164	155.38
252.397	171.38
252.63	166.38
252.863	180.38
253.096	172.38
253.329	184.38
253.562	150.38
253.795	161.38
254.028	176.38
254.261	163.38
254.494	175.38
254.727	179.38
254.96	180.38
255.193	195.38
255.426	175.38
255.659	168.38
255.892	165.38
256.124	175.38
256.357	166.38
256.59	176.38
256.823	184.38
257.056	176.38
257.289	173.38
257.521	176.38
257.754	188.38
257.987	180.38
258.22	184.38
258.452	171.38
258.685	180.38
258.918	189.38
259.151	181.38
259.383	172.38
259.616	174.38
259.849	182.38
260.081	190.38
260.314	191.38
260.547	189.38
260.779	192.38
261.012	189.38
261.244	192.38
261.477	203.38
261.71	192.38
261.942	178.38
262.175	176.38
262.407	192.38
262.64	191.38
262.872	187.38
263.105	199.38
263.337	176.38
263.57	183.38
263.802	197.38
264.035	187.38
264.267	182.38
264.499	175.38
264.732	180.38
264.964	204.38
265.197	192.38
265.429	196.38
265.661	194.38
265.894	195.38
266.126	188.38
266.358	204.38
266.591	192.38
266.823	170.38
267.055	201.38
267.287	205.38
267.52	193.38
267.752	199.38
267.984	196.38
268.216	206.38
268.448	207.38
268.681	189.38
268.913	201.38
269.145	204.38
269.377	218.38
269.609	216.38
269.841	212.38
270.073	224.38
270.306	227.38
270.538	237.38
270.77	220.38
271.002	217.38
271.234	234.38
271.466	243.38
271.698	244.38
271.93	253.38
272.162	222.38
272.394	232.38
272.626	231.38
272.858	232.38
273.09	226.38
273.322	219.38
273.553	223.38
273.785	201.38
274.017	212.38
274.249	233.38
274.481	218.38
274.713	223.38
274.945	234.38
275.176	237.38
275.408	237.38
275.64	220.38
275.872	229.38
276.104	210.38
276.335	214.38
276.567	220.38
276.799	242.38
277.031	240.38
277.262	236.38
277.494	280.38
277.726	256.38
277.957	236.38
278.189	256.38
278.421	260.38
278.652	235.38
278.884	235.38
279.115	235.38
279.347	246.38
279.579	237.38
279.81	258.38
280.042	247.38
280.273	239.38
280.505	242.38
280.736	226.38
280.968	237.38
281.199	240.38
281.431	230.38
281.662	248.38
281.894	231.38
282.125	254.38
282.356	277.38
282.588	261.38
282.819	245.38
283.051	267.38
283.282	242.38
283.513	252.38
283.745	243.38
283.976	244.38
284.207	264.38
284.439	256.38
284.67	258.38
284.901	244.38
285.132	277.38
285.364	250.38
285.595	261.38
285.826	271.38
286.057	263.38
286.288	272.38
286.52	262.38
286.751	268.38
286.982	269.38
287.213	264.38
287.444	266.38
287.675	261.38
287.906	253.38
288.138	271.38
288.369	267.38
288.6	271.38
288.831	258.38
289.062	264.38
289.293	272.38
289.524	269.38
289.755	276.38
289.986	256.38
290.217	278.38
290.448	276.38
290.679	248.38
290.91	282.38
291.141	253.38
291.371	272.38
291.602	291.38
291.833	276.38
292.064	269.38
292.295	274.38
292.526	283.38
292.757	290.38
292.987	269.38
293.218	265.38
293.449	287.38
293.68	287.38
293.91	280.38
294.141	270.38
294.372	254.38
294.603	276.38
294.833	266.38
295.064	282.38
295.295	286.38
295.525	282.38
295.756	275.38
295.987	285.38
296.217	296.38
296.448	288.38
296.679	287.38
296.909	294.38
297.14	280.38
297.37	280.38
297.601	272.38
297.831	270.38
298.062	277.38
298.292	282.38
298.523	288.38
298.753	296.38
298.984	285.38
299.214	283.38
299.445	292.38
299.675	297.38
299.905	291.38
300.136	309.38
300.366	300.38
300.597	303.38
300.827	291.38
301.057	282.38
301.288	306.38
301.518	314.38
301.748	307.38
301.979	298.38
302.209	317.38
302.439	311.38
302.669	315.38
302.9	296.38
303.13	296.38
303.36	300.38
303.59	301.38
303.82	304.38
304.051	296.38
304.281	299.38
304.511	307.38
304.741	298.38
304.971	304.38
305.201	314.38
305.431	299.38
305.661	287.38
305.891	293.38
306.121	313.38
306.352	287.38
306.582	310.38
306.812	308.38
307.042	294.38
307.272	283.38
307.502	293.38
307.731	299.38
307.961	298.38
308.191	311.38
308.421	303.38
308.651	322.38
308.881	302.38
309.111	303.38
309.341	310.38
309.571	284.38
309.8	322.38
310.03	308.38
310.26	310.38
310.49	315.38
310.72	315.38
310.949	319.38
311.179	300.38
311.409	311.38
311.639	333.38
311.868	321.38
312.098	334.38
312.328	314.38
312.557	339.38
312.787	327.38
313.017	351.38
313.246	343.38
313.476	334.38
313.706	338.38
313.935	325.38
314.165	340.38
314.394	347.38
314.624	323.38
314.853	344.38
315.083	332.38
315.312	332.38
315.542	322.38
315.771	330.38
316.001	339.38
316.23	323.38
316.46	330.38
316.689	326.38
316.919	314.38
317.148	314.38
317.377	340.38
317.607	327.38
317.836	314.38
318.065	329.38
318.295	318.38
318.524	330.38
318.753	330.38
318.983	340.38
319.212	332.38
319.441	332.38
319.67	323.38
319.9	330.38
320.129	319.38
320.358	329.38
320.587	350.38
320.816	322.38
321.046	354.38
321.275	358.38
321.504	322.38
321.733	348.38
321.962	347.38
322.191	336.38
322.42	343.38
322.649	370.38
322.878	352.38
323.108	345.38
323.337	363.38
323.566	359.38
323.795	377.38
324.024	394.38
324.253	420.38
324.482	530.38
324.71	724.38
324.939	947.38
325.168	855.38
325.397	520.38
325.626	410.38
325.855	375.38
326.084	378.38
326.313	388.38
326.542	401.38
326.77	383.38
326.999	408.38
327.228	517.38
327.457	675.38
327.686	767.38
327.914	556.38
328.143	428.38
328.372	398.38
328.6	395.38
328.829	396.38
329.058	388.38
329.287	385.38
329.515	394.38
329.744	383.38
329.972	376.38
330.201	389.38
330.43	386.38
330.658	398.38
330.887	408.38
331.115	394.38
331.344	389.38
331.572	390.38
331.801	393.38
332.03	378.38
332.258	389.38
332.486	407.38
332.715	405.38
332.943	420.38
333.172	436.38
333.4	445.38
333.629	441.38
333.857	430.38
334.085	424.38
334.314	423.38
334.542	421.38
334.771	402.38
334.999	424.38
335.227	407.38
335.455	401.38
335.684	434.38
335.912	384.38
336.14	407.38
336.369	416.38
336.597	414.38
336.825	379.38
337.053	408.38
337.281	382.38
337.51	379.38
337.738	376.38
337.966	382.38
338.194	379.38
338.422	391.38
338.65	386.38
338.878	376.38
339.106	379.38
339.334	383.38
339.562	370.38
339.79	386.38
340.018	381.38
340.246	342.38
340.474	357.38
340.702	351.38
340.93	354.38
341.158	374.38
341.386	352.38
341.614	373.38
341.842	381.38
342.07	354.38
342.298	355.38
342.526	354.38
342.754	358.38
342.981	354.38
343.209	363.38
343.437	368.38
343.665	383.38
343.893	431.38
344.12	418.38
344.348	408.38
344.576	377.38
344.804	368.38
345.031	381.38
345.259	363.38
345.487	360.38
345.714	363.38
345.942	351.38
346.17	337.38
346.397	370.38
346.625	329.38
346.853	336.38
347.08	351.38
347.308	333.38
347.535	339.38
347.763	350.38
347.99	346.38
348.218	348.38
348.445	327.38
348.673	349.38
348.9	343.38
349.128	341.38
349.355	338.38
349.583	347.38
349.81	340.38
350.037	336.38
350.265	328.38
350.492	337.38
350.72	316.38
350.947	356.38
351.174	349.38
351.402	348.38
351.629	336.38
351.856	335.38
352.083	347.38
352.311	349.38
352.538	346.38
352.765	342.38
352.992	337.38
353.22	333.38
353.447	340.38
353.674	330.38
353.901	332.38
354.128	336.38
354.355	319.38
354.583	341.38
354.81	332.38
355.037	329.38
355.264	336.38
355.491	321.38
355.718	307.38
355.945	336.38
356.172	325.38
356.399	327.38
356.626	334.38
356.853	343.38
357.08	309.38
357.307	351.38
357.534	325.38
357.761	331.38
357.988	343.38
358.215	319.38
358.441	331.38
358.668	348.38
358.895	336.38
359.122	330.38
359.349	333.38
359.576	335.38
359.802	334.38
360.029	346.38
360.256	336.38
360.483	350.38
360.709	363.38
360.936	336.38
361.163	356.38
361.39	348.38
361.616	343.38
361.843	340.38
362.07	328.38
362.296	333.38
362.523	310.38
362.749	335.38
362.976	324.38
363.203	335.38
363.429	325.38
363.656	327.38
363.882	327.38
364.109	327.38
364.335	313.38
364.562	324.38
364.788	334.38
365.015	333.38
365.241	331.38
365.468	335.38
365.694	340.38
365.92	340.38
366.147	319.38
366.373	331.38
366.599	326.38
366.826	336.38
367.052	332.38
367.278	330.38
367.505	329.38
367.731	318.38
367.957	353.38
368.184	342.38
368.41	333.38
368.636	337.38
368.862	342.38
369.089	349.38
369.315	333.38
369.541	344.38
369.767	342.38
369.993	328.38
370.219	338.38
370.445	335.38
370.672	339.38
370.898	331.38
371.124	341.38
371.35	335.38
371.576	348.38
371.802	349.38
372.028	333.38
372.254	327.38
372.48	357.38
372.706	352.38
372.932	374.38
373.158	375.38
373.384	360.38
373.61	357.38
373.835	353.38
374.061	340.38
374.287	355.38
374.513	363.38
374.739	370.38
374.965	358.38
375.191	365.38
375.416	374.38
375.642	340.38
375.868	348.38
376.094	349.38
376.319	352.38
376.545	343.38
376.771	354.38
376.997	343.38
377.222	336.38
377.448	348.38
377.674	350.38
377.899	348.38
378.125	336.38
378.35	342.38
378.576	349.38
378.802	351.38
379.027	350.38
379.253	359.38
379.478	341.38
379.704	342.38
379.929	359.38
380.155	341.38
380.38	354.38
380.606	352.38
380.831	347.38
381.057	345.38
381.282	353.38
381.507	344.38
381.733	359.38
381.958	361.38
382.184	354.38
382.409	330.38
382.634	365.38
382.86	366.38
383.085	343.38
383.31	373.38
383.535	357.38
383.761	351.38
383.986	387.38
384.211	370.38
384.436	379.38
384.662	378.38
384.887	383.38
385.112	396.38
385.337	371.38
385.562	374.38
385.787	391.38
386.013	386.38
386.238	401.38
386.463	398.38
386.688	394.38
386.913	391.38
387.138	395.38
387.363	400.38
387.588	395.38
387.813	390.38
388.038	393.38
388.263	397.38
388.488	392.38
388.713	377.38
388.938	387.38
389.163	383.38
389.387	377.38
389.612	372.38
389.837	382.38
390.062	371.38
390.287	396.38
390.512	374.38
390.736	381.38
390.961	402.38
391.186	416.38
391.411	397.38
391.636	404.38
391.86	410.38
392.085	418.38
392.31	404.38
392.534	395.38
392.759	409.38
392.984	400.38
393.208	412.38
393.433	408.38
393.658	404.38
393.882	377.38
394.107	424.38
394.331	400.38
394.556	401.38
394.78	418.38
395.005	408.38
395.229	391.38
395.454	430.38
395.678	421.38
395.903	412.38
396.127	420.38
396.352	407.38
396.576	398.38
396.801	406.38
397.025	399.38
397.249	399.38
397.474	412.38
397.698	440.38
397.922	405.38
398.147	447.38
398.371	442.38
398.595	448.38
398.82	454.38
399.044	471.38
399.268	501.38
399.492	549.38
399.717	594.38
399.941	605.38
400.165	590.38
400.389	534.38
400.613	504.38
400.837	495.38
401.062	480.38
401.286	462.38
401.51	458.38
401.734	453.38
401.958	470.38
402.182	479.38
402.406	459.38
402.63	482.38
402.854	451.38
403.078	464.38
403.302	470.38
403.526	507.38
403.75	498.38
403.974	491.38
404.198	495.38
404.422	501.38
404.645	487.38
404.869	492.38
405.093	497.38
405.317	484.38
405.541	506.38
405.765	478.38
405.988	496.38
406.212	516.38
406.436	480.38
406.66	527.38
406.883	506.38
407.107	537.38
407.331	547.38
407.555	613.38
407.778	594.38
408.002	553.38
408.226	522.38
408.449	521.38
408.673	493.38
408.896	522.38
409.12	532.38
409.344	500.38
409.567	473.38
409.791	501.38
410.014	475.38
410.238	473.38
410.461	483.38
410.685	471.38
410.908	483.38
411.132	492.38
411.355	480.38
411.578	484.38
411.802	471.38
412.025	461.38
412.249	488.38
412.472	459.38
412.695	471.38
412.919	454.38
413.142	442.38
413.365	453.38
413.589	459.38
413.812	439.38
414.035	454.38
414.258	439.38
414.482	430.38
414.705	445.38
414.928	454.38
415.151	438.38
415.374	438.38
415.597	456.38
415.821	427.38
416.044	450.38
416.267	462.38
416.49	458.38
416.713	443.38
416.936	443.38
417.159	436.38
417.382	463.38
417.605	455.38
417.828	456.38
418.051	442.38
418.274	453.38
418.497	452.38
418.72	472.38
418.943	457.38
419.166	485.38
419.389	487.38
419.611	493.38
419.834	475.38
420.057	474.38
420.28	446.38
420.503	431.38
420.726	442.38
420.948	432.38
421.171	468.38
421.394	473.38
421.617	446.38
421.839	460.38
422.062	459.38
422.285	450.38
422.507	475.38
422.73	519.38
422.953	517.38
423.175	482.38
423.398	448.38
423.621	476.38
423.843	484.38
424.066	478.38
424.288	487.38
424.511	469.38
424.733	507.38
424.956	518.38
425.178	498.38
425.401	522.38
425.623	507.38
425.846	458.38
426.068	446.38
426.291	452.38
426.513	413.38
426.735	434.38
426.958	474.38
427.18	501.38
427.402	571.38
427.625	577.38
427.847	526.38
428.069	470.38
428.292	455.38
428.514	418.38
428.736	422.38
428.958	434.38
429.181	393.38
429.403	433.38
429.625	414.38
429.847	430.38
430.069	448.38
430.292	457.38
430.514	420.38
430.736	433.38
430.958	410.38
431.18	402.38
431.402	410.38
431.624	413.38
431.846	408.38
432.068	420.38
432.29	431.38
432.512	405.38
432.734	408.38
432.956	395.38
433.178	418.38
433.4	410.38
433.622	408.38
433.844	421.38
434.066	407.38
434.287	418.38
434.509	408.38
434.731	423.38
434.953	441.38
435.175	440.38
435.397	455.38
435.618	456.38
435.84	458.38
436.062	498.38
436.284	524.38
436.505	463.38
436.727	444.38
436.949	419.38
437.17	422.38
437.392	403.38
437.614	429.38
437.835	428.38
438.057	471.38
438.278	492.38
438.5	513.38
438.721	559.38
438.943	559.38
439.165	459.38
439.386	426.38
439.608	416.38
439.829	423.38
440.05	436.38
440.272	458.38
440.493	437.38
440.715	422.38
440.936	431.38
441.158	412.38
441.379	425.38
441.6	438.38
441.822	455.38
442.043	468.38
442.264	502.38
442.486	496.38
442.707	482.38
442.928	453.38
443.149	456.38
443.371	437.38
443.592	487.38
443.813	534.38
444.034	555.38
444.255	487.38
444.476	491.38
444.698	496.38
444.919	511.38
445.14	583.38
445.361	531.38
445.582	472.38
445.803	484.38
446.024	506.38
446.245	514.38
446.466	490.38
446.687	443.38
446.908	428.38
447.129	408.38
447.35	388.38
447.571	400.38
447.792	407.38
448.013	410.38
448.234	412.38
448.455	407.38
448.675	484.38
448.896	529.38
449.117	464.38
449.338	445.38
449.559	516.38
449.779	551.38
450	461.38
450.221	412.38
450.442	381.38
450.662	371.38
450.883	383.38
451.104	389.38
451.324	402.38
451.545	377.38
451.766	396.38
451.986	366.38
452.207	367.38
452.428	375.38
452.648	378.38
452.869	379.38
453.089	360.38
453.31	372.38
453.53	386.38
453.751	387.38
453.971	370.38
454.192	371.38
454.412	362.38
454.633	356.38
454.853	336.38
455.073	359.38
455.294	365.38
455.514	383.38
455.734	392.38
455.955	371.38
456.175	360.38
456.395	353.38
456.616	348.38
456.836	367.38
457.056	367.38
457.276	358.38
457.497	346.38
457.717	363.38
457.937	355.38
458.157	348.38
458.377	349.38
458.598	383.38
458.818	405.38
459.038	421.38
459.258	435.38
459.478	415.38
459.698	418.38
459.918	426.38
460.138	423.38
460.358	429.38
460.578	445.38
460.798	444.38
461.018	450.38
461.238	443.38
461.458	438.38
461.678	419.38
461.898	454.38
462.118	444.38
462.338	466.38
462.558	487.38
462.777	508.38
462.997	505.38
463.217	548.38
463.437	540.38
463.657	496.38
463.876	501.38
464.096	487.38
464.316	495.38
464.536	486.38
464.755	463.38
464.975	485.38
465.195	462.38
465.414	445.38
465.634	429.38
465.854	412.38
466.073	399.38
466.293	421.38
466.512	404.38
466.732	395.38
466.951	395.38
467.171	393.38
467.391	383.38
467.61	404.38
467.829	386.38
468.049	364.38
468.268	372.38
468.488	361.38
468.707	384.38
468.927	370.38
469.146	382.38
469.365	378.38
469.585	398.38
469.804	392.38
470.023	384.38
470.243	380.38
470.462	390.38
470.681	396.38
470.901	398.38
471.12	389.38
471.339	384.38
471.558	374.38
471.777	388.38
471.997	379.38
472.216	368.38
472.435	376.38
472.654	363.38
472.873	376.38
473.092	380.38
473.311	372.38
473.53	375.38
473.749	375.38
473.968	413.38
474.187	430.38
474.406	442.38
474.625	401.38
474.844	384.38
475.063	371.38
475.282	386.38
475.501	398.38
475.72	386.38
475.939	374.38
476.158	388.38
476.377	385.38
476.596	397.38
476.814	409.38
477.033	382.38
477.252	404.38
477.471	404.38
477.69	437.38
477.908	434.38
478.127	444.38
478.346	444.38
478.564	427.38
478.783	423.38
479.002	442.38
479.22	452.38
479.439	458.38
479.658	463.38
479.876	464.38
480.095	469.38
480.313	476.38
480.532	477.38
480.751	477.38
480.969	488.38
481.188	455.38
481.406	456.38
481.624	463.38
481.843	448.38
482.061	434.38
482.28	426.38
482.498	425.38
482.717	430.38
482.935	447.38
483.153	436.38
483.372	427.38
483.59	434.38
483.808	441.38
484.027	428.38
484.245	446.38
484.463	454.38
484.681	470.38
484.9	430.38
485.118	445.38
485.336	451.38
485.554	455.38
485.772	455.38
485.99	471.38
486.209	445.38
486.427	428.38
486.645	454.38
486.863	460.38
487.081	439.38
487.299	448.38
487.517	429.38
487.735	452.38
487.953	438.38
488.171	452.38
488.389	468.38
488.607	450.38
488.825	451.38
489.043	468.38
489.261	455.38
489.479	461.38
489.696	463.38
489.914	463.38
490.132	479.38
490.35	478.38
490.568	451.38
490.786	467.38
491.003	477.38
491.221	468.38
491.439	484.38
491.657	451.38
491.874	480.38
492.092	456.38
492.31	469.38
492.527	492.38
492.745	499.38
492.963	484.38
493.18	512.38
493.398	511.38
493.615	524.38
493.833	498.38
494.05	479.38
494.268	507.38
494.485	513.38
494.703	506.38
494.92	528.38
495.138	499.38
495.355	510.38
495.573	501.38
495.79	495.38
496.008	509.38
496.225	490.38
496.442	515.38
496.66	528.38
496.877	525.38
497.094	542.38
497.312	544.38
497.529	572.38
497.746	566.38
497.963	562.38
498.181	571.38
498.398	608.38
498.615	640.38
498.832	663.38
499.049	661.38
499.267	715.38
499.484	741.38
499.701	828.38
499.918	890.38
500.135	960.38
500.352	1032.38
500.569	1038.38
500.786	1037.38
501.003	1003.38
501.22	925.38
501.437	861.38
501.654	815.38
501.871	798.38
502.088	708.38
502.305	671.38
502.522	651.38
502.739	621.38
502.956	618.38
503.172	594.38
503.389	588.38
503.606	565.38
503.823	538.38
504.04	549.38
504.256	554.38
504.473	558.38
504.69	581.38
504.907	541.38
505.123	549.38
505.34	518.38
505.557	496.38
505.773	510.38
505.99	488.38
506.207	487.38
506.423	489.38
506.64	479.38
506.856	480.38
507.073	467.38
507.289	456.38
507.506	445.38
507.722	483.38
507.939	462.38
508.155	475.38
508.372	453.38
508.588	435.38
508.805	427.38
509.021	461.38
509.238	456.38
509.454	450.38
509.67	439.38
509.887	427.38
510.103	430.38
510.319	434.38
510.536	464.38
510.752	616.38
510.968	539.38
511.184	424.38
511.401	425.38
511.617	428.38
511.833	419.38
512.049	426.38
512.265	425.38
512.481	427.38
512.698	421.38
512.914	425.38
513.13	429.38
513.346	416.38
513.562	438.38
513.778	438.38
513.994	424.38
514.21	424.38
514.426	436.38
514.642	440.38
514.858	447.38
515.074	451.38
515.29	511.38
515.506	593.38
515.721	538.38
515.937	475.38
516.153	463.38
516.369	480.38
516.585	486.38
516.801	469.38
517.016	474.38
517.232	485.38
517.448	517.38
517.664	500.38
517.879	532.38
518.095	534.38
518.311	514.38
518.527	494.38
518.742	481.38
518.958	482.38
519.173	469.38
519.389	467.38
519.605	456.38
519.82	431.38
520.036	474.38
520.251	438.38
520.467	454.38
520.682	439.38
520.898	449.38
521.113	440.38
521.329	427.38
521.544	479.38
521.76	482.38
521.975	636.38
522.19	653.38
522.406	468.38
522.621	430.38
522.836	416.38
523.052	404.38
523.267	412.38
523.482	385.38
523.698	380.38
523.913	382.38
524.128	387.38
524.343	390.38
524.559	383.38
524.774	381.38
524.989	396.38
525.204	386.38
525.419	367.38
525.634	382.38
525.849	378.38
526.064	389.38
526.28	380.38
526.495	380.38
526.71	379.38
526.925	362.38
527.14	361.38
527.355	363.38
527.57	374.38
527.785	379.38
527.999	383.38
528.214	381.38
528.429	371.38
528.644	362.38
528.859	384.38
529.074	391.38
529.289	376.38
529.503	407.38
529.718	374.38
529.933	381.38
530.148	387.38
530.363	393.38
530.577	376.38
530.792	362.38
531.007	362.38
531.221	406.38
531.436	386.38
531.651	374.38
531.865	397.38
532.08	363.38
532.295	364.38
532.509	363.38
532.724	358.38
532.938	386.38
533.153	365.38
533.367	369.38
533.582	353.38
533.796	366.38
534.011	370.38
534.225	360.38
534.44	351.38
534.654	347.38
534.868	367.38
535.083	370.38
535.297	376.38
535.511	358.38
535.726	372.38
535.94	375.38
536.154	362.38
536.369	368.38
536.583	347.38
536.797	356.38
537.011	357.38
537.225	349.38
537.44	347.38
537.654	355.38
537.868	332.38
538.082	351.38
538.296	347.38
538.51	343.38
538.724	370.38
538.938	339.38
539.153	350.38
539.367	354.38
539.581	342.38
539.795	353.38
540.009	343.38
540.222	334.38
540.436	347.38
540.65	344.38
540.864	340.38
541.078	350.38
541.292	361.38
541.506	349.38
541.72	359.38
541.934	356.38
542.147	355.38
542.361	346.38
542.575	355.38
542.789	357.38
543.002	342.38
543.216	344.38
543.43	344.38
543.644	335.38
543.857	360.38
544.071	371.38
544.285	352.38
544.498	364.38
544.712	345.38
544.925	351.38
545.139	356.38
545.352	343.38
545.566	365.38
545.779	341.38
545.993	349.38
546.206	362.38
546.42	351.38
546.633	360.38
546.847	336.38
547.06	349.38
547.274	352.38
547.487	357.38
547.7	351.38
547.914	346.38
548.127	353.38
548.34	363.38
548.554	349.38
548.767	345.38
548.98	357.38
549.193	336.38
549.407	338.38
549.62	360.38
549.833	359.38
550.046	355.38
550.259	350.38
550.473	363.38
550.686	342.38
550.899	363.38
551.112	335.38
551.325	329.38
551.538	358.38
551.751	330.38
551.964	340.38
552.177	354.38
552.39	347.38
552.603	364.38
552.816	364.38
553.029	364.38
553.242	366.38
553.455	376.38
553.667	359.38
553.88	364.38
554.093	350.38
554.306	372.38
554.519	379.38
554.732	365.38
554.944	360.38
555.157	341.38
555.37	348.38
555.583	318.38
555.795	329.38
556.008	343.38
556.221	316.38
556.433	308.38
556.646	307.38
556.859	300.38
557.071	318.38
557.284	328.38
557.496	312.38
557.709	303.38
557.921	323.38
558.134	318.38
558.346	320.38
558.559	312.38
558.771	310.38
558.984	318.38
559.196	308.38
559.409	294.38
559.621	308.38
559.833	302.38
560.046	301.38
560.258	301.38
560.47	309.38
560.683	308.38
560.895	303.38
561.107	320.38
561.32	314.38
561.532	307.38
561.744	311.38
561.956	300.38
562.168	300.38
562.381	313.38
562.593	312.38
562.805	308.38
563.017	318.38
563.229	313.38
563.441	318.38
563.653	315.38
563.865	327.38
564.077	328.38
564.289	314.38
564.501	323.38
564.713	334.38
564.925	336.38
565.137	342.38
565.349	354.38
565.561	342.38
565.773	362.38
565.985	354.38
566.197	362.38
566.408	395.38
566.62	418.38
566.832	422.38
567.044	437.38
567.255	450.38
567.467	462.38
567.679	459.38
567.891	498.38
568.102	494.38
568.314	485.38
568.526	446.38
568.737	430.38
568.949	399.38
569.161	385.38
569.372	356.38
569.584	342.38
569.795	342.38
570.007	334.38
570.218	330.38
570.43	351.38
570.641	326.38
570.853	328.38
571.064	336.38
571.276	333.38
571.487	318.38
571.698	299.38
571.91	314.38
572.121	296.38
572.333	294.38
572.544	287.38
572.755	282.38
572.966	290.38
573.178	290.38
573.389	281.38
573.6	287.38
573.811	289.38
574.023	283.38
574.234	286.38
574.445	290.38
574.656	285.38
574.867	269.38
575.078	265.38
575.289	278.38
575.501	274.38
575.712	263.38
575.923	291.38
576.134	278.38
576.345	272.38
576.556	279.38
576.767	248.38
576.978	268.38
577.188	278.38
577.399	275.38
577.61	258.38
577.821	262.38
578.032	256.38
578.243	258.38
578.454	320.38
578.665	275.38
578.875	261.38
579.086	254.38
579.297	244.38
579.508	274.38
579.718	260.38
579.929	252.38
580.14	243.38
580.35	230.38
580.561	260.38
580.772	258.38
580.982	239.38
581.193	255.38
581.403	227.38
581.614	263.38
581.825	246.38
582.035	255.38
582.246	243.38
582.456	267.38
582.667	266.38
582.877	264.38
583.087	240.38
583.298	242.38
583.508	253.38
583.719	250.38
583.929	245.38
584.139	230.38
584.35	232.38
584.56	238.38
584.77	233.38
584.981	262.38
585.191	271.38
585.401	256.38
585.611	231.38
585.821	234.38
586.032	221.38
586.242	233.38
586.452	235.38
586.662	248.38
586.872	221.38
587.082	246.38
587.292	248.38
587.502	254.38
587.713	244.38
587.923	254.38
588.133	238.38
588.343	238.38
588.553	261.38
588.762	250.38
588.972	264.38
589.182	309.38
589.392	291.38
589.602	263.38
589.812	270.38
590.022	284.38
590.232	250.38
590.441	245.38
590.651	251.38
590.861	256.38
591.071	242.38
591.281	253.38
591.49	231.38
591.7	259.38
591.91	264.38
592.119	244.38
592.329	262.38
592.539	262.38
592.748	266.38
592.958	290.38
593.167	264.38
593.377	286.38
593.587	284.38
593.796	277.38
594.006	292.38
594.215	276.38
594.424	306.38
594.634	281.38
594.843	282.38
595.053	267.38
595.262	282.38
595.472	247.38
595.681	262.38
595.89	238.38
596.1	257.38
596.309	265.38
596.518	234.38
596.727	224.38
596.937	235.38
597.146	234.38
597.355	219.38
597.564	238.38
597.774	242.38
597.983	218.38
598.192	221.38
598.401	226.38
598.61	210.38
598.819	220.38
599.028	202.38
599.237	219.38
599.446	216.38
599.655	211.38
599.864	211.38
600.073	230.38
600.282	244.38
600.491	209.38
600.7	222.38
600.909	213.38
601.118	207.38
601.327	206.38
601.536	208.38
601.745	205.38
601.953	211.38
602.162	214.38
602.371	218.38
602.58	210.38
602.789	205.38
602.997	201.38
603.206	206.38
603.415	219.38
603.623	212.38
603.832	197.38
604.041	216.38
604.249	198.38
604.458	196.38
604.666	213.38
604.875	198.38
605.084	203.38
605.292	228.38
605.501	186.38
605.709	191.38
605.918	205.38
606.126	212.38
606.334	205.38
606.543	216.38
606.751	219.38
606.96	198.38
607.168	198.38
607.376	199.38
607.585	210.38
607.793	188.38
608.001	169.38
608.21	199.38
608.418	201.38
608.626	213.38
608.834	207.38
609.043	211.38
609.251	223.38
609.459	211.38
609.667	205.38
609.875	197.38
610.083	192.38
610.291	197.38
610.499	199.38
610.707	208.38
610.916	213.38
611.124	192.38
611.332	217.38
611.54	212.38
611.748	209.38
611.955	214.38
612.163	206.38
612.371	207.38
612.579	189.38
612.787	207.38
612.995	202.38
613.203	215.38
613.411	185.38
613.618	218.38
613.826	190.38
614.034	199.38
614.242	206.38
614.449	189.38
614.657	205.38
614.865	201.38
615.072	202.38
615.28	203.38
615.488	184.38
615.695	202.38
615.903	210.38
616.111	200.38
616.318	195.38
616.526	206.38
616.733	212.38
616.941	202.38
617.148	199.38
617.356	184.38
617.563	196.38
617.771	188.38
617.978	201.38
618.185	194.38
618.393	199.38
618.6	203.38
618.807	208.38
619.015	190.38
619.222	194.38
619.429	176.38
619.637	190.38
619.844	196.38
620.051	205.38
620.258	188.38
620.466	187.38
620.673	181.38
620.88	204.38
621.087	198.38
621.294	189.38
621.501	192.38
621.708	195.38
621.915	187.38
622.122	190.38
622.329	187.38
622.536	190.38
622.743	193.38
622.95	182.38
623.157	173.38
623.364	199.38
623.571	192.38
623.778	176.38
623.985	179.38
624.192	189.38
624.399	174.38
624.606	182.38
624.812	187.38
625.019	174.38
625.226	176.38
625.433	173.38
625.639	160.38
625.846	178.38
626.053	162.38
626.259	187.38
626.466	170.38
626.673	173.38
626.879	195.38
627.086	192.38
627.293	196.38
627.499	170.38
627.706	186.38
627.912	174.38
628.119	161.38
628.325	164.38
628.532	167.38
628.738	160.38
628.945	161.38
629.151	172.38
629.357	180.38
629.564	186.38
629.77	189.38
629.976	165.38
630.183	176.38
630.389	175.38
630.595	163.38
630.802	153.38
631.008	165.38
631.214	171.38
631.42	165.38
631.627	163.38
631.833	156.38
632.039	155.38
632.245	165.38
632.451	155.38
632.657	159.38
632.863	156.38
633.069	160.38
633.275	165.38
633.481	159.38
633.688	140.38
633.893	158.38
634.099	170.38
634.305	154.38
634.511	157.38
634.717	149.38
634.923	155.38
635.129	157.38
635.335	137.38
635.541	178.38
635.747	154.38
635.952	158.38
636.158	151.38
636.364	155.38
636.57	142.38
636.775	162.38
636.981	147.38
637.187	154.38
637.392	163.38
637.598	161.38
637.804	154.38
638.009	142.38
638.215	177.38
638.421	140.38
638.626	152.38
638.832	150.38
639.037	154.38
639.243	154.38
639.448	174.38
639.654	154.38
639.859	141.38
640.065	157.38
640.27	155.38
640.475	160.38
640.681	139.38
640.886	140.38
641.091	159.38
641.297	154.38
641.502	150.38
641.707	168.38
641.913	157.38
642.118	147.38
642.323	143.38
642.528	150.38
642.733	168.38
642.939	150.38
643.144	152.38
643.349	136.38
643.554	153.38
643.759	160.38
643.964	143.38
644.169	154.38
644.374	158.38
644.579	159.38
644.784	124.38
644.989	144.38
645.194	170.38
645.399	132.38
645.604	165.38
645.809	162.38
646.014	154.38
646.219	158.38
646.423	155.38
646.628	153.38
646.833	126.38
647.038	170.38
647.243	158.38
647.447	150.38
647.652	157.38
647.857	164.38
648.062	178.38
648.266	153.38
648.471	152.38
648.676	150.38
648.88	174.38
649.085	164.38
649.289	162.38
649.494	152.38
649.698	154.38
649.903	166.38
650.107	155.38
650.312	144.38
650.516	136.38
650.721	128.38
650.925	128.38
651.13	135.38
651.334	115.38
651.539	134.38
651.743	136.38
651.947	143.38
652.152	144.38
652.356	127.38
652.56	142.38
652.764	137.38
652.969	112.38
653.173	134.38
653.377	127.38
653.581	130.38
653.785	122.38
653.99	147.38
654.194	134.38
654.398	138.38
654.602	118.38
654.806	126.38
655.01	121.38
655.214	136.38
655.418	116.38
655.622	130.38
655.826	132.38
656.03	132.38
656.234	140.38
656.438	141.38
656.642	126.38
656.846	125.38
657.049	141.38
657.253	122.38
657.457	122.38
657.661	115.38
657.865	103.38
658.068	95.38
658.272	108.38
658.476	117.38
658.68	95.38
658.883	119.38
659.087	118.38
659.291	107.38
659.494	101.38
659.698	108.38
659.901	108.38
660.105	96.38
660.309	97.38
660.512	93.38
660.716	89.38
660.919	92.38
661.123	99.38
661.326	93.38
661.53	87.38
661.733	85.38
661.936	93.38
662.14	91.38
662.343	95.38
662.546	88.38
662.75	94.38
662.953	86.38
663.156	87.38
663.36	92.38
663.563	90.38
663.766	98.38
663.969	89.38
664.173	86.38
664.376	81.38
664.579	95.38
664.782	90.38
664.985	98.38
665.188	62.38
665.391	86.38
665.594	94.38
665.797	86.38
666	87.38
666.203	84.38
666.406	90.38
666.609	80.38
666.812	68.38
667.015	71.38
667.218	94.38
667.421	86.38
667.624	80.38
667.827	80.38
668.03	83.38
668.232	77.38
668.435	80.38
668.638	92.38
668.841	83.38
669.043	90.38
669.246	84.38
669.449	83.38
669.651	92.38
669.854	92.38
670.057	85.38
670.259	75.38
670.462	78.38
670.665	87.38
670.867	76.38
671.07	84.38
671.272	82.38
671.475	90.38
671.677	84.38
671.88	95.38
672.082	93.38
672.284	84.38
672.487	75.38
672.689	73.38
672.892	83.38
