Data from 1984.PennyLincolnUp.Lamp.En5.5.200Scan.071819.P1_HRD10591_16-59-29-968.txt Node
Date: Thu Jul 18 16:59:29 EDT 2019
User: cochatt
Spectrometer: HR+D1059
Trigger mode: 1
Integration Time (sec): 1.000000E-1
Scans to average: 1
Electric dark correction enabled: true
Nonlinearity correction enabled: false
Boxcar width: 0
XAxis mode: Wavelengths
Number of Pixels in Spectrum: 2048
>>>>>Begin Spectral Data<<<<<
223.165	-14.31
223.4	-14.31
223.635	-14.31
223.869	-17.31
224.104	-13.31
224.338	-14.31
224.573	-19.31
224.808	9.69
225.042	-22.31
225.277	-18.31
225.511	-0.31
225.746	3.69
225.98	19.69
226.215	8.69
226.449	5.69
226.683	21.69
226.918	17.69
227.152	32.69
227.387	42.69
227.621	34.69
227.856	42.69
228.09	39.69
228.324	45.69
228.559	52.69
228.793	74.69
229.027	74.69
229.262	93.69
229.496	101.69
229.73	120.69
229.964	117.69
230.199	117.69
230.433	88.69
230.667	88.69
230.901	103.69
231.136	99.69
231.37	119.69
231.604	107.69
231.838	114.69
232.072	104.69
232.306	102.69
232.541	117.69
232.775	111.69
233.009	101.69
233.243	104.69
233.477	102.69
233.711	121.69
233.945	118.69
234.179	95.69
234.413	111.69
234.647	102.69
234.881	106.69
235.115	105.69
235.349	108.69
235.583	100.69
235.817	100.69
236.051	113.69
236.285	109.69
236.519	115.69
236.753	131.69
236.987	138.69
237.221	129.69
237.455	160.69
237.689	171.69
237.922	120.69
238.156	122.69
238.39	115.69
238.624	104.69
238.858	102.69
239.091	114.69
239.325	113.69
239.559	126.69
239.793	127.69
240.027	120.69
240.26	132.69
240.494	133.69
240.728	136.69
240.961	137.69
241.195	122.69
241.429	127.69
241.662	125.69
241.896	103.69
242.13	121.69
242.363	135.69
242.597	124.69
242.83	131.69
243.064	123.69
243.298	124.69
243.531	121.69
243.765	129.69
243.998	140.69
244.232	135.69
244.465	136.69
244.699	150.69
244.932	117.69
245.166	154.69
245.399	124.69
245.633	142.69
245.866	147.69
246.099	139.69
246.333	145.69
246.566	139.69
246.8	138.69
247.033	146.69
247.266	149.69
247.5	157.69
247.733	157.69
247.966	148.69
248.2	138.69
248.433	156.69
248.666	148.69
248.899	152.69
249.133	172.69
249.366	187.69
249.599	168.69
249.832	159.69
250.066	178.69
250.299	175.69
250.532	199.69
250.765	224.69
250.998	197.69
251.231	184.69
251.465	198.69
251.698	171.69
251.931	192.69
252.164	165.69
252.397	177.69
252.63	175.69
252.863	179.69
253.096	181.69
253.329	175.69
253.562	196.69
253.795	187.69
254.028	187.69
254.261	191.69
254.494	196.69
254.727	201.69
254.96	217.69
255.193	227.69
255.426	211.69
255.659	204.69
255.892	236.69
256.124	264.69
256.357	272.69
256.59	246.69
256.823	215.69
257.056	203.69
257.289	187.69
257.521	199.69
257.754	189.69
257.987	184.69
258.22	197.69
258.452	195.69
258.685	176.69
258.918	191.69
259.151	183.69
259.383	199.69
259.616	194.69
259.849	179.69
260.081	203.69
260.314	207.69
260.547	224.69
260.779	216.69
261.012	212.69
261.244	193.69
261.477	195.69
261.71	208.69
261.942	203.69
262.175	212.69
262.407	201.69
262.64	192.69
262.872	195.69
263.105	188.69
263.337	189.69
263.57	200.69
263.802	187.69
264.035	189.69
264.267	196.69
264.499	199.69
264.732	189.69
264.964	213.69
265.197	204.69
265.429	199.69
265.661	194.69
265.894	209.69
266.126	196.69
266.358	206.69
266.591	204.69
266.823	213.69
267.055	224.69
267.287	196.69
267.52	202.69
267.752	206.69
267.984	211.69
268.216	206.69
268.448	209.69
268.681	203.69
268.913	213.69
269.145	223.69
269.377	227.69
269.609	235.69
269.841	243.69
270.073	231.69
270.306	255.69
270.538	248.69
270.77	247.69
271.002	258.69
271.234	238.69
271.466	244.69
271.698	247.69
271.93	265.69
272.162	261.69
272.394	266.69
272.626	247.69
272.858	241.69
273.09	234.69
273.322	239.69
273.553	234.69
273.785	243.69
274.017	243.69
274.249	240.69
274.481	247.69
274.713	239.69
274.945	241.69
275.176	240.69
275.408	234.69
275.64	249.69
275.872	257.69
276.104	255.69
276.335	236.69
276.567	229.69
276.799	260.69
277.031	268.69
277.262	287.69
277.494	285.69
277.726	285.69
277.957	274.69
278.189	255.69
278.421	260.69
278.652	248.69
278.884	255.69
279.115	264.69
279.347	252.69
279.579	263.69
279.81	260.69
280.042	259.69
280.273	256.69
280.505	268.69
280.736	248.69
280.968	276.69
281.199	256.69
281.431	259.69
281.662	285.69
281.894	278.69
282.125	269.69
282.356	281.69
282.588	279.69
282.819	279.69
283.051	262.69
283.282	248.69
283.513	276.69
283.745	282.69
283.976	269.69
284.207	265.69
284.439	273.69
284.67	273.69
284.901	266.69
285.132	263.69
285.364	275.69
285.595	290.69
285.826	261.69
286.057	274.69
286.288	272.69
286.52	275.69
286.751	256.69
286.982	298.69
287.213	278.69
287.444	287.69
287.675	289.69
287.906	303.69
288.138	292.69
288.369	293.69
288.6	293.69
288.831	300.69
289.062	298.69
289.293	274.69
289.524	275.69
289.755	283.69
289.986	289.69
290.217	290.69
290.448	273.69
290.679	307.69
290.91	278.69
291.141	271.69
291.371	267.69
291.602	284.69
291.833	294.69
292.064	293.69
292.295	279.69
292.526	283.69
292.757	298.69
292.987	288.69
293.218	275.69
293.449	282.69
293.68	286.69
293.91	282.69
294.141	270.69
294.372	291.69
294.603	295.69
294.833	290.69
295.064	286.69
295.295	263.69
295.525	308.69
295.756	300.69
295.987	287.69
296.217	295.69
296.448	311.69
296.679	300.69
296.909	290.69
297.14	306.69
297.37	307.69
297.601	285.69
297.831	299.69
298.062	303.69
298.292	303.69
298.523	307.69
298.753	294.69
298.984	296.69
299.214	307.69
299.445	306.69
299.675	308.69
299.905	306.69
300.136	310.69
300.366	327.69
300.597	299.69
300.827	316.69
301.057	322.69
301.288	321.69
301.518	328.69
301.748	335.69
301.979	323.69
302.209	342.69
302.439	319.69
302.669	331.69
302.9	311.69
303.13	310.69
303.36	324.69
303.59	340.69
303.82	324.69
304.051	334.69
304.281	323.69
304.511	324.69
304.741	327.69
304.971	338.69
305.201	332.69
305.431	329.69
305.661	326.69
305.891	295.69
306.121	300.69
306.352	301.69
306.582	316.69
306.812	356.69
307.042	324.69
307.272	319.69
307.502	311.69
307.731	314.69
307.961	315.69
308.191	306.69
308.421	298.69
308.651	304.69
308.881	303.69
309.111	319.69
309.341	311.69
309.571	333.69
309.8	335.69
310.03	348.69
310.26	335.69
310.49	338.69
310.72	348.69
310.949	343.69
311.179	359.69
311.409	358.69
311.639	338.69
311.868	331.69
312.098	348.69
312.328	351.69
312.557	355.69
312.787	357.69
313.017	356.69
313.246	347.69
313.476	349.69
313.706	363.69
313.935	352.69
314.165	353.69
314.394	363.69
314.624	362.69
314.853	352.69
315.083	336.69
315.312	363.69
315.542	354.69
315.771	358.69
316.001	342.69
316.23	349.69
316.46	342.69
316.689	365.69
316.919	351.69
317.148	357.69
317.377	357.69
317.607	362.69
317.836	352.69
318.065	340.69
318.295	348.69
318.524	357.69
318.753	328.69
318.983	347.69
319.212	334.69
319.441	353.69
319.67	365.69
319.9	357.69
320.129	332.69
320.358	344.69
320.587	354.69
320.816	363.69
321.046	375.69
321.275	369.69
321.504	352.69
321.733	369.69
321.962	369.69
322.191	363.69
322.42	381.69
322.649	391.69
322.878	408.69
323.108	382.69
323.337	413.69
323.566	395.69
323.795	443.69
324.024	486.69
324.253	545.69
324.482	715.69
324.71	1085.69
324.939	1463.69
325.168	1239.69
325.397	711.69
325.626	539.69
325.855	462.69
326.084	438.69
326.313	455.69
326.542	427.69
326.77	455.69
326.999	538.69
327.228	691.69
327.457	1041.69
327.686	1167.69
327.914	772.69
328.143	578.69
328.372	565.69
328.6	534.69
328.829	485.69
329.058	470.69
329.287	484.69
329.515	477.69
329.744	485.69
329.972	493.69
330.201	577.69
330.43	616.69
330.658	578.69
330.887	522.69
331.115	504.69
331.344	455.69
331.572	465.69
331.801	458.69
332.03	474.69
332.258	447.69
332.486	432.69
332.715	462.69
332.943	451.69
333.172	501.69
333.4	488.69
333.629	501.69
333.857	533.69
334.085	569.69
334.314	595.69
334.542	700.69
334.771	695.69
334.999	587.69
335.227	533.69
335.455	479.69
335.684	460.69
335.912	447.69
336.14	460.69
336.369	434.69
336.597	427.69
336.825	433.69
337.053	447.69
337.281	442.69
337.51	431.69
337.738	413.69
337.966	411.69
338.194	418.69
338.422	415.69
338.65	404.69
338.878	407.69
339.106	397.69
339.334	405.69
339.562	409.69
339.79	398.69
340.018	410.69
340.246	386.69
340.474	407.69
340.702	410.69
340.93	399.69
341.158	397.69
341.386	405.69
341.614	405.69
341.842	378.69
342.07	391.69
342.298	378.69
342.526	363.69
342.754	379.69
342.981	389.69
343.209	398.69
343.437	398.69
343.665	404.69
343.893	429.69
344.12	412.69
344.348	406.69
344.576	425.69
344.804	423.69
345.031	402.69
345.259	410.69
345.487	387.69
345.714	393.69
345.942	382.69
346.17	385.69
346.397	393.69
346.625	376.69
346.853	371.69
347.08	385.69
347.308	393.69
347.535	392.69
347.763	388.69
347.99	376.69
348.218	364.69
348.445	374.69
348.673	385.69
348.9	378.69
349.128	378.69
349.355	368.69
349.583	385.69
349.81	371.69
350.037	345.69
350.265	364.69
350.492	357.69
350.72	352.69
350.947	354.69
351.174	359.69
351.402	369.69
351.629	377.69
351.856	366.69
352.083	391.69
352.311	370.69
352.538	381.69
352.765	380.69
352.992	368.69
353.22	375.69
353.447	360.69
353.674	359.69
353.901	328.69
354.128	369.69
354.355	352.69
354.583	354.69
354.81	359.69
355.037	344.69
355.264	360.69
355.491	362.69
355.718	359.69
355.945	343.69
356.172	348.69
356.399	340.69
356.626	368.69
356.853	346.69
357.08	357.69
357.307	353.69
357.534	347.69
357.761	347.69
357.988	359.69
358.215	351.69
358.441	378.69
358.668	361.69
358.895	364.69
359.122	363.69
359.349	375.69
359.576	361.69
359.802	388.69
360.029	391.69
360.256	377.69
360.483	364.69
360.709	369.69
360.936	370.69
361.163	361.69
361.39	367.69
361.616	356.69
361.843	360.69
362.07	374.69
362.296	352.69
362.523	375.69
362.749	367.69
362.976	353.69
363.203	366.69
363.429	356.69
363.656	371.69
363.882	360.69
364.109	339.69
364.335	328.69
364.562	339.69
364.788	356.69
365.015	380.69
365.241	362.69
365.468	353.69
365.694	354.69
365.92	365.69
366.147	346.69
366.373	355.69
366.599	340.69
366.826	325.69
367.052	340.69
367.278	362.69
367.505	355.69
367.731	360.69
367.957	348.69
368.184	347.69
368.41	344.69
368.636	341.69
368.862	360.69
369.089	368.69
369.315	367.69
369.541	361.69
369.767	358.69
369.993	348.69
370.219	348.69
370.445	365.69
370.672	372.69
370.898	361.69
371.124	355.69
371.35	364.69
371.576	368.69
371.802	351.69
372.028	345.69
372.254	355.69
372.48	368.69
372.706	379.69
372.932	386.69
373.158	373.69
373.384	357.69
373.61	345.69
373.835	358.69
374.061	353.69
374.287	375.69
374.513	372.69
374.739	371.69
374.965	384.69
375.191	378.69
375.416	371.69
375.642	375.69
375.868	363.69
376.094	364.69
376.319	379.69
376.545	373.69
376.771	351.69
376.997	375.69
377.222	379.69
377.448	346.69
377.674	348.69
377.899	367.69
378.125	359.69
378.35	360.69
378.576	350.69
378.802	364.69
379.027	373.69
379.253	372.69
379.478	356.69
379.704	365.69
379.929	351.69
380.155	372.69
380.38	355.69
380.606	365.69
380.831	372.69
381.057	359.69
381.282	338.69
381.507	347.69
381.733	384.69
381.958	371.69
382.184	376.69
382.409	359.69
382.634	359.69
382.86	375.69
383.085	370.69
383.31	361.69
383.535	383.69
383.761	387.69
383.986	388.69
384.211	403.69
384.436	401.69
384.662	381.69
384.887	393.69
385.112	394.69
385.337	410.69
385.562	410.69
385.787	408.69
386.013	408.69
386.238	415.69
386.463	419.69
386.688	409.69
386.913	404.69
387.138	378.69
387.363	394.69
387.588	405.69
387.813	403.69
388.038	411.69
388.263	424.69
388.488	405.69
388.713	400.69
388.938	393.69
389.163	401.69
389.387	393.69
389.612	400.69
389.837	405.69
390.062	408.69
390.287	388.69
390.512	390.69
390.736	419.69
390.961	386.69
391.186	410.69
391.411	403.69
391.636	428.69
391.86	426.69
392.085	418.69
392.31	438.69
392.534	435.69
392.759	431.69
392.984	427.69
393.208	419.69
393.433	436.69
393.658	416.69
393.882	410.69
394.107	411.69
394.331	409.69
394.556	410.69
394.78	438.69
395.005	437.69
395.229	408.69
395.454	428.69
395.678	429.69
395.903	452.69
396.127	445.69
396.352	439.69
396.576	406.69
396.801	402.69
397.025	429.69
397.249	412.69
397.474	448.69
397.698	440.69
397.922	432.69
398.147	440.69
398.371	476.69
398.595	457.69
398.82	480.69
399.044	482.69
399.268	520.69
399.492	579.69
399.717	623.69
399.941	638.69
400.165	628.69
400.389	600.69
400.613	541.69
400.837	489.69
401.062	491.69
401.286	486.69
401.51	489.69
401.734	494.69
401.958	474.69
402.182	495.69
402.406	495.69
402.63	507.69
402.854	499.69
403.078	495.69
403.302	537.69
403.526	533.69
403.75	526.69
403.974	523.69
404.198	505.69
404.422	526.69
404.645	536.69
404.869	543.69
405.093	541.69
405.317	597.69
405.541	602.69
405.765	585.69
405.988	553.69
406.212	545.69
406.436	542.69
406.66	549.69
406.883	525.69
407.107	551.69
407.331	587.69
407.555	643.69
407.778	653.69
408.002	589.69
408.226	547.69
408.449	574.69
408.673	539.69
408.896	541.69
409.12	563.69
409.344	534.69
409.567	535.69
409.791	541.69
410.014	507.69
410.238	517.69
410.461	524.69
410.685	498.69
410.908	513.69
411.132	515.69
411.355	540.69
411.578	510.69
411.802	512.69
412.025	519.69
412.249	556.69
412.472	564.69
412.695	592.69
412.919	571.69
413.142	529.69
413.365	525.69
413.589	503.69
413.812	474.69
414.035	486.69
414.258	495.69
414.482	482.69
414.705	476.69
414.928	484.69
415.151	511.69
415.374	463.69
415.597	462.69
415.821	491.69
416.044	460.69
416.267	452.69
416.49	454.69
416.713	463.69
416.936	461.69
417.159	473.69
417.382	463.69
417.605	473.69
417.828	475.69
418.051	499.69
418.274	476.69
418.497	484.69
418.72	467.69
418.943	467.69
419.166	496.69
419.389	519.69
419.611	535.69
419.834	503.69
420.057	511.69
420.28	524.69
420.503	526.69
420.726	518.69
420.948	488.69
421.171	535.69
421.394	528.69
421.617	498.69
421.839	514.69
422.062	493.69
422.285	489.69
422.507	521.69
422.73	537.69
422.953	567.69
423.175	515.69
423.398	484.69
423.621	488.69
423.843	517.69
424.066	511.69
424.288	526.69
424.511	515.69
424.733	532.69
424.956	603.69
425.178	567.69
425.401	561.69
425.623	550.69
425.846	527.69
426.068	479.69
426.291	495.69
426.513	495.69
426.735	503.69
426.958	501.69
427.18	558.69
427.402	637.69
427.625	689.69
427.847	609.69
428.069	583.69
428.292	523.69
428.514	488.69
428.736	473.69
428.958	460.69
429.181	425.69
429.403	441.69
429.625	457.69
429.847	457.69
430.069	508.69
430.292	510.69
430.514	443.69
430.736	435.69
430.958	444.69
431.18	421.69
431.402	441.69
431.624	433.69
431.846	432.69
432.068	435.69
432.29	434.69
432.512	442.69
432.734	441.69
432.956	434.69
433.178	429.69
433.4	440.69
433.622	441.69
433.844	428.69
434.066	447.69
434.287	428.69
434.509	450.69
434.731	470.69
434.953	464.69
435.175	459.69
435.397	497.69
435.618	507.69
435.84	509.69
436.062	548.69
436.284	579.69
436.505	508.69
436.727	467.69
436.949	432.69
437.17	432.69
437.392	427.69
437.614	420.69
437.835	472.69
438.057	516.69
438.278	534.69
438.5	586.69
438.721	624.69
438.943	603.69
439.165	483.69
439.386	467.69
439.608	472.69
439.829	470.69
440.05	498.69
440.272	506.69
440.493	460.69
440.715	476.69
440.936	452.69
441.158	459.69
441.379	449.69
441.6	492.69
441.822	495.69
442.043	519.69
442.264	555.69
442.486	589.69
442.707	514.69
442.928	484.69
443.149	493.69
443.371	509.69
443.592	538.69
443.813	583.69
444.034	617.69
444.255	544.69
444.476	519.69
444.698	516.69
444.919	535.69
445.14	612.69
445.361	567.69
445.582	521.69
445.803	557.69
446.024	600.69
446.245	570.69
446.466	526.69
446.687	486.69
446.908	483.69
447.129	445.69
447.35	432.69
447.571	447.69
447.792	423.69
448.013	429.69
448.234	444.69
448.455	447.69
448.675	519.69
448.896	601.69
449.117	537.69
449.338	517.69
449.559	576.69
449.779	617.69
450	532.69
450.221	454.69
450.442	435.69
450.662	436.69
450.883	421.69
451.104	418.69
451.324	409.69
451.545	419.69
451.766	422.69
451.986	393.69
452.207	398.69
452.428	394.69
452.648	375.69
452.869	386.69
453.089	418.69
453.31	402.69
453.53	408.69
453.751	388.69
453.971	381.69
454.192	387.69
454.412	398.69
454.633	400.69
454.853	380.69
455.073	387.69
455.294	404.69
455.514	436.69
455.734	438.69
455.955	396.69
456.175	368.69
456.395	381.69
456.616	375.69
456.836	372.69
457.056	395.69
457.276	360.69
457.497	403.69
457.717	363.69
457.937	385.69
458.157	376.69
458.377	389.69
458.598	403.69
458.818	443.69
459.038	470.69
459.258	480.69
459.478	457.69
459.698	454.69
459.918	443.69
460.138	446.69
460.358	473.69
460.578	455.69
460.798	468.69
461.018	458.69
461.238	461.69
461.458	465.69
461.678	454.69
461.898	483.69
462.118	471.69
462.338	486.69
462.558	520.69
462.777	500.69
462.997	518.69
463.217	557.69
463.437	552.69
463.657	521.69
463.876	518.69
464.096	520.69
464.316	501.69
464.536	526.69
464.755	485.69
464.975	479.69
465.195	515.69
465.414	517.69
465.634	476.69
465.854	465.69
466.073	454.69
466.293	429.69
466.512	412.69
466.732	417.69
466.951	417.69
467.171	416.69
467.391	398.69
467.61	408.69
467.829	405.69
468.049	432.69
468.268	447.69
468.488	429.69
468.707	382.69
468.927	390.69
469.146	402.69
469.365	425.69
469.585	401.69
469.804	409.69
470.023	423.69
470.243	405.69
470.462	424.69
470.681	423.69
470.901	427.69
471.12	428.69
471.339	445.69
471.558	422.69
471.777	414.69
471.997	428.69
472.216	450.69
472.435	510.69
472.654	477.69
472.873	459.69
473.092	432.69
473.311	435.69
473.53	408.69
473.749	415.69
473.968	447.69
474.187	469.69
474.406	487.69
474.625	437.69
474.844	419.69
475.063	393.69
475.282	436.69
475.501	409.69
475.72	399.69
475.939	403.69
476.158	445.69
476.377	408.69
476.596	408.69
476.814	421.69
477.033	405.69
477.252	448.69
477.471	416.69
477.69	449.69
477.908	461.69
478.127	456.69
478.346	445.69
478.564	458.69
478.783	488.69
479.002	483.69
479.22	476.69
479.439	460.69
479.658	490.69
479.876	499.69
480.095	501.69
480.313	538.69
480.532	526.69
480.751	519.69
480.969	576.69
481.188	663.69
481.406	729.69
481.624	603.69
481.843	552.69
482.061	560.69
482.28	490.69
482.498	489.69
482.717	484.69
482.935	483.69
483.153	460.69
483.372	451.69
483.59	474.69
483.808	475.69
484.027	484.69
484.245	478.69
484.463	478.69
484.681	474.69
484.9	496.69
485.118	486.69
485.336	483.69
485.554	487.69
485.772	481.69
485.99	463.69
486.209	466.69
486.427	497.69
486.645	498.69
486.863	501.69
487.081	495.69
487.299	516.69
487.517	498.69
487.735	528.69
487.953	490.69
488.171	498.69
488.389	488.69
488.607	501.69
488.825	479.69
489.043	497.69
489.261	496.69
489.479	490.69
489.696	488.69
489.914	501.69
490.132	496.69
490.35	506.69
490.568	525.69
490.786	541.69
491.003	527.69
491.221	561.69
491.439	576.69
491.657	569.69
491.874	588.69
492.092	568.69
492.31	587.69
492.527	586.69
492.745	596.69
492.963	587.69
493.18	596.69
493.398	588.69
493.615	611.69
493.833	597.69
494.05	580.69
494.268	570.69
494.485	595.69
494.703	588.69
494.92	571.69
495.138	596.69
495.355	574.69
495.573	572.69
495.79	573.69
496.008	571.69
496.225	554.69
496.442	542.69
496.66	604.69
496.877	585.69
497.094	594.69
497.312	607.69
497.529	603.69
497.746	629.69
497.963	635.69
498.181	645.69
498.398	633.69
498.615	676.69
498.832	701.69
499.049	726.69
499.267	756.69
499.484	805.69
499.701	850.69
499.918	910.69
500.135	966.69
500.352	1085.69
500.569	1116.69
500.786	1097.69
501.003	1039.69
501.22	953.69
501.437	932.69
501.654	849.69
501.871	821.69
502.088	768.69
502.305	711.69
502.522	707.69
502.739	673.69
502.956	647.69
503.172	633.69
503.389	629.69
503.606	610.69
503.823	617.69
504.04	586.69
504.256	589.69
504.473	596.69
504.69	619.69
504.907	604.69
505.123	587.69
505.34	560.69
505.557	547.69
505.773	546.69
505.99	530.69
506.207	523.69
506.423	523.69
506.64	526.69
506.856	501.69
507.073	504.69
507.289	535.69
507.506	489.69
507.722	491.69
507.939	536.69
508.155	503.69
508.372	515.69
508.588	498.69
508.805	472.69
509.021	484.69
509.238	488.69
509.454	490.69
509.67	463.69
509.887	495.69
510.103	477.69
510.319	491.69
510.536	531.69
510.752	804.69
510.968	672.69
511.184	501.69
511.401	495.69
511.617	491.69
511.833	494.69
512.049	531.69
512.265	499.69
512.481	498.69
512.698	479.69
512.914	485.69
513.13	488.69
513.346	472.69
513.562	456.69
513.778	464.69
513.994	475.69
514.21	477.69
514.426	493.69
514.642	524.69
514.858	520.69
515.074	544.69
515.29	602.69
515.506	802.69
515.721	680.69
515.937	555.69
516.153	511.69
516.369	512.69
516.585	508.69
516.801	501.69
517.016	521.69
517.232	522.69
517.448	551.69
517.664	577.69
517.879	529.69
518.095	577.69
518.311	553.69
518.527	547.69
518.742	550.69
518.958	516.69
519.173	509.69
519.389	480.69
519.605	479.69
519.82	470.69
520.036	489.69
520.251	484.69
520.467	501.69
520.682	495.69
520.898	476.69
521.113	493.69
521.329	516.69
521.544	544.69
521.76	652.69
521.975	950.69
522.19	947.69
522.406	600.69
522.621	493.69
522.836	466.69
523.052	464.69
523.267	451.69
523.482	440.69
523.698	435.69
523.913	451.69
524.128	418.69
524.343	425.69
524.559	425.69
524.774	396.69
524.989	433.69
525.204	428.69
525.419	410.69
525.634	408.69
525.849	410.69
526.064	415.69
526.28	433.69
526.495	392.69
526.71	403.69
526.925	393.69
527.14	411.69
527.355	397.69
527.57	388.69
527.785	393.69
527.999	387.69
528.214	397.69
528.429	409.69
528.644	416.69
528.859	389.69
529.074	390.69
529.289	397.69
529.503	446.69
529.718	416.69
529.933	409.69
530.148	404.69
530.363	444.69
530.577	405.69
530.792	415.69
531.007	408.69
531.221	401.69
531.436	394.69
531.651	378.69
531.865	395.69
532.08	386.69
532.295	401.69
532.509	398.69
532.724	379.69
532.938	391.69
533.153	393.69
533.367	387.69
533.582	388.69
533.796	377.69
534.011	384.69
534.225	397.69
534.44	388.69
534.654	391.69
534.868	373.69
535.083	375.69
535.297	372.69
535.511	384.69
535.726	399.69
535.94	382.69
536.154	379.69
536.369	398.69
536.583	388.69
536.797	369.69
537.011	356.69
537.225	387.69
537.44	381.69
537.654	363.69
537.868	369.69
538.082	371.69
538.296	369.69
538.51	369.69
538.724	372.69
538.938	369.69
539.153	371.69
539.367	388.69
539.581	378.69
539.795	391.69
540.009	372.69
540.222	359.69
540.436	364.69
540.65	348.69
540.864	383.69
541.078	364.69
541.292	387.69
541.506	367.69
541.72	351.69
541.934	359.69
542.147	372.69
542.361	354.69
542.575	352.69
542.789	367.69
543.002	361.69
543.216	395.69
543.43	375.69
543.644	384.69
543.857	384.69
544.071	377.69
544.285	368.69
544.498	362.69
544.712	371.69
544.925	355.69
545.139	354.69
545.352	386.69
545.566	363.69
545.779	377.69
545.993	374.69
546.206	375.69
546.42	382.69
546.633	385.69
546.847	375.69
547.06	367.69
547.274	357.69
547.487	381.69
547.7	358.69
547.914	362.69
548.127	371.69
548.34	359.69
548.554	367.69
548.767	369.69
548.98	376.69
549.193	383.69
549.407	375.69
549.62	374.69
549.833	360.69
550.046	389.69
550.259	374.69
550.473	358.69
550.686	370.69
550.899	374.69
551.112	367.69
551.325	355.69
551.538	357.69
551.751	347.69
551.964	349.69
552.177	368.69
552.39	352.69
552.603	370.69
552.816	373.69
553.029	385.69
553.242	379.69
553.455	383.69
553.667	418.69
553.88	405.69
554.093	370.69
554.306	372.69
554.519	381.69
554.732	386.69
554.944	368.69
555.157	368.69
555.37	361.69
555.583	344.69
555.795	349.69
556.008	368.69
556.221	349.69
556.433	329.69
556.646	329.69
556.859	335.69
557.071	335.69
557.284	314.69
557.496	331.69
557.709	326.69
557.921	331.69
558.134	337.69
558.346	306.69
558.559	308.69
558.771	316.69
558.984	322.69
559.196	317.69
559.409	315.69
559.621	317.69
559.833	323.69
560.046	317.69
560.258	337.69
560.47	327.69
560.683	332.69
560.895	319.69
561.107	333.69
561.32	307.69
561.532	311.69
561.744	322.69
561.956	305.69
562.168	301.69
562.381	334.69
562.593	327.69
562.805	319.69
563.017	314.69
563.229	320.69
563.441	327.69
563.653	331.69
563.865	322.69
564.077	331.69
564.289	336.69
564.501	345.69
564.713	331.69
564.925	347.69
565.137	351.69
565.349	341.69
565.561	376.69
565.773	377.69
565.985	367.69
566.197	412.69
566.408	425.69
566.62	433.69
566.832	447.69
567.044	445.69
567.255	451.69
567.467	472.69
567.679	480.69
567.891	519.69
568.102	495.69
568.314	492.69
568.526	467.69
568.737	421.69
568.949	419.69
569.161	373.69
569.372	373.69
569.584	358.69
569.795	373.69
570.007	347.69
570.218	375.69
570.43	353.69
570.641	329.69
570.853	335.69
571.064	336.69
571.276	332.69
571.487	320.69
571.698	326.69
571.91	323.69
572.121	292.69
572.333	312.69
572.544	298.69
572.755	315.69
572.966	284.69
573.178	283.69
573.389	310.69
573.6	290.69
573.811	291.69
574.023	297.69
574.234	293.69
574.445	290.69
574.656	292.69
574.867	278.69
575.078	287.69
575.289	288.69
575.501	290.69
575.712	264.69
575.923	263.69
576.134	287.69
576.345	248.69
576.556	273.69
576.767	265.69
576.978	275.69
577.188	272.69
577.399	274.69
577.61	259.69
577.821	269.69
578.032	278.69
578.243	290.69
578.454	398.69
578.665	333.69
578.875	269.69
579.086	276.69
579.297	255.69
579.508	268.69
579.718	283.69
579.929	257.69
580.14	275.69
580.35	263.69
580.561	261.69
580.772	247.69
580.982	244.69
581.193	266.69
581.403	274.69
581.614	280.69
581.825	259.69
582.035	277.69
582.246	240.69
582.456	241.69
582.667	252.69
582.877	245.69
583.087	270.69
583.298	265.69
583.508	266.69
583.719	273.69
583.929	267.69
584.139	235.69
584.35	250.69
584.56	236.69
584.77	244.69
584.981	243.69
585.191	243.69
585.401	258.69
585.611	260.69
585.821	255.69
586.032	242.69
586.242	249.69
586.452	257.69
586.662	233.69
586.872	251.69
587.082	261.69
587.292	239.69
587.502	261.69
587.713	248.69
587.923	260.69
588.133	259.69
588.343	271.69
588.553	239.69
588.762	256.69
588.972	251.69
589.182	255.69
589.392	248.69
589.602	263.69
589.812	241.69
590.022	255.69
590.232	223.69
590.441	241.69
590.651	251.69
590.861	246.69
591.071	236.69
591.281	251.69
591.49	252.69
591.7	259.69
591.91	250.69
592.119	274.69
592.329	257.69
592.539	280.69
592.748	275.69
592.958	286.69
593.167	270.69
593.377	277.69
593.587	294.69
593.796	284.69
594.006	298.69
594.215	294.69
594.424	296.69
594.634	292.69
594.843	279.69
595.053	270.69
595.262	279.69
595.472	239.69
595.681	255.69
595.89	258.69
596.1	264.69
596.309	251.69
596.518	257.69
596.727	239.69
596.937	243.69
597.146	242.69
597.355	242.69
597.564	241.69
597.774	239.69
597.983	214.69
598.192	230.69
598.401	240.69
598.61	223.69
598.819	246.69
599.028	227.69
599.237	217.69
599.446	218.69
599.655	205.69
599.864	235.69
600.073	214.69
600.282	229.69
600.491	232.69
600.7	239.69
600.909	224.69
601.118	236.69
601.327	221.69
601.536	223.69
601.745	223.69
601.953	198.69
602.162	228.69
602.371	216.69
602.58	217.69
602.789	223.69
602.997	220.69
603.206	213.69
603.415	198.69
603.623	212.69
603.832	220.69
604.041	204.69
604.249	229.69
604.458	200.69
604.666	206.69
604.875	198.69
605.084	195.69
605.292	202.69
605.501	196.69
605.709	215.69
605.918	206.69
606.126	203.69
606.334	197.69
606.543	210.69
606.751	202.69
606.96	211.69
607.168	209.69
607.376	209.69
607.585	200.69
607.793	211.69
608.001	208.69
608.21	204.69
608.418	213.69
608.626	217.69
608.834	194.69
609.043	209.69
609.251	194.69
609.459	205.69
609.667	212.69
609.875	199.69
610.083	211.69
610.291	202.69
610.499	198.69
610.707	214.69
610.916	209.69
611.124	203.69
611.332	217.69
611.54	200.69
611.748	206.69
611.955	201.69
612.163	209.69
612.371	205.69
612.579	197.69
612.787	200.69
612.995	215.69
613.203	209.69
613.411	205.69
613.618	205.69
613.826	214.69
614.034	197.69
614.242	199.69
614.449	182.69
614.657	189.69
614.865	200.69
615.072	208.69
615.28	212.69
615.488	205.69
615.695	202.69
615.903	208.69
616.111	218.69
616.318	188.69
616.526	199.69
616.733	190.69
616.941	197.69
617.148	186.69
617.356	194.69
617.563	195.69
617.771	210.69
617.978	200.69
618.185	205.69
618.393	184.69
618.6	196.69
618.807	190.69
619.015	216.69
619.222	189.69
619.429	208.69
619.637	204.69
619.844	188.69
620.051	199.69
620.258	202.69
620.466	204.69
620.673	195.69
620.88	197.69
621.087	186.69
621.294	183.69
621.501	187.69
621.708	183.69
621.915	197.69
622.122	182.69
622.329	183.69
622.536	188.69
622.743	196.69
622.95	197.69
623.157	171.69
623.364	192.69
623.571	182.69
623.778	185.69
623.985	181.69
624.192	181.69
624.399	191.69
624.606	177.69
624.812	171.69
625.019	185.69
625.226	188.69
625.433	193.69
625.639	180.69
625.846	192.69
626.053	173.69
626.259	200.69
626.466	191.69
626.673	178.69
626.879	176.69
627.086	163.69
627.293	167.69
627.499	178.69
627.706	169.69
627.912	186.69
628.119	181.69
628.325	167.69
628.532	178.69
628.738	174.69
628.945	166.69
629.151	157.69
629.357	171.69
629.564	181.69
629.77	185.69
629.976	167.69
630.183	175.69
630.389	154.69
630.595	167.69
630.802	161.69
631.008	176.69
631.214	159.69
631.42	152.69
631.627	171.69
631.833	168.69
632.039	163.69
632.245	170.69
632.451	154.69
632.657	180.69
632.863	172.69
633.069	172.69
633.275	173.69
633.481	163.69
633.688	140.69
633.893	171.69
634.099	164.69
634.305	160.69
634.511	149.69
634.717	169.69
634.923	155.69
635.129	157.69
635.335	163.69
635.541	149.69
635.747	169.69
635.952	162.69
636.158	147.69
636.364	163.69
636.57	167.69
636.775	172.69
636.981	177.69
637.187	186.69
637.392	163.69
637.598	166.69
637.804	155.69
638.009	163.69
638.215	160.69
638.421	160.69
638.626	145.69
638.832	154.69
639.037	157.69
639.243	154.69
639.448	163.69
639.654	167.69
639.859	145.69
640.065	136.69
640.27	179.69
640.475	163.69
640.681	143.69
640.886	163.69
641.091	155.69
641.297	136.69
641.502	138.69
641.707	153.69
641.913	148.69
642.118	165.69
642.323	156.69
642.528	149.69
642.733	154.69
642.939	160.69
643.144	150.69
643.349	148.69
643.554	149.69
643.759	149.69
643.964	157.69
644.169	157.69
644.374	159.69
644.579	152.69
644.784	147.69
644.989	155.69
645.194	148.69
645.399	163.69
645.604	150.69
645.809	136.69
646.014	147.69
646.219	149.69
646.423	142.69
646.628	165.69
646.833	155.69
647.038	153.69
647.243	140.69
647.447	136.69
647.652	164.69
647.857	150.69
648.062	153.69
648.266	157.69
648.471	156.69
648.676	152.69
648.88	151.69
649.085	142.69
649.289	163.69
649.494	171.69
649.698	177.69
649.903	164.69
650.107	163.69
650.312	152.69
650.516	140.69
650.721	134.69
650.925	131.69
651.13	136.69
651.334	134.69
651.539	140.69
651.743	143.69
651.947	138.69
652.152	127.69
652.356	146.69
652.56	124.69
652.764	124.69
652.969	121.69
653.173	124.69
653.377	140.69
653.581	138.69
653.785	140.69
653.99	131.69
654.194	116.69
654.398	124.69
654.602	132.69
654.806	119.69
655.01	131.69
655.214	151.69
655.418	120.69
655.622	120.69
655.826	135.69
656.03	103.69
656.234	137.69
656.438	128.69
656.642	131.69
656.846	118.69
657.049	125.69
657.253	120.69
657.457	102.69
657.661	107.69
657.865	111.69
658.068	102.69
658.272	92.69
658.476	113.69
658.68	97.69
658.883	104.69
659.087	93.69
659.291	102.69
659.494	100.69
659.698	101.69
659.901	75.69
660.105	84.69
660.309	93.69
660.512	99.69
660.716	89.69
660.919	98.69
661.123	103.69
661.326	85.69
661.53	99.69
661.733	90.69
661.936	83.69
662.14	99.69
662.343	90.69
662.546	76.69
662.75	88.69
662.953	91.69
663.156	81.69
663.36	72.69
663.563	84.69
663.766	86.69
663.969	72.69
664.173	86.69
664.376	85.69
664.579	74.69
664.782	97.69
664.985	86.69
665.188	67.69
665.391	88.69
665.594	95.69
665.797	93.69
666	74.69
666.203	74.69
666.406	79.69
666.609	85.69
666.812	75.69
667.015	88.69
667.218	97.69
667.421	87.69
667.624	87.69
667.827	76.69
668.03	85.69
668.232	85.69
668.435	90.69
668.638	89.69
668.841	81.69
669.043	80.69
669.246	87.69
669.449	69.69
669.651	69.69
669.854	82.69
670.057	96.69
670.259	70.69
670.462	72.69
670.665	88.69
670.867	79.69
671.07	73.69
671.272	97.69
671.475	88.69
671.677	79.69
671.88	77.69
672.082	65.69
672.284	95.69
672.487	81.69
672.689	83.69
672.892	66.69
