Data from 1984.PennyLincolnUp.Lamp.En5.5.200Scan.071819.P1_HRD10591_16-57-44-968.txt Node
Date: Thu Jul 18 16:57:44 EDT 2019
User: cochatt
Spectrometer: HR+D1059
Trigger mode: 1
Integration Time (sec): 1.000000E-1
Scans to average: 1
Electric dark correction enabled: true
Nonlinearity correction enabled: false
Boxcar width: 0
XAxis mode: Wavelengths
Number of Pixels in Spectrum: 2048
>>>>>Begin Spectral Data<<<<<
223.165	-20.94
223.4	-20.94
223.635	-20.94
223.869	-24.94
224.104	-15.94
224.338	-11.94
224.573	-22.94
224.808	-20.94
225.042	-11.94
225.277	-0.94
225.511	3.06
225.746	1.06
225.98	16.06
226.215	13.06
226.449	23.06
226.683	6.06
226.918	29.06
227.152	39.06
227.387	42.06
227.621	34.06
227.856	36.06
228.09	47.06
228.324	44.06
228.559	41.06
228.793	60.06
229.027	86.06
229.262	96.06
229.496	77.06
229.73	111.06
229.964	109.06
230.199	106.06
230.433	110.06
230.667	107.06
230.901	108.06
231.136	116.06
231.37	100.06
231.604	105.06
231.838	115.06
232.072	112.06
232.306	101.06
232.541	103.06
232.775	92.06
233.009	107.06
233.243	100.06
233.477	117.06
233.711	118.06
233.945	114.06
234.179	121.06
234.413	107.06
234.647	111.06
234.881	99.06
235.115	119.06
235.349	120.06
235.583	127.06
235.817	123.06
236.051	103.06
236.285	121.06
236.519	100.06
236.753	112.06
236.987	128.06
237.221	151.06
237.455	168.06
237.689	139.06
237.922	124.06
238.156	122.06
238.39	116.06
238.624	122.06
238.858	126.06
239.091	121.06
239.325	103.06
239.559	119.06
239.793	122.06
240.027	123.06
240.26	126.06
240.494	145.06
240.728	124.06
240.961	123.06
241.195	131.06
241.429	107.06
241.662	125.06
241.896	121.06
242.13	125.06
242.363	120.06
242.597	128.06
242.83	117.06
243.064	136.06
243.298	118.06
243.531	123.06
243.765	130.06
243.998	137.06
244.232	126.06
244.465	137.06
244.699	119.06
244.932	126.06
245.166	137.06
245.399	149.06
245.633	129.06
245.866	130.06
246.099	151.06
246.333	135.06
246.566	135.06
246.8	128.06
247.033	133.06
247.266	138.06
247.5	148.06
247.733	136.06
247.966	159.06
248.2	162.06
248.433	141.06
248.666	147.06
248.899	149.06
249.133	170.06
249.366	164.06
249.599	169.06
249.832	164.06
250.066	164.06
250.299	159.06
250.532	156.06
250.765	163.06
250.998	180.06
251.231	186.06
251.465	177.06
251.698	178.06
251.931	168.06
252.164	177.06
252.397	181.06
252.63	173.06
252.863	180.06
253.096	182.06
253.329	177.06
253.562	190.06
253.795	178.06
254.028	192.06
254.261	184.06
254.494	205.06
254.727	206.06
254.96	205.06
255.193	206.06
255.426	195.06
255.659	175.06
255.892	192.06
256.124	196.06
256.357	204.06
256.59	210.06
256.823	189.06
257.056	181.06
257.289	166.06
257.521	183.06
257.754	194.06
257.987	189.06
258.22	203.06
258.452	168.06
258.685	167.06
258.918	178.06
259.151	175.06
259.383	179.06
259.616	201.06
259.849	194.06
260.081	198.06
260.314	203.06
260.547	219.06
260.779	193.06
261.012	212.06
261.244	204.06
261.477	215.06
261.71	184.06
261.942	197.06
262.175	193.06
262.407	204.06
262.64	185.06
262.872	172.06
263.105	193.06
263.337	197.06
263.57	189.06
263.802	198.06
264.035	177.06
264.267	186.06
264.499	199.06
264.732	205.06
264.964	197.06
265.197	186.06
265.429	191.06
265.661	203.06
265.894	201.06
266.126	205.06
266.358	201.06
266.591	178.06
266.823	213.06
267.055	200.06
267.287	198.06
267.52	213.06
267.752	197.06
267.984	225.06
268.216	215.06
268.448	217.06
268.681	212.06
268.913	215.06
269.145	218.06
269.377	245.06
269.609	233.06
269.841	225.06
270.073	231.06
270.306	242.06
270.538	253.06
270.77	263.06
271.002	244.06
271.234	237.06
271.466	240.06
271.698	249.06
271.93	264.06
272.162	260.06
272.394	266.06
272.626	260.06
272.858	247.06
273.09	229.06
273.322	244.06
273.553	231.06
273.785	244.06
274.017	229.06
274.249	222.06
274.481	234.06
274.713	244.06
274.945	232.06
275.176	234.06
275.408	228.06
275.64	250.06
275.872	243.06
276.104	223.06
276.335	254.06
276.567	249.06
276.799	249.06
277.031	274.06
277.262	269.06
277.494	261.06
277.726	268.06
277.957	258.06
278.189	242.06
278.421	231.06
278.652	237.06
278.884	254.06
279.115	256.06
279.347	259.06
279.579	252.06
279.81	234.06
280.042	239.06
280.273	244.06
280.505	265.06
280.736	247.06
280.968	233.06
281.199	273.06
281.431	228.06
281.662	246.06
281.894	241.06
282.125	260.06
282.356	271.06
282.588	262.06
282.819	269.06
283.051	272.06
283.282	251.06
283.513	245.06
283.745	263.06
283.976	267.06
284.207	265.06
284.439	255.06
284.67	248.06
284.901	264.06
285.132	269.06
285.364	255.06
285.595	279.06
285.826	258.06
286.057	260.06
286.288	269.06
286.52	249.06
286.751	271.06
286.982	269.06
287.213	259.06
287.444	284.06
287.675	274.06
287.906	288.06
288.138	269.06
288.369	297.06
288.6	279.06
288.831	279.06
289.062	278.06
289.293	280.06
289.524	278.06
289.755	278.06
289.986	288.06
290.217	294.06
290.448	265.06
290.679	278.06
290.91	269.06
291.141	287.06
291.371	281.06
291.602	283.06
291.833	281.06
292.064	279.06
292.295	276.06
292.526	269.06
292.757	285.06
292.987	297.06
293.218	276.06
293.449	296.06
293.68	277.06
293.91	280.06
294.141	278.06
294.372	263.06
294.603	282.06
294.833	274.06
295.064	283.06
295.295	288.06
295.525	300.06
295.756	277.06
295.987	284.06
296.217	311.06
296.448	313.06
296.679	303.06
296.909	271.06
297.14	290.06
297.37	288.06
297.601	292.06
297.831	287.06
298.062	311.06
298.292	277.06
298.523	285.06
298.753	303.06
298.984	282.06
299.214	300.06
299.445	303.06
299.675	307.06
299.905	319.06
300.136	301.06
300.366	298.06
300.597	294.06
300.827	312.06
301.057	315.06
301.288	316.06
301.518	317.06
301.748	312.06
301.979	310.06
302.209	310.06
302.439	310.06
302.669	309.06
302.9	323.06
303.13	294.06
303.36	330.06
303.59	320.06
303.82	322.06
304.051	314.06
304.281	309.06
304.511	316.06
304.741	316.06
304.971	317.06
305.201	316.06
305.431	314.06
305.661	310.06
305.891	322.06
306.121	328.06
306.352	309.06
306.582	317.06
306.812	312.06
307.042	335.06
307.272	311.06
307.502	301.06
307.731	291.06
307.961	311.06
308.191	313.06
308.421	312.06
308.651	308.06
308.881	325.06
309.111	305.06
309.341	333.06
309.571	321.06
309.8	334.06
310.03	310.06
310.26	327.06
310.49	332.06
310.72	323.06
310.949	323.06
311.179	344.06
311.409	356.06
311.639	324.06
311.868	353.06
312.098	343.06
312.328	319.06
312.557	345.06
312.787	329.06
313.017	348.06
313.246	355.06
313.476	331.06
313.706	361.06
313.935	356.06
314.165	355.06
314.394	378.06
314.624	352.06
314.853	351.06
315.083	361.06
315.312	353.06
315.542	354.06
315.771	338.06
316.001	356.06
316.23	351.06
316.46	320.06
316.689	327.06
316.919	332.06
317.148	369.06
317.377	351.06
317.607	332.06
317.836	336.06
318.065	351.06
318.295	325.06
318.524	338.06
318.753	341.06
318.983	348.06
319.212	348.06
319.441	351.06
319.67	343.06
319.9	346.06
320.129	366.06
320.358	337.06
320.587	339.06
320.816	360.06
321.046	317.06
321.275	329.06
321.504	344.06
321.733	369.06
321.962	352.06
322.191	350.06
322.42	347.06
322.649	375.06
322.878	374.06
323.108	381.06
323.337	408.06
323.566	389.06
323.795	407.06
324.024	430.06
324.253	501.06
324.482	637.06
324.71	931.06
324.939	1255.06
325.168	1129.06
325.397	628.06
325.626	499.06
325.855	435.06
326.084	412.06
326.313	401.06
326.542	405.06
326.77	421.06
326.999	486.06
327.228	606.06
327.457	838.06
327.686	986.06
327.914	681.06
328.143	509.06
328.372	448.06
328.6	440.06
328.829	442.06
329.058	456.06
329.287	432.06
329.515	423.06
329.744	421.06
329.972	424.06
330.201	429.06
330.43	441.06
330.658	440.06
330.887	440.06
331.115	433.06
331.344	419.06
331.572	415.06
331.801	433.06
332.03	400.06
332.258	410.06
332.486	423.06
332.715	425.06
332.943	432.06
333.172	424.06
333.4	432.06
333.629	443.06
333.857	468.06
334.085	470.06
334.314	459.06
334.542	435.06
334.771	454.06
334.999	441.06
335.227	436.06
335.455	432.06
335.684	435.06
335.912	425.06
336.14	415.06
336.369	418.06
336.597	427.06
336.825	425.06
337.053	394.06
337.281	402.06
337.51	409.06
337.738	414.06
337.966	410.06
338.194	415.06
338.422	407.06
338.65	386.06
338.878	393.06
339.106	378.06
339.334	379.06
339.562	370.06
339.79	363.06
340.018	377.06
340.246	399.06
340.474	373.06
340.702	379.06
340.93	370.06
341.158	374.06
341.386	395.06
341.614	374.06
341.842	378.06
342.07	377.06
342.298	378.06
342.526	363.06
342.754	377.06
342.981	380.06
343.209	373.06
343.437	385.06
343.665	381.06
343.893	412.06
344.12	426.06
344.348	417.06
344.576	397.06
344.804	395.06
345.031	371.06
345.259	387.06
345.487	388.06
345.714	376.06
345.942	371.06
346.17	378.06
346.397	377.06
346.625	369.06
346.853	352.06
347.08	359.06
347.308	372.06
347.535	363.06
347.763	358.06
347.99	375.06
348.218	372.06
348.445	371.06
348.673	354.06
348.9	374.06
349.128	351.06
349.355	353.06
349.583	350.06
349.81	341.06
350.037	352.06
350.265	335.06
350.492	346.06
350.72	338.06
350.947	364.06
351.174	365.06
351.402	360.06
351.629	339.06
351.856	353.06
352.083	359.06
352.311	348.06
352.538	363.06
352.765	363.06
352.992	367.06
353.22	351.06
353.447	368.06
353.674	373.06
353.901	348.06
354.128	347.06
354.355	329.06
354.583	352.06
354.81	351.06
355.037	335.06
355.264	346.06
355.491	346.06
355.718	333.06
355.945	349.06
356.172	367.06
356.399	345.06
356.626	348.06
356.853	354.06
357.08	336.06
357.307	341.06
357.534	353.06
357.761	333.06
357.988	339.06
358.215	338.06
358.441	330.06
358.668	353.06
358.895	342.06
359.122	341.06
359.349	341.06
359.576	353.06
359.802	362.06
360.029	371.06
360.256	361.06
360.483	358.06
360.709	361.06
360.936	372.06
361.163	343.06
361.39	347.06
361.616	360.06
361.843	347.06
362.07	339.06
362.296	364.06
362.523	358.06
362.749	336.06
362.976	344.06
363.203	340.06
363.429	345.06
363.656	356.06
363.882	340.06
364.109	327.06
364.335	347.06
364.562	353.06
364.788	340.06
365.015	328.06
365.241	351.06
365.468	363.06
365.694	340.06
365.92	359.06
366.147	331.06
366.373	339.06
366.599	336.06
366.826	338.06
367.052	343.06
367.278	358.06
367.505	345.06
367.731	360.06
367.957	341.06
368.184	321.06
368.41	340.06
368.636	361.06
368.862	353.06
369.089	359.06
369.315	320.06
369.541	337.06
369.767	337.06
369.993	338.06
370.219	350.06
370.445	344.06
370.672	352.06
370.898	367.06
371.124	364.06
371.35	355.06
371.576	368.06
371.802	362.06
372.028	375.06
372.254	355.06
372.48	343.06
372.706	362.06
372.932	349.06
373.158	358.06
373.384	350.06
373.61	344.06
373.835	354.06
374.061	341.06
374.287	349.06
374.513	372.06
374.739	367.06
374.965	365.06
375.191	362.06
375.416	365.06
375.642	383.06
375.868	347.06
376.094	365.06
376.319	364.06
376.545	345.06
376.771	344.06
376.997	342.06
377.222	359.06
377.448	351.06
377.674	348.06
377.899	357.06
378.125	364.06
378.35	361.06
378.576	343.06
378.802	356.06
379.027	355.06
379.253	344.06
379.478	345.06
379.704	336.06
379.929	343.06
380.155	369.06
380.38	369.06
380.606	357.06
380.831	352.06
381.057	359.06
381.282	359.06
381.507	339.06
381.733	352.06
381.958	352.06
382.184	371.06
382.409	364.06
382.634	356.06
382.86	340.06
383.085	369.06
383.31	357.06
383.535	383.06
383.761	377.06
383.986	372.06
384.211	391.06
384.436	385.06
384.662	415.06
384.887	391.06
385.112	387.06
385.337	388.06
385.562	377.06
385.787	416.06
386.013	401.06
386.238	380.06
386.463	390.06
386.688	378.06
386.913	408.06
387.138	389.06
387.363	393.06
387.588	370.06
387.813	383.06
388.038	393.06
388.263	389.06
388.488	408.06
388.713	403.06
388.938	416.06
389.163	400.06
389.387	392.06
389.612	401.06
389.837	387.06
390.062	385.06
390.287	418.06
390.512	410.06
390.736	395.06
390.961	392.06
391.186	403.06
391.411	421.06
391.636	428.06
391.86	427.06
392.085	424.06
392.31	447.06
392.534	418.06
392.759	409.06
392.984	410.06
393.208	403.06
393.433	426.06
393.658	398.06
393.882	402.06
394.107	405.06
394.331	397.06
394.556	389.06
394.78	401.06
395.005	418.06
395.229	411.06
395.454	411.06
395.678	431.06
395.903	430.06
396.127	445.06
396.352	425.06
396.576	427.06
396.801	403.06
397.025	419.06
397.249	439.06
397.474	443.06
397.698	423.06
397.922	436.06
398.147	427.06
398.371	466.06
398.595	459.06
398.82	443.06
399.044	489.06
399.268	515.06
399.492	567.06
399.717	618.06
399.941	646.06
400.165	603.06
400.389	579.06
400.613	519.06
400.837	485.06
401.062	476.06
401.286	458.06
401.51	473.06
401.734	472.06
401.958	471.06
402.182	452.06
402.406	483.06
402.63	486.06
402.854	461.06
403.078	477.06
403.302	509.06
403.526	514.06
403.75	502.06
403.974	512.06
404.198	478.06
404.422	503.06
404.645	511.06
404.869	484.06
405.093	518.06
405.317	528.06
405.541	536.06
405.765	493.06
405.988	509.06
406.212	498.06
406.436	510.06
406.66	534.06
406.883	534.06
407.107	540.06
407.331	566.06
407.555	653.06
407.778	630.06
408.002	597.06
408.226	569.06
408.449	553.06
408.673	540.06
408.896	537.06
409.12	565.06
409.344	520.06
409.567	519.06
409.791	540.06
410.014	501.06
410.238	473.06
410.461	482.06
410.685	466.06
410.908	494.06
411.132	505.06
411.355	502.06
411.578	502.06
411.802	474.06
412.025	489.06
412.249	477.06
412.472	489.06
412.695	494.06
412.919	492.06
413.142	478.06
413.365	481.06
413.589	490.06
413.812	462.06
414.035	452.06
414.258	456.06
414.482	482.06
414.705	477.06
414.928	458.06
415.151	479.06
415.374	481.06
415.597	460.06
415.821	450.06
416.044	451.06
416.267	454.06
416.49	449.06
416.713	453.06
416.936	461.06
417.159	475.06
417.382	468.06
417.605	458.06
417.828	456.06
418.051	467.06
418.274	473.06
418.497	446.06
418.72	472.06
418.943	465.06
419.166	471.06
419.389	527.06
419.611	525.06
419.834	483.06
420.057	475.06
420.28	469.06
420.503	465.06
420.726	471.06
420.948	467.06
421.171	483.06
421.394	503.06
421.617	440.06
421.839	467.06
422.062	468.06
422.285	468.06
422.507	538.06
422.73	563.06
422.953	531.06
423.175	488.06
423.398	478.06
423.621	487.06
423.843	512.06
424.066	488.06
424.288	475.06
424.511	507.06
424.733	531.06
424.956	577.06
425.178	547.06
425.401	536.06
425.623	561.06
425.846	499.06
426.068	475.06
426.291	460.06
426.513	472.06
426.735	496.06
426.958	511.06
427.18	543.06
427.402	587.06
427.625	647.06
427.847	562.06
428.069	503.06
428.292	476.06
428.514	457.06
428.736	469.06
428.958	459.06
429.181	439.06
429.403	433.06
429.625	424.06
429.847	449.06
430.069	477.06
430.292	503.06
430.514	459.06
430.736	423.06
430.958	428.06
431.18	411.06
431.402	402.06
431.624	409.06
431.846	439.06
432.068	413.06
432.29	430.06
432.512	421.06
432.734	445.06
432.956	434.06
433.178	425.06
433.4	399.06
433.622	423.06
433.844	423.06
434.066	450.06
434.287	440.06
434.509	446.06
434.731	456.06
434.953	461.06
435.175	468.06
435.397	473.06
435.618	485.06
435.84	489.06
436.062	519.06
436.284	559.06
436.505	490.06
436.727	465.06
436.949	453.06
437.17	460.06
437.392	446.06
437.614	432.06
437.835	450.06
438.057	485.06
438.278	541.06
438.5	539.06
438.721	591.06
438.943	592.06
439.165	490.06
439.386	469.06
439.608	451.06
439.829	464.06
440.05	486.06
440.272	475.06
440.493	483.06
440.715	432.06
440.936	458.06
441.158	437.06
441.379	434.06
441.6	492.06
441.822	489.06
442.043	496.06
442.264	534.06
442.486	556.06
442.707	524.06
442.928	493.06
443.149	489.06
443.371	483.06
443.592	528.06
443.813	576.06
444.034	603.06
444.255	551.06
444.476	517.06
444.698	509.06
444.919	546.06
445.14	641.06
445.361	576.06
445.582	517.06
445.803	515.06
446.024	569.06
446.245	559.06
446.466	538.06
446.687	496.06
446.908	457.06
447.129	448.06
447.35	417.06
447.571	429.06
447.792	411.06
448.013	420.06
448.234	437.06
448.455	478.06
448.675	517.06
448.896	567.06
449.117	506.06
449.338	477.06
449.559	563.06
449.779	621.06
450	517.06
450.221	442.06
450.442	433.06
450.662	408.06
450.883	424.06
451.104	418.06
451.324	407.06
451.545	409.06
451.766	395.06
451.986	392.06
452.207	401.06
452.428	391.06
452.648	373.06
452.869	385.06
453.089	396.06
453.31	383.06
453.53	402.06
453.751	383.06
453.971	359.06
454.192	387.06
454.412	387.06
454.633	381.06
454.853	384.06
455.073	390.06
455.294	384.06
455.514	415.06
455.734	428.06
455.955	394.06
456.175	374.06
456.395	365.06
456.616	372.06
456.836	356.06
457.056	342.06
457.276	379.06
457.497	374.06
457.717	356.06
457.937	377.06
458.157	357.06
458.377	376.06
458.598	388.06
458.818	423.06
459.038	447.06
459.258	489.06
459.478	456.06
459.698	432.06
459.918	434.06
460.138	438.06
460.358	463.06
460.578	428.06
460.798	457.06
461.018	456.06
461.238	453.06
461.458	457.06
461.678	453.06
461.898	466.06
462.118	480.06
462.338	483.06
462.558	486.06
462.777	513.06
462.997	533.06
463.217	550.06
463.437	527.06
463.657	525.06
463.876	490.06
464.096	499.06
464.316	520.06
464.536	509.06
464.755	513.06
464.975	487.06
465.195	491.06
465.414	512.06
465.634	458.06
465.854	427.06
466.073	429.06
466.293	422.06
466.512	412.06
466.732	395.06
466.951	391.06
467.171	390.06
467.391	389.06
467.61	410.06
467.829	396.06
468.049	408.06
468.268	386.06
468.488	401.06
468.707	405.06
468.927	405.06
469.146	383.06
469.365	397.06
469.585	385.06
469.804	391.06
470.023	409.06
470.243	406.06
470.462	401.06
470.681	424.06
470.901	450.06
471.12	407.06
471.339	416.06
471.558	417.06
471.777	398.06
471.997	401.06
472.216	407.06
472.435	409.06
472.654	377.06
472.873	382.06
473.092	390.06
473.311	391.06
473.53	398.06
473.749	397.06
473.968	423.06
474.187	460.06
474.406	455.06
474.625	439.06
474.844	414.06
475.063	395.06
475.282	401.06
475.501	392.06
475.72	399.06
475.939	422.06
476.158	398.06
476.377	415.06
476.596	410.06
476.814	404.06
477.033	417.06
477.252	420.06
477.471	415.06
477.69	431.06
477.908	447.06
478.127	443.06
478.346	451.06
478.564	462.06
478.783	477.06
479.002	467.06
479.22	463.06
479.439	464.06
479.658	472.06
479.876	487.06
480.095	504.06
480.313	511.06
480.532	513.06
480.751	511.06
480.969	500.06
481.188	504.06
481.406	484.06
481.624	462.06
481.843	462.06
482.061	477.06
482.28	445.06
482.498	448.06
482.717	445.06
482.935	440.06
483.153	441.06
483.372	448.06
483.59	466.06
483.808	463.06
484.027	449.06
484.245	452.06
484.463	447.06
484.681	458.06
484.9	471.06
485.118	450.06
485.336	465.06
485.554	472.06
485.772	452.06
485.99	463.06
486.209	480.06
486.427	463.06
486.645	474.06
486.863	480.06
487.081	480.06
487.299	460.06
487.517	455.06
487.735	471.06
487.953	480.06
488.171	477.06
488.389	465.06
488.607	489.06
488.825	472.06
489.043	469.06
489.261	480.06
489.479	481.06
489.696	457.06
489.914	475.06
490.132	495.06
490.35	481.06
490.568	472.06
490.786	480.06
491.003	478.06
491.221	523.06
491.439	497.06
491.657	507.06
491.874	528.06
492.092	500.06
492.31	509.06
492.527	512.06
492.745	542.06
492.963	524.06
493.18	506.06
493.398	512.06
493.615	513.06
493.833	543.06
494.05	526.06
494.268	542.06
494.485	548.06
494.703	551.06
494.92	548.06
495.138	543.06
495.355	540.06
495.573	541.06
495.79	543.06
496.008	540.06
496.225	529.06
496.442	545.06
496.66	543.06
496.877	570.06
497.094	572.06
497.312	587.06
497.529	573.06
497.746	572.06
497.963	575.06
498.181	629.06
498.398	634.06
498.615	644.06
498.832	674.06
499.049	711.06
499.267	739.06
499.484	769.06
499.701	841.06
499.918	888.06
500.135	968.06
500.352	1036.06
500.569	1090.06
500.786	1073.06
501.003	1042.06
501.22	960.06
501.437	895.06
501.654	837.06
501.871	816.06
502.088	739.06
502.305	733.06
502.522	702.06
502.739	663.06
502.956	642.06
503.172	621.06
503.389	628.06
503.606	619.06
503.823	582.06
504.04	567.06
504.256	568.06
504.473	594.06
504.69	577.06
504.907	599.06
505.123	554.06
505.34	549.06
505.557	542.06
505.773	532.06
505.99	492.06
506.207	521.06
506.423	505.06
506.64	490.06
506.856	509.06
507.073	488.06
507.289	489.06
507.506	494.06
507.722	464.06
507.939	487.06
508.155	485.06
508.372	489.06
508.588	459.06
508.805	453.06
509.021	475.06
509.238	480.06
509.454	478.06
509.67	476.06
509.887	474.06
510.103	491.06
510.319	479.06
510.536	535.06
510.752	746.06
510.968	628.06
511.184	468.06
511.401	463.06
511.617	464.06
511.833	464.06
512.049	429.06
512.265	434.06
512.481	448.06
512.698	437.06
512.914	445.06
513.13	444.06
513.346	449.06
513.562	443.06
513.778	449.06
513.994	444.06
514.21	447.06
514.426	476.06
514.642	457.06
514.858	483.06
515.074	505.06
515.29	557.06
515.506	716.06
515.721	633.06
515.937	514.06
516.153	490.06
516.369	492.06
516.585	485.06
516.801	504.06
517.016	523.06
517.232	522.06
517.448	546.06
517.664	530.06
517.879	559.06
518.095	531.06
518.311	547.06
518.527	508.06
518.742	516.06
518.958	513.06
519.173	513.06
519.389	479.06
519.605	479.06
519.82	478.06
520.036	473.06
520.251	474.06
520.467	465.06
520.682	492.06
520.898	484.06
521.113	485.06
521.329	487.06
521.544	517.06
521.76	584.06
521.975	867.06
522.19	865.06
522.406	553.06
522.621	472.06
522.836	428.06
523.052	442.06
523.267	425.06
523.482	399.06
523.698	420.06
523.913	415.06
524.128	413.06
524.343	405.06
524.559	406.06
524.774	406.06
524.989	397.06
525.204	383.06
525.419	416.06
525.634	389.06
525.849	402.06
526.064	423.06
526.28	390.06
526.495	382.06
526.71	381.06
526.925	397.06
527.14	387.06
527.355	409.06
527.57	375.06
527.785	394.06
527.999	391.06
528.214	391.06
528.429	375.06
528.644	408.06
528.859	401.06
529.074	400.06
529.289	424.06
529.503	421.06
529.718	417.06
529.933	398.06
530.148	398.06
530.363	401.06
530.577	400.06
530.792	368.06
531.007	367.06
531.221	379.06
531.436	390.06
531.651	395.06
531.865	395.06
532.08	376.06
532.295	382.06
532.509	394.06
532.724	380.06
532.938	387.06
533.153	371.06
533.367	385.06
533.582	393.06
533.796	379.06
534.011	371.06
534.225	377.06
534.44	362.06
534.654	377.06
534.868	379.06
535.083	376.06
535.297	379.06
535.511	372.06
535.726	390.06
535.94	359.06
536.154	379.06
536.369	354.06
536.583	367.06
536.797	356.06
537.011	348.06
537.225	342.06
537.44	355.06
537.654	361.06
537.868	355.06
538.082	354.06
538.296	378.06
538.51	357.06
538.724	363.06
538.938	356.06
539.153	371.06
539.367	377.06
539.581	373.06
539.795	359.06
540.009	381.06
540.222	343.06
540.436	349.06
540.65	348.06
540.864	376.06
541.078	362.06
541.292	365.06
541.506	365.06
541.72	365.06
541.934	365.06
542.147	372.06
542.361	366.06
542.575	347.06
542.789	364.06
543.002	361.06
543.216	372.06
543.43	359.06
543.644	386.06
543.857	373.06
544.071	372.06
544.285	348.06
544.498	364.06
544.712	364.06
544.925	359.06
545.139	356.06
545.352	358.06
545.566	343.06
545.779	360.06
545.993	362.06
546.206	361.06
546.42	392.06
546.633	359.06
546.847	355.06
547.06	365.06
547.274	370.06
547.487	399.06
547.7	358.06
547.914	352.06
548.127	370.06
548.34	371.06
548.554	349.06
548.767	351.06
548.98	362.06
549.193	364.06
549.407	367.06
549.62	361.06
549.833	380.06
550.046	365.06
550.259	355.06
550.473	354.06
550.686	374.06
550.899	364.06
551.112	358.06
551.325	334.06
551.538	352.06
551.751	357.06
551.964	362.06
552.177	373.06
552.39	377.06
552.603	380.06
552.816	358.06
553.029	362.06
553.242	369.06
553.455	375.06
553.667	391.06
553.88	392.06
554.093	372.06
554.306	362.06
554.519	360.06
554.732	352.06
554.944	369.06
555.157	343.06
555.37	333.06
555.583	338.06
555.795	319.06
556.008	344.06
556.221	340.06
556.433	314.06
556.646	342.06
556.859	338.06
557.071	323.06
557.284	328.06
557.496	318.06
557.709	312.06
557.921	337.06
558.134	323.06
558.346	325.06
558.559	316.06
558.771	319.06
558.984	305.06
559.196	311.06
559.409	302.06
559.621	308.06
559.833	312.06
560.046	297.06
560.258	323.06
560.47	310.06
560.683	319.06
560.895	320.06
561.107	309.06
561.32	313.06
561.532	324.06
561.744	332.06
561.956	312.06
562.168	314.06
562.381	307.06
562.593	322.06
562.805	318.06
563.017	335.06
563.229	301.06
563.441	304.06
563.653	326.06
563.865	331.06
564.077	306.06
564.289	327.06
564.501	321.06
564.713	340.06
564.925	363.06
565.137	336.06
565.349	361.06
565.561	341.06
565.773	367.06
565.985	373.06
566.197	380.06
566.408	386.06
566.62	409.06
566.832	437.06
567.044	449.06
567.255	467.06
567.467	471.06
567.679	499.06
567.891	493.06
568.102	490.06
568.314	496.06
568.526	475.06
568.737	418.06
568.949	436.06
569.161	392.06
569.372	377.06
569.584	358.06
569.795	337.06
570.007	345.06
570.218	372.06
570.43	344.06
570.641	335.06
570.853	343.06
571.064	351.06
571.276	315.06
571.487	328.06
571.698	316.06
571.91	291.06
572.121	303.06
572.333	301.06
572.544	303.06
572.755	292.06
572.966	300.06
573.178	302.06
573.389	287.06
573.6	309.06
573.811	282.06
574.023	276.06
574.234	288.06
574.445	290.06
574.656	275.06
574.867	273.06
575.078	268.06
575.289	288.06
575.501	281.06
575.712	279.06
575.923	266.06
576.134	271.06
576.345	261.06
576.556	281.06
576.767	279.06
576.978	272.06
577.188	267.06
577.399	255.06
577.61	271.06
577.821	265.06
578.032	279.06
578.243	316.06
578.454	390.06
578.665	293.06
578.875	257.06
579.086	254.06
579.297	269.06
579.508	273.06
579.718	250.06
579.929	249.06
580.14	253.06
580.35	251.06
580.561	257.06
580.772	256.06
580.982	255.06
581.193	253.06
581.403	283.06
581.614	250.06
581.825	239.06
582.035	242.06
582.246	248.06
582.456	257.06
582.667	252.06
582.877	248.06
583.087	263.06
583.298	232.06
583.508	259.06
583.719	249.06
583.929	243.06
584.139	257.06
584.35	241.06
584.56	253.06
584.77	256.06
584.981	234.06
585.191	261.06
585.401	263.06
585.611	244.06
585.821	257.06
586.032	241.06
586.242	243.06
586.452	237.06
586.662	243.06
586.872	239.06
587.082	241.06
587.292	255.06
587.502	258.06
587.713	249.06
587.923	241.06
588.133	263.06
588.343	243.06
588.553	234.06
588.762	250.06
588.972	246.06
589.182	283.06
589.392	281.06
589.602	268.06
589.812	269.06
590.022	257.06
590.232	243.06
590.441	239.06
590.651	256.06
590.861	237.06
591.071	254.06
591.281	249.06
591.49	244.06
591.7	258.06
591.91	266.06
592.119	271.06
592.329	267.06
592.539	294.06
592.748	287.06
592.958	275.06
593.167	294.06
593.377	277.06
593.587	292.06
593.796	304.06
594.006	300.06
594.215	280.06
594.424	283.06
594.634	279.06
594.843	287.06
595.053	268.06
595.262	256.06
595.472	277.06
595.681	257.06
595.89	246.06
596.1	253.06
596.309	224.06
596.518	260.06
596.727	253.06
596.937	222.06
597.146	212.06
597.355	230.06
597.564	239.06
597.774	232.06
597.983	225.06
598.192	211.06
598.401	223.06
598.61	205.06
598.819	227.06
599.028	216.06
599.237	214.06
599.446	226.06
599.655	222.06
599.864	218.06
600.073	209.06
600.282	233.06
600.491	221.06
600.7	225.06
600.909	220.06
601.118	200.06
601.327	205.06
601.536	213.06
601.745	209.06
601.953	188.06
602.162	198.06
602.371	186.06
602.58	225.06
602.789	211.06
602.997	205.06
603.206	212.06
603.415	230.06
603.623	209.06
603.832	205.06
604.041	207.06
604.249	202.06
604.458	204.06
604.666	213.06
604.875	210.06
605.084	218.06
605.292	207.06
605.501	191.06
605.709	202.06
605.918	191.06
606.126	193.06
606.334	213.06
606.543	199.06
606.751	195.06
606.96	204.06
607.168	216.06
607.376	199.06
607.585	186.06
607.793	191.06
608.001	194.06
608.21	197.06
608.418	201.06
608.626	196.06
608.834	197.06
609.043	198.06
609.251	206.06
609.459	216.06
609.667	208.06
609.875	199.06
610.083	197.06
610.291	189.06
610.499	208.06
610.707	201.06
610.916	205.06
611.124	209.06
611.332	200.06
611.54	210.06
611.748	223.06
611.955	205.06
612.163	210.06
612.371	188.06
612.579	190.06
612.787	198.06
612.995	210.06
613.203	219.06
613.411	209.06
613.618	188.06
613.826	186.06
614.034	185.06
614.242	194.06
614.449	200.06
614.657	202.06
614.865	219.06
615.072	191.06
615.28	205.06
615.488	181.06
615.695	208.06
615.903	190.06
616.111	205.06
616.318	192.06
616.526	217.06
616.733	205.06
616.941	200.06
617.148	221.06
617.356	203.06
617.563	197.06
617.771	186.06
617.978	211.06
618.185	209.06
618.393	192.06
618.6	189.06
618.807	209.06
619.015	207.06
619.222	192.06
619.429	205.06
619.637	201.06
619.844	181.06
620.051	200.06
620.258	194.06
620.466	209.06
620.673	186.06
620.88	182.06
621.087	196.06
621.294	176.06
621.501	198.06
621.708	187.06
621.915	172.06
622.122	186.06
622.329	185.06
622.536	185.06
622.743	187.06
622.95	176.06
623.157	185.06
623.364	159.06
623.571	179.06
623.778	192.06
623.985	187.06
624.192	180.06
624.399	185.06
624.606	197.06
624.812	165.06
625.019	203.06
625.226	183.06
625.433	182.06
625.639	179.06
625.846	164.06
626.053	183.06
626.259	172.06
626.466	186.06
626.673	147.06
626.879	177.06
627.086	183.06
627.293	176.06
627.499	176.06
627.706	171.06
627.912	181.06
628.119	166.06
628.325	177.06
628.532	168.06
628.738	174.06
628.945	176.06
629.151	192.06
629.357	167.06
629.564	186.06
629.77	157.06
629.976	187.06
630.183	171.06
630.389	170.06
630.595	152.06
630.802	169.06
631.008	165.06
631.214	170.06
631.42	172.06
631.627	170.06
631.833	172.06
632.039	164.06
632.245	158.06
632.451	171.06
632.657	164.06
632.863	165.06
633.069	172.06
633.275	174.06
633.481	159.06
633.688	150.06
633.893	158.06
634.099	168.06
634.305	162.06
634.511	148.06
634.717	161.06
634.923	149.06
635.129	158.06
635.335	175.06
635.541	169.06
635.747	159.06
635.952	139.06
636.158	156.06
636.364	147.06
636.57	160.06
636.775	155.06
636.981	155.06
637.187	145.06
637.392	154.06
637.598	167.06
637.804	170.06
638.009	164.06
638.215	165.06
638.421	156.06
638.626	154.06
638.832	148.06
639.037	147.06
639.243	148.06
639.448	157.06
639.654	152.06
639.859	147.06
640.065	143.06
640.27	149.06
640.475	142.06
640.681	162.06
640.886	151.06
641.091	136.06
641.297	141.06
641.502	140.06
641.707	158.06
641.913	141.06
642.118	163.06
642.323	149.06
642.528	157.06
642.733	140.06
642.939	139.06
643.144	146.06
643.349	149.06
643.554	147.06
643.759	147.06
643.964	154.06
644.169	159.06
644.374	128.06
644.579	139.06
644.784	135.06
644.989	145.06
645.194	150.06
645.399	151.06
645.604	139.06
645.809	143.06
646.014	153.06
646.219	139.06
646.423	143.06
646.628	159.06
646.833	152.06
647.038	146.06
647.243	160.06
647.447	142.06
647.652	160.06
647.857	159.06
648.062	156.06
648.266	159.06
648.471	154.06
648.676	152.06
648.88	165.06
649.085	163.06
649.289	145.06
649.494	156.06
649.698	172.06
649.903	138.06
650.107	141.06
650.312	146.06
650.516	146.06
650.721	143.06
650.925	133.06
651.13	129.06
651.334	132.06
651.539	136.06
651.743	135.06
651.947	128.06
652.152	127.06
652.356	139.06
652.56	137.06
652.764	128.06
652.969	134.06
653.173	127.06
653.377	136.06
653.581	126.06
653.785	136.06
653.99	122.06
654.194	113.06
654.398	137.06
654.602	133.06
654.806	136.06
655.01	147.06
655.214	135.06
655.418	137.06
655.622	122.06
655.826	141.06
656.03	134.06
656.234	130.06
656.438	125.06
656.642	122.06
656.846	123.06
657.049	118.06
657.253	121.06
657.457	116.06
657.661	120.06
657.865	111.06
658.068	121.06
658.272	101.06
658.476	102.06
658.68	88.06
658.883	103.06
659.087	112.06
659.291	107.06
659.494	97.06
659.698	98.06
659.901	86.06
660.105	96.06
660.309	79.06
660.512	102.06
660.716	94.06
660.919	86.06
661.123	89.06
661.326	86.06
661.53	102.06
661.733	84.06
661.936	80.06
662.14	94.06
662.343	74.06
662.546	89.06
662.75	81.06
662.953	93.06
663.156	81.06
663.36	84.06
663.563	80.06
663.766	84.06
663.969	75.06
664.173	80.06
664.376	80.06
664.579	83.06
664.782	72.06
664.985	85.06
665.188	93.06
665.391	79.06
665.594	84.06
665.797	89.06
666	92.06
666.203	81.06
666.406	79.06
666.609	88.06
666.812	75.06
667.015	88.06
667.218	80.06
667.421	89.06
667.624	79.06
667.827	92.06
668.03	90.06
668.232	95.06
668.435	76.06
668.638	84.06
668.841	92.06
669.043	69.06
669.246	85.06
669.449	89.06
669.651	82.06
669.854	67.06
670.057	81.06
670.259	77.06
670.462	85.06
670.665	76.06
670.867	80.06
671.07	93.06
671.272	83.06
671.475	89.06
671.677	76.06
671.88	78.06
672.082	97.06
672.284	87.06
672.487	88.06
672.689	74.06
672.892	80.06
