Data from 1984.PennyLincolnUp.Lamp.En5.5.200Scan.071819.P1_HRD10591_17-00-07-969.txt Node
Date: Thu Jul 18 17:00:07 EDT 2019
User: cochatt
Spectrometer: HR+D1059
Trigger mode: 1
Integration Time (sec): 1.000000E-1
Scans to average: 1
Electric dark correction enabled: true
Nonlinearity correction enabled: false
Boxcar width: 0
XAxis mode: Wavelengths
Number of Pixels in Spectrum: 2048
>>>>>Begin Spectral Data<<<<<
223.165	-11.25
223.4	-11.25
223.635	-11.25
223.869	-20.25
224.104	-38.25
224.338	-9.25
224.573	-12.25
224.808	-7.25
225.042	-14.25
225.277	2.75
225.511	-5.25
225.746	-1.25
225.98	21.75
226.215	4.75
226.449	16.75
226.683	26.75
226.918	18.75
227.152	27.75
227.387	42.75
227.621	47.75
227.856	37.75
228.09	58.75
228.324	43.75
228.559	54.75
228.793	65.75
229.027	89.75
229.262	93.75
229.496	93.75
229.73	102.75
229.964	133.75
230.199	123.75
230.433	88.75
230.667	106.75
230.901	86.75
231.136	103.75
231.37	108.75
231.604	108.75
231.838	108.75
232.072	105.75
232.306	86.75
232.541	115.75
232.775	105.75
233.009	107.75
233.243	124.75
233.477	96.75
233.711	107.75
233.945	105.75
234.179	102.75
234.413	100.75
234.647	104.75
234.881	117.75
235.115	102.75
235.349	108.75
235.583	103.75
235.817	121.75
236.051	120.75
236.285	110.75
236.519	122.75
236.753	123.75
236.987	142.75
237.221	143.75
237.455	180.75
237.689	142.75
237.922	123.75
238.156	131.75
238.39	125.75
238.624	130.75
238.858	132.75
239.091	116.75
239.325	117.75
239.559	119.75
239.793	125.75
240.027	125.75
240.26	128.75
240.494	125.75
240.728	128.75
240.961	121.75
241.195	140.75
241.429	138.75
241.662	126.75
241.896	142.75
242.13	137.75
242.363	133.75
242.597	126.75
242.83	125.75
243.064	119.75
243.298	151.75
243.531	134.75
243.765	129.75
243.998	139.75
244.232	136.75
244.465	153.75
244.699	139.75
244.932	137.75
245.166	132.75
245.399	142.75
245.633	136.75
245.866	144.75
246.099	135.75
246.333	146.75
246.566	141.75
246.8	143.75
247.033	129.75
247.266	137.75
247.5	144.75
247.733	159.75
247.966	157.75
248.2	162.75
248.433	152.75
248.666	165.75
248.899	163.75
249.133	170.75
249.366	189.75
249.599	167.75
249.832	175.75
250.066	168.75
250.299	190.75
250.532	186.75
250.765	230.75
250.998	218.75
251.231	190.75
251.465	203.75
251.698	197.75
251.931	168.75
252.164	193.75
252.397	196.75
252.63	187.75
252.863	177.75
253.096	189.75
253.329	205.75
253.562	206.75
253.795	177.75
254.028	197.75
254.261	182.75
254.494	200.75
254.727	202.75
254.96	224.75
255.193	226.75
255.426	212.75
255.659	226.75
255.892	237.75
256.124	277.75
256.357	293.75
256.59	247.75
256.823	219.75
257.056	225.75
257.289	195.75
257.521	188.75
257.754	191.75
257.987	204.75
258.22	200.75
258.452	199.75
258.685	217.75
258.918	189.75
259.151	184.75
259.383	191.75
259.616	208.75
259.849	193.75
260.081	209.75
260.314	212.75
260.547	205.75
260.779	220.75
261.012	228.75
261.244	191.75
261.477	214.75
261.71	202.75
261.942	197.75
262.175	207.75
262.407	228.75
262.64	203.75
262.872	206.75
263.105	199.75
263.337	215.75
263.57	197.75
263.802	197.75
264.035	210.75
264.267	204.75
264.499	205.75
264.732	194.75
264.964	207.75
265.197	196.75
265.429	198.75
265.661	203.75
265.894	210.75
266.126	196.75
266.358	199.75
266.591	221.75
266.823	190.75
267.055	222.75
267.287	199.75
267.52	193.75
267.752	212.75
267.984	207.75
268.216	201.75
268.448	215.75
268.681	226.75
268.913	226.75
269.145	253.75
269.377	261.75
269.609	242.75
269.841	244.75
270.073	239.75
270.306	258.75
270.538	261.75
270.77	269.75
271.002	258.75
271.234	254.75
271.466	251.75
271.698	265.75
271.93	274.75
272.162	287.75
272.394	266.75
272.626	263.75
272.858	249.75
273.09	237.75
273.322	257.75
273.553	251.75
273.785	250.75
274.017	244.75
274.249	253.75
274.481	258.75
274.713	236.75
274.945	242.75
275.176	237.75
275.408	255.75
275.64	252.75
275.872	251.75
276.104	253.75
276.335	247.75
276.567	245.75
276.799	290.75
277.031	291.75
277.262	269.75
277.494	293.75
277.726	289.75
277.957	271.75
278.189	249.75
278.421	261.75
278.652	268.75
278.884	264.75
279.115	276.75
279.347	250.75
279.579	263.75
279.81	249.75
280.042	279.75
280.273	277.75
280.505	274.75
280.736	253.75
280.968	257.75
281.199	265.75
281.431	264.75
281.662	251.75
281.894	265.75
282.125	268.75
282.356	285.75
282.588	298.75
282.819	295.75
283.051	259.75
283.282	273.75
283.513	281.75
283.745	274.75
283.976	269.75
284.207	278.75
284.439	273.75
284.67	285.75
284.901	262.75
285.132	271.75
285.364	275.75
285.595	273.75
285.826	285.75
286.057	277.75
286.288	269.75
286.52	277.75
286.751	282.75
286.982	277.75
287.213	269.75
287.444	286.75
287.675	282.75
287.906	286.75
288.138	291.75
288.369	298.75
288.6	292.75
288.831	285.75
289.062	273.75
289.293	276.75
289.524	290.75
289.755	258.75
289.986	300.75
290.217	296.75
290.448	297.75
290.679	288.75
290.91	301.75
291.141	291.75
291.371	291.75
291.602	296.75
291.833	289.75
292.064	287.75
292.295	285.75
292.526	298.75
292.757	285.75
292.987	279.75
293.218	276.75
293.449	294.75
293.68	278.75
293.91	296.75
294.141	294.75
294.372	293.75
294.603	292.75
294.833	292.75
295.064	290.75
295.295	271.75
295.525	285.75
295.756	310.75
295.987	302.75
296.217	329.75
296.448	319.75
296.679	301.75
296.909	315.75
297.14	288.75
297.37	307.75
297.601	293.75
297.831	292.75
298.062	310.75
298.292	313.75
298.523	323.75
298.753	302.75
298.984	291.75
299.214	314.75
299.445	317.75
299.675	307.75
299.905	323.75
300.136	298.75
300.366	314.75
300.597	311.75
300.827	319.75
301.057	325.75
301.288	323.75
301.518	325.75
301.748	314.75
301.979	337.75
302.209	311.75
302.439	331.75
302.669	328.75
302.9	338.75
303.13	323.75
303.36	317.75
303.59	326.75
303.82	333.75
304.051	334.75
304.281	321.75
304.511	318.75
304.741	315.75
304.971	318.75
305.201	333.75
305.431	323.75
305.661	323.75
305.891	335.75
306.121	334.75
306.352	333.75
306.582	329.75
306.812	331.75
307.042	314.75
307.272	319.75
307.502	325.75
307.731	340.75
307.961	314.75
308.191	322.75
308.421	313.75
308.651	312.75
308.881	340.75
309.111	332.75
309.341	322.75
309.571	321.75
309.8	346.75
310.03	335.75
310.26	331.75
310.49	358.75
310.72	350.75
310.949	367.75
311.179	358.75
311.409	351.75
311.639	340.75
311.868	367.75
312.098	349.75
312.328	346.75
312.557	350.75
312.787	362.75
313.017	362.75
313.246	349.75
313.476	324.75
313.706	358.75
313.935	360.75
314.165	352.75
314.394	386.75
314.624	358.75
314.853	351.75
315.083	373.75
315.312	364.75
315.542	339.75
315.771	362.75
316.001	369.75
316.23	372.75
316.46	352.75
316.689	372.75
316.919	361.75
317.148	377.75
317.377	381.75
317.607	356.75
317.836	361.75
318.065	365.75
318.295	370.75
318.524	345.75
318.753	338.75
318.983	355.75
319.212	357.75
319.441	374.75
319.67	376.75
319.9	365.75
320.129	356.75
320.358	362.75
320.587	370.75
320.816	356.75
321.046	381.75
321.275	376.75
321.504	381.75
321.733	380.75
321.962	401.75
322.191	378.75
322.42	391.75
322.649	386.75
322.878	409.75
323.108	415.75
323.337	406.75
323.566	420.75
323.795	427.75
324.024	502.75
324.253	563.75
324.482	745.75
324.71	1091.75
324.939	1488.75
325.168	1283.75
325.397	723.75
325.626	555.75
325.855	491.75
326.084	436.75
326.313	455.75
326.542	454.75
326.77	500.75
326.999	542.75
327.228	741.75
327.457	1005.75
327.686	1173.75
327.914	829.75
328.143	627.75
328.372	610.75
328.6	565.75
328.829	516.75
329.058	509.75
329.287	519.75
329.515	514.75
329.744	518.75
329.972	559.75
330.201	620.75
330.43	693.75
330.658	647.75
330.887	618.75
331.115	550.75
331.344	499.75
331.572	488.75
331.801	476.75
332.03	483.75
332.258	453.75
332.486	471.75
332.715	472.75
332.943	469.75
333.172	480.75
333.4	505.75
333.629	530.75
333.857	554.75
334.085	599.75
334.314	693.75
334.542	779.75
334.771	837.75
334.999	659.75
335.227	557.75
335.455	526.75
335.684	491.75
335.912	473.75
336.14	458.75
336.369	451.75
336.597	471.75
336.825	443.75
337.053	427.75
337.281	439.75
337.51	425.75
337.738	434.75
337.966	436.75
338.194	427.75
338.422	405.75
338.65	426.75
338.878	419.75
339.106	430.75
339.334	426.75
339.562	434.75
339.79	396.75
340.018	405.75
340.246	406.75
340.474	412.75
340.702	403.75
340.93	390.75
341.158	397.75
341.386	397.75
341.614	405.75
341.842	405.75
342.07	408.75
342.298	394.75
342.526	405.75
342.754	387.75
342.981	382.75
343.209	396.75
343.437	413.75
343.665	416.75
343.893	438.75
344.12	455.75
344.348	434.75
344.576	428.75
344.804	409.75
345.031	419.75
345.259	417.75
345.487	399.75
345.714	389.75
345.942	373.75
346.17	376.75
346.397	376.75
346.625	380.75
346.853	382.75
347.08	376.75
347.308	363.75
347.535	398.75
347.763	387.75
347.99	369.75
348.218	380.75
348.445	381.75
348.673	383.75
348.9	395.75
349.128	372.75
349.355	381.75
349.583	374.75
349.81	364.75
350.037	379.75
350.265	379.75
350.492	378.75
350.72	362.75
350.947	377.75
351.174	383.75
351.402	374.75
351.629	383.75
351.856	385.75
352.083	367.75
352.311	379.75
352.538	406.75
352.765	377.75
352.992	389.75
353.22	382.75
353.447	371.75
353.674	356.75
353.901	364.75
354.128	356.75
354.355	360.75
354.583	343.75
354.81	360.75
355.037	378.75
355.264	353.75
355.491	359.75
355.718	362.75
355.945	355.75
356.172	351.75
356.399	365.75
356.626	358.75
356.853	369.75
357.08	360.75
357.307	354.75
357.534	366.75
357.761	363.75
357.988	347.75
358.215	364.75
358.441	370.75
358.668	370.75
358.895	383.75
359.122	372.75
359.349	373.75
359.576	378.75
359.802	363.75
360.029	403.75
360.256	411.75
360.483	388.75
360.709	370.75
360.936	377.75
361.163	377.75
361.39	370.75
361.616	366.75
361.843	372.75
362.07	371.75
362.296	390.75
362.523	381.75
362.749	351.75
362.976	362.75
363.203	367.75
363.429	357.75
363.656	366.75
363.882	365.75
364.109	358.75
364.335	350.75
364.562	362.75
364.788	361.75
365.015	357.75
365.241	353.75
365.468	371.75
365.694	362.75
365.92	375.75
366.147	365.75
366.373	352.75
366.599	352.75
366.826	345.75
367.052	355.75
367.278	363.75
367.505	362.75
367.731	365.75
367.957	364.75
368.184	346.75
368.41	365.75
368.636	378.75
368.862	375.75
369.089	366.75
369.315	376.75
369.541	369.75
369.767	371.75
369.993	346.75
370.219	380.75
370.445	367.75
370.672	375.75
370.898	375.75
371.124	363.75
371.35	365.75
371.576	362.75
371.802	373.75
372.028	389.75
372.254	372.75
372.48	355.75
372.706	381.75
372.932	375.75
373.158	369.75
373.384	364.75
373.61	371.75
373.835	366.75
374.061	371.75
374.287	364.75
374.513	395.75
374.739	383.75
374.965	379.75
375.191	371.75
375.416	370.75
375.642	372.75
375.868	388.75
376.094	379.75
376.319	353.75
376.545	369.75
376.771	359.75
376.997	353.75
377.222	370.75
377.448	358.75
377.674	361.75
377.899	356.75
378.125	366.75
378.35	360.75
378.576	367.75
378.802	371.75
379.027	356.75
379.253	359.75
379.478	367.75
379.704	347.75
379.929	364.75
380.155	366.75
380.38	369.75
380.606	358.75
380.831	369.75
381.057	362.75
381.282	357.75
381.507	343.75
381.733	365.75
381.958	366.75
382.184	378.75
382.409	383.75
382.634	375.75
382.86	388.75
383.085	373.75
383.31	378.75
383.535	379.75
383.761	395.75
383.986	384.75
384.211	388.75
384.436	406.75
384.662	397.75
384.887	416.75
385.112	407.75
385.337	426.75
385.562	397.75
385.787	417.75
386.013	395.75
386.238	409.75
386.463	424.75
386.688	424.75
386.913	410.75
387.138	407.75
387.363	429.75
387.588	411.75
387.813	410.75
388.038	415.75
388.263	406.75
388.488	407.75
388.713	423.75
388.938	440.75
389.163	409.75
389.387	395.75
389.612	421.75
389.837	408.75
390.062	409.75
390.287	401.75
390.512	390.75
390.736	409.75
390.961	432.75
391.186	424.75
391.411	422.75
391.636	419.75
391.86	425.75
392.085	438.75
392.31	445.75
392.534	433.75
392.759	429.75
392.984	418.75
393.208	413.75
393.433	412.75
393.658	414.75
393.882	404.75
394.107	432.75
394.331	425.75
394.556	439.75
394.78	409.75
395.005	415.75
395.229	408.75
395.454	447.75
395.678	440.75
395.903	432.75
396.127	452.75
396.352	445.75
396.576	437.75
396.801	423.75
397.025	442.75
397.249	454.75
397.474	445.75
397.698	458.75
397.922	452.75
398.147	451.75
398.371	475.75
398.595	470.75
398.82	483.75
399.044	509.75
399.268	545.75
399.492	575.75
399.717	606.75
399.941	646.75
400.165	613.75
400.389	615.75
400.613	558.75
400.837	504.75
401.062	517.75
401.286	489.75
401.51	481.75
401.734	503.75
401.958	486.75
402.182	498.75
402.406	515.75
402.63	504.75
402.854	513.75
403.078	520.75
403.302	524.75
403.526	543.75
403.75	520.75
403.974	536.75
404.198	529.75
404.422	541.75
404.645	530.75
404.869	551.75
405.093	601.75
405.317	623.75
405.541	659.75
405.765	601.75
405.988	555.75
406.212	543.75
406.436	541.75
406.66	563.75
406.883	535.75
407.107	578.75
407.331	617.75
407.555	637.75
407.778	632.75
408.002	609.75
408.226	567.75
408.449	558.75
408.673	566.75
408.896	581.75
409.12	585.75
409.344	578.75
409.567	517.75
409.791	505.75
410.014	517.75
410.238	493.75
410.461	497.75
410.685	518.75
410.908	527.75
411.132	545.75
411.355	570.75
411.578	529.75
411.802	522.75
412.025	520.75
412.249	523.75
412.472	563.75
412.695	608.75
412.919	616.75
413.142	551.75
413.365	541.75
413.589	527.75
413.812	499.75
414.035	510.75
414.258	489.75
414.482	492.75
414.705	501.75
414.928	504.75
415.151	497.75
415.374	478.75
415.597	506.75
415.821	478.75
416.044	457.75
416.267	482.75
416.49	473.75
416.713	469.75
416.936	471.75
417.159	485.75
417.382	462.75
417.605	480.75
417.828	479.75
418.051	513.75
418.274	488.75
418.497	467.75
418.72	466.75
418.943	472.75
419.166	502.75
419.389	533.75
419.611	553.75
419.834	533.75
420.057	528.75
420.28	561.75
420.503	551.75
420.726	509.75
420.948	547.75
421.171	548.75
421.394	524.75
421.617	527.75
421.839	491.75
422.062	503.75
422.285	517.75
422.507	543.75
422.73	556.75
422.953	550.75
423.175	532.75
423.398	487.75
423.621	519.75
423.843	518.75
424.066	534.75
424.288	536.75
424.511	521.75
424.733	559.75
424.956	581.75
425.178	567.75
425.401	552.75
425.623	573.75
425.846	521.75
426.068	513.75
426.291	499.75
426.513	492.75
426.735	479.75
426.958	519.75
427.18	587.75
427.402	675.75
427.625	699.75
427.847	642.75
428.069	603.75
428.292	551.75
428.514	479.75
428.736	475.75
428.958	464.75
429.181	475.75
429.403	461.75
429.625	437.75
429.847	481.75
430.069	496.75
430.292	506.75
430.514	475.75
430.736	463.75
430.958	435.75
431.18	442.75
431.402	441.75
431.624	410.75
431.846	429.75
432.068	450.75
432.29	435.75
432.512	461.75
432.734	459.75
432.956	451.75
433.178	444.75
433.4	452.75
433.622	452.75
433.844	443.75
434.066	441.75
434.287	431.75
434.509	456.75
434.731	457.75
434.953	490.75
435.175	504.75
435.397	477.75
435.618	488.75
435.84	537.75
436.062	554.75
436.284	604.75
436.505	513.75
436.727	490.75
436.949	469.75
437.17	475.75
437.392	471.75
437.614	450.75
437.835	481.75
438.057	524.75
438.278	580.75
438.5	572.75
438.721	631.75
438.943	598.75
439.165	502.75
439.386	477.75
439.608	492.75
439.829	490.75
440.05	506.75
440.272	523.75
440.493	487.75
440.715	474.75
440.936	470.75
441.158	462.75
441.379	483.75
441.6	465.75
441.822	484.75
442.043	509.75
442.264	568.75
442.486	594.75
442.707	541.75
442.928	515.75
443.149	499.75
443.371	501.75
443.592	550.75
443.813	601.75
444.034	639.75
444.255	559.75
444.476	550.75
444.698	544.75
444.919	528.75
445.14	653.75
445.361	587.75
445.582	517.75
445.803	558.75
446.024	604.75
446.245	590.75
446.466	568.75
446.687	487.75
446.908	481.75
447.129	458.75
447.35	449.75
447.571	461.75
447.792	445.75
448.013	431.75
448.234	453.75
448.455	467.75
448.675	532.75
448.896	602.75
449.117	551.75
449.338	512.75
449.559	572.75
449.779	627.75
450	517.75
450.221	459.75
450.442	425.75
450.662	442.75
450.883	437.75
451.104	435.75
451.324	426.75
451.545	419.75
451.766	411.75
451.986	416.75
452.207	397.75
452.428	389.75
452.648	397.75
452.869	410.75
453.089	397.75
453.31	385.75
453.53	409.75
453.751	395.75
453.971	405.75
454.192	396.75
454.412	403.75
454.633	392.75
454.853	391.75
455.073	387.75
455.294	407.75
455.514	442.75
455.734	427.75
455.955	393.75
456.175	388.75
456.395	377.75
456.616	395.75
456.836	379.75
457.056	378.75
457.276	374.75
457.497	395.75
457.717	379.75
457.937	387.75
458.157	408.75
458.377	405.75
458.598	405.75
458.818	438.75
459.038	485.75
459.258	477.75
459.478	454.75
459.698	438.75
459.918	453.75
460.138	444.75
460.358	483.75
460.578	465.75
460.798	471.75
461.018	486.75
461.238	489.75
461.458	469.75
461.678	474.75
461.898	469.75
462.118	468.75
462.338	478.75
462.558	474.75
462.777	510.75
462.997	551.75
463.217	571.75
463.437	581.75
463.657	561.75
463.876	532.75
464.096	510.75
464.316	509.75
464.536	514.75
464.755	523.75
464.975	502.75
465.195	517.75
465.414	523.75
465.634	484.75
465.854	449.75
466.073	443.75
466.293	449.75
466.512	437.75
466.732	434.75
466.951	429.75
467.171	413.75
467.391	438.75
467.61	428.75
467.829	440.75
468.049	445.75
468.268	472.75
468.488	450.75
468.707	419.75
468.927	397.75
469.146	403.75
469.365	421.75
469.585	417.75
469.804	435.75
470.023	426.75
470.243	409.75
470.462	435.75
470.681	445.75
470.901	441.75
471.12	429.75
471.339	453.75
471.558	448.75
471.777	443.75
471.997	446.75
472.216	471.75
472.435	546.75
472.654	545.75
472.873	476.75
473.092	449.75
473.311	427.75
473.53	419.75
473.749	433.75
473.968	459.75
474.187	512.75
474.406	488.75
474.625	460.75
474.844	443.75
475.063	413.75
475.282	420.75
475.501	426.75
475.72	426.75
475.939	411.75
476.158	430.75
476.377	414.75
476.596	425.75
476.814	430.75
477.033	429.75
477.252	434.75
477.471	439.75
477.69	460.75
477.908	454.75
478.127	453.75
478.346	449.75
478.564	484.75
478.783	488.75
479.002	492.75
479.22	502.75
479.439	507.75
479.658	498.75
479.876	519.75
480.095	523.75
480.313	563.75
480.532	557.75
480.751	550.75
480.969	574.75
481.188	713.75
481.406	835.75
481.624	640.75
481.843	598.75
482.061	536.75
482.28	535.75
482.498	509.75
482.717	495.75
482.935	492.75
483.153	501.75
483.372	499.75
483.59	502.75
483.808	477.75
484.027	499.75
484.245	469.75
484.463	465.75
484.681	508.75
484.9	491.75
485.118	479.75
485.336	493.75
485.554	476.75
485.772	478.75
485.99	494.75
486.209	491.75
486.427	502.75
486.645	502.75
486.863	511.75
487.081	531.75
487.299	493.75
487.517	522.75
487.735	499.75
487.953	508.75
488.171	491.75
488.389	513.75
488.607	522.75
488.825	506.75
489.043	489.75
489.261	514.75
489.479	518.75
489.696	521.75
489.914	511.75
490.132	533.75
490.35	546.75
490.568	546.75
490.786	538.75
491.003	538.75
491.221	568.75
491.439	616.75
491.657	576.75
491.874	589.75
492.092	613.75
492.31	601.75
492.527	606.75
492.745	625.75
492.963	622.75
493.18	605.75
493.398	632.75
493.615	628.75
493.833	633.75
494.05	607.75
494.268	637.75
494.485	609.75
494.703	594.75
494.92	587.75
495.138	597.75
495.355	604.75
495.573	611.75
495.79	583.75
496.008	611.75
496.225	586.75
496.442	610.75
496.66	609.75
496.877	604.75
497.094	618.75
497.312	598.75
497.529	629.75
497.746	630.75
497.963	611.75
498.181	645.75
498.398	659.75
498.615	690.75
498.832	692.75
499.049	731.75
499.267	771.75
499.484	798.75
499.701	889.75
499.918	916.75
500.135	1026.75
500.352	1093.75
500.569	1128.75
500.786	1106.75
501.003	1081.75
501.22	1030.75
501.437	935.75
501.654	890.75
501.871	821.75
502.088	795.75
502.305	756.75
502.522	724.75
502.739	705.75
502.956	681.75
503.172	652.75
503.389	599.75
503.606	638.75
503.823	602.75
504.04	609.75
504.256	614.75
504.473	600.75
504.69	629.75
504.907	628.75
505.123	597.75
505.34	569.75
505.557	568.75
505.773	545.75
505.99	536.75
506.207	538.75
506.423	539.75
506.64	524.75
506.856	528.75
507.073	511.75
507.289	517.75
507.506	498.75
507.722	501.75
507.939	534.75
508.155	510.75
508.372	503.75
508.588	507.75
508.805	503.75
509.021	499.75
509.238	493.75
509.454	507.75
509.67	537.75
509.887	509.75
510.103	491.75
510.319	492.75
510.536	557.75
510.752	805.75
510.968	712.75
511.184	519.75
511.401	493.75
511.617	515.75
511.833	501.75
512.049	509.75
512.265	508.75
512.481	525.75
512.698	503.75
512.914	488.75
513.13	495.75
513.346	485.75
513.562	462.75
513.778	454.75
513.994	475.75
514.21	477.75
514.426	487.75
514.642	535.75
514.858	525.75
515.074	541.75
515.29	599.75
515.506	829.75
515.721	712.75
515.937	542.75
516.153	527.75
516.369	535.75
516.585	515.75
516.801	530.75
517.016	528.75
517.232	526.75
517.448	561.75
517.664	545.75
517.879	564.75
518.095	569.75
518.311	558.75
518.527	565.75
518.742	540.75
518.958	540.75
519.173	488.75
519.389	490.75
519.605	489.75
519.82	489.75
520.036	521.75
520.251	506.75
520.467	523.75
520.682	518.75
520.898	481.75
521.113	509.75
521.329	533.75
521.544	569.75
521.76	651.75
521.975	961.75
522.19	919.75
522.406	597.75
522.621	506.75
522.836	491.75
523.052	470.75
523.267	452.75
523.482	466.75
523.698	445.75
523.913	446.75
524.128	433.75
524.343	419.75
524.559	422.75
524.774	427.75
524.989	406.75
525.204	443.75
525.419	428.75
525.634	435.75
525.849	411.75
526.064	433.75
526.28	421.75
526.495	410.75
526.71	402.75
526.925	403.75
527.14	400.75
527.355	401.75
527.57	423.75
527.785	417.75
527.999	418.75
528.214	410.75
528.429	403.75
528.644	416.75
528.859	404.75
529.074	420.75
529.289	420.75
529.503	449.75
529.718	445.75
529.933	440.75
530.148	405.75
530.363	407.75
530.577	386.75
530.792	419.75
531.007	404.75
531.221	413.75
531.436	396.75
531.651	409.75
531.865	423.75
532.08	396.75
532.295	420.75
532.509	405.75
532.724	402.75
532.938	411.75
533.153	411.75
533.367	408.75
533.582	393.75
533.796	391.75
534.011	415.75
534.225	408.75
534.44	383.75
534.654	391.75
534.868	391.75
535.083	394.75
535.297	362.75
535.511	391.75
535.726	413.75
535.94	387.75
536.154	387.75
536.369	399.75
536.583	382.75
536.797	377.75
537.011	381.75
537.225	361.75
537.44	370.75
537.654	406.75
537.868	372.75
538.082	372.75
538.296	363.75
538.51	387.75
538.724	378.75
538.938	386.75
539.153	375.75
539.367	390.75
539.581	406.75
539.795	381.75
540.009	355.75
540.222	385.75
540.436	363.75
540.65	377.75
540.864	377.75
541.078	378.75
541.292	377.75
541.506	377.75
541.72	386.75
541.934	381.75
542.147	381.75
542.361	357.75
542.575	383.75
542.789	379.75
543.002	387.75
543.216	371.75
543.43	359.75
543.644	377.75
543.857	379.75
544.071	370.75
544.285	358.75
544.498	373.75
544.712	371.75
544.925	379.75
545.139	375.75
545.352	363.75
545.566	387.75
545.779	372.75
545.993	405.75
546.206	383.75
546.42	383.75
546.633	376.75
546.847	382.75
547.06	385.75
547.274	383.75
547.487	378.75
547.7	370.75
547.914	392.75
548.127	364.75
548.34	382.75
548.554	381.75
548.767	391.75
548.98	381.75
549.193	364.75
549.407	372.75
549.62	360.75
549.833	365.75
550.046	383.75
550.259	377.75
550.473	369.75
550.686	355.75
550.899	361.75
551.112	369.75
551.325	367.75
551.538	369.75
551.751	377.75
551.964	388.75
552.177	369.75
552.39	373.75
552.603	363.75
552.816	389.75
553.029	381.75
553.242	406.75
553.455	395.75
553.667	402.75
553.88	406.75
554.093	380.75
554.306	385.75
554.519	391.75
554.732	378.75
554.944	377.75
555.157	378.75
555.37	371.75
555.583	351.75
555.795	349.75
556.008	349.75
556.221	351.75
556.433	339.75
556.646	347.75
556.859	318.75
557.071	330.75
557.284	303.75
557.496	345.75
557.709	343.75
557.921	351.75
558.134	348.75
558.346	334.75
558.559	317.75
558.771	301.75
558.984	334.75
559.196	335.75
559.409	326.75
559.621	328.75
559.833	310.75
560.046	309.75
560.258	327.75
560.47	329.75
560.683	326.75
560.895	316.75
561.107	338.75
561.32	357.75
561.532	327.75
561.744	323.75
561.956	316.75
562.168	322.75
562.381	330.75
562.593	334.75
562.805	327.75
563.017	330.75
563.229	322.75
563.441	335.75
563.653	326.75
563.865	357.75
564.077	330.75
564.289	331.75
564.501	341.75
564.713	348.75
564.925	363.75
565.137	372.75
565.349	354.75
565.561	364.75
565.773	362.75
565.985	390.75
566.197	385.75
566.408	412.75
566.62	449.75
566.832	464.75
567.044	445.75
567.255	449.75
567.467	467.75
567.679	493.75
567.891	517.75
568.102	525.75
568.314	507.75
568.526	483.75
568.737	442.75
568.949	413.75
569.161	391.75
569.372	373.75
569.584	363.75
569.795	351.75
570.007	362.75
570.218	363.75
570.43	347.75
570.641	325.75
570.853	331.75
571.064	333.75
571.276	365.75
571.487	325.75
571.698	327.75
571.91	322.75
572.121	321.75
572.333	314.75
572.544	308.75
572.755	311.75
572.966	305.75
573.178	295.75
573.389	306.75
573.6	290.75
573.811	296.75
574.023	297.75
574.234	282.75
574.445	305.75
574.656	284.75
574.867	289.75
575.078	282.75
575.289	284.75
575.501	294.75
575.712	265.75
575.923	296.75
576.134	284.75
576.345	280.75
576.556	266.75
576.767	284.75
576.978	281.75
577.188	288.75
577.399	289.75
577.61	269.75
577.821	264.75
578.032	265.75
578.243	292.75
578.454	408.75
578.665	324.75
578.875	299.75
579.086	270.75
579.297	265.75
579.508	275.75
579.718	265.75
579.929	269.75
580.14	277.75
580.35	280.75
580.561	270.75
580.772	259.75
580.982	285.75
581.193	279.75
581.403	259.75
581.614	255.75
581.825	269.75
582.035	267.75
582.246	278.75
582.456	257.75
582.667	261.75
582.877	267.75
583.087	245.75
583.298	261.75
583.508	265.75
583.719	257.75
583.929	274.75
584.139	253.75
584.35	235.75
584.56	246.75
584.77	248.75
584.981	264.75
585.191	247.75
585.401	260.75
585.611	249.75
585.821	262.75
586.032	243.75
586.242	267.75
586.452	241.75
586.662	261.75
586.872	246.75
587.082	256.75
587.292	242.75
587.502	263.75
587.713	253.75
587.923	247.75
588.133	238.75
588.343	247.75
588.553	247.75
588.762	248.75
588.972	258.75
589.182	263.75
589.392	246.75
589.602	249.75
589.812	277.75
590.022	251.75
590.232	230.75
590.441	253.75
590.651	265.75
590.861	259.75
591.071	243.75
591.281	255.75
591.49	254.75
591.7	270.75
591.91	265.75
592.119	267.75
592.329	286.75
592.539	265.75
592.748	285.75
592.958	277.75
593.167	296.75
593.377	289.75
593.587	300.75
593.796	308.75
594.006	308.75
594.215	309.75
594.424	297.75
594.634	286.75
594.843	289.75
595.053	266.75
595.262	274.75
595.472	290.75
595.681	264.75
595.89	271.75
596.1	246.75
596.309	261.75
596.518	238.75
596.727	228.75
596.937	235.75
597.146	234.75
597.355	239.75
597.564	231.75
597.774	230.75
597.983	244.75
598.192	238.75
598.401	238.75
598.61	220.75
598.819	229.75
599.028	241.75
599.237	224.75
599.446	245.75
599.655	234.75
599.864	225.75
600.073	221.75
600.282	228.75
600.491	220.75
600.7	218.75
600.909	213.75
601.118	239.75
601.327	242.75
601.536	217.75
601.745	229.75
601.953	233.75
602.162	239.75
602.371	200.75
602.58	209.75
602.789	225.75
602.997	224.75
603.206	218.75
603.415	210.75
603.623	212.75
603.832	224.75
604.041	230.75
604.249	233.75
604.458	204.75
604.666	209.75
604.875	209.75
605.084	213.75
605.292	211.75
605.501	203.75
605.709	203.75
605.918	216.75
606.126	227.75
606.334	225.75
606.543	218.75
606.751	202.75
606.96	224.75
607.168	219.75
607.376	218.75
607.585	214.75
607.793	216.75
608.001	205.75
608.21	207.75
608.418	207.75
608.626	202.75
608.834	213.75
609.043	212.75
609.251	206.75
609.459	216.75
609.667	217.75
609.875	211.75
610.083	215.75
610.291	214.75
610.499	189.75
610.707	208.75
610.916	194.75
611.124	217.75
611.332	224.75
611.54	224.75
611.748	208.75
611.955	204.75
612.163	216.75
612.371	226.75
612.579	217.75
612.787	204.75
612.995	211.75
613.203	204.75
613.411	199.75
613.618	214.75
613.826	199.75
614.034	221.75
614.242	217.75
614.449	197.75
614.657	199.75
614.865	202.75
615.072	224.75
615.28	216.75
615.488	195.75
615.695	205.75
615.903	202.75
616.111	190.75
616.318	212.75
616.526	222.75
616.733	218.75
616.941	203.75
617.148	209.75
617.356	204.75
617.563	199.75
617.771	202.75
617.978	209.75
618.185	211.75
618.393	198.75
618.6	204.75
618.807	214.75
619.015	210.75
619.222	196.75
619.429	193.75
619.637	201.75
619.844	192.75
620.051	188.75
620.258	196.75
620.466	187.75
620.673	199.75
620.88	177.75
621.087	197.75
621.294	199.75
621.501	209.75
621.708	205.75
621.915	199.75
622.122	195.75
622.329	194.75
622.536	187.75
622.743	178.75
622.95	207.75
623.157	179.75
623.364	191.75
623.571	185.75
623.778	198.75
623.985	203.75
624.192	203.75
624.399	178.75
624.606	191.75
624.812	196.75
625.019	182.75
625.226	179.75
625.433	185.75
625.639	178.75
625.846	183.75
626.053	191.75
626.259	206.75
626.466	186.75
626.673	169.75
626.879	188.75
627.086	183.75
627.293	166.75
627.499	186.75
627.706	193.75
627.912	165.75
628.119	173.75
628.325	188.75
628.532	181.75
628.738	186.75
628.945	183.75
629.151	180.75
629.357	180.75
629.564	178.75
629.77	186.75
629.976	178.75
630.183	178.75
630.389	179.75
630.595	172.75
630.802	173.75
631.008	164.75
631.214	167.75
631.42	178.75
631.627	178.75
631.833	173.75
632.039	167.75
632.245	172.75
632.451	170.75
632.657	154.75
632.863	181.75
633.069	165.75
633.275	159.75
633.481	165.75
633.688	171.75
633.893	180.75
634.099	173.75
634.305	168.75
634.511	157.75
634.717	177.75
634.923	153.75
635.129	165.75
635.335	166.75
635.541	147.75
635.747	165.75
635.952	159.75
636.158	173.75
636.364	175.75
636.57	182.75
636.775	168.75
636.981	175.75
637.187	162.75
637.392	162.75
637.598	159.75
637.804	173.75
638.009	158.75
638.215	172.75
638.421	168.75
638.626	172.75
638.832	173.75
639.037	164.75
639.243	184.75
639.448	159.75
639.654	154.75
639.859	155.75
640.065	154.75
640.27	164.75
640.475	163.75
640.681	167.75
640.886	172.75
641.091	157.75
641.297	150.75
641.502	156.75
641.707	167.75
641.913	157.75
642.118	160.75
642.323	151.75
642.528	170.75
642.733	143.75
642.939	142.75
643.144	151.75
643.349	166.75
643.554	153.75
643.759	161.75
643.964	145.75
644.169	142.75
644.374	149.75
644.579	152.75
644.784	147.75
644.989	155.75
645.194	148.75
645.399	138.75
645.604	145.75
645.809	143.75
646.014	161.75
646.219	146.75
646.423	150.75
646.628	137.75
646.833	145.75
647.038	157.75
647.243	137.75
647.447	158.75
647.652	149.75
647.857	146.75
648.062	153.75
648.266	149.75
648.471	160.75
648.676	162.75
648.88	169.75
649.085	164.75
649.289	153.75
649.494	157.75
649.698	168.75
649.903	149.75
650.107	163.75
650.312	146.75
650.516	150.75
650.721	143.75
650.925	131.75
651.13	136.75
651.334	138.75
651.539	143.75
651.743	142.75
651.947	133.75
652.152	134.75
652.356	138.75
652.56	125.75
652.764	121.75
652.969	132.75
653.173	123.75
653.377	125.75
653.581	114.75
653.785	139.75
653.99	129.75
654.194	140.75
654.398	140.75
654.602	131.75
654.806	137.75
655.01	126.75
655.214	133.75
655.418	139.75
655.622	129.75
655.826	119.75
656.03	116.75
656.234	141.75
656.438	141.75
656.642	141.75
656.846	127.75
657.049	123.75
657.253	131.75
657.457	108.75
657.661	113.75
657.865	103.75
658.068	106.75
658.272	99.75
658.476	116.75
658.68	108.75
658.883	103.75
659.087	106.75
659.291	108.75
659.494	91.75
659.698	98.75
659.901	107.75
660.105	90.75
660.309	101.75
660.512	96.75
660.716	93.75
660.919	104.75
661.123	105.75
661.326	85.75
661.53	89.75
661.733	85.75
661.936	92.75
662.14	89.75
662.343	82.75
662.546	92.75
662.75	78.75
662.953	81.75
663.156	88.75
663.36	88.75
663.563	79.75
663.766	87.75
663.969	99.75
664.173	84.75
664.376	98.75
664.579	89.75
664.782	90.75
664.985	77.75
665.188	90.75
665.391	85.75
665.594	88.75
665.797	85.75
666	88.75
666.203	76.75
666.406	92.75
666.609	84.75
666.812	97.75
667.015	85.75
667.218	84.75
667.421	73.75
667.624	75.75
667.827	83.75
668.03	103.75
668.232	89.75
668.435	77.75
668.638	85.75
668.841	84.75
669.043	74.75
669.246	80.75
669.449	89.75
669.651	93.75
669.854	87.75
670.057	73.75
670.259	82.75
670.462	90.75
670.665	76.75
670.867	68.75
671.07	81.75
671.272	91.75
671.475	92.75
671.677	86.75
671.88	70.75
672.082	75.75
672.284	90.75
672.487	83.75
672.689	85.75
672.892	94.75
