Data from 1984.PennyLincolnUp.Lamp.En5.5.200Scan.071819.P1_HRD10591_16-57-13-967.txt Node
Date: Thu Jul 18 16:57:13 EDT 2019
User: cochatt
Spectrometer: HR+D1059
Trigger mode: 1
Integration Time (sec): 1.000000E-1
Scans to average: 1
Electric dark correction enabled: true
Nonlinearity correction enabled: false
Boxcar width: 0
XAxis mode: Wavelengths
Number of Pixels in Spectrum: 2048
>>>>>Begin Spectral Data<<<<<
223.165	-8.12
223.4	-8.12
223.635	-8.12
223.869	-10.12
224.104	-11.12
224.338	-6.12
224.573	-5.12
224.808	-1.12
225.042	-24.12
225.277	-14.12
225.511	-1.12
225.746	-8.12
225.98	-4.12
226.215	-7.12
226.449	27.88
226.683	16.88
226.918	22.88
227.152	32.88
227.387	33.88
227.621	25.88
227.856	42.88
228.09	52.88
228.324	55.88
228.559	47.88
228.793	59.88
229.027	84.88
229.262	73.88
229.496	84.88
229.73	90.88
229.964	95.88
230.199	94.88
230.433	106.88
230.667	94.88
230.901	100.88
231.136	85.88
231.37	96.88
231.604	107.88
231.838	104.88
232.072	131.88
232.306	110.88
232.541	98.88
232.775	93.88
233.009	107.88
233.243	108.88
233.477	107.88
233.711	108.88
233.945	113.88
234.179	94.88
234.413	104.88
234.647	119.88
234.881	89.88
235.115	93.88
235.349	90.88
235.583	91.88
235.817	101.88
236.051	106.88
236.285	99.88
236.519	110.88
236.753	131.88
236.987	113.88
237.221	124.88
237.455	146.88
237.689	121.88
237.922	122.88
238.156	103.88
238.39	111.88
238.624	104.88
238.858	114.88
239.091	103.88
239.325	105.88
239.559	117.88
239.793	105.88
240.027	107.88
240.26	125.88
240.494	105.88
240.728	103.88
240.961	112.88
241.195	116.88
241.429	115.88
241.662	116.88
241.896	119.88
242.13	121.88
242.363	114.88
242.597	113.88
242.83	114.88
243.064	132.88
243.298	125.88
243.531	134.88
243.765	121.88
243.998	110.88
244.232	124.88
244.465	124.88
244.699	123.88
244.932	133.88
245.166	115.88
245.399	118.88
245.633	119.88
245.866	130.88
246.099	122.88
246.333	134.88
246.566	128.88
246.8	129.88
247.033	115.88
247.266	124.88
247.5	131.88
247.733	134.88
247.966	131.88
248.2	155.88
248.433	149.88
248.666	145.88
248.899	128.88
249.133	157.88
249.366	153.88
249.599	151.88
249.832	145.88
250.066	132.88
250.299	150.88
250.532	146.88
250.765	135.88
250.998	144.88
251.231	164.88
251.465	140.88
251.698	168.88
251.931	142.88
252.164	157.88
252.397	150.88
252.63	156.88
252.863	161.88
253.096	161.88
253.329	160.88
253.562	169.88
253.795	180.88
254.028	168.88
254.261	153.88
254.494	178.88
254.727	178.88
254.96	185.88
255.193	182.88
255.426	168.88
255.659	158.88
255.892	148.88
256.124	168.88
256.357	163.88
256.59	174.88
256.823	176.88
257.056	168.88
257.289	169.88
257.521	157.88
257.754	161.88
257.987	146.88
258.22	183.88
258.452	152.88
258.685	165.88
258.918	159.88
259.151	164.88
259.383	166.88
259.616	170.88
259.849	151.88
260.081	179.88
260.314	185.88
260.547	181.88
260.779	196.88
261.012	179.88
261.244	177.88
261.477	184.88
261.71	182.88
261.942	175.88
262.175	163.88
262.407	188.88
262.64	166.88
262.872	182.88
263.105	171.88
263.337	163.88
263.57	184.88
263.802	187.88
264.035	184.88
264.267	178.88
264.499	180.88
264.732	183.88
264.964	188.88
265.197	175.88
265.429	179.88
265.661	199.88
265.894	175.88
266.126	171.88
266.358	158.88
266.591	190.88
266.823	179.88
267.055	195.88
267.287	177.88
267.52	191.88
267.752	203.88
267.984	201.88
268.216	203.88
268.448	190.88
268.681	200.88
268.913	194.88
269.145	211.88
269.377	194.88
269.609	202.88
269.841	213.88
270.073	195.88
270.306	214.88
270.538	222.88
270.77	214.88
271.002	214.88
271.234	205.88
271.466	211.88
271.698	215.88
271.93	217.88
272.162	214.88
272.394	204.88
272.626	238.88
272.858	232.88
273.09	212.88
273.322	205.88
273.553	198.88
273.785	227.88
274.017	190.88
274.249	226.88
274.481	218.88
274.713	210.88
274.945	220.88
275.176	231.88
275.408	216.88
275.64	222.88
275.872	212.88
276.104	211.88
276.335	217.88
276.567	202.88
276.799	218.88
277.031	242.88
277.262	234.88
277.494	234.88
277.726	234.88
277.957	214.88
278.189	222.88
278.421	232.88
278.652	226.88
278.884	238.88
279.115	214.88
279.347	224.88
279.579	247.88
279.81	230.88
280.042	224.88
280.273	232.88
280.505	218.88
280.736	223.88
280.968	243.88
281.199	218.88
281.431	226.88
281.662	235.88
281.894	239.88
282.125	238.88
282.356	256.88
282.588	231.88
282.819	235.88
283.051	248.88
283.282	222.88
283.513	245.88
283.745	250.88
283.976	241.88
284.207	234.88
284.439	238.88
284.67	234.88
284.901	246.88
285.132	250.88
285.364	251.88
285.595	245.88
285.826	224.88
286.057	241.88
286.288	254.88
286.52	257.88
286.751	248.88
286.982	238.88
287.213	238.88
287.444	268.88
287.675	265.88
287.906	276.88
288.138	258.88
288.369	242.88
288.6	264.88
288.831	265.88
289.062	264.88
289.293	262.88
289.524	244.88
289.755	269.88
289.986	271.88
290.217	246.88
290.448	231.88
290.679	268.88
290.91	260.88
291.141	256.88
291.371	266.88
291.602	261.88
291.833	278.88
292.064	263.88
292.295	256.88
292.526	250.88
292.757	248.88
292.987	255.88
293.218	258.88
293.449	251.88
293.68	265.88
293.91	256.88
294.141	252.88
294.372	278.88
294.603	240.88
294.833	248.88
295.064	260.88
295.295	262.88
295.525	258.88
295.756	260.88
295.987	271.88
296.217	285.88
296.448	248.88
296.679	273.88
296.909	254.88
297.14	266.88
297.37	275.88
297.601	282.88
297.831	269.88
298.062	267.88
298.292	254.88
298.523	264.88
298.753	292.88
298.984	275.88
299.214	266.88
299.445	284.88
299.675	276.88
299.905	280.88
300.136	272.88
300.366	278.88
300.597	280.88
300.827	279.88
301.057	261.88
301.288	284.88
301.518	277.88
301.748	281.88
301.979	287.88
302.209	288.88
302.439	274.88
302.669	262.88
302.9	277.88
303.13	283.88
303.36	285.88
303.59	284.88
303.82	295.88
304.051	306.88
304.281	300.88
304.511	280.88
304.741	301.88
304.971	278.88
305.201	292.88
305.431	297.88
305.661	309.88
305.891	275.88
306.121	263.88
306.352	280.88
306.582	281.88
306.812	294.88
307.042	278.88
307.272	287.88
307.502	274.88
307.731	289.88
307.961	281.88
308.191	282.88
308.421	295.88
308.651	292.88
308.881	303.88
309.111	296.88
309.341	265.88
309.571	284.88
309.8	283.88
310.03	296.88
310.26	296.88
310.49	286.88
310.72	314.88
310.949	299.88
311.179	289.88
311.409	308.88
311.639	315.88
311.868	288.88
312.098	310.88
312.328	313.88
312.557	310.88
312.787	309.88
313.017	298.88
313.246	298.88
313.476	303.88
313.706	297.88
313.935	318.88
314.165	315.88
314.394	311.88
314.624	310.88
314.853	318.88
315.083	325.88
315.312	314.88
315.542	289.88
315.771	289.88
316.001	287.88
316.23	322.88
316.46	312.88
316.689	327.88
316.919	309.88
317.148	311.88
317.377	299.88
317.607	306.88
317.836	306.88
318.065	299.88
318.295	306.88
318.524	302.88
318.753	293.88
318.983	302.88
319.212	316.88
319.441	297.88
319.67	317.88
319.9	320.88
320.129	301.88
320.358	326.88
320.587	328.88
320.816	313.88
321.046	320.88
321.275	332.88
321.504	318.88
321.733	294.88
321.962	325.88
322.191	315.88
322.42	340.88
322.649	325.88
322.878	330.88
323.108	324.88
323.337	334.88
323.566	344.88
323.795	352.88
324.024	324.88
324.253	389.88
324.482	445.88
324.71	586.88
324.939	775.88
325.168	710.88
325.397	438.88
325.626	370.88
325.855	328.88
326.084	339.88
326.313	352.88
326.542	339.88
326.77	357.88
326.999	370.88
327.228	430.88
327.457	559.88
327.686	631.88
327.914	462.88
328.143	356.88
328.372	359.88
328.6	358.88
328.829	357.88
329.058	363.88
329.287	360.88
329.515	347.88
329.744	356.88
329.972	333.88
330.201	366.88
330.43	364.88
330.658	343.88
330.887	359.88
331.115	387.88
331.344	368.88
331.572	356.88
331.801	353.88
332.03	363.88
332.258	361.88
332.486	361.88
332.715	383.88
332.943	408.88
333.172	388.88
333.4	408.88
333.629	400.88
333.857	409.88
334.085	410.88
334.314	394.88
334.542	399.88
334.771	408.88
334.999	392.88
335.227	386.88
335.455	391.88
335.684	392.88
335.912	388.88
336.14	358.88
336.369	373.88
336.597	366.88
336.825	361.88
337.053	380.88
337.281	374.88
337.51	356.88
337.738	370.88
337.966	356.88
338.194	366.88
338.422	371.88
338.65	351.88
338.878	344.88
339.106	340.88
339.334	351.88
339.562	349.88
339.79	356.88
340.018	361.88
340.246	344.88
340.474	353.88
340.702	342.88
340.93	344.88
341.158	347.88
341.386	347.88
341.614	347.88
341.842	348.88
342.07	345.88
342.298	347.88
342.526	323.88
342.754	346.88
342.981	346.88
343.209	342.88
343.437	351.88
343.665	370.88
343.893	390.88
344.12	376.88
344.348	386.88
344.576	356.88
344.804	369.88
345.031	358.88
345.259	366.88
345.487	345.88
345.714	340.88
345.942	348.88
346.17	344.88
346.397	328.88
346.625	319.88
346.853	339.88
347.08	323.88
347.308	322.88
347.535	336.88
347.763	328.88
347.99	330.88
348.218	331.88
348.445	326.88
348.673	318.88
348.9	315.88
349.128	319.88
349.355	327.88
349.583	300.88
349.81	318.88
350.037	324.88
350.265	303.88
350.492	332.88
350.72	316.88
350.947	317.88
351.174	319.88
351.402	330.88
351.629	302.88
351.856	318.88
352.083	311.88
352.311	324.88
352.538	313.88
352.765	325.88
352.992	325.88
353.22	306.88
353.447	326.88
353.674	313.88
353.901	326.88
354.128	332.88
354.355	317.88
354.583	307.88
354.81	321.88
355.037	328.88
355.264	314.88
355.491	312.88
355.718	313.88
355.945	310.88
356.172	312.88
356.399	338.88
356.626	324.88
356.853	330.88
357.08	314.88
357.307	314.88
357.534	314.88
357.761	310.88
357.988	305.88
358.215	333.88
358.441	325.88
358.668	317.88
358.895	325.88
359.122	317.88
359.349	337.88
359.576	319.88
359.802	291.88
360.029	316.88
360.256	331.88
360.483	330.88
360.709	299.88
360.936	332.88
361.163	332.88
361.39	313.88
361.616	322.88
361.843	339.88
362.07	310.88
362.296	314.88
362.523	321.88
362.749	319.88
362.976	300.88
363.203	337.88
363.429	322.88
363.656	300.88
363.882	309.88
364.109	306.88
364.335	310.88
364.562	316.88
364.788	315.88
365.015	314.88
365.241	327.88
365.468	310.88
365.694	316.88
365.92	329.88
366.147	295.88
366.373	313.88
366.599	310.88
366.826	300.88
367.052	318.88
367.278	309.88
367.505	309.88
367.731	313.88
367.957	305.88
368.184	312.88
368.41	333.88
368.636	306.88
368.862	316.88
369.089	315.88
369.315	324.88
369.541	334.88
369.767	332.88
369.993	308.88
370.219	318.88
370.445	311.88
370.672	323.88
370.898	312.88
371.124	330.88
371.35	327.88
371.576	336.88
371.802	309.88
372.028	331.88
372.254	311.88
372.48	319.88
372.706	338.88
372.932	353.88
373.158	354.88
373.384	328.88
373.61	334.88
373.835	317.88
374.061	326.88
374.287	330.88
374.513	321.88
374.739	330.88
374.965	347.88
375.191	347.88
375.416	362.88
375.642	338.88
375.868	343.88
376.094	325.88
376.319	339.88
376.545	326.88
376.771	321.88
376.997	322.88
377.222	343.88
377.448	314.88
377.674	342.88
377.899	311.88
378.125	314.88
378.35	331.88
378.576	330.88
378.802	343.88
379.027	327.88
379.253	336.88
379.478	321.88
379.704	321.88
379.929	311.88
380.155	332.88
380.38	322.88
380.606	335.88
380.831	327.88
381.057	337.88
381.282	338.88
381.507	331.88
381.733	318.88
381.958	328.88
382.184	348.88
382.409	328.88
382.634	353.88
382.86	329.88
383.085	340.88
383.31	349.88
383.535	349.88
383.761	345.88
383.986	345.88
384.211	366.88
384.436	359.88
384.662	374.88
384.887	382.88
385.112	375.88
385.337	384.88
385.562	382.88
385.787	377.88
386.013	413.88
386.238	398.88
386.463	390.88
386.688	375.88
386.913	384.88
387.138	380.88
387.363	386.88
387.588	391.88
387.813	362.88
388.038	355.88
388.263	371.88
388.488	393.88
388.713	383.88
388.938	361.88
389.163	384.88
389.387	355.88
389.612	359.88
389.837	366.88
390.062	366.88
390.287	362.88
390.512	350.88
390.736	355.88
390.961	366.88
391.186	368.88
391.411	355.88
391.636	375.88
391.86	397.88
392.085	404.88
392.31	405.88
392.534	395.88
392.759	404.88
392.984	376.88
393.208	378.88
393.433	392.88
393.658	385.88
393.882	394.88
394.107	382.88
394.331	375.88
394.556	392.88
394.78	393.88
395.005	392.88
395.229	401.88
395.454	384.88
395.678	388.88
395.903	415.88
396.127	422.88
396.352	403.88
396.576	382.88
396.801	382.88
397.025	396.88
397.249	395.88
397.474	404.88
397.698	390.88
397.922	400.88
398.147	410.88
398.371	406.88
398.595	407.88
398.82	415.88
399.044	455.88
399.268	481.88
399.492	536.88
399.717	554.88
399.941	589.88
400.165	569.88
400.389	534.88
400.613	488.88
400.837	468.88
401.062	449.88
401.286	464.88
401.51	442.88
401.734	410.88
401.958	446.88
402.182	431.88
402.406	452.88
402.63	439.88
402.854	432.88
403.078	440.88
403.302	459.88
403.526	482.88
403.75	481.88
403.974	486.88
404.198	466.88
404.422	487.88
404.645	487.88
404.869	469.88
405.093	484.88
405.317	486.88
405.541	502.88
405.765	456.88
405.988	456.88
406.212	479.88
406.436	487.88
406.66	474.88
406.883	483.88
407.107	515.88
407.331	526.88
407.555	546.88
407.778	545.88
408.002	547.88
408.226	504.88
408.449	478.88
408.673	488.88
408.896	479.88
409.12	481.88
409.344	484.88
409.567	448.88
409.791	455.88
410.014	445.88
410.238	471.88
410.461	476.88
410.685	443.88
410.908	448.88
411.132	466.88
411.355	462.88
411.578	473.88
411.802	450.88
412.025	439.88
412.249	438.88
412.472	460.88
412.695	441.88
412.919	439.88
413.142	465.88
413.365	448.88
413.589	438.88
413.812	408.88
414.035	427.88
414.258	444.88
414.482	443.88
414.705	404.88
414.928	432.88
415.151	430.88
415.374	426.88
415.597	406.88
415.821	423.88
416.044	424.88
416.267	434.88
416.49	421.88
416.713	401.88
416.936	403.88
417.159	424.88
417.382	404.88
417.605	434.88
417.828	426.88
418.051	425.88
418.274	430.88
418.497	407.88
418.72	424.88
418.943	430.88
419.166	443.88
419.389	467.88
419.611	428.88
419.834	441.88
420.057	458.88
420.28	436.88
420.503	417.88
420.726	426.88
420.948	416.88
421.171	433.88
421.394	435.88
421.617	431.88
421.839	427.88
422.062	414.88
422.285	403.88
422.507	461.88
422.73	475.88
422.953	472.88
423.175	447.88
423.398	430.88
423.621	457.88
423.843	448.88
424.066	441.88
424.288	453.88
424.511	465.88
424.733	464.88
424.956	505.88
425.178	488.88
425.401	483.88
425.623	487.88
425.846	459.88
426.068	440.88
426.291	442.88
426.513	406.88
426.735	417.88
426.958	424.88
427.18	445.88
427.402	523.88
427.625	532.88
427.847	483.88
428.069	450.88
428.292	412.88
428.514	406.88
428.736	392.88
428.958	407.88
429.181	396.88
429.403	398.88
429.625	386.88
429.847	406.88
430.069	402.88
430.292	433.88
430.514	404.88
430.736	398.88
430.958	379.88
431.18	396.88
431.402	381.88
431.624	382.88
431.846	392.88
432.068	408.88
432.29	388.88
432.512	394.88
432.734	404.88
432.956	404.88
433.178	395.88
433.4	404.88
433.622	420.88
433.844	388.88
434.066	399.88
434.287	380.88
434.509	387.88
434.731	417.88
434.953	420.88
435.175	425.88
435.397	417.88
435.618	422.88
435.84	443.88
436.062	465.88
436.284	480.88
436.505	425.88
436.727	394.88
436.949	401.88
437.17	401.88
437.392	376.88
437.614	392.88
437.835	387.88
438.057	435.88
438.278	467.88
438.5	475.88
438.721	515.88
438.943	476.88
439.165	416.88
439.386	416.88
439.608	427.88
439.829	401.88
440.05	425.88
440.272	425.88
440.493	411.88
440.715	390.88
440.936	408.88
441.158	415.88
441.379	419.88
441.6	436.88
441.822	408.88
442.043	454.88
442.264	463.88
442.486	490.88
442.707	447.88
442.928	448.88
443.149	430.88
443.371	415.88
443.592	448.88
443.813	500.88
444.034	518.88
444.255	481.88
444.476	434.88
444.698	470.88
444.919	486.88
445.14	570.88
445.361	519.88
445.582	449.88
445.803	460.88
446.024	472.88
446.245	451.88
446.466	468.88
446.687	429.88
446.908	401.88
447.129	399.88
447.35	378.88
447.571	374.88
447.792	387.88
448.013	374.88
448.234	383.88
448.455	402.88
448.675	431.88
448.896	473.88
449.117	426.88
449.338	425.88
449.559	470.88
449.779	485.88
450	421.88
450.221	388.88
450.442	372.88
450.662	357.88
450.883	366.88
451.104	366.88
451.324	371.88
451.545	376.88
451.766	352.88
451.986	349.88
452.207	360.88
452.428	358.88
452.648	349.88
452.869	362.88
453.089	348.88
453.31	358.88
453.53	341.88
453.751	326.88
453.971	348.88
454.192	342.88
454.412	338.88
454.633	348.88
454.853	323.88
455.073	358.88
455.294	344.88
455.514	382.88
455.734	361.88
455.955	337.88
456.175	347.88
456.395	346.88
456.616	321.88
456.836	337.88
457.056	320.88
457.276	330.88
457.497	344.88
457.717	337.88
457.937	324.88
458.157	333.88
458.377	340.88
458.598	350.88
458.818	374.88
459.038	392.88
459.258	420.88
459.478	402.88
459.698	360.88
459.918	400.88
460.138	422.88
460.358	413.88
460.578	410.88
460.798	402.88
461.018	411.88
461.238	432.88
461.458	438.88
461.678	402.88
461.898	426.88
462.118	425.88
462.338	439.88
462.558	450.88
462.777	458.88
462.997	459.88
463.217	517.88
463.437	524.88
463.657	483.88
463.876	489.88
464.096	467.88
464.316	453.88
464.536	475.88
464.755	481.88
464.975	456.88
465.195	441.88
465.414	450.88
465.634	402.88
465.854	386.88
466.073	413.88
466.293	364.88
466.512	391.88
466.732	385.88
466.951	396.88
467.171	372.88
467.391	376.88
467.61	364.88
467.829	372.88
468.049	370.88
468.268	352.88
468.488	360.88
468.707	362.88
468.927	362.88
469.146	353.88
469.365	363.88
469.585	350.88
469.804	382.88
470.023	376.88
470.243	372.88
470.462	369.88
470.681	378.88
470.901	381.88
471.12	380.88
471.339	371.88
471.558	385.88
471.777	377.88
471.997	362.88
472.216	349.88
472.435	363.88
472.654	358.88
472.873	363.88
473.092	356.88
473.311	363.88
473.53	369.88
473.749	357.88
473.968	362.88
474.187	406.88
474.406	410.88
474.625	366.88
474.844	366.88
475.063	361.88
475.282	360.88
475.501	366.88
475.72	374.88
475.939	378.88
476.158	353.88
476.377	378.88
476.596	381.88
476.814	378.88
477.033	390.88
477.252	382.88
477.471	402.88
477.69	403.88
477.908	390.88
478.127	400.88
478.346	423.88
478.564	414.88
478.783	426.88
479.002	423.88
479.22	430.88
479.439	411.88
479.658	448.88
479.876	452.88
480.095	463.88
480.313	463.88
480.532	468.88
480.751	447.88
480.969	464.88
481.188	443.88
481.406	438.88
481.624	435.88
481.843	422.88
482.061	409.88
482.28	407.88
482.498	404.88
482.717	413.88
482.935	401.88
483.153	419.88
483.372	411.88
483.59	407.88
483.808	430.88
484.027	425.88
484.245	435.88
484.463	416.88
484.681	423.88
484.9	430.88
485.118	430.88
485.336	451.88
485.554	444.88
485.772	438.88
485.99	433.88
486.209	415.88
486.427	438.88
486.645	434.88
486.863	441.88
487.081	450.88
487.299	443.88
487.517	446.88
487.735	438.88
487.953	419.88
488.171	446.88
488.389	438.88
488.607	457.88
488.825	434.88
489.043	428.88
489.261	439.88
489.479	432.88
489.696	437.88
489.914	431.88
490.132	440.88
490.35	458.88
490.568	440.88
490.786	453.88
491.003	455.88
491.221	446.88
491.439	477.88
491.657	448.88
491.874	462.88
492.092	444.88
492.31	468.88
492.527	456.88
492.745	462.88
492.963	454.88
493.18	480.88
493.398	495.88
493.615	475.88
493.833	472.88
494.05	459.88
494.268	473.88
494.485	500.88
494.703	462.88
494.92	497.88
495.138	494.88
495.355	469.88
495.573	482.88
495.79	501.88
496.008	508.88
496.225	489.88
496.442	494.88
496.66	498.88
496.877	526.88
497.094	518.88
497.312	517.88
497.529	521.88
497.746	529.88
497.963	539.88
498.181	563.88
498.398	568.88
498.615	572.88
498.832	629.88
499.049	645.88
499.267	675.88
499.484	769.88
499.701	794.88
499.918	825.88
500.135	888.88
500.352	964.88
500.569	1040.88
500.786	1012.88
501.003	967.88
501.22	896.88
501.437	838.88
501.654	768.88
501.871	720.88
502.088	718.88
502.305	660.88
502.522	615.88
502.739	631.88
502.956	580.88
503.172	566.88
503.389	579.88
503.606	540.88
503.823	546.88
504.04	554.88
504.256	538.88
504.473	546.88
504.69	543.88
504.907	517.88
505.123	502.88
505.34	475.88
505.557	475.88
505.773	480.88
505.99	457.88
506.207	458.88
506.423	460.88
506.64	459.88
506.856	478.88
507.073	456.88
507.289	446.88
507.506	450.88
507.722	437.88
507.939	440.88
508.155	431.88
508.372	420.88
508.588	424.88
508.805	431.88
509.021	422.88
509.238	425.88
509.454	423.88
509.67	410.88
509.887	422.88
510.103	405.88
510.319	419.88
510.536	439.88
510.752	534.88
510.968	485.88
511.184	401.88
511.401	418.88
511.617	409.88
511.833	410.88
512.049	396.88
512.265	426.88
512.481	409.88
512.698	402.88
512.914	388.88
513.13	391.88
513.346	391.88
513.562	389.88
513.778	366.88
513.994	410.88
514.21	386.88
514.426	405.88
514.642	409.88
514.858	412.88
515.074	417.88
515.29	451.88
515.506	490.88
515.721	486.88
515.937	438.88
516.153	439.88
516.369	453.88
516.585	432.88
516.801	433.88
517.016	472.88
517.232	466.88
517.448	479.88
517.664	504.88
517.879	495.88
518.095	507.88
518.311	484.88
518.527	476.88
518.742	478.88
518.958	472.88
519.173	454.88
519.389	448.88
519.605	424.88
519.82	417.88
520.036	423.88
520.251	420.88
520.467	408.88
520.682	410.88
520.898	413.88
521.113	406.88
521.329	404.88
521.544	394.88
521.76	430.88
521.975	553.88
522.19	548.88
522.406	434.88
522.621	409.88
522.836	371.88
523.052	396.88
523.267	385.88
523.482	368.88
523.698	386.88
523.913	384.88
524.128	368.88
524.343	380.88
524.559	387.88
524.774	378.88
524.989	371.88
525.204	374.88
525.419	364.88
525.634	380.88
525.849	347.88
526.064	359.88
526.28	372.88
526.495	368.88
526.71	366.88
526.925	351.88
527.14	367.88
527.355	374.88
527.57	349.88
527.785	354.88
527.999	348.88
528.214	360.88
528.429	355.88
528.644	348.88
528.859	367.88
529.074	335.88
529.289	368.88
529.503	369.88
529.718	376.88
529.933	364.88
530.148	359.88
530.363	350.88
530.577	344.88
530.792	360.88
531.007	342.88
531.221	385.88
531.436	358.88
531.651	341.88
531.865	360.88
532.08	359.88
532.295	348.88
532.509	339.88
532.724	341.88
532.938	372.88
533.153	334.88
533.367	330.88
533.582	352.88
533.796	358.88
534.011	342.88
534.225	348.88
534.44	339.88
534.654	362.88
534.868	352.88
535.083	360.88
535.297	342.88
535.511	357.88
535.726	331.88
535.94	348.88
536.154	344.88
536.369	339.88
536.583	330.88
536.797	370.88
537.011	330.88
537.225	333.88
537.44	334.88
537.654	336.88
537.868	335.88
538.082	328.88
538.296	325.88
538.51	323.88
538.724	337.88
538.938	323.88
539.153	332.88
539.367	337.88
539.581	318.88
539.795	353.88
540.009	339.88
540.222	336.88
540.436	338.88
540.65	332.88
540.864	318.88
541.078	334.88
541.292	329.88
541.506	340.88
541.72	336.88
541.934	320.88
542.147	335.88
542.361	350.88
542.575	350.88
542.789	336.88
543.002	339.88
543.216	325.88
543.43	346.88
543.644	327.88
543.857	337.88
544.071	329.88
544.285	336.88
544.498	342.88
544.712	328.88
544.925	327.88
545.139	345.88
545.352	371.88
545.566	343.88
545.779	343.88
545.993	337.88
546.206	341.88
546.42	371.88
546.633	347.88
546.847	342.88
547.06	339.88
547.274	339.88
547.487	323.88
547.7	338.88
547.914	349.88
548.127	335.88
548.34	336.88
548.554	345.88
548.767	332.88
548.98	346.88
549.193	346.88
549.407	340.88
549.62	331.88
549.833	323.88
550.046	344.88
550.259	335.88
550.473	320.88
550.686	335.88
550.899	327.88
551.112	345.88
551.325	330.88
551.538	353.88
551.751	338.88
551.964	338.88
552.177	347.88
552.39	332.88
552.603	362.88
552.816	339.88
553.029	364.88
553.242	354.88
553.455	354.88
553.667	384.88
553.88	384.88
554.093	356.88
554.306	357.88
554.519	340.88
554.732	351.88
554.944	323.88
555.157	329.88
555.37	314.88
555.583	316.88
555.795	314.88
556.008	318.88
556.221	291.88
556.433	313.88
556.646	305.88
556.859	297.88
557.071	314.88
557.284	320.88
557.496	321.88
557.709	302.88
557.921	316.88
558.134	292.88
558.346	293.88
558.559	306.88
558.771	302.88
558.984	302.88
559.196	283.88
559.409	293.88
559.621	314.88
559.833	304.88
560.046	292.88
560.258	303.88
560.47	289.88
560.683	308.88
560.895	294.88
561.107	288.88
561.32	299.88
561.532	310.88
561.744	310.88
561.956	308.88
562.168	298.88
562.381	297.88
562.593	312.88
562.805	309.88
563.017	316.88
563.229	308.88
563.441	297.88
563.653	290.88
563.865	311.88
564.077	302.88
564.289	327.88
564.501	316.88
564.713	324.88
564.925	333.88
565.137	328.88
565.349	341.88
565.561	346.88
565.773	357.88
565.985	355.88
566.197	378.88
566.408	388.88
566.62	444.88
566.832	439.88
567.044	438.88
567.255	436.88
567.467	456.88
567.679	443.88
567.891	482.88
568.102	505.88
568.314	464.88
568.526	443.88
568.737	414.88
568.949	390.88
569.161	380.88
569.372	350.88
569.584	334.88
569.795	335.88
570.007	310.88
570.218	319.88
570.43	328.88
570.641	306.88
570.853	308.88
571.064	319.88
571.276	294.88
571.487	295.88
571.698	316.88
571.91	301.88
572.121	303.88
572.333	288.88
572.544	289.88
572.755	280.88
572.966	281.88
573.178	282.88
573.389	285.88
573.6	265.88
573.811	260.88
574.023	268.88
574.234	258.88
574.445	280.88
574.656	276.88
574.867	279.88
575.078	257.88
575.289	269.88
575.501	246.88
575.712	266.88
575.923	263.88
576.134	246.88
576.345	269.88
576.556	266.88
576.767	262.88
576.978	263.88
577.188	244.88
577.399	243.88
577.61	259.88
577.821	247.88
578.032	264.88
578.243	254.88
578.454	289.88
578.665	272.88
578.875	246.88
579.086	262.88
579.297	256.88
579.508	239.88
579.718	230.88
579.929	227.88
580.14	235.88
580.35	244.88
580.561	256.88
580.772	247.88
580.982	234.88
581.193	235.88
581.403	234.88
581.614	248.88
581.825	260.88
582.035	233.88
582.246	257.88
582.456	240.88
582.667	256.88
582.877	248.88
583.087	222.88
583.298	243.88
583.508	224.88
583.719	218.88
583.929	236.88
584.139	230.88
584.35	252.88
584.56	248.88
584.77	228.88
584.981	224.88
585.191	232.88
585.401	221.88
585.611	241.88
585.821	212.88
586.032	243.88
586.242	241.88
586.452	242.88
586.662	252.88
586.872	239.88
587.082	228.88
587.292	228.88
587.502	236.88
587.713	225.88
587.923	230.88
588.133	221.88
588.343	244.88
588.553	244.88
588.762	239.88
588.972	272.88
589.182	315.88
589.392	309.88
589.602	259.88
589.812	302.88
590.022	259.88
590.232	241.88
590.441	244.88
590.651	225.88
590.861	246.88
591.071	233.88
591.281	244.88
591.49	242.88
591.7	250.88
591.91	245.88
592.119	248.88
592.329	256.88
592.539	257.88
592.748	284.88
592.958	278.88
593.167	265.88
593.377	288.88
593.587	297.88
593.796	302.88
594.006	269.88
594.215	279.88
594.424	273.88
594.634	298.88
594.843	281.88
595.053	268.88
595.262	257.88
595.472	242.88
595.681	240.88
595.89	258.88
596.1	242.88
596.309	231.88
596.518	228.88
596.727	234.88
596.937	213.88
597.146	220.88
597.355	220.88
597.564	235.88
597.774	228.88
597.983	245.88
598.192	198.88
598.401	207.88
598.61	215.88
598.819	220.88
599.028	208.88
599.237	201.88
599.446	211.88
599.655	208.88
599.864	216.88
600.073	205.88
600.282	219.88
600.491	204.88
600.7	209.88
600.909	204.88
601.118	206.88
601.327	190.88
601.536	187.88
601.745	203.88
601.953	198.88
602.162	208.88
602.371	200.88
602.58	198.88
602.789	200.88
602.997	209.88
603.206	218.88
603.415	204.88
603.623	188.88
603.832	193.88
604.041	186.88
604.249	192.88
604.458	208.88
604.666	201.88
604.875	201.88
605.084	195.88
605.292	193.88
605.501	204.88
605.709	202.88
605.918	202.88
606.126	201.88
606.334	193.88
606.543	217.88
606.751	212.88
606.96	201.88
607.168	194.88
607.376	205.88
607.585	215.88
607.793	189.88
608.001	209.88
608.21	181.88
608.418	186.88
608.626	187.88
608.834	192.88
609.043	210.88
609.251	209.88
609.459	202.88
609.667	199.88
609.875	177.88
610.083	198.88
610.291	195.88
610.499	199.88
610.707	208.88
610.916	189.88
611.124	195.88
611.332	204.88
611.54	193.88
611.748	199.88
611.955	188.88
612.163	194.88
612.371	183.88
612.579	196.88
612.787	192.88
612.995	182.88
613.203	183.88
613.411	194.88
613.618	176.88
613.826	200.88
614.034	185.88
614.242	193.88
614.449	190.88
614.657	193.88
614.865	187.88
615.072	184.88
615.28	192.88
615.488	184.88
615.695	193.88
615.903	190.88
616.111	184.88
616.318	198.88
616.526	184.88
616.733	183.88
616.941	188.88
617.148	189.88
617.356	184.88
617.563	198.88
617.771	195.88
617.978	187.88
618.185	195.88
618.393	180.88
618.6	191.88
618.807	187.88
619.015	189.88
619.222	180.88
619.429	188.88
619.637	188.88
619.844	179.88
620.051	188.88
620.258	170.88
620.466	178.88
620.673	176.88
620.88	180.88
621.087	184.88
621.294	180.88
621.501	174.88
621.708	172.88
621.915	188.88
622.122	184.88
622.329	189.88
622.536	177.88
622.743	163.88
622.95	176.88
623.157	185.88
623.364	174.88
623.571	167.88
623.778	187.88
623.985	174.88
624.192	178.88
624.399	170.88
624.606	163.88
624.812	169.88
625.019	172.88
625.226	165.88
625.433	175.88
625.639	176.88
625.846	178.88
626.053	159.88
626.259	184.88
626.466	179.88
626.673	170.88
626.879	177.88
627.086	158.88
627.293	171.88
627.499	186.88
627.706	175.88
627.912	167.88
628.119	162.88
628.325	156.88
628.532	165.88
628.738	182.88
628.945	160.88
629.151	175.88
629.357	174.88
629.564	182.88
629.77	161.88
629.976	163.88
630.183	180.88
630.389	154.88
630.595	154.88
630.802	164.88
631.008	157.88
631.214	160.88
631.42	174.88
631.627	168.88
631.833	173.88
632.039	160.88
632.245	153.88
632.451	162.88
632.657	171.88
632.863	164.88
633.069	184.88
633.275	163.88
633.481	156.88
633.688	163.88
633.893	140.88
634.099	168.88
634.305	169.88
634.511	158.88
634.717	148.88
634.923	164.88
635.129	156.88
635.335	139.88
635.541	138.88
635.747	167.88
635.952	146.88
636.158	155.88
636.364	150.88
636.57	148.88
636.775	142.88
636.981	145.88
637.187	165.88
637.392	131.88
637.598	153.88
637.804	163.88
638.009	166.88
638.215	149.88
638.421	140.88
638.626	161.88
638.832	173.88
639.037	146.88
639.243	155.88
639.448	160.88
639.654	146.88
639.859	160.88
640.065	127.88
640.27	164.88
640.475	146.88
640.681	154.88
640.886	147.88
641.091	151.88
641.297	141.88
641.502	142.88
641.707	153.88
641.913	146.88
642.118	153.88
642.323	146.88
642.528	144.88
642.733	154.88
642.939	136.88
643.144	151.88
643.349	166.88
643.554	128.88
643.759	134.88
643.964	133.88
644.169	139.88
644.374	145.88
644.579	148.88
644.784	140.88
644.989	150.88
645.194	130.88
645.399	145.88
645.604	149.88
645.809	143.88
646.014	148.88
646.219	149.88
646.423	150.88
646.628	140.88
646.833	126.88
647.038	143.88
647.243	146.88
647.447	143.88
647.652	141.88
647.857	145.88
648.062	148.88
648.266	157.88
648.471	144.88
648.676	176.88
648.88	133.88
649.085	155.88
649.289	155.88
649.494	148.88
649.698	167.88
649.903	148.88
650.107	144.88
650.312	142.88
650.516	146.88
650.721	146.88
650.925	155.88
651.13	138.88
651.334	148.88
651.539	138.88
651.743	131.88
651.947	131.88
652.152	133.88
652.356	129.88
652.56	121.88
652.764	123.88
652.969	127.88
653.173	146.88
653.377	124.88
653.581	142.88
653.785	141.88
653.99	143.88
654.194	131.88
654.398	126.88
654.602	127.88
654.806	121.88
655.01	131.88
655.214	136.88
655.418	130.88
655.622	133.88
655.826	147.88
656.03	135.88
656.234	145.88
656.438	137.88
656.642	140.88
656.846	130.88
657.049	130.88
657.253	128.88
657.457	138.88
657.661	124.88
657.865	129.88
658.068	114.88
658.272	106.88
658.476	114.88
658.68	108.88
658.883	97.88
659.087	104.88
659.291	95.88
659.494	110.88
659.698	110.88
659.901	100.88
660.105	107.88
660.309	92.88
660.512	92.88
660.716	86.88
660.919	90.88
661.123	79.88
661.326	94.88
661.53	82.88
661.733	89.88
661.936	86.88
662.14	91.88
662.343	92.88
662.546	84.88
662.75	96.88
662.953	87.88
663.156	97.88
663.36	76.88
663.563	73.88
663.766	71.88
663.969	78.88
664.173	88.88
664.376	93.88
664.579	83.88
664.782	75.88
664.985	87.88
665.188	82.88
665.391	76.88
665.594	65.88
665.797	79.88
666	86.88
666.203	83.88
666.406	74.88
666.609	78.88
666.812	81.88
667.015	67.88
667.218	84.88
667.421	77.88
667.624	80.88
667.827	82.88
668.03	83.88
668.232	83.88
668.435	81.88
668.638	78.88
668.841	77.88
669.043	88.88
669.246	80.88
669.449	88.88
669.651	76.88
669.854	89.88
670.057	90.88
670.259	91.88
670.462	84.88
670.665	89.88
670.867	94.88
671.07	91.88
671.272	91.88
671.475	83.88
671.677	85.88
671.88	89.88
672.082	81.88
672.284	90.88
672.487	96.88
672.689	84.88
672.892	70.88
