Data from 1984.PennyLincolnUp.Lamp.En5.5.200Scan.071819.P1_HRD10591_16-58-47-968.txt Node
Date: Thu Jul 18 16:58:47 EDT 2019
User: cochatt
Spectrometer: HR+D1059
Trigger mode: 1
Integration Time (sec): 1.000000E-1
Scans to average: 1
Electric dark correction enabled: true
Nonlinearity correction enabled: false
Boxcar width: 0
XAxis mode: Wavelengths
Number of Pixels in Spectrum: 2048
>>>>>Begin Spectral Data<<<<<
223.165	-24.62
223.4	-24.62
223.635	-24.62
223.869	-10.62
224.104	-19.62
224.338	-13.62
224.573	-8.62
224.808	-24.62
225.042	-6.62
225.277	4.38
225.511	-11.62
225.746	-3.62
225.98	3.38
226.215	17.38
226.449	17.38
226.683	19.38
226.918	26.38
227.152	35.38
227.387	16.38
227.621	34.38
227.856	42.38
228.09	59.38
228.324	50.38
228.559	53.38
228.793	67.38
229.027	82.38
229.262	85.38
229.496	97.38
229.73	99.38
229.964	125.38
230.199	104.38
230.433	109.38
230.667	110.38
230.901	109.38
231.136	122.38
231.37	89.38
231.604	103.38
231.838	116.38
232.072	112.38
232.306	115.38
232.541	110.38
232.775	117.38
233.009	92.38
233.243	116.38
233.477	115.38
233.711	117.38
233.945	122.38
234.179	116.38
234.413	111.38
234.647	105.38
234.881	123.38
235.115	98.38
235.349	108.38
235.583	106.38
235.817	123.38
236.051	112.38
236.285	116.38
236.519	113.38
236.753	115.38
236.987	131.38
237.221	150.38
237.455	169.38
237.689	160.38
237.922	123.38
238.156	116.38
238.39	114.38
238.624	108.38
238.858	125.38
239.091	112.38
239.325	107.38
239.559	116.38
239.793	106.38
240.027	136.38
240.26	135.38
240.494	150.38
240.728	134.38
240.961	136.38
241.195	134.38
241.429	119.38
241.662	128.38
241.896	128.38
242.13	118.38
242.363	122.38
242.597	131.38
242.83	134.38
243.064	120.38
243.298	128.38
243.531	133.38
243.765	133.38
243.998	132.38
244.232	131.38
244.465	140.38
244.699	126.38
244.932	137.38
245.166	132.38
245.399	140.38
245.633	131.38
245.866	150.38
246.099	126.38
246.333	137.38
246.566	142.38
246.8	129.38
247.033	150.38
247.266	149.38
247.5	142.38
247.733	153.38
247.966	143.38
248.2	155.38
248.433	153.38
248.666	151.38
248.899	147.38
249.133	172.38
249.366	178.38
249.599	169.38
249.832	159.38
250.066	164.38
250.299	161.38
250.532	183.38
250.765	190.38
250.998	200.38
251.231	191.38
251.465	181.38
251.698	191.38
251.931	157.38
252.164	168.38
252.397	176.38
252.63	185.38
252.863	186.38
253.096	183.38
253.329	182.38
253.562	206.38
253.795	196.38
254.028	186.38
254.261	193.38
254.494	191.38
254.727	201.38
254.96	230.38
255.193	220.38
255.426	190.38
255.659	202.38
255.892	202.38
256.124	230.38
256.357	247.38
256.59	240.38
256.823	190.38
257.056	215.38
257.289	203.38
257.521	212.38
257.754	187.38
257.987	188.38
258.22	195.38
258.452	190.38
258.685	197.38
258.918	194.38
259.151	205.38
259.383	187.38
259.616	201.38
259.849	186.38
260.081	215.38
260.314	215.38
260.547	217.38
260.779	217.38
261.012	225.38
261.244	199.38
261.477	197.38
261.71	204.38
261.942	194.38
262.175	217.38
262.407	218.38
262.64	202.38
262.872	191.38
263.105	202.38
263.337	193.38
263.57	198.38
263.802	198.38
264.035	197.38
264.267	214.38
264.499	206.38
264.732	210.38
264.964	208.38
265.197	204.38
265.429	199.38
265.661	192.38
265.894	203.38
266.126	197.38
266.358	206.38
266.591	209.38
266.823	206.38
267.055	214.38
267.287	212.38
267.52	210.38
267.752	194.38
267.984	218.38
268.216	218.38
268.448	216.38
268.681	219.38
268.913	237.38
269.145	225.38
269.377	248.38
269.609	227.38
269.841	242.38
270.073	235.38
270.306	242.38
270.538	269.38
270.77	262.38
271.002	248.38
271.234	258.38
271.466	257.38
271.698	273.38
271.93	260.38
272.162	268.38
272.394	267.38
272.626	256.38
272.858	261.38
273.09	237.38
273.322	266.38
273.553	251.38
273.785	257.38
274.017	238.38
274.249	242.38
274.481	262.38
274.713	244.38
274.945	259.38
275.176	245.38
275.408	244.38
275.64	252.38
275.872	243.38
276.104	243.38
276.335	240.38
276.567	243.38
276.799	254.38
277.031	270.38
277.262	268.38
277.494	288.38
277.726	269.38
277.957	256.38
278.189	247.38
278.421	260.38
278.652	256.38
278.884	265.38
279.115	266.38
279.347	264.38
279.579	261.38
279.81	254.38
280.042	265.38
280.273	244.38
280.505	259.38
280.736	251.38
280.968	247.38
281.199	264.38
281.431	262.38
281.662	264.38
281.894	261.38
282.125	261.38
282.356	252.38
282.588	280.38
282.819	269.38
283.051	287.38
283.282	257.38
283.513	266.38
283.745	280.38
283.976	264.38
284.207	274.38
284.439	274.38
284.67	269.38
284.901	276.38
285.132	268.38
285.364	274.38
285.595	268.38
285.826	295.38
286.057	288.38
286.288	251.38
286.52	281.38
286.751	287.38
286.982	280.38
287.213	285.38
287.444	265.38
287.675	278.38
287.906	285.38
288.138	293.38
288.369	318.38
288.6	302.38
288.831	281.38
289.062	288.38
289.293	291.38
289.524	280.38
289.755	286.38
289.986	292.38
290.217	292.38
290.448	272.38
290.679	277.38
290.91	291.38
291.141	279.38
291.371	278.38
291.602	285.38
291.833	270.38
292.064	291.38
292.295	283.38
292.526	281.38
292.757	289.38
292.987	278.38
293.218	283.38
293.449	284.38
293.68	277.38
293.91	277.38
294.141	278.38
294.372	275.38
294.603	275.38
294.833	298.38
295.064	288.38
295.295	277.38
295.525	299.38
295.756	292.38
295.987	304.38
296.217	328.38
296.448	317.38
296.679	292.38
296.909	309.38
297.14	298.38
297.37	301.38
297.601	313.38
297.831	315.38
298.062	297.38
298.292	316.38
298.523	301.38
298.753	326.38
298.984	297.38
299.214	297.38
299.445	301.38
299.675	307.38
299.905	315.38
300.136	320.38
300.366	303.38
300.597	320.38
300.827	311.38
301.057	311.38
301.288	315.38
301.518	321.38
301.748	325.38
301.979	325.38
302.209	326.38
302.439	338.38
302.669	322.38
302.9	331.38
303.13	311.38
303.36	306.38
303.59	316.38
303.82	329.38
304.051	326.38
304.281	334.38
304.511	329.38
304.741	321.38
304.971	330.38
305.201	330.38
305.431	323.38
305.661	349.38
305.891	306.38
306.121	329.38
306.352	327.38
306.582	330.38
306.812	317.38
307.042	329.38
307.272	316.38
307.502	318.38
307.731	325.38
307.961	312.38
308.191	312.38
308.421	332.38
308.651	323.38
308.881	318.38
309.111	316.38
309.341	326.38
309.571	339.38
309.8	341.38
310.03	329.38
310.26	347.38
310.49	342.38
310.72	353.38
310.949	359.38
311.179	356.38
311.409	345.38
311.639	348.38
311.868	327.38
312.098	358.38
312.328	368.38
312.557	355.38
312.787	372.38
313.017	374.38
313.246	371.38
313.476	363.38
313.706	336.38
313.935	337.38
314.165	362.38
314.394	370.38
314.624	359.38
314.853	368.38
315.083	368.38
315.312	342.38
315.542	348.38
315.771	348.38
316.001	335.38
316.23	353.38
316.46	355.38
316.689	361.38
316.919	361.38
317.148	343.38
317.377	345.38
317.607	380.38
317.836	372.38
318.065	348.38
318.295	357.38
318.524	365.38
318.753	348.38
318.983	357.38
319.212	372.38
319.441	348.38
319.67	352.38
319.9	366.38
320.129	363.38
320.358	368.38
320.587	358.38
320.816	361.38
321.046	358.38
321.275	375.38
321.504	390.38
321.733	375.38
321.962	368.38
322.191	377.38
322.42	391.38
322.649	418.38
322.878	408.38
323.108	417.38
323.337	408.38
323.566	445.38
323.795	467.38
324.024	486.38
324.253	558.38
324.482	730.38
324.71	1044.38
324.939	1440.38
325.168	1231.38
325.397	710.38
325.626	546.38
325.855	474.38
326.084	457.38
326.313	423.38
326.542	440.38
326.77	484.38
326.999	526.38
327.228	690.38
327.457	957.38
327.686	1151.38
327.914	782.38
328.143	582.38
328.372	538.38
328.6	516.38
328.829	490.38
329.058	490.38
329.287	497.38
329.515	467.38
329.744	473.38
329.972	508.38
330.201	521.38
330.43	565.38
330.658	540.38
330.887	521.38
331.115	516.38
331.344	463.38
331.572	444.38
331.801	436.38
332.03	460.38
332.258	433.38
332.486	444.38
332.715	452.38
332.943	453.38
333.172	455.38
333.4	482.38
333.629	489.38
333.857	498.38
334.085	532.38
334.314	588.38
334.542	608.38
334.771	615.38
334.999	537.38
335.227	482.38
335.455	461.38
335.684	460.38
335.912	471.38
336.14	437.38
336.369	442.38
336.597	449.38
336.825	443.38
337.053	456.38
337.281	428.38
337.51	424.38
337.738	426.38
337.966	409.38
338.194	442.38
338.422	426.38
338.65	435.38
338.878	415.38
339.106	407.38
339.334	416.38
339.562	404.38
339.79	399.38
340.018	387.38
340.246	389.38
340.474	399.38
340.702	392.38
340.93	396.38
341.158	403.38
341.386	411.38
341.614	388.38
341.842	391.38
342.07	386.38
342.298	401.38
342.526	379.38
342.754	369.38
342.981	387.38
343.209	370.38
343.437	404.38
343.665	418.38
343.893	430.38
344.12	441.38
344.348	450.38
344.576	434.38
344.804	413.38
345.031	403.38
345.259	405.38
345.487	402.38
345.714	383.38
345.942	387.38
346.17	373.38
346.397	349.38
346.625	372.38
346.853	388.38
347.08	378.38
347.308	388.38
347.535	391.38
347.763	386.38
347.99	385.38
348.218	400.38
348.445	369.38
348.673	377.38
348.9	390.38
349.128	359.38
349.355	380.38
349.583	383.38
349.81	357.38
350.037	358.38
350.265	377.38
350.492	353.38
350.72	368.38
350.947	365.38
351.174	382.38
351.402	384.38
351.629	368.38
351.856	389.38
352.083	371.38
352.311	389.38
352.538	388.38
352.765	371.38
352.992	369.38
353.22	355.38
353.447	368.38
353.674	354.38
353.901	360.38
354.128	370.38
354.355	382.38
354.583	379.38
354.81	348.38
355.037	350.38
355.264	346.38
355.491	347.38
355.718	346.38
355.945	347.38
356.172	356.38
356.399	365.38
356.626	360.38
356.853	374.38
357.08	355.38
357.307	373.38
357.534	352.38
357.761	338.38
357.988	368.38
358.215	356.38
358.441	359.38
358.668	361.38
358.895	355.38
359.122	344.38
359.349	357.38
359.576	371.38
359.802	373.38
360.029	412.38
360.256	394.38
360.483	390.38
360.709	365.38
360.936	382.38
361.163	385.38
361.39	386.38
361.616	374.38
361.843	372.38
362.07	379.38
362.296	389.38
362.523	361.38
362.749	361.38
362.976	344.38
363.203	369.38
363.429	358.38
363.656	366.38
363.882	365.38
364.109	352.38
364.335	346.38
364.562	325.38
364.788	357.38
365.015	339.38
365.241	350.38
365.468	364.38
365.694	361.38
365.92	367.38
366.147	360.38
366.373	374.38
366.599	350.38
366.826	354.38
367.052	332.38
367.278	353.38
367.505	342.38
367.731	347.38
367.957	342.38
368.184	348.38
368.41	323.38
368.636	353.38
368.862	372.38
369.089	355.38
369.315	380.38
369.541	387.38
369.767	365.38
369.993	360.38
370.219	355.38
370.445	352.38
370.672	342.38
370.898	359.38
371.124	361.38
371.35	361.38
371.576	369.38
371.802	342.38
372.028	370.38
372.254	362.38
372.48	354.38
372.706	356.38
372.932	377.38
373.158	376.38
373.384	373.38
373.61	387.38
373.835	368.38
374.061	376.38
374.287	363.38
374.513	384.38
374.739	368.38
374.965	374.38
375.191	380.38
375.416	393.38
375.642	382.38
375.868	370.38
376.094	357.38
376.319	369.38
376.545	364.38
376.771	362.38
376.997	360.38
377.222	381.38
377.448	358.38
377.674	365.38
377.899	367.38
378.125	334.38
378.35	358.38
378.576	354.38
378.802	375.38
379.027	362.38
379.253	347.38
379.478	354.38
379.704	363.38
379.929	344.38
380.155	372.38
380.38	360.38
380.606	367.38
380.831	356.38
381.057	358.38
381.282	355.38
381.507	359.38
381.733	353.38
381.958	372.38
382.184	377.38
382.409	342.38
382.634	384.38
382.86	365.38
383.085	370.38
383.31	363.38
383.535	386.38
383.761	376.38
383.986	376.38
384.211	399.38
384.436	397.38
384.662	393.38
384.887	387.38
385.112	398.38
385.337	402.38
385.562	408.38
385.787	398.38
386.013	407.38
386.238	397.38
386.463	407.38
386.688	416.38
386.913	396.38
387.138	404.38
387.363	397.38
387.588	395.38
387.813	416.38
388.038	403.38
388.263	406.38
388.488	411.38
388.713	407.38
388.938	407.38
389.163	400.38
389.387	417.38
389.612	415.38
389.837	392.38
390.062	412.38
390.287	403.38
390.512	406.38
390.736	431.38
390.961	410.38
391.186	429.38
391.411	433.38
391.636	415.38
391.86	427.38
392.085	464.38
392.31	456.38
392.534	435.38
392.759	434.38
392.984	426.38
393.208	409.38
393.433	407.38
393.658	412.38
393.882	418.38
394.107	412.38
394.331	416.38
394.556	416.38
394.78	421.38
395.005	398.38
395.229	429.38
395.454	436.38
395.678	434.38
395.903	455.38
396.127	444.38
396.352	458.38
396.576	433.38
396.801	434.38
397.025	420.38
397.249	428.38
397.474	436.38
397.698	444.38
397.922	461.38
398.147	453.38
398.371	474.38
398.595	448.38
398.82	491.38
399.044	496.38
399.268	524.38
399.492	574.38
399.717	638.38
399.941	634.38
400.165	628.38
400.389	603.38
400.613	536.38
400.837	512.38
401.062	493.38
401.286	497.38
401.51	478.38
401.734	492.38
401.958	490.38
402.182	489.38
402.406	515.38
402.63	491.38
402.854	492.38
403.078	483.38
403.302	499.38
403.526	528.38
403.75	506.38
403.974	532.38
404.198	532.38
404.422	535.38
404.645	544.38
404.869	564.38
405.093	542.38
405.317	587.38
405.541	623.38
405.765	554.38
405.988	528.38
406.212	531.38
406.436	536.38
406.66	554.38
406.883	534.38
407.107	573.38
407.331	588.38
407.555	634.38
407.778	636.38
408.002	597.38
408.226	560.38
408.449	574.38
408.673	566.38
408.896	563.38
409.12	566.38
409.344	560.38
409.567	521.38
409.791	549.38
410.014	526.38
410.238	503.38
410.461	513.38
410.685	489.38
410.908	492.38
411.132	513.38
411.355	554.38
411.578	533.38
411.802	522.38
412.025	518.38
412.249	524.38
412.472	540.38
412.695	578.38
412.919	561.38
413.142	512.38
413.365	512.38
413.589	498.38
413.812	461.38
414.035	468.38
414.258	455.38
414.482	466.38
414.705	480.38
414.928	488.38
415.151	490.38
415.374	473.38
415.597	461.38
415.821	454.38
416.044	475.38
416.267	474.38
416.49	448.38
416.713	450.38
416.936	477.38
417.159	476.38
417.382	481.38
417.605	481.38
417.828	477.38
418.051	481.38
418.274	492.38
418.497	464.38
418.72	469.38
418.943	501.38
419.166	515.38
419.389	546.38
419.611	536.38
419.834	515.38
420.057	524.38
420.28	527.38
420.503	516.38
420.726	490.38
420.948	489.38
421.171	511.38
421.394	529.38
421.617	491.38
421.839	474.38
422.062	496.38
422.285	487.38
422.507	516.38
422.73	590.38
422.953	573.38
423.175	524.38
423.398	508.38
423.621	512.38
423.843	534.38
424.066	527.38
424.288	525.38
424.511	504.38
424.733	555.38
424.956	594.38
425.178	577.38
425.401	565.38
425.623	587.38
425.846	525.38
426.068	483.38
426.291	474.38
426.513	485.38
426.735	496.38
426.958	505.38
427.18	552.38
427.402	602.38
427.625	705.38
427.847	619.38
428.069	550.38
428.292	513.38
428.514	460.38
428.736	463.38
428.958	450.38
429.181	440.38
429.403	428.38
429.625	453.38
429.847	480.38
430.069	521.38
430.292	494.38
430.514	442.38
430.736	457.38
430.958	460.38
431.18	440.38
431.402	437.38
431.624	434.38
431.846	435.38
432.068	459.38
432.29	449.38
432.512	425.38
432.734	414.38
432.956	401.38
433.178	428.38
433.4	461.38
433.622	456.38
433.844	441.38
434.066	434.38
434.287	422.38
434.509	453.38
434.731	466.38
434.953	471.38
435.175	492.38
435.397	482.38
435.618	495.38
435.84	488.38
436.062	530.38
436.284	609.38
436.505	516.38
436.727	498.38
436.949	451.38
437.17	434.38
437.392	459.38
437.614	449.38
437.835	472.38
438.057	526.38
438.278	577.38
438.5	549.38
438.721	625.38
438.943	599.38
439.165	511.38
439.386	471.38
439.608	482.38
439.829	491.38
440.05	489.38
440.272	508.38
440.493	479.38
440.715	483.38
440.936	454.38
441.158	471.38
441.379	462.38
441.6	492.38
441.822	475.38
442.043	518.38
442.264	546.38
442.486	578.38
442.707	516.38
442.928	490.38
443.149	508.38
443.371	498.38
443.592	522.38
443.813	584.38
444.034	586.38
444.255	571.38
444.476	539.38
444.698	531.38
444.919	522.38
445.14	640.38
445.361	558.38
445.582	527.38
445.803	552.38
446.024	583.38
446.245	611.38
446.466	560.38
446.687	504.38
446.908	460.38
447.129	447.38
447.35	438.38
447.571	459.38
447.792	443.38
448.013	436.38
448.234	472.38
448.455	454.38
448.675	533.38
448.896	589.38
449.117	540.38
449.338	512.38
449.559	558.38
449.779	633.38
450	501.38
450.221	453.38
450.442	443.38
450.662	421.38
450.883	428.38
451.104	448.38
451.324	422.38
451.545	427.38
451.766	408.38
451.986	407.38
452.207	405.38
452.428	384.38
452.648	397.38
452.869	394.38
453.089	413.38
453.31	408.38
453.53	398.38
453.751	410.38
453.971	419.38
454.192	429.38
454.412	394.38
454.633	405.38
454.853	397.38
455.073	380.38
455.294	404.38
455.514	407.38
455.734	427.38
455.955	401.38
456.175	392.38
456.395	393.38
456.616	385.38
456.836	378.38
457.056	372.38
457.276	387.38
457.497	388.38
457.717	379.38
457.937	377.38
458.157	378.38
458.377	389.38
458.598	393.38
458.818	436.38
459.038	491.38
459.258	516.38
459.478	466.38
459.698	445.38
459.918	436.38
460.138	453.38
460.358	468.38
460.578	472.38
460.798	475.38
461.018	468.38
461.238	453.38
461.458	458.38
461.678	480.38
461.898	473.38
462.118	465.38
462.338	475.38
462.558	515.38
462.777	519.38
462.997	532.38
463.217	572.38
463.437	560.38
463.657	532.38
463.876	527.38
464.096	529.38
464.316	536.38
464.536	525.38
464.755	512.38
464.975	505.38
465.195	519.38
465.414	532.38
465.634	476.38
465.854	484.38
466.073	452.38
466.293	424.38
466.512	430.38
466.732	417.38
466.951	398.38
467.171	416.38
467.391	413.38
467.61	409.38
467.829	441.38
468.049	431.38
468.268	421.38
468.488	414.38
468.707	404.38
468.927	404.38
469.146	405.38
469.365	406.38
469.585	405.38
469.804	411.38
470.023	418.38
470.243	421.38
470.462	442.38
470.681	440.38
470.901	439.38
471.12	421.38
471.339	417.38
471.558	409.38
471.777	428.38
471.997	426.38
472.216	439.38
472.435	471.38
472.654	451.38
472.873	417.38
473.092	414.38
473.311	399.38
473.53	406.38
473.749	397.38
473.968	434.38
474.187	452.38
474.406	491.38
474.625	453.38
474.844	408.38
475.063	396.38
475.282	417.38
475.501	411.38
475.72	413.38
475.939	408.38
476.158	434.38
476.377	411.38
476.596	423.38
476.814	417.38
477.033	445.38
477.252	419.38
477.471	437.38
477.69	429.38
477.908	444.38
478.127	457.38
478.346	483.38
478.564	468.38
478.783	454.38
479.002	470.38
479.22	487.38
479.439	506.38
479.658	508.38
479.876	501.38
480.095	503.38
480.313	522.38
480.532	538.38
480.751	537.38
480.969	541.38
481.188	603.38
481.406	663.38
481.624	554.38
481.843	503.38
482.061	480.38
482.28	492.38
482.498	500.38
482.717	476.38
482.935	478.38
483.153	448.38
483.372	462.38
483.59	471.38
483.808	457.38
484.027	462.38
484.245	492.38
484.463	457.38
484.681	492.38
484.9	460.38
485.118	471.38
485.336	455.38
485.554	489.38
485.772	487.38
485.99	486.38
486.209	488.38
486.427	512.38
486.645	508.38
486.863	518.38
487.081	526.38
487.299	499.38
487.517	482.38
487.735	494.38
487.953	486.38
488.171	493.38
488.389	489.38
488.607	473.38
488.825	497.38
489.043	478.38
489.261	500.38
489.479	518.38
489.696	491.38
489.914	520.38
490.132	510.38
490.35	514.38
490.568	511.38
490.786	509.38
491.003	562.38
491.221	530.38
491.439	558.38
491.657	571.38
491.874	557.38
492.092	570.38
492.31	549.38
492.527	574.38
492.745	561.38
492.963	578.38
493.18	576.38
493.398	569.38
493.615	600.38
493.833	580.38
494.05	572.38
494.268	584.38
494.485	572.38
494.703	586.38
494.92	586.38
495.138	570.38
495.355	566.38
495.573	564.38
495.79	564.38
496.008	579.38
496.225	582.38
496.442	580.38
496.66	584.38
496.877	584.38
497.094	593.38
497.312	590.38
497.529	605.38
497.746	600.38
497.963	600.38
498.181	640.38
498.398	644.38
498.615	663.38
498.832	696.38
499.049	733.38
499.267	752.38
499.484	816.38
499.701	876.38
499.918	916.38
500.135	988.38
500.352	1082.38
500.569	1100.38
500.786	1140.38
501.003	1068.38
501.22	1012.38
501.437	933.38
501.654	875.38
501.871	820.38
502.088	783.38
502.305	763.38
502.522	707.38
502.739	699.38
502.956	646.38
503.172	664.38
503.389	633.38
503.606	620.38
503.823	620.38
504.04	626.38
504.256	604.38
504.473	612.38
504.69	640.38
504.907	624.38
505.123	582.38
505.34	569.38
505.557	552.38
505.773	535.38
505.99	541.38
506.207	524.38
506.423	520.38
506.64	507.38
506.856	522.38
507.073	530.38
507.289	522.38
507.506	518.38
507.722	538.38
507.939	520.38
508.155	505.38
508.372	516.38
508.588	509.38
508.805	489.38
509.021	499.38
509.238	506.38
509.454	512.38
509.67	489.38
509.887	491.38
510.103	477.38
510.319	503.38
510.536	557.38
510.752	846.38
510.968	694.38
511.184	503.38
511.401	473.38
511.617	496.38
511.833	485.38
512.049	503.38
512.265	508.38
512.481	480.38
512.698	468.38
512.914	476.38
513.13	474.38
513.346	477.38
513.562	472.38
513.778	484.38
513.994	471.38
514.21	490.38
514.426	494.38
514.642	493.38
514.858	542.38
515.074	555.38
515.29	617.38
515.506	849.38
515.721	711.38
515.937	542.38
516.153	498.38
516.369	498.38
516.585	518.38
516.801	532.38
517.016	537.38
517.232	534.38
517.448	565.38
517.664	556.38
517.879	584.38
518.095	572.38
518.311	565.38
518.527	538.38
518.742	534.38
518.958	536.38
519.173	516.38
519.389	490.38
519.605	491.38
519.82	456.38
520.036	485.38
520.251	493.38
520.467	509.38
520.682	516.38
520.898	492.38
521.113	518.38
521.329	560.38
521.544	578.38
521.76	681.38
521.975	1049.38
522.19	1036.38
522.406	647.38
522.621	497.38
522.836	486.38
523.052	448.38
523.267	435.38
523.482	418.38
523.698	412.38
523.913	417.38
524.128	448.38
524.343	412.38
524.559	409.38
524.774	434.38
524.989	423.38
525.204	392.38
525.419	413.38
525.634	415.38
525.849	416.38
526.064	421.38
526.28	401.38
526.495	405.38
526.71	409.38
526.925	387.38
527.14	406.38
527.355	378.38
527.57	404.38
527.785	419.38
527.999	391.38
528.214	420.38
528.429	409.38
528.644	400.38
528.859	398.38
529.074	404.38
529.289	417.38
529.503	477.38
529.718	429.38
529.933	408.38
530.148	429.38
530.363	418.38
530.577	400.38
530.792	402.38
531.007	389.38
531.221	400.38
531.436	421.38
531.651	414.38
531.865	391.38
532.08	374.38
532.295	388.38
532.509	404.38
532.724	390.38
532.938	410.38
533.153	421.38
533.367	408.38
533.582	402.38
533.796	396.38
534.011	369.38
534.225	386.38
534.44	386.38
534.654	383.38
534.868	384.38
535.083	386.38
535.297	391.38
535.511	377.38
535.726	397.38
535.94	389.38
536.154	389.38
536.369	378.38
536.583	368.38
536.797	385.38
537.011	391.38
537.225	363.38
537.44	365.38
537.654	376.38
537.868	377.38
538.082	363.38
538.296	370.38
538.51	352.38
538.724	380.38
538.938	376.38
539.153	387.38
539.367	383.38
539.581	377.38
539.795	380.38
540.009	348.38
540.222	374.38
540.436	378.38
540.65	371.38
540.864	386.38
541.078	384.38
541.292	387.38
541.506	381.38
541.72	364.38
541.934	375.38
542.147	374.38
542.361	373.38
542.575	362.38
542.789	374.38
543.002	373.38
543.216	365.38
543.43	363.38
543.644	368.38
543.857	364.38
544.071	380.38
544.285	388.38
544.498	359.38
544.712	363.38
544.925	377.38
545.139	384.38
545.352	365.38
545.566	362.38
545.779	370.38
545.993	373.38
546.206	381.38
546.42	370.38
546.633	375.38
546.847	375.38
547.06	350.38
547.274	368.38
547.487	369.38
547.7	353.38
547.914	361.38
548.127	338.38
548.34	361.38
548.554	362.38
548.767	371.38
548.98	368.38
549.193	360.38
549.407	366.38
549.62	376.38
549.833	370.38
550.046	377.38
550.259	364.38
550.473	374.38
550.686	358.38
550.899	372.38
551.112	338.38
551.325	351.38
551.538	363.38
551.751	357.38
551.964	350.38
552.177	361.38
552.39	376.38
552.603	369.38
552.816	385.38
553.029	390.38
553.242	381.38
553.455	388.38
553.667	394.38
553.88	384.38
554.093	394.38
554.306	377.38
554.519	381.38
554.732	371.38
554.944	356.38
555.157	342.38
555.37	348.38
555.583	332.38
555.795	342.38
556.008	334.38
556.221	349.38
556.433	321.38
556.646	324.38
556.859	316.38
557.071	339.38
557.284	353.38
557.496	339.38
557.709	347.38
557.921	334.38
558.134	329.38
558.346	326.38
558.559	316.38
558.771	324.38
558.984	334.38
559.196	322.38
559.409	311.38
559.621	318.38
559.833	326.38
560.046	323.38
560.258	308.38
560.47	340.38
560.683	327.38
560.895	330.38
561.107	323.38
561.32	312.38
561.532	326.38
561.744	318.38
561.956	341.38
562.168	312.38
562.381	333.38
562.593	312.38
562.805	330.38
563.017	331.38
563.229	326.38
563.441	346.38
563.653	323.38
563.865	299.38
564.077	350.38
564.289	334.38
564.501	328.38
564.713	354.38
564.925	342.38
565.137	358.38
565.349	363.38
565.561	373.38
565.773	358.38
565.985	399.38
566.197	402.38
566.408	414.38
566.62	427.38
566.832	459.38
567.044	462.38
567.255	478.38
567.467	470.38
567.679	496.38
567.891	519.38
568.102	519.38
568.314	493.38
568.526	474.38
568.737	437.38
568.949	396.38
569.161	381.38
569.372	382.38
569.584	364.38
569.795	355.38
570.007	353.38
570.218	357.38
570.43	358.38
570.641	334.38
570.853	323.38
571.064	337.38
571.276	328.38
571.487	324.38
571.698	329.38
571.91	312.38
572.121	305.38
572.333	308.38
572.544	294.38
572.755	308.38
572.966	300.38
573.178	306.38
573.389	282.38
573.6	284.38
573.811	289.38
574.023	297.38
574.234	293.38
574.445	293.38
574.656	285.38
574.867	292.38
575.078	279.38
575.289	271.38
575.501	271.38
575.712	289.38
575.923	275.38
576.134	281.38
576.345	278.38
576.556	279.38
576.767	278.38
576.978	280.38
577.188	281.38
577.399	290.38
577.61	267.38
577.821	275.38
578.032	274.38
578.243	299.38
578.454	427.38
578.665	337.38
578.875	262.38
579.086	269.38
579.297	270.38
579.508	278.38
579.718	269.38
579.929	252.38
580.14	273.38
580.35	270.38
580.561	258.38
580.772	245.38
580.982	262.38
581.193	251.38
581.403	272.38
581.614	280.38
581.825	242.38
582.035	248.38
582.246	263.38
582.456	255.38
582.667	257.38
582.877	257.38
583.087	246.38
583.298	262.38
583.508	262.38
583.719	258.38
583.929	276.38
584.139	257.38
584.35	250.38
584.56	261.38
584.77	262.38
584.981	261.38
585.191	255.38
585.401	268.38
585.611	248.38
585.821	240.38
586.032	260.38
586.242	238.38
586.452	256.38
586.662	246.38
586.872	241.38
587.082	248.38
587.292	240.38
587.502	253.38
587.713	246.38
587.923	257.38
588.133	244.38
588.343	231.38
588.553	240.38
588.762	239.38
588.972	262.38
589.182	265.38
589.392	244.38
589.602	248.38
589.812	261.38
590.022	263.38
590.232	245.38
590.441	258.38
590.651	246.38
590.861	252.38
591.071	253.38
591.281	259.38
591.49	264.38
591.7	256.38
591.91	265.38
592.119	270.38
592.329	261.38
592.539	272.38
592.748	263.38
592.958	276.38
593.167	288.38
593.377	293.38
593.587	308.38
593.796	292.38
594.006	306.38
594.215	289.38
594.424	296.38
594.634	308.38
594.843	282.38
595.053	285.38
595.262	276.38
595.472	273.38
595.681	266.38
595.89	259.38
596.1	247.38
596.309	272.38
596.518	258.38
596.727	246.38
596.937	250.38
597.146	230.38
597.355	264.38
597.564	227.38
597.774	240.38
597.983	242.38
598.192	222.38
598.401	234.38
598.61	222.38
598.819	218.38
599.028	202.38
599.237	206.38
599.446	231.38
599.655	226.38
599.864	235.38
600.073	228.38
600.282	219.38
600.491	234.38
600.7	212.38
600.909	224.38
601.118	229.38
601.327	232.38
601.536	228.38
601.745	212.38
601.953	212.38
602.162	217.38
602.371	228.38
602.58	223.38
602.789	216.38
602.997	213.38
603.206	231.38
603.415	211.38
603.623	225.38
603.832	215.38
604.041	203.38
604.249	214.38
604.458	212.38
604.666	219.38
604.875	225.38
605.084	220.38
605.292	204.38
605.501	210.38
605.709	222.38
605.918	220.38
606.126	205.38
606.334	214.38
606.543	209.38
606.751	233.38
606.96	217.38
607.168	218.38
607.376	202.38
607.585	196.38
607.793	216.38
608.001	206.38
608.21	215.38
608.418	212.38
608.626	231.38
608.834	224.38
609.043	205.38
609.251	208.38
609.459	198.38
609.667	213.38
609.875	194.38
610.083	194.38
610.291	210.38
610.499	210.38
610.707	198.38
610.916	198.38
611.124	193.38
611.332	200.38
611.54	213.38
611.748	208.38
611.955	216.38
612.163	210.38
612.371	210.38
612.579	218.38
612.787	196.38
612.995	209.38
613.203	198.38
613.411	194.38
613.618	204.38
613.826	201.38
614.034	194.38
614.242	197.38
614.449	189.38
614.657	200.38
614.865	192.38
615.072	199.38
615.28	197.38
615.488	189.38
615.695	195.38
615.903	200.38
616.111	206.38
616.318	203.38
616.526	190.38
616.733	211.38
616.941	193.38
617.148	187.38
617.356	197.38
617.563	202.38
617.771	199.38
617.978	204.38
618.185	210.38
618.393	199.38
618.6	201.38
618.807	197.38
619.015	191.38
619.222	203.38
619.429	173.38
619.637	214.38
619.844	196.38
620.051	210.38
620.258	193.38
620.466	202.38
620.673	186.38
620.88	190.38
621.087	204.38
621.294	189.38
621.501	188.38
621.708	199.38
621.915	181.38
622.122	192.38
622.329	202.38
622.536	189.38
622.743	183.38
622.95	189.38
623.157	178.38
623.364	194.38
623.571	174.38
623.778	191.38
623.985	194.38
624.192	182.38
624.399	184.38
624.606	186.38
624.812	188.38
625.019	183.38
625.226	189.38
625.433	187.38
625.639	166.38
625.846	196.38
626.053	186.38
626.259	184.38
626.466	173.38
626.673	174.38
626.879	183.38
627.086	190.38
627.293	180.38
627.499	180.38
627.706	162.38
627.912	169.38
628.119	158.38
628.325	179.38
628.532	190.38
628.738	174.38
628.945	168.38
629.151	192.38
629.357	184.38
629.564	168.38
629.77	167.38
629.976	185.38
630.183	194.38
630.389	162.38
630.595	188.38
630.802	175.38
631.008	176.38
631.214	171.38
631.42	170.38
631.627	170.38
631.833	174.38
632.039	161.38
632.245	166.38
632.451	158.38
632.657	148.38
632.863	183.38
633.069	176.38
633.275	168.38
633.481	154.38
633.688	158.38
633.893	164.38
634.099	180.38
634.305	156.38
634.511	170.38
634.717	168.38
634.923	165.38
635.129	153.38
635.335	163.38
635.541	166.38
635.747	167.38
635.952	159.38
636.158	179.38
636.364	160.38
636.57	162.38
636.775	187.38
636.981	146.38
637.187	155.38
637.392	148.38
637.598	180.38
637.804	167.38
638.009	149.38
638.215	157.38
638.421	154.38
638.626	163.38
638.832	149.38
639.037	144.38
639.243	150.38
639.448	162.38
639.654	160.38
639.859	148.38
640.065	133.38
640.27	156.38
640.475	140.38
640.681	157.38
640.886	154.38
641.091	155.38
641.297	161.38
641.502	155.38
641.707	166.38
641.913	150.38
642.118	159.38
642.323	152.38
642.528	168.38
642.733	160.38
642.939	154.38
643.144	141.38
643.349	138.38
643.554	154.38
643.759	146.38
643.964	148.38
644.169	166.38
644.374	134.38
644.579	137.38
644.784	149.38
644.989	142.38
645.194	148.38
645.399	143.38
645.604	143.38
645.809	145.38
646.014	135.38
646.219	147.38
646.423	154.38
646.628	154.38
646.833	138.38
647.038	154.38
647.243	169.38
647.447	146.38
647.652	155.38
647.857	144.38
648.062	141.38
648.266	151.38
648.471	164.38
648.676	157.38
648.88	155.38
649.085	156.38
649.289	154.38
649.494	156.38
649.698	161.38
649.903	155.38
650.107	165.38
650.312	140.38
650.516	129.38
650.721	143.38
650.925	141.38
651.13	126.38
651.334	149.38
651.539	143.38
651.743	137.38
651.947	136.38
652.152	137.38
652.356	134.38
652.56	136.38
652.764	141.38
652.969	132.38
653.173	143.38
653.377	134.38
653.581	135.38
653.785	123.38
653.99	132.38
654.194	122.38
654.398	128.38
654.602	118.38
654.806	120.38
655.01	134.38
655.214	132.38
655.418	134.38
655.622	112.38
655.826	130.38
656.03	145.38
656.234	122.38
656.438	117.38
656.642	129.38
656.846	127.38
657.049	118.38
657.253	126.38
657.457	104.38
657.661	115.38
657.865	107.38
658.068	107.38
658.272	109.38
658.476	100.38
658.68	91.38
658.883	105.38
659.087	106.38
659.291	105.38
659.494	91.38
659.698	105.38
659.901	93.38
660.105	98.38
660.309	85.38
660.512	93.38
660.716	99.38
660.919	94.38
661.123	102.38
661.326	95.38
661.53	98.38
661.733	98.38
661.936	102.38
662.14	84.38
662.343	89.38
662.546	85.38
662.75	98.38
662.953	96.38
663.156	64.38
663.36	77.38
663.563	85.38
663.766	93.38
663.969	73.38
664.173	80.38
664.376	98.38
664.579	78.38
664.782	78.38
664.985	85.38
665.188	83.38
665.391	82.38
665.594	65.38
665.797	90.38
666	88.38
666.203	90.38
666.406	91.38
666.609	80.38
666.812	72.38
667.015	78.38
667.218	75.38
667.421	86.38
667.624	100.38
667.827	80.38
668.03	75.38
668.232	76.38
668.435	73.38
668.638	91.38
668.841	84.38
669.043	66.38
669.246	89.38
669.449	76.38
669.651	96.38
669.854	72.38
670.057	88.38
670.259	87.38
670.462	82.38
670.665	88.38
670.867	91.38
671.07	85.38
671.272	81.38
671.475	85.38
671.677	89.38
671.88	74.38
672.082	82.38
672.284	81.38
672.487	75.38
672.689	60.38
672.892	73.38
