Data from 1984.PennyLincolnUp.Lamp.En5.5.200Scan.071819.P1_HRD10591_16-59-49-968.txt Node
Date: Thu Jul 18 16:59:49 EDT 2019
User: cochatt
Spectrometer: HR+D1059
Trigger mode: 1
Integration Time (sec): 1.000000E-1
Scans to average: 1
Electric dark correction enabled: true
Nonlinearity correction enabled: false
Boxcar width: 0
XAxis mode: Wavelengths
Number of Pixels in Spectrum: 2048
>>>>>Begin Spectral Data<<<<<
223.165	-25.62
223.4	-25.62
223.635	-25.62
223.869	-12.62
224.104	-8.62
224.338	-22.62
224.573	-9.62
224.808	-29.62
225.042	-12.62
225.277	1.38
225.511	7.38
225.746	4.38
225.98	11.38
226.215	3.38
226.449	17.38
226.683	28.38
226.918	28.38
227.152	19.38
227.387	27.38
227.621	37.38
227.856	41.38
228.09	38.38
228.324	54.38
228.559	45.38
228.793	67.38
229.027	85.38
229.262	99.38
229.496	106.38
229.73	98.38
229.964	130.38
230.199	107.38
230.433	109.38
230.667	126.38
230.901	104.38
231.136	106.38
231.37	122.38
231.604	111.38
231.838	107.38
232.072	115.38
232.306	116.38
232.541	106.38
232.775	92.38
233.009	117.38
233.243	121.38
233.477	117.38
233.711	103.38
233.945	102.38
234.179	113.38
234.413	111.38
234.647	115.38
234.881	116.38
235.115	108.38
235.349	118.38
235.583	117.38
235.817	114.38
236.051	118.38
236.285	114.38
236.519	118.38
236.753	124.38
236.987	120.38
237.221	153.38
237.455	166.38
237.689	148.38
237.922	121.38
238.156	115.38
238.39	119.38
238.624	108.38
238.858	109.38
239.091	109.38
239.325	116.38
239.559	105.38
239.793	109.38
240.027	124.38
240.26	129.38
240.494	121.38
240.728	135.38
240.961	117.38
241.195	118.38
241.429	132.38
241.662	118.38
241.896	127.38
242.13	132.38
242.363	135.38
242.597	133.38
242.83	135.38
243.064	133.38
243.298	125.38
243.531	125.38
243.765	123.38
243.998	124.38
244.232	129.38
244.465	131.38
244.699	125.38
244.932	153.38
245.166	146.38
245.399	131.38
245.633	130.38
245.866	117.38
246.099	129.38
246.333	131.38
246.566	151.38
246.8	149.38
247.033	133.38
247.266	134.38
247.5	135.38
247.733	139.38
247.966	164.38
248.2	157.38
248.433	161.38
248.666	150.38
248.899	165.38
249.133	170.38
249.366	187.38
249.599	171.38
249.832	151.38
250.066	179.38
250.299	180.38
250.532	202.38
250.765	208.38
250.998	220.38
251.231	198.38
251.465	196.38
251.698	172.38
251.931	184.38
252.164	181.38
252.397	180.38
252.63	178.38
252.863	179.38
253.096	183.38
253.329	196.38
253.562	197.38
253.795	171.38
254.028	179.38
254.261	179.38
254.494	179.38
254.727	209.38
254.96	216.38
255.193	215.38
255.426	210.38
255.659	194.38
255.892	240.38
256.124	261.38
256.357	273.38
256.59	238.38
256.823	229.38
257.056	207.38
257.289	199.38
257.521	205.38
257.754	210.38
257.987	196.38
258.22	179.38
258.452	183.38
258.685	196.38
258.918	195.38
259.151	194.38
259.383	185.38
259.616	201.38
259.849	214.38
260.081	191.38
260.314	206.38
260.547	213.38
260.779	223.38
261.012	211.38
261.244	206.38
261.477	230.38
261.71	208.38
261.942	185.38
262.175	207.38
262.407	203.38
262.64	217.38
262.872	197.38
263.105	191.38
263.337	211.38
263.57	196.38
263.802	193.38
264.035	186.38
264.267	190.38
264.499	202.38
264.732	190.38
264.964	199.38
265.197	186.38
265.429	213.38
265.661	200.38
265.894	201.38
266.126	206.38
266.358	209.38
266.591	204.38
266.823	206.38
267.055	217.38
267.287	212.38
267.52	225.38
267.752	205.38
267.984	205.38
268.216	221.38
268.448	217.38
268.681	210.38
268.913	219.38
269.145	214.38
269.377	242.38
269.609	243.38
269.841	241.38
270.073	245.38
270.306	271.38
270.538	264.38
270.77	270.38
271.002	259.38
271.234	253.38
271.466	257.38
271.698	262.38
271.93	270.38
272.162	276.38
272.394	263.38
272.626	248.38
272.858	249.38
273.09	258.38
273.322	245.38
273.553	236.38
273.785	241.38
274.017	253.38
274.249	245.38
274.481	232.38
274.713	235.38
274.945	259.38
275.176	238.38
275.408	247.38
275.64	245.38
275.872	243.38
276.104	252.38
276.335	239.38
276.567	259.38
276.799	271.38
277.031	278.38
277.262	277.38
277.494	290.38
277.726	271.38
277.957	287.38
278.189	264.38
278.421	257.38
278.652	260.38
278.884	253.38
279.115	245.38
279.347	266.38
279.579	277.38
279.81	277.38
280.042	269.38
280.273	268.38
280.505	247.38
280.736	255.38
280.968	275.38
281.199	278.38
281.431	258.38
281.662	259.38
281.894	249.38
282.125	247.38
282.356	259.38
282.588	286.38
282.819	287.38
283.051	274.38
283.282	267.38
283.513	264.38
283.745	275.38
283.976	262.38
284.207	281.38
284.439	273.38
284.67	272.38
284.901	277.38
285.132	283.38
285.364	279.38
285.595	273.38
285.826	284.38
286.057	290.38
286.288	282.38
286.52	274.38
286.751	277.38
286.982	273.38
287.213	279.38
287.444	282.38
287.675	276.38
287.906	302.38
288.138	285.38
288.369	269.38
288.6	274.38
288.831	285.38
289.062	279.38
289.293	273.38
289.524	293.38
289.755	270.38
289.986	285.38
290.217	292.38
290.448	270.38
290.679	287.38
290.91	289.38
291.141	280.38
291.371	273.38
291.602	276.38
291.833	266.38
292.064	294.38
292.295	288.38
292.526	294.38
292.757	299.38
292.987	282.38
293.218	290.38
293.449	305.38
293.68	316.38
293.91	295.38
294.141	295.38
294.372	280.38
294.603	296.38
294.833	285.38
295.064	276.38
295.295	294.38
295.525	292.38
295.756	284.38
295.987	318.38
296.217	307.38
296.448	313.38
296.679	299.38
296.909	293.38
297.14	283.38
297.37	279.38
297.601	313.38
297.831	294.38
298.062	301.38
298.292	293.38
298.523	307.38
298.753	305.38
298.984	299.38
299.214	292.38
299.445	298.38
299.675	294.38
299.905	307.38
300.136	313.38
300.366	308.38
300.597	305.38
300.827	322.38
301.057	317.38
301.288	332.38
301.518	327.38
301.748	305.38
301.979	331.38
302.209	330.38
302.439	322.38
302.669	319.38
302.9	312.38
303.13	317.38
303.36	324.38
303.59	321.38
303.82	310.38
304.051	345.38
304.281	323.38
304.511	319.38
304.741	316.38
304.971	328.38
305.201	323.38
305.431	317.38
305.661	311.38
305.891	326.38
306.121	328.38
306.352	331.38
306.582	325.38
306.812	319.38
307.042	320.38
307.272	319.38
307.502	327.38
307.731	333.38
307.961	326.38
308.191	315.38
308.421	305.38
308.651	314.38
308.881	318.38
309.111	312.38
309.341	318.38
309.571	342.38
309.8	344.38
310.03	347.38
310.26	343.38
310.49	363.38
310.72	355.38
310.949	358.38
311.179	350.38
311.409	362.38
311.639	331.38
311.868	359.38
312.098	348.38
312.328	336.38
312.557	370.38
312.787	358.38
313.017	363.38
313.246	343.38
313.476	362.38
313.706	350.38
313.935	357.38
314.165	370.38
314.394	365.38
314.624	364.38
314.853	340.38
315.083	374.38
315.312	359.38
315.542	342.38
315.771	339.38
316.001	353.38
316.23	353.38
316.46	351.38
316.689	345.38
316.919	358.38
317.148	377.38
317.377	359.38
317.607	360.38
317.836	353.38
318.065	351.38
318.295	369.38
318.524	358.38
318.753	347.38
318.983	354.38
319.212	351.38
319.441	345.38
319.67	360.38
319.9	339.38
320.129	348.38
320.358	357.38
320.587	369.38
320.816	355.38
321.046	387.38
321.275	369.38
321.504	359.38
321.733	371.38
321.962	370.38
322.191	376.38
322.42	379.38
322.649	402.38
322.878	392.38
323.108	436.38
323.337	436.38
323.566	407.38
323.795	439.38
324.024	484.38
324.253	545.38
324.482	711.38
324.71	1049.38
324.939	1494.38
325.168	1274.38
325.397	695.38
325.626	545.38
325.855	484.38
326.084	470.38
326.313	443.38
326.542	421.38
326.77	453.38
326.999	547.38
327.228	705.38
327.457	985.38
327.686	1166.38
327.914	806.38
328.143	602.38
328.372	572.38
328.6	542.38
328.829	520.38
329.058	494.38
329.287	501.38
329.515	487.38
329.744	483.38
329.972	518.38
330.201	567.38
330.43	633.38
330.658	607.38
330.887	576.38
331.115	538.38
331.344	503.38
331.572	485.38
331.801	470.38
332.03	443.38
332.258	452.38
332.486	462.38
332.715	479.38
332.943	468.38
333.172	484.38
333.4	482.38
333.629	525.38
333.857	556.38
334.085	615.38
334.314	656.38
334.542	718.38
334.771	710.38
334.999	623.38
335.227	527.38
335.455	488.38
335.684	467.38
335.912	471.38
336.14	458.38
336.369	466.38
336.597	466.38
336.825	434.38
337.053	451.38
337.281	423.38
337.51	441.38
337.738	433.38
337.966	412.38
338.194	417.38
338.422	428.38
338.65	409.38
338.878	399.38
339.106	401.38
339.334	422.38
339.562	424.38
339.79	389.38
340.018	393.38
340.246	395.38
340.474	405.38
340.702	401.38
340.93	408.38
341.158	405.38
341.386	400.38
341.614	393.38
341.842	389.38
342.07	402.38
342.298	383.38
342.526	396.38
342.754	393.38
342.981	394.38
343.209	389.38
343.437	397.38
343.665	391.38
343.893	433.38
344.12	445.38
344.348	427.38
344.576	433.38
344.804	415.38
345.031	418.38
345.259	417.38
345.487	398.38
345.714	396.38
345.942	384.38
346.17	391.38
346.397	383.38
346.625	381.38
346.853	379.38
347.08	387.38
347.308	374.38
347.535	375.38
347.763	390.38
347.99	396.38
348.218	376.38
348.445	396.38
348.673	379.38
348.9	379.38
349.128	402.38
349.355	372.38
349.583	371.38
349.81	357.38
350.037	356.38
350.265	369.38
350.492	369.38
350.72	376.38
350.947	387.38
351.174	385.38
351.402	365.38
351.629	355.38
351.856	376.38
352.083	381.38
352.311	383.38
352.538	374.38
352.765	370.38
352.992	377.38
353.22	379.38
353.447	363.38
353.674	361.38
353.901	372.38
354.128	337.38
354.355	362.38
354.583	366.38
354.81	353.38
355.037	358.38
355.264	348.38
355.491	375.38
355.718	355.38
355.945	339.38
356.172	347.38
356.399	356.38
356.626	390.38
356.853	344.38
357.08	349.38
357.307	351.38
357.534	359.38
357.761	341.38
357.988	349.38
358.215	350.38
358.441	364.38
358.668	354.38
358.895	358.38
359.122	353.38
359.349	367.38
359.576	357.38
359.802	370.38
360.029	389.38
360.256	387.38
360.483	374.38
360.709	371.38
360.936	367.38
361.163	379.38
361.39	371.38
361.616	366.38
361.843	373.38
362.07	370.38
362.296	376.38
362.523	375.38
362.749	361.38
362.976	358.38
363.203	348.38
363.429	340.38
363.656	348.38
363.882	344.38
364.109	345.38
364.335	356.38
364.562	363.38
364.788	345.38
365.015	355.38
365.241	349.38
365.468	365.38
365.694	367.38
365.92	377.38
366.147	355.38
366.373	363.38
366.599	335.38
366.826	349.38
367.052	356.38
367.278	365.38
367.505	353.38
367.731	379.38
367.957	365.38
368.184	344.38
368.41	354.38
368.636	340.38
368.862	365.38
369.089	358.38
369.315	340.38
369.541	365.38
369.767	361.38
369.993	345.38
370.219	349.38
370.445	373.38
370.672	357.38
370.898	369.38
371.124	361.38
371.35	369.38
371.576	381.38
371.802	358.38
372.028	348.38
372.254	357.38
372.48	360.38
372.706	378.38
372.932	374.38
373.158	378.38
373.384	372.38
373.61	373.38
373.835	365.38
374.061	363.38
374.287	362.38
374.513	379.38
374.739	383.38
374.965	389.38
375.191	392.38
375.416	380.38
375.642	373.38
375.868	389.38
376.094	375.38
376.319	369.38
376.545	379.38
376.771	356.38
376.997	358.38
377.222	339.38
377.448	361.38
377.674	359.38
377.899	359.38
378.125	362.38
378.35	360.38
378.576	371.38
378.802	359.38
379.027	358.38
379.253	360.38
379.478	343.38
379.704	375.38
379.929	349.38
380.155	335.38
380.38	368.38
380.606	365.38
380.831	371.38
381.057	378.38
381.282	362.38
381.507	355.38
381.733	376.38
381.958	369.38
382.184	374.38
382.409	401.38
382.634	366.38
382.86	355.38
383.085	385.38
383.31	365.38
383.535	393.38
383.761	381.38
383.986	371.38
384.211	382.38
384.436	397.38
384.662	399.38
384.887	405.38
385.112	404.38
385.337	421.38
385.562	404.38
385.787	422.38
386.013	419.38
386.238	415.38
386.463	411.38
386.688	400.38
386.913	399.38
387.138	396.38
387.363	428.38
387.588	433.38
387.813	397.38
388.038	412.38
388.263	405.38
388.488	403.38
388.713	410.38
388.938	397.38
389.163	415.38
389.387	419.38
389.612	414.38
389.837	423.38
390.062	385.38
390.287	409.38
390.512	386.38
390.736	422.38
390.961	422.38
391.186	398.38
391.411	437.38
391.636	443.38
391.86	428.38
392.085	427.38
392.31	429.38
392.534	437.38
392.759	430.38
392.984	429.38
393.208	409.38
393.433	412.38
393.658	418.38
393.882	407.38
394.107	415.38
394.331	397.38
394.556	429.38
394.78	424.38
395.005	410.38
395.229	399.38
395.454	430.38
395.678	439.38
395.903	459.38
396.127	440.38
396.352	445.38
396.576	441.38
396.801	403.38
397.025	405.38
397.249	427.38
397.474	453.38
397.698	454.38
397.922	446.38
398.147	467.38
398.371	469.38
398.595	462.38
398.82	469.38
399.044	479.38
399.268	535.38
399.492	590.38
399.717	653.38
399.941	643.38
400.165	628.38
400.389	589.38
400.613	533.38
400.837	525.38
401.062	501.38
401.286	479.38
401.51	491.38
401.734	493.38
401.958	491.38
402.182	491.38
402.406	501.38
402.63	517.38
402.854	527.38
403.078	505.38
403.302	513.38
403.526	491.38
403.75	529.38
403.974	529.38
404.198	541.38
404.422	554.38
404.645	533.38
404.869	545.38
405.093	580.38
405.317	636.38
405.541	648.38
405.765	610.38
405.988	577.38
406.212	538.38
406.436	550.38
406.66	542.38
406.883	533.38
407.107	561.38
407.331	601.38
407.555	663.38
407.778	645.38
408.002	587.38
408.226	570.38
408.449	535.38
408.673	570.38
408.896	562.38
409.12	578.38
409.344	553.38
409.567	535.38
409.791	513.38
410.014	491.38
410.238	511.38
410.461	510.38
410.685	507.38
410.908	518.38
411.132	523.38
411.355	552.38
411.578	533.38
411.802	503.38
412.025	492.38
412.249	534.38
412.472	559.38
412.695	597.38
412.919	575.38
413.142	546.38
413.365	506.38
413.589	501.38
413.812	489.38
414.035	478.38
414.258	477.38
414.482	479.38
414.705	491.38
414.928	478.38
415.151	495.38
415.374	488.38
415.597	463.38
415.821	446.38
416.044	474.38
416.267	458.38
416.49	463.38
416.713	441.38
416.936	472.38
417.159	468.38
417.382	466.38
417.605	470.38
417.828	499.38
418.051	508.38
418.274	475.38
418.497	468.38
418.72	495.38
418.943	476.38
419.166	517.38
419.389	524.38
419.611	534.38
419.834	508.38
420.057	533.38
420.28	541.38
420.503	541.38
420.726	501.38
420.948	492.38
421.171	525.38
421.394	532.38
421.617	486.38
421.839	501.38
422.062	492.38
422.285	500.38
422.507	535.38
422.73	573.38
422.953	547.38
423.175	501.38
423.398	518.38
423.621	500.38
423.843	513.38
424.066	495.38
424.288	493.38
424.511	535.38
424.733	540.38
424.956	571.38
425.178	561.38
425.401	538.38
425.623	579.38
425.846	522.38
426.068	493.38
426.291	490.38
426.513	471.38
426.735	486.38
426.958	510.38
427.18	573.38
427.402	631.38
427.625	690.38
427.847	625.38
428.069	597.38
428.292	548.38
428.514	478.38
428.736	468.38
428.958	440.38
429.181	453.38
429.403	451.38
429.625	458.38
429.847	491.38
430.069	501.38
430.292	524.38
430.514	441.38
430.736	447.38
430.958	441.38
431.18	436.38
431.402	431.38
431.624	427.38
431.846	437.38
432.068	418.38
432.29	449.38
432.512	415.38
432.734	441.38
432.956	436.38
433.178	440.38
433.4	437.38
433.622	462.38
433.844	429.38
434.066	429.38
434.287	435.38
434.509	463.38
434.731	467.38
434.953	480.38
435.175	472.38
435.397	486.38
435.618	489.38
435.84	491.38
436.062	549.38
436.284	604.38
436.505	522.38
436.727	480.38
436.949	462.38
437.17	461.38
437.392	466.38
437.614	436.38
437.835	469.38
438.057	501.38
438.278	568.38
438.5	575.38
438.721	618.38
438.943	604.38
439.165	494.38
439.386	472.38
439.608	462.38
439.829	477.38
440.05	489.38
440.272	502.38
440.493	478.38
440.715	478.38
440.936	476.38
441.158	475.38
441.379	462.38
441.6	474.38
441.822	510.38
442.043	515.38
442.264	547.38
442.486	581.38
442.707	513.38
442.928	535.38
443.149	502.38
443.371	507.38
443.592	527.38
443.813	594.38
444.034	630.38
444.255	547.38
444.476	513.38
444.698	517.38
444.919	536.38
445.14	622.38
445.361	540.38
445.582	515.38
445.803	541.38
446.024	598.38
446.245	587.38
446.466	549.38
446.687	487.38
446.908	476.38
447.129	443.38
447.35	453.38
447.571	440.38
447.792	427.38
448.013	424.38
448.234	436.38
448.455	471.38
448.675	539.38
448.896	590.38
449.117	519.38
449.338	495.38
449.559	547.38
449.779	612.38
450	521.38
450.221	463.38
450.442	426.38
450.662	415.38
450.883	435.38
451.104	445.38
451.324	417.38
451.545	405.38
451.766	403.38
451.986	401.38
452.207	386.38
452.428	401.38
452.648	391.38
452.869	414.38
453.089	392.38
453.31	397.38
453.53	389.38
453.751	398.38
453.971	385.38
454.192	402.38
454.412	377.38
454.633	374.38
454.853	387.38
455.073	391.38
455.294	409.38
455.514	413.38
455.734	422.38
455.955	400.38
456.175	381.38
456.395	380.38
456.616	360.38
456.836	366.38
457.056	371.38
457.276	365.38
457.497	359.38
457.717	372.38
457.937	387.38
458.157	367.38
458.377	385.38
458.598	398.38
458.818	433.38
459.038	472.38
459.258	507.38
459.478	469.38
459.698	445.38
459.918	440.38
460.138	451.38
460.358	451.38
460.578	479.38
460.798	472.38
461.018	455.38
461.238	463.38
461.458	464.38
461.678	476.38
461.898	471.38
462.118	474.38
462.338	502.38
462.558	500.38
462.777	509.38
462.997	534.38
463.217	567.38
463.437	567.38
463.657	548.38
463.876	517.38
464.096	513.38
464.316	523.38
464.536	519.38
464.755	549.38
464.975	516.38
465.195	505.38
465.414	538.38
465.634	476.38
465.854	437.38
466.073	433.38
466.293	440.38
466.512	435.38
466.732	426.38
466.951	417.38
467.171	411.38
467.391	408.38
467.61	421.38
467.829	424.38
468.049	432.38
468.268	420.38
468.488	412.38
468.707	409.38
468.927	408.38
469.146	400.38
469.365	417.38
469.585	417.38
469.804	417.38
470.023	431.38
470.243	426.38
470.462	420.38
470.681	445.38
470.901	440.38
471.12	417.38
471.339	443.38
471.558	417.38
471.777	420.38
471.997	405.38
472.216	438.38
472.435	519.38
472.654	508.38
472.873	462.38
473.092	425.38
473.311	423.38
473.53	408.38
473.749	413.38
473.968	434.38
474.187	491.38
474.406	499.38
474.625	451.38
474.844	395.38
475.063	390.38
475.282	424.38
475.501	403.38
475.72	387.38
475.939	415.38
476.158	422.38
476.377	440.38
476.596	422.38
476.814	422.38
477.033	419.38
477.252	438.38
477.471	442.38
477.69	431.38
477.908	454.38
478.127	460.38
478.346	458.38
478.564	472.38
478.783	478.38
479.002	461.38
479.22	500.38
479.439	484.38
479.658	497.38
479.876	506.38
480.095	493.38
480.313	533.38
480.532	540.38
480.751	539.38
480.969	567.38
481.188	673.38
481.406	741.38
481.624	616.38
481.843	554.38
482.061	527.38
482.28	506.38
482.498	501.38
482.717	509.38
482.935	475.38
483.153	495.38
483.372	476.38
483.59	502.38
483.808	475.38
484.027	483.38
484.245	485.38
484.463	465.38
484.681	501.38
484.9	457.38
485.118	494.38
485.336	481.38
485.554	504.38
485.772	484.38
485.99	486.38
486.209	489.38
486.427	509.38
486.645	489.38
486.863	513.38
487.081	521.38
487.299	503.38
487.517	485.38
487.735	476.38
487.953	493.38
488.171	509.38
488.389	508.38
488.607	507.38
488.825	501.38
489.043	520.38
489.261	518.38
489.479	495.38
489.696	497.38
489.914	500.38
490.132	537.38
490.35	529.38
490.568	549.38
490.786	539.38
491.003	540.38
491.221	566.38
491.439	567.38
491.657	553.38
491.874	576.38
492.092	621.38
492.31	594.38
492.527	582.38
492.745	601.38
492.963	612.38
493.18	591.38
493.398	609.38
493.615	620.38
493.833	593.38
494.05	606.38
494.268	602.38
494.485	614.38
494.703	582.38
494.92	577.38
495.138	583.38
495.355	595.38
495.573	607.38
495.79	577.38
496.008	593.38
496.225	577.38
496.442	592.38
496.66	589.38
496.877	572.38
497.094	588.38
497.312	596.38
497.529	591.38
497.746	602.38
497.963	647.38
498.181	645.38
498.398	661.38
498.615	716.38
498.832	686.38
499.049	725.38
499.267	789.38
499.484	793.38
499.701	843.38
499.918	915.38
500.135	1018.38
500.352	1104.38
500.569	1122.38
500.786	1157.38
501.003	1103.38
501.22	971.38
501.437	906.38
501.654	858.38
501.871	841.38
502.088	796.38
502.305	753.38
502.522	717.38
502.739	691.38
502.956	672.38
503.172	630.38
503.389	625.38
503.606	627.38
503.823	619.38
504.04	600.38
504.256	609.38
504.473	602.38
504.69	621.38
504.907	595.38
505.123	576.38
505.34	567.38
505.557	570.38
505.773	545.38
505.99	541.38
506.207	528.38
506.423	520.38
506.64	533.38
506.856	501.38
507.073	499.38
507.289	522.38
507.506	532.38
507.722	526.38
507.939	524.38
508.155	523.38
508.372	513.38
508.588	518.38
508.805	513.38
509.021	490.38
509.238	482.38
509.454	486.38
509.67	498.38
509.887	477.38
510.103	473.38
510.319	514.38
510.536	558.38
510.752	822.38
510.968	677.38
511.184	508.38
511.401	489.38
511.617	490.38
511.833	511.38
512.049	521.38
512.265	503.38
512.481	495.38
512.698	499.38
512.914	479.38
513.13	469.38
513.346	476.38
513.562	475.38
513.778	466.38
513.994	467.38
514.21	483.38
514.426	531.38
514.642	493.38
514.858	511.38
515.074	546.38
515.29	599.38
515.506	814.38
515.721	681.38
515.937	539.38
516.153	515.38
516.369	494.38
516.585	486.38
516.801	519.38
517.016	520.38
517.232	542.38
517.448	561.38
517.664	569.38
517.879	578.38
518.095	563.38
518.311	569.38
518.527	528.38
518.742	543.38
518.958	525.38
519.173	530.38
519.389	487.38
519.605	495.38
519.82	487.38
520.036	491.38
520.251	475.38
520.467	501.38
520.682	488.38
520.898	490.38
521.113	498.38
521.329	533.38
521.544	563.38
521.76	651.38
521.975	964.38
522.19	993.38
522.406	613.38
522.621	501.38
522.836	476.38
523.052	447.38
523.267	432.38
523.482	437.38
523.698	434.38
523.913	432.38
524.128	423.38
524.343	433.38
524.559	430.38
524.774	401.38
524.989	420.38
525.204	425.38
525.419	419.38
525.634	434.38
525.849	427.38
526.064	411.38
526.28	421.38
526.495	399.38
526.71	407.38
526.925	416.38
527.14	411.38
527.355	406.38
527.57	415.38
527.785	404.38
527.999	421.38
528.214	413.38
528.429	413.38
528.644	402.38
528.859	409.38
529.074	399.38
529.289	409.38
529.503	449.38
529.718	436.38
529.933	418.38
530.148	409.38
530.363	382.38
530.577	378.38
530.792	393.38
531.007	401.38
531.221	396.38
531.436	383.38
531.651	389.38
531.865	421.38
532.08	395.38
532.295	395.38
532.509	389.38
532.724	393.38
532.938	409.38
533.153	380.38
533.367	372.38
533.582	409.38
533.796	384.38
534.011	400.38
534.225	387.38
534.44	395.38
534.654	398.38
534.868	391.38
535.083	385.38
535.297	400.38
535.511	398.38
535.726	381.38
535.94	389.38
536.154	386.38
536.369	389.38
536.583	371.38
536.797	379.38
537.011	388.38
537.225	374.38
537.44	373.38
537.654	370.38
537.868	373.38
538.082	354.38
538.296	372.38
538.51	357.38
538.724	379.38
538.938	369.38
539.153	357.38
539.367	375.38
539.581	364.38
539.795	373.38
540.009	399.38
540.222	365.38
540.436	377.38
540.65	360.38
540.864	360.38
541.078	362.38
541.292	374.38
541.506	397.38
541.72	370.38
541.934	350.38
542.147	377.38
542.361	366.38
542.575	356.38
542.789	381.38
543.002	369.38
543.216	388.38
543.43	365.38
543.644	362.38
543.857	371.38
544.071	388.38
544.285	367.38
544.498	382.38
544.712	375.38
544.925	364.38
545.139	371.38
545.352	373.38
545.566	372.38
545.779	386.38
545.993	382.38
546.206	387.38
546.42	376.38
546.633	383.38
546.847	367.38
547.06	365.38
547.274	359.38
547.487	377.38
547.7	370.38
547.914	379.38
548.127	356.38
548.34	367.38
548.554	373.38
548.767	385.38
548.98	361.38
549.193	356.38
549.407	356.38
549.62	371.38
549.833	363.38
550.046	364.38
550.259	366.38
550.473	378.38
550.686	384.38
550.899	361.38
551.112	386.38
551.325	357.38
551.538	338.38
551.751	363.38
551.964	370.38
552.177	355.38
552.39	369.38
552.603	377.38
552.816	374.38
553.029	369.38
553.242	381.38
553.455	406.38
553.667	422.38
553.88	407.38
554.093	383.38
554.306	370.38
554.519	379.38
554.732	374.38
554.944	385.38
555.157	350.38
555.37	358.38
555.583	341.38
555.795	351.38
556.008	355.38
556.221	349.38
556.433	319.38
556.646	323.38
556.859	358.38
557.071	341.38
557.284	340.38
557.496	336.38
557.709	325.38
557.921	334.38
558.134	319.38
558.346	333.38
558.559	331.38
558.771	339.38
558.984	336.38
559.196	345.38
559.409	317.38
559.621	326.38
559.833	310.38
560.046	321.38
560.258	328.38
560.47	314.38
560.683	315.38
560.895	326.38
561.107	320.38
561.32	331.38
561.532	313.38
561.744	317.38
561.956	319.38
562.168	309.38
562.381	297.38
562.593	325.38
562.805	313.38
563.017	312.38
563.229	351.38
563.441	339.38
563.653	350.38
563.865	333.38
564.077	335.38
564.289	325.38
564.501	337.38
564.713	355.38
564.925	357.38
565.137	348.38
565.349	365.38
565.561	363.38
565.773	374.38
565.985	387.38
566.197	400.38
566.408	421.38
566.62	446.38
566.832	466.38
567.044	445.38
567.255	469.38
567.467	457.38
567.679	489.38
567.891	527.38
568.102	518.38
568.314	482.38
568.526	458.38
568.737	422.38
568.949	403.38
569.161	374.38
569.372	380.38
569.584	364.38
569.795	352.38
570.007	356.38
570.218	372.38
570.43	365.38
570.641	347.38
570.853	327.38
571.064	355.38
571.276	344.38
571.487	341.38
571.698	340.38
571.91	315.38
572.121	305.38
572.333	283.38
572.544	283.38
572.755	306.38
572.966	297.38
573.178	289.38
573.389	304.38
573.6	287.38
573.811	315.38
574.023	292.38
574.234	282.38
574.445	295.38
574.656	285.38
574.867	290.38
575.078	273.38
575.289	290.38
575.501	281.38
575.712	269.38
575.923	277.38
576.134	269.38
576.345	264.38
576.556	290.38
576.767	276.38
576.978	271.38
577.188	287.38
577.399	268.38
577.61	263.38
577.821	284.38
578.032	267.38
578.243	289.38
578.454	421.38
578.665	334.38
578.875	270.38
579.086	266.38
579.297	263.38
579.508	273.38
579.718	275.38
579.929	258.38
580.14	260.38
580.35	266.38
580.561	263.38
580.772	276.38
580.982	261.38
581.193	255.38
581.403	257.38
581.614	256.38
581.825	257.38
582.035	257.38
582.246	261.38
582.456	266.38
582.667	258.38
582.877	245.38
583.087	243.38
583.298	258.38
583.508	258.38
583.719	246.38
583.929	255.38
584.139	250.38
584.35	258.38
584.56	254.38
584.77	247.38
584.981	255.38
585.191	256.38
585.401	226.38
585.611	260.38
585.821	254.38
586.032	249.38
586.242	247.38
586.452	254.38
586.662	244.38
586.872	251.38
587.082	257.38
587.292	256.38
587.502	263.38
587.713	242.38
587.923	262.38
588.133	251.38
588.343	251.38
588.553	243.38
588.762	269.38
588.972	251.38
589.182	255.38
589.392	247.38
589.602	279.38
589.812	261.38
590.022	270.38
590.232	248.38
590.441	259.38
590.651	251.38
590.861	255.38
591.071	265.38
591.281	254.38
591.49	268.38
591.7	257.38
591.91	253.38
592.119	277.38
592.329	270.38
592.539	300.38
592.748	277.38
592.958	290.38
593.167	295.38
593.377	293.38
593.587	288.38
593.796	295.38
594.006	293.38
594.215	306.38
594.424	306.38
594.634	295.38
594.843	293.38
595.053	282.38
595.262	282.38
595.472	286.38
595.681	265.38
595.89	275.38
596.1	250.38
596.309	257.38
596.518	239.38
596.727	260.38
596.937	225.38
597.146	236.38
597.355	251.38
597.564	229.38
597.774	231.38
597.983	241.38
598.192	238.38
598.401	227.38
598.61	224.38
598.819	231.38
599.028	232.38
599.237	248.38
599.446	227.38
599.655	228.38
599.864	225.38
600.073	229.38
600.282	232.38
600.491	233.38
600.7	216.38
600.909	226.38
601.118	219.38
601.327	233.38
601.536	227.38
601.745	227.38
601.953	233.38
602.162	228.38
602.371	208.38
602.58	221.38
602.789	212.38
602.997	207.38
603.206	227.38
603.415	220.38
603.623	204.38
603.832	210.38
604.041	224.38
604.249	230.38
604.458	225.38
604.666	199.38
604.875	216.38
605.084	211.38
605.292	207.38
605.501	227.38
605.709	195.38
605.918	206.38
606.126	214.38
606.334	204.38
606.543	203.38
606.751	218.38
606.96	219.38
607.168	217.38
607.376	194.38
607.585	213.38
607.793	205.38
608.001	222.38
608.21	201.38
608.418	207.38
608.626	211.38
608.834	188.38
609.043	219.38
609.251	204.38
609.459	206.38
609.667	209.38
609.875	201.38
610.083	217.38
610.291	213.38
610.499	215.38
610.707	231.38
610.916	212.38
611.124	206.38
611.332	220.38
611.54	222.38
611.748	211.38
611.955	212.38
612.163	197.38
612.371	227.38
612.579	218.38
612.787	220.38
612.995	193.38
613.203	208.38
613.411	199.38
613.618	203.38
613.826	206.38
614.034	215.38
614.242	201.38
614.449	193.38
614.657	193.38
614.865	198.38
615.072	206.38
615.28	219.38
615.488	191.38
615.695	212.38
615.903	197.38
616.111	204.38
616.318	207.38
616.526	200.38
616.733	222.38
616.941	212.38
617.148	193.38
617.356	193.38
617.563	202.38
617.771	201.38
617.978	207.38
618.185	192.38
618.393	195.38
618.6	193.38
618.807	195.38
619.015	196.38
619.222	197.38
619.429	194.38
619.637	195.38
619.844	195.38
620.051	194.38
620.258	182.38
620.466	177.38
620.673	187.38
620.88	176.38
621.087	193.38
621.294	207.38
621.501	170.38
621.708	201.38
621.915	195.38
622.122	193.38
622.329	198.38
622.536	198.38
622.743	192.38
622.95	187.38
623.157	195.38
623.364	196.38
623.571	190.38
623.778	200.38
623.985	165.38
624.192	178.38
624.399	186.38
624.606	185.38
624.812	178.38
625.019	187.38
625.226	188.38
625.433	203.38
625.639	202.38
625.846	187.38
626.053	183.38
626.259	183.38
626.466	186.38
626.673	171.38
626.879	165.38
627.086	196.38
627.293	185.38
627.499	169.38
627.706	176.38
627.912	189.38
628.119	175.38
628.325	173.38
628.532	166.38
628.738	173.38
628.945	173.38
629.151	157.38
629.357	178.38
629.564	184.38
629.77	171.38
629.976	172.38
630.183	163.38
630.389	180.38
630.595	172.38
630.802	165.38
631.008	162.38
631.214	189.38
631.42	168.38
631.627	181.38
631.833	166.38
632.039	164.38
632.245	165.38
632.451	156.38
632.657	177.38
632.863	171.38
633.069	157.38
633.275	158.38
633.481	166.38
633.688	168.38
633.893	165.38
634.099	167.38
634.305	166.38
634.511	141.38
634.717	158.38
634.923	168.38
635.129	183.38
635.335	166.38
635.541	167.38
635.747	170.38
635.952	160.38
636.158	177.38
636.364	161.38
636.57	174.38
636.775	173.38
636.981	154.38
637.187	164.38
637.392	166.38
637.598	164.38
637.804	158.38
638.009	173.38
638.215	163.38
638.421	161.38
638.626	157.38
638.832	162.38
639.037	143.38
639.243	144.38
639.448	167.38
639.654	157.38
639.859	137.38
640.065	159.38
640.27	149.38
640.475	165.38
640.681	135.38
640.886	155.38
641.091	155.38
641.297	152.38
641.502	147.38
641.707	155.38
641.913	168.38
642.118	160.38
642.323	174.38
642.528	157.38
642.733	148.38
642.939	153.38
643.144	152.38
643.349	134.38
643.554	140.38
643.759	149.38
643.964	153.38
644.169	162.38
644.374	150.38
644.579	159.38
644.784	151.38
644.989	145.38
645.194	141.38
645.399	157.38
645.604	147.38
645.809	135.38
646.014	153.38
646.219	134.38
646.423	145.38
646.628	140.38
646.833	139.38
647.038	146.38
647.243	140.38
647.447	156.38
647.652	163.38
647.857	142.38
648.062	163.38
648.266	140.38
648.471	147.38
648.676	165.38
648.88	156.38
649.085	161.38
649.289	157.38
649.494	148.38
649.698	143.38
649.903	163.38
650.107	150.38
650.312	142.38
650.516	143.38
650.721	148.38
650.925	136.38
651.13	133.38
651.334	133.38
651.539	135.38
651.743	130.38
651.947	139.38
652.152	133.38
652.356	145.38
652.56	121.38
652.764	125.38
652.969	131.38
653.173	125.38
653.377	122.38
653.581	129.38
653.785	121.38
653.99	135.38
654.194	133.38
654.398	132.38
654.602	127.38
654.806	134.38
655.01	129.38
655.214	133.38
655.418	134.38
655.622	121.38
655.826	133.38
656.03	118.38
656.234	125.38
656.438	133.38
656.642	142.38
656.846	126.38
657.049	128.38
657.253	123.38
657.457	113.38
657.661	117.38
657.865	113.38
658.068	98.38
658.272	113.38
658.476	104.38
658.68	110.38
658.883	113.38
659.087	106.38
659.291	109.38
659.494	102.38
659.698	86.38
659.901	115.38
660.105	91.38
660.309	85.38
660.512	92.38
660.716	92.38
660.919	104.38
661.123	114.38
661.326	99.38
661.53	91.38
661.733	95.38
661.936	109.38
662.14	87.38
662.343	96.38
662.546	82.38
662.75	90.38
662.953	82.38
663.156	88.38
663.36	71.38
663.563	88.38
663.766	86.38
663.969	93.38
664.173	74.38
664.376	79.38
664.579	80.38
664.782	85.38
664.985	84.38
665.188	73.38
665.391	76.38
665.594	85.38
665.797	93.38
666	84.38
666.203	81.38
666.406	85.38
666.609	71.38
666.812	97.38
667.015	91.38
667.218	91.38
667.421	88.38
667.624	86.38
667.827	68.38
668.03	85.38
668.232	89.38
668.435	66.38
668.638	86.38
668.841	89.38
669.043	79.38
669.246	72.38
669.449	83.38
669.651	78.38
669.854	84.38
670.057	77.38
670.259	85.38
670.462	75.38
670.665	69.38
670.867	90.38
671.07	91.38
671.272	100.38
671.475	79.38
671.677	82.38
671.88	82.38
672.082	99.38
672.284	102.38
672.487	86.38
672.689	73.38
672.892	90.38
