Data from 1984.PennyLincolnUp.Lamp.En5.5.200Scan.071819.P1_HRD10591_16-56-28-967.txt Node
Date: Thu Jul 18 16:56:28 EDT 2019
User: cochatt
Spectrometer: HR+D1059
Trigger mode: 1
Integration Time (sec): 1.000000E-1
Scans to average: 1
Electric dark correction enabled: true
Nonlinearity correction enabled: false
Boxcar width: 0
XAxis mode: Wavelengths
Number of Pixels in Spectrum: 2048
>>>>>Begin Spectral Data<<<<<
223.165	-20.31
223.4	-20.31
223.635	-20.31
223.869	-13.31
224.104	-20.31
224.338	-18.31
224.573	-17.31
224.808	-17.31
225.042	-10.31
225.277	-3.31
225.511	-0.31
225.746	3.69
225.98	2.69
226.215	21.69
226.449	27.69
226.683	13.69
226.918	21.69
227.152	29.69
227.387	47.69
227.621	53.69
227.856	51.69
228.09	35.69
228.324	58.69
228.559	64.69
228.793	65.69
229.027	62.69
229.262	108.69
229.496	106.69
229.73	123.69
229.964	125.69
230.199	127.69
230.433	103.69
230.667	110.69
230.901	116.69
231.136	116.69
231.37	111.69
231.604	123.69
231.838	108.69
232.072	106.69
232.306	118.69
232.541	116.69
232.775	110.69
233.009	109.69
233.243	117.69
233.477	111.69
233.711	119.69
233.945	121.69
234.179	133.69
234.413	120.69
234.647	105.69
234.881	130.69
235.115	122.69
235.349	109.69
235.583	125.69
235.817	124.69
236.051	123.69
236.285	118.69
236.519	126.69
236.753	144.69
236.987	154.69
237.221	136.69
237.455	188.69
237.689	165.69
237.922	115.69
238.156	119.69
238.39	130.69
238.624	137.69
238.858	130.69
239.091	132.69
239.325	125.69
239.559	136.69
239.793	139.69
240.027	133.69
240.26	151.69
240.494	150.69
240.728	142.69
240.961	140.69
241.195	157.69
241.429	153.69
241.662	147.69
241.896	165.69
242.13	157.69
242.363	140.69
242.597	147.69
242.83	143.69
243.064	137.69
243.298	151.69
243.531	146.69
243.765	164.69
243.998	152.69
244.232	168.69
244.465	142.69
244.699	157.69
244.932	175.69
245.166	158.69
245.399	152.69
245.633	155.69
245.866	157.69
246.099	154.69
246.333	164.69
246.566	153.69
246.8	162.69
247.033	166.69
247.266	171.69
247.5	180.69
247.733	184.69
247.966	174.69
248.2	182.69
248.433	195.69
248.666	189.69
248.899	200.69
249.133	199.69
249.366	200.69
249.599	183.69
249.832	167.69
250.066	173.69
250.299	181.69
250.532	175.69
250.765	189.69
250.998	211.69
251.231	219.69
251.465	218.69
251.698	210.69
251.931	191.69
252.164	226.69
252.397	208.69
252.63	204.69
252.863	201.69
253.096	214.69
253.329	212.69
253.562	214.69
253.795	207.69
254.028	225.69
254.261	217.69
254.494	200.69
254.727	244.69
254.96	242.69
255.193	235.69
255.426	225.69
255.659	227.69
255.892	217.69
256.124	207.69
256.357	220.69
256.59	231.69
256.823	217.69
257.056	223.69
257.289	227.69
257.521	227.69
257.754	220.69
257.987	226.69
258.22	247.69
258.452	219.69
258.685	220.69
258.918	236.69
259.151	238.69
259.383	220.69
259.616	237.69
259.849	232.69
260.081	242.69
260.314	233.69
260.547	268.69
260.779	230.69
261.012	235.69
261.244	239.69
261.477	253.69
261.71	243.69
261.942	238.69
262.175	237.69
262.407	233.69
262.64	230.69
262.872	233.69
263.105	226.69
263.337	230.69
263.57	229.69
263.802	246.69
264.035	228.69
264.267	234.69
264.499	236.69
264.732	236.69
264.964	243.69
265.197	222.69
265.429	225.69
265.661	238.69
265.894	250.69
266.126	246.69
266.358	243.69
266.591	250.69
266.823	255.69
267.055	229.69
267.287	249.69
267.52	267.69
267.752	255.69
267.984	243.69
268.216	271.69
268.448	247.69
268.681	274.69
268.913	269.69
269.145	269.69
269.377	294.69
269.609	273.69
269.841	282.69
270.073	262.69
270.306	295.69
270.538	313.69
270.77	299.69
271.002	297.69
271.234	300.69
271.466	296.69
271.698	301.69
271.93	315.69
272.162	315.69
272.394	307.69
272.626	284.69
272.858	285.69
273.09	282.69
273.322	283.69
273.553	283.69
273.785	270.69
274.017	284.69
274.249	301.69
274.481	302.69
274.713	286.69
274.945	292.69
275.176	296.69
275.408	296.69
275.64	310.69
275.872	292.69
276.104	301.69
276.335	279.69
276.567	311.69
276.799	311.69
277.031	308.69
277.262	310.69
277.494	323.69
277.726	316.69
277.957	319.69
278.189	309.69
278.421	309.69
278.652	300.69
278.884	301.69
279.115	318.69
279.347	307.69
279.579	325.69
279.81	326.69
280.042	314.69
280.273	311.69
280.505	317.69
280.736	301.69
280.968	302.69
281.199	293.69
281.431	313.69
281.662	306.69
281.894	309.69
282.125	313.69
282.356	329.69
282.588	326.69
282.819	325.69
283.051	321.69
283.282	322.69
283.513	342.69
283.745	322.69
283.976	328.69
284.207	342.69
284.439	330.69
284.67	339.69
284.901	318.69
285.132	328.69
285.364	301.69
285.595	331.69
285.826	320.69
286.057	332.69
286.288	340.69
286.52	330.69
286.751	337.69
286.982	325.69
287.213	325.69
287.444	335.69
287.675	356.69
287.906	345.69
288.138	342.69
288.369	363.69
288.6	363.69
288.831	342.69
289.062	321.69
289.293	352.69
289.524	342.69
289.755	351.69
289.986	344.69
290.217	338.69
290.448	352.69
290.679	357.69
290.91	355.69
291.141	366.69
291.371	350.69
291.602	351.69
291.833	327.69
292.064	343.69
292.295	353.69
292.526	330.69
292.757	357.69
292.987	334.69
293.218	337.69
293.449	369.69
293.68	345.69
293.91	358.69
294.141	345.69
294.372	346.69
294.603	369.69
294.833	349.69
295.064	355.69
295.295	334.69
295.525	353.69
295.756	354.69
295.987	360.69
296.217	366.69
296.448	373.69
296.679	379.69
296.909	388.69
297.14	360.69
297.37	373.69
297.601	377.69
297.831	375.69
298.062	373.69
298.292	364.69
298.523	383.69
298.753	397.69
298.984	385.69
299.214	388.69
299.445	377.69
299.675	382.69
299.905	357.69
300.136	374.69
300.366	377.69
300.597	376.69
300.827	399.69
301.057	394.69
301.288	387.69
301.518	397.69
301.748	396.69
301.979	401.69
302.209	407.69
302.439	394.69
302.669	395.69
302.9	412.69
303.13	399.69
303.36	411.69
303.59	405.69
303.82	409.69
304.051	395.69
304.281	413.69
304.511	407.69
304.741	402.69
304.971	390.69
305.201	396.69
305.431	399.69
305.661	408.69
305.891	403.69
306.121	417.69
306.352	402.69
306.582	391.69
306.812	395.69
307.042	405.69
307.272	409.69
307.502	391.69
307.731	423.69
307.961	412.69
308.191	385.69
308.421	399.69
308.651	403.69
308.881	398.69
309.111	409.69
309.341	397.69
309.571	420.69
309.8	419.69
310.03	419.69
310.26	417.69
310.49	419.69
310.72	427.69
310.949	408.69
311.179	399.69
311.409	415.69
311.639	416.69
311.868	443.69
312.098	421.69
312.328	439.69
312.557	449.69
312.787	425.69
313.017	424.69
313.246	437.69
313.476	433.69
313.706	437.69
313.935	443.69
314.165	451.69
314.394	441.69
314.624	445.69
314.853	439.69
315.083	445.69
315.312	444.69
315.542	410.69
315.771	414.69
316.001	443.69
316.23	414.69
316.46	425.69
316.689	427.69
316.919	449.69
317.148	446.69
317.377	464.69
317.607	435.69
317.836	439.69
318.065	439.69
318.295	425.69
318.524	429.69
318.753	434.69
318.983	459.69
319.212	434.69
319.441	461.69
319.67	435.69
319.9	457.69
320.129	448.69
320.358	441.69
320.587	445.69
320.816	445.69
321.046	451.69
321.275	454.69
321.504	455.69
321.733	464.69
321.962	449.69
322.191	458.69
322.42	447.69
322.649	469.69
322.878	449.69
323.108	479.69
323.337	473.69
323.566	491.69
323.795	486.69
324.024	503.69
324.253	576.69
324.482	675.69
324.71	937.69
324.939	1318.69
325.168	1166.69
325.397	666.69
325.626	534.69
325.855	531.69
326.084	503.69
326.313	479.69
326.542	511.69
326.77	530.69
326.999	571.69
327.228	651.69
327.457	852.69
327.686	1059.69
327.914	755.69
328.143	578.69
328.372	538.69
328.6	532.69
328.829	529.69
329.058	562.69
329.287	527.69
329.515	504.69
329.744	508.69
329.972	515.69
330.201	498.69
330.43	500.69
330.658	522.69
330.887	547.69
331.115	558.69
331.344	537.69
331.572	535.69
331.801	511.69
332.03	543.69
332.258	537.69
332.486	551.69
332.715	525.69
332.943	548.69
333.172	550.69
333.4	579.69
333.629	585.69
333.857	604.69
334.085	616.69
334.314	609.69
334.542	581.69
334.771	586.69
334.999	588.69
335.227	581.69
335.455	562.69
335.684	578.69
335.912	553.69
336.14	535.69
336.369	561.69
336.597	533.69
336.825	545.69
337.053	553.69
337.281	545.69
337.51	562.69
337.738	547.69
337.966	531.69
338.194	542.69
338.422	523.69
338.65	546.69
338.878	535.69
339.106	497.69
339.334	545.69
339.562	508.69
339.79	515.69
340.018	489.69
340.246	492.69
340.474	500.69
340.702	508.69
340.93	486.69
341.158	497.69
341.386	535.69
341.614	506.69
341.842	500.69
342.07	502.69
342.298	494.69
342.526	496.69
342.754	511.69
342.981	514.69
343.209	508.69
343.437	519.69
343.665	553.69
343.893	562.69
344.12	594.69
344.348	558.69
344.576	550.69
344.804	535.69
345.031	518.69
345.259	531.69
345.487	513.69
345.714	502.69
345.942	489.69
346.17	501.69
346.397	488.69
346.625	521.69
346.853	502.69
347.08	479.69
347.308	489.69
347.535	492.69
347.763	495.69
347.99	492.69
348.218	487.69
348.445	496.69
348.673	484.69
348.9	513.69
349.128	479.69
349.355	498.69
349.583	479.69
349.81	469.69
350.037	471.69
350.265	477.69
350.492	485.69
350.72	481.69
350.947	492.69
351.174	501.69
351.402	487.69
351.629	493.69
351.856	484.69
352.083	495.69
352.311	470.69
352.538	486.69
352.765	476.69
352.992	481.69
353.22	484.69
353.447	485.69
353.674	474.69
353.901	486.69
354.128	485.69
354.355	485.69
354.583	480.69
354.81	471.69
355.037	487.69
355.264	480.69
355.491	501.69
355.718	493.69
355.945	479.69
356.172	471.69
356.399	488.69
356.626	475.69
356.853	480.69
357.08	471.69
357.307	493.69
357.534	468.69
357.761	463.69
357.988	494.69
358.215	509.69
358.441	485.69
358.668	486.69
358.895	477.69
359.122	487.69
359.349	459.69
359.576	487.69
359.802	484.69
360.029	497.69
360.256	498.69
360.483	486.69
360.709	492.69
360.936	489.69
361.163	478.69
361.39	501.69
361.616	476.69
361.843	494.69
362.07	503.69
362.296	514.69
362.523	487.69
362.749	505.69
362.976	477.69
363.203	487.69
363.429	486.69
363.656	471.69
363.882	476.69
364.109	486.69
364.335	460.69
364.562	476.69
364.788	469.69
365.015	492.69
365.241	475.69
365.468	465.69
365.694	469.69
365.92	488.69
366.147	458.69
366.373	495.69
366.599	474.69
366.826	484.69
367.052	474.69
367.278	496.69
367.505	473.69
367.731	472.69
367.957	502.69
368.184	490.69
368.41	478.69
368.636	504.69
368.862	523.69
369.089	506.69
369.315	491.69
369.541	479.69
369.767	473.69
369.993	506.69
370.219	489.69
370.445	481.69
370.672	487.69
370.898	473.69
371.124	505.69
371.35	521.69
371.576	531.69
371.802	506.69
372.028	510.69
372.254	505.69
372.48	492.69
372.706	518.69
372.932	517.69
373.158	531.69
373.384	502.69
373.61	493.69
373.835	502.69
374.061	503.69
374.287	524.69
374.513	511.69
374.739	541.69
374.965	524.69
375.191	542.69
375.416	542.69
375.642	526.69
375.868	539.69
376.094	530.69
376.319	499.69
376.545	521.69
376.771	500.69
376.997	518.69
377.222	517.69
377.448	496.69
377.674	492.69
377.899	511.69
378.125	517.69
378.35	498.69
378.576	509.69
378.802	523.69
379.027	515.69
379.253	521.69
379.478	507.69
379.704	531.69
379.929	510.69
380.155	515.69
380.38	520.69
380.606	490.69
380.831	526.69
381.057	517.69
381.282	525.69
381.507	535.69
381.733	523.69
381.958	522.69
382.184	538.69
382.409	541.69
382.634	536.69
382.86	551.69
383.085	558.69
383.31	573.69
383.535	548.69
383.761	559.69
383.986	561.69
384.211	571.69
384.436	572.69
384.662	574.69
384.887	583.69
385.112	602.69
385.337	620.69
385.562	636.69
385.787	623.69
386.013	641.69
386.238	621.69
386.463	643.69
386.688	622.69
386.913	606.69
387.138	611.69
387.363	610.69
387.588	604.69
387.813	606.69
388.038	627.69
388.263	613.69
388.488	644.69
388.713	585.69
388.938	597.69
389.163	591.69
389.387	599.69
389.612	560.69
389.837	569.69
390.062	593.69
390.287	575.69
390.512	576.69
390.736	565.69
390.961	581.69
391.186	599.69
391.411	602.69
391.636	620.69
391.86	609.69
392.085	615.69
392.31	623.69
392.534	631.69
392.759	637.69
392.984	620.69
393.208	607.69
393.433	633.69
393.658	646.69
393.882	626.69
394.107	617.69
394.331	599.69
394.556	601.69
394.78	615.69
395.005	585.69
395.229	611.69
395.454	619.69
395.678	637.69
395.903	629.69
396.127	646.69
396.352	635.69
396.576	631.69
396.801	623.69
397.025	651.69
397.249	643.69
397.474	639.69
397.698	655.69
397.922	651.69
398.147	654.69
398.371	668.69
398.595	664.69
398.82	692.69
399.044	730.69
399.268	742.69
399.492	845.69
399.717	923.69
399.941	931.69
400.165	895.69
400.389	877.69
400.613	779.69
400.837	730.69
401.062	707.69
401.286	727.69
401.51	707.69
401.734	704.69
401.958	691.69
402.182	695.69
402.406	694.69
402.63	708.69
402.854	721.69
403.078	710.69
403.302	733.69
403.526	746.69
403.75	742.69
403.974	757.69
404.198	750.69
404.422	740.69
404.645	727.69
404.869	739.69
405.093	768.69
405.317	739.69
405.541	763.69
405.765	741.69
405.988	746.69
406.212	766.69
406.436	760.69
406.66	781.69
406.883	766.69
407.107	826.69
407.331	862.69
407.555	909.69
407.778	888.69
408.002	857.69
408.226	863.69
408.449	805.69
408.673	780.69
408.896	817.69
409.12	811.69
409.344	807.69
409.567	759.69
409.791	741.69
410.014	712.69
410.238	738.69
410.461	731.69
410.685	722.69
410.908	725.69
411.132	764.69
411.355	770.69
411.578	733.69
411.802	726.69
412.025	714.69
412.249	719.69
412.472	716.69
412.695	699.69
412.919	711.69
413.142	710.69
413.365	697.69
413.589	690.69
413.812	702.69
414.035	693.69
414.258	707.69
414.482	677.69
414.705	692.69
414.928	677.69
415.151	660.69
415.374	698.69
415.597	694.69
415.821	662.69
416.044	712.69
416.267	670.69
416.49	691.69
416.713	689.69
416.936	673.69
417.159	698.69
417.382	663.69
417.605	667.69
417.828	666.69
418.051	692.69
418.274	690.69
418.497	696.69
418.72	691.69
418.943	658.69
419.166	724.69
419.389	749.69
419.611	750.69
419.834	711.69
420.057	721.69
420.28	697.69
420.503	659.69
420.726	681.69
420.948	676.69
421.171	730.69
421.394	734.69
421.617	708.69
421.839	701.69
422.062	698.69
422.285	701.69
422.507	737.69
422.73	798.69
422.953	809.69
423.175	747.69
423.398	748.69
423.621	721.69
423.843	754.69
424.066	746.69
424.288	732.69
424.511	731.69
424.733	798.69
424.956	819.69
425.178	789.69
425.401	778.69
425.623	805.69
425.846	731.69
426.068	704.69
426.291	709.69
426.513	707.69
426.735	710.69
426.958	750.69
427.18	786.69
427.402	885.69
427.625	917.69
427.847	797.69
428.069	722.69
428.292	685.69
428.514	675.69
428.736	673.69
428.958	665.69
429.181	662.69
429.403	633.69
429.625	647.69
429.847	663.69
430.069	696.69
430.292	715.69
430.514	637.69
430.736	667.69
430.958	645.69
431.18	641.69
431.402	636.69
431.624	646.69
431.846	634.69
432.068	639.69
432.29	629.69
432.512	624.69
432.734	627.69
432.956	632.69
433.178	630.69
433.4	639.69
433.622	629.69
433.844	636.69
434.066	666.69
434.287	632.69
434.509	673.69
434.731	678.69
434.953	696.69
435.175	691.69
435.397	719.69
435.618	702.69
435.84	701.69
436.062	780.69
436.284	821.69
436.505	711.69
436.727	651.69
436.949	645.69
437.17	654.69
437.392	646.69
437.614	636.69
437.835	649.69
438.057	730.69
438.278	789.69
438.5	781.69
438.721	850.69
438.943	845.69
439.165	716.69
439.386	668.69
439.608	694.69
439.829	667.69
440.05	678.69
440.272	709.69
440.493	697.69
440.715	689.69
440.936	649.69
441.158	642.69
441.379	651.69
441.6	709.69
441.822	699.69
442.043	740.69
442.264	789.69
442.486	805.69
442.707	729.69
442.928	698.69
443.149	707.69
443.371	756.69
443.592	749.69
443.813	825.69
444.034	885.69
444.255	794.69
444.476	775.69
444.698	745.69
444.919	769.69
445.14	869.69
445.361	821.69
445.582	724.69
445.803	781.69
446.024	841.69
446.245	835.69
446.466	778.69
446.687	680.69
446.908	688.69
447.129	644.69
447.35	622.69
447.571	645.69
447.792	631.69
448.013	650.69
448.234	620.69
448.455	662.69
448.675	709.69
448.896	809.69
449.117	723.69
449.338	718.69
449.559	777.69
449.779	866.69
450	713.69
450.221	665.69
450.442	604.69
450.662	614.69
450.883	607.69
451.104	612.69
451.324	623.69
451.545	604.69
451.766	575.69
451.986	579.69
452.207	572.69
452.428	577.69
452.648	586.69
452.869	576.69
453.089	589.69
453.31	587.69
453.53	563.69
453.751	572.69
453.971	584.69
454.192	587.69
454.412	553.69
454.633	575.69
454.853	569.69
455.073	579.69
455.294	578.69
455.514	614.69
455.734	622.69
455.955	551.69
456.175	560.69
456.395	565.69
456.616	554.69
456.836	541.69
457.056	563.69
457.276	540.69
457.497	565.69
457.717	528.69
457.937	561.69
458.157	569.69
458.377	566.69
458.598	579.69
458.818	620.69
459.038	675.69
459.258	697.69
459.478	678.69
459.698	630.69
459.918	637.69
460.138	665.69
460.358	661.69
460.578	699.69
460.798	709.69
461.018	699.69
461.238	715.69
461.458	707.69
461.678	684.69
461.898	732.69
462.118	699.69
462.338	754.69
462.558	761.69
462.777	757.69
462.997	801.69
463.217	862.69
463.437	871.69
463.657	803.69
463.876	786.69
464.096	797.69
464.316	781.69
464.536	804.69
464.755	785.69
464.975	754.69
465.195	753.69
465.414	747.69
465.634	682.69
465.854	671.69
466.073	653.69
466.293	648.69
466.512	623.69
466.732	600.69
466.951	607.69
467.171	630.69
467.391	625.69
467.61	629.69
467.829	609.69
468.049	602.69
468.268	593.69
468.488	605.69
468.707	598.69
468.927	596.69
469.146	604.69
469.365	637.69
469.585	628.69
469.804	621.69
470.023	615.69
470.243	635.69
470.462	649.69
470.681	633.69
470.901	639.69
471.12	629.69
471.339	656.69
471.558	609.69
471.777	632.69
471.997	625.69
472.216	649.69
472.435	637.69
472.654	626.69
472.873	611.69
473.092	597.69
473.311	569.69
473.53	607.69
473.749	617.69
473.968	621.69
474.187	684.69
474.406	716.69
474.625	648.69
474.844	612.69
475.063	612.69
475.282	620.69
475.501	629.69
475.72	627.69
475.939	610.69
476.158	625.69
476.377	646.69
476.596	629.69
476.814	646.69
477.033	678.69
477.252	652.69
477.471	661.69
477.69	687.69
477.908	675.69
478.127	693.69
478.346	723.69
478.564	723.69
478.783	710.69
479.002	730.69
479.22	722.69
479.439	743.69
479.658	757.69
479.876	737.69
480.095	769.69
480.313	790.69
480.532	801.69
480.751	804.69
480.969	803.69
481.188	778.69
481.406	764.69
481.624	767.69
481.843	759.69
482.061	734.69
482.28	729.69
482.498	728.69
482.717	717.69
482.935	722.69
483.153	723.69
483.372	731.69
483.59	719.69
483.808	727.69
484.027	738.69
484.245	721.69
484.463	737.69
484.681	746.69
484.9	760.69
485.118	752.69
485.336	791.69
485.554	734.69
485.772	758.69
485.99	767.69
486.209	798.69
486.427	783.69
486.645	780.69
486.863	779.69
487.081	778.69
487.299	779.69
487.517	782.69
487.735	794.69
487.953	768.69
488.171	763.69
488.389	769.69
488.607	750.69
488.825	773.69
489.043	762.69
489.261	765.69
489.479	791.69
489.696	789.69
489.914	781.69
490.132	799.69
490.35	773.69
490.568	780.69
490.786	800.69
491.003	803.69
491.221	815.69
491.439	796.69
491.657	811.69
491.874	838.69
492.092	829.69
492.31	841.69
492.527	833.69
492.745	827.69
492.963	828.69
493.18	812.69
493.398	851.69
493.615	859.69
493.833	858.69
494.05	877.69
494.268	865.69
494.485	839.69
494.703	860.69
494.92	859.69
495.138	871.69
495.355	857.69
495.573	872.69
495.79	869.69
496.008	895.69
496.225	890.69
496.442	881.69
496.66	889.69
496.877	879.69
497.094	914.69
497.312	895.69
497.529	938.69
497.746	921.69
497.963	962.69
498.181	987.69
498.398	1018.69
498.615	1081.69
498.832	1108.69
499.049	1155.69
499.267	1225.69
499.484	1322.69
499.701	1377.69
499.918	1500.69
500.135	1612.69
500.352	1745.69
500.569	1825.69
500.786	1768.69
501.003	1693.69
501.22	1628.69
501.437	1493.69
501.654	1399.69
501.871	1281.69
502.088	1240.69
502.305	1203.69
502.522	1161.69
502.739	1113.69
502.956	1051.69
503.172	1028.69
503.389	986.69
503.606	973.69
503.823	954.69
504.04	952.69
504.256	962.69
504.473	978.69
504.69	956.69
504.907	957.69
505.123	911.69
505.34	904.69
505.557	871.69
505.773	858.69
505.99	857.69
506.207	839.69
506.423	782.69
506.64	821.69
506.856	795.69
507.073	801.69
507.289	805.69
507.506	796.69
507.722	796.69
507.939	775.69
508.155	773.69
508.372	778.69
508.588	758.69
508.805	748.69
509.021	758.69
509.238	755.69
509.454	769.69
509.67	753.69
509.887	709.69
510.103	740.69
510.319	750.69
510.536	775.69
510.752	957.69
510.968	868.69
511.184	735.69
511.401	719.69
511.617	694.69
511.833	691.69
512.049	703.69
512.265	715.69
512.481	743.69
512.698	716.69
512.914	727.69
513.13	712.69
513.346	699.69
513.562	693.69
513.778	699.69
513.994	733.69
514.21	729.69
514.426	734.69
514.642	752.69
514.858	782.69
515.074	771.69
515.29	822.69
515.506	991.69
515.721	923.69
515.937	794.69
516.153	779.69
516.369	777.69
516.585	783.69
516.801	817.69
517.016	795.69
517.232	855.69
517.448	865.69
517.664	876.69
517.879	874.69
518.095	885.69
518.311	867.69
518.527	845.69
518.742	828.69
518.958	840.69
519.173	797.69
519.389	785.69
519.605	743.69
519.82	747.69
520.036	736.69
520.251	744.69
520.467	741.69
520.682	736.69
520.898	743.69
521.113	745.69
521.329	756.69
521.544	764.69
521.76	828.69
521.975	1074.69
522.19	1101.69
522.406	799.69
522.621	726.69
522.836	685.69
523.052	683.69
523.267	670.69
523.482	663.69
523.698	651.69
523.913	679.69
524.128	651.69
524.343	633.69
524.559	651.69
524.774	635.69
524.989	641.69
525.204	659.69
525.419	658.69
525.634	649.69
525.849	638.69
526.064	631.69
526.28	619.69
526.495	611.69
526.71	643.69
526.925	609.69
527.14	645.69
527.355	637.69
527.57	609.69
527.785	611.69
527.999	616.69
528.214	619.69
528.429	643.69
528.644	629.69
528.859	627.69
529.074	611.69
529.289	617.69
529.503	665.69
529.718	676.69
529.933	613.69
530.148	618.69
530.363	593.69
530.577	605.69
530.792	614.69
531.007	610.69
531.221	627.69
531.436	611.69
531.651	627.69
531.865	609.69
532.08	592.69
532.295	631.69
532.509	617.69
532.724	629.69
532.938	622.69
533.153	618.69
533.367	629.69
533.582	641.69
533.796	613.69
534.011	611.69
534.225	616.69
534.44	616.69
534.654	605.69
534.868	626.69
535.083	609.69
535.297	605.69
535.511	597.69
535.726	611.69
535.94	613.69
536.154	603.69
536.369	591.69
536.583	589.69
536.797	574.69
537.011	577.69
537.225	599.69
537.44	567.69
537.654	597.69
537.868	577.69
538.082	621.69
538.296	580.69
538.51	593.69
538.724	586.69
538.938	571.69
539.153	589.69
539.367	588.69
539.581	571.69
539.795	568.69
540.009	591.69
540.222	570.69
540.436	567.69
540.65	556.69
540.864	578.69
541.078	575.69
541.292	565.69
541.506	569.69
541.72	563.69
541.934	548.69
542.147	571.69
542.361	589.69
542.575	557.69
542.789	555.69
543.002	547.69
543.216	576.69
543.43	566.69
543.644	540.69
543.857	585.69
544.071	578.69
544.285	562.69
544.498	586.69
544.712	581.69
544.925	599.69
545.139	571.69
545.352	613.69
545.566	581.69
545.779	591.69
545.993	597.69
546.206	592.69
546.42	585.69
546.633	596.69
546.847	555.69
547.06	587.69
547.274	568.69
547.487	581.69
547.7	589.69
547.914	598.69
548.127	581.69
548.34	574.69
548.554	579.69
548.767	569.69
548.98	598.69
549.193	580.69
549.407	603.69
549.62	611.69
549.833	581.69
550.046	589.69
550.259	580.69
550.473	572.69
550.686	573.69
550.899	585.69
551.112	569.69
551.325	575.69
551.538	579.69
551.751	567.69
551.964	573.69
552.177	596.69
552.39	574.69
552.603	604.69
552.816	589.69
553.029	615.69
553.242	619.69
553.455	642.69
553.667	625.69
553.88	622.69
554.093	603.69
554.306	622.69
554.519	608.69
554.732	603.69
554.944	577.69
555.157	558.69
555.37	564.69
555.583	573.69
555.795	553.69
556.008	556.69
556.221	542.69
556.433	538.69
556.646	535.69
556.859	535.69
557.071	548.69
557.284	518.69
557.496	526.69
557.709	502.69
557.921	536.69
558.134	521.69
558.346	505.69
558.559	496.69
558.771	526.69
558.984	525.69
559.196	493.69
559.409	508.69
559.621	529.69
559.833	490.69
560.046	502.69
560.258	502.69
560.47	517.69
560.683	517.69
560.895	501.69
561.107	492.69
561.32	490.69
561.532	504.69
561.744	523.69
561.956	506.69
562.168	511.69
562.381	496.69
562.593	497.69
562.805	501.69
563.017	522.69
563.229	525.69
563.441	529.69
563.653	517.69
563.865	529.69
564.077	513.69
564.289	527.69
564.501	543.69
564.713	526.69
564.925	577.69
565.137	570.69
565.349	604.69
565.561	596.69
565.773	594.69
565.985	636.69
566.197	651.69
566.408	677.69
566.62	705.69
566.832	769.69
567.044	748.69
567.255	797.69
567.467	771.69
567.679	794.69
567.891	838.69
568.102	891.69
568.314	844.69
568.526	778.69
568.737	726.69
568.949	669.69
569.161	618.69
569.372	637.69
569.584	600.69
569.795	551.69
570.007	537.69
570.218	561.69
570.43	547.69
570.641	543.69
570.853	544.69
571.064	557.69
571.276	526.69
571.487	553.69
571.698	499.69
571.91	502.69
572.121	489.69
572.333	478.69
572.544	472.69
572.755	468.69
572.966	455.69
573.178	454.69
573.389	466.69
573.6	459.69
573.811	457.69
574.023	472.69
574.234	459.69
574.445	442.69
574.656	454.69
574.867	422.69
575.078	423.69
575.289	447.69
575.501	412.69
575.712	433.69
575.923	456.69
576.134	435.69
576.345	436.69
576.556	422.69
576.767	433.69
576.978	441.69
577.188	427.69
577.399	425.69
577.61	441.69
577.821	409.69
578.032	422.69
578.243	421.69
578.454	490.69
578.665	439.69
578.875	413.69
579.086	402.69
579.297	420.69
579.508	386.69
579.718	395.69
579.929	410.69
580.14	392.69
580.35	405.69
580.561	386.69
580.772	403.69
580.982	398.69
581.193	384.69
581.403	389.69
581.614	388.69
581.825	405.69
582.035	377.69
582.246	393.69
582.456	387.69
582.667	408.69
582.877	405.69
583.087	390.69
583.298	388.69
583.508	396.69
583.719	400.69
583.929	403.69
584.139	396.69
584.35	393.69
584.56	389.69
584.77	394.69
584.981	393.69
585.191	374.69
585.401	370.69
585.611	370.69
585.821	388.69
586.032	406.69
586.242	385.69
586.452	375.69
586.662	394.69
586.872	403.69
587.082	371.69
587.292	405.69
587.502	388.69
587.713	400.69
587.923	386.69
588.133	390.69
588.343	392.69
588.553	369.69
588.762	373.69
588.972	370.69
589.182	448.69
589.392	435.69
589.602	409.69
589.812	413.69
590.022	402.69
590.232	388.69
590.441	372.69
590.651	394.69
590.861	397.69
591.071	394.69
591.281	388.69
591.49	406.69
591.7	419.69
591.91	411.69
592.119	410.69
592.329	412.69
592.539	418.69
592.748	431.69
592.958	453.69
593.167	454.69
593.377	477.69
593.587	489.69
593.796	468.69
594.006	490.69
594.215	474.69
594.424	492.69
594.634	457.69
594.843	473.69
595.053	430.69
595.262	419.69
595.472	439.69
595.681	410.69
595.89	417.69
596.1	386.69
596.309	387.69
596.518	384.69
596.727	389.69
596.937	378.69
597.146	362.69
597.355	369.69
597.564	375.69
597.774	356.69
597.983	340.69
598.192	350.69
598.401	336.69
598.61	331.69
598.819	346.69
599.028	366.69
599.237	348.69
599.446	358.69
599.655	338.69
599.864	341.69
600.073	325.69
600.282	324.69
600.491	349.69
600.7	340.69
600.909	331.69
601.118	329.69
601.327	364.69
601.536	318.69
601.745	342.69
601.953	323.69
602.162	319.69
602.371	333.69
602.58	317.69
602.789	326.69
602.997	325.69
603.206	330.69
603.415	314.69
603.623	339.69
603.832	325.69
604.041	322.69
604.249	327.69
604.458	299.69
604.666	318.69
604.875	323.69
605.084	307.69
605.292	315.69
605.501	322.69
605.709	306.69
605.918	317.69
606.126	332.69
606.334	319.69
606.543	327.69
606.751	329.69
606.96	308.69
607.168	315.69
607.376	310.69
607.585	309.69
607.793	316.69
608.001	307.69
608.21	302.69
608.418	323.69
608.626	325.69
608.834	323.69
609.043	306.69
609.251	321.69
609.459	310.69
609.667	313.69
609.875	313.69
610.083	310.69
610.291	305.69
610.499	317.69
610.707	329.69
610.916	288.69
611.124	311.69
611.332	328.69
611.54	310.69
611.748	289.69
611.955	312.69
612.163	296.69
612.371	293.69
612.579	297.69
612.787	297.69
612.995	308.69
613.203	311.69
613.411	297.69
613.618	302.69
613.826	299.69
614.034	285.69
614.242	294.69
614.449	313.69
614.657	309.69
614.865	290.69
615.072	291.69
615.28	302.69
615.488	298.69
615.695	309.69
615.903	318.69
616.111	299.69
616.318	297.69
616.526	310.69
616.733	279.69
616.941	297.69
617.148	309.69
617.356	314.69
617.563	299.69
617.771	295.69
617.978	307.69
618.185	299.69
618.393	313.69
618.6	294.69
618.807	311.69
619.015	301.69
619.222	297.69
619.429	286.69
619.637	294.69
619.844	289.69
620.051	295.69
620.258	277.69
620.466	298.69
620.673	283.69
620.88	301.69
621.087	275.69
621.294	280.69
621.501	291.69
621.708	286.69
621.915	287.69
622.122	286.69
622.329	286.69
622.536	268.69
622.743	271.69
622.95	271.69
623.157	293.69
623.364	293.69
623.571	282.69
623.778	286.69
623.985	269.69
624.192	260.69
624.399	276.69
624.606	265.69
624.812	269.69
625.019	294.69
625.226	278.69
625.433	251.69
625.639	273.69
625.846	264.69
626.053	281.69
626.259	243.69
626.466	261.69
626.673	267.69
626.879	275.69
627.086	259.69
627.293	266.69
627.499	258.69
627.706	272.69
627.912	255.69
628.119	270.69
628.325	250.69
628.532	244.69
628.738	239.69
628.945	243.69
629.151	250.69
629.357	234.69
629.564	248.69
629.77	246.69
629.976	251.69
630.183	248.69
630.389	254.69
630.595	223.69
630.802	241.69
631.008	230.69
631.214	257.69
631.42	247.69
631.627	226.69
631.833	230.69
632.039	230.69
632.245	236.69
632.451	238.69
632.657	226.69
632.863	251.69
633.069	245.69
633.275	227.69
633.481	238.69
633.688	226.69
633.893	246.69
634.099	253.69
634.305	224.69
634.511	237.69
634.717	235.69
634.923	213.69
635.129	217.69
635.335	219.69
635.541	227.69
635.747	216.69
635.952	230.69
636.158	242.69
636.364	215.69
636.57	225.69
636.775	228.69
636.981	224.69
637.187	214.69
637.392	233.69
637.598	228.69
637.804	214.69
638.009	226.69
638.215	232.69
638.421	215.69
638.626	230.69
638.832	230.69
639.037	217.69
639.243	223.69
639.448	205.69
639.654	223.69
639.859	226.69
640.065	209.69
640.27	203.69
640.475	210.69
640.681	219.69
640.886	196.69
641.091	220.69
641.297	218.69
641.502	211.69
641.707	222.69
641.913	202.69
642.118	213.69
642.323	217.69
642.528	211.69
642.733	224.69
642.939	195.69
643.144	205.69
643.349	202.69
643.554	214.69
643.759	208.69
643.964	199.69
644.169	223.69
644.374	206.69
644.579	194.69
644.784	214.69
644.989	203.69
645.194	205.69
645.399	183.69
645.604	216.69
645.809	216.69
646.014	208.69
646.219	204.69
646.423	200.69
646.628	185.69
646.833	211.69
647.038	223.69
647.243	203.69
647.447	213.69
647.652	215.69
647.857	209.69
648.062	218.69
648.266	220.69
648.471	221.69
648.676	218.69
648.88	218.69
649.085	211.69
649.289	216.69
649.494	207.69
649.698	205.69
649.903	219.69
650.107	220.69
650.312	198.69
650.516	200.69
650.721	202.69
650.925	200.69
651.13	190.69
651.334	193.69
651.539	190.69
651.743	214.69
651.947	189.69
652.152	191.69
652.356	187.69
652.56	183.69
652.764	180.69
652.969	182.69
653.173	169.69
653.377	183.69
653.581	174.69
653.785	170.69
653.99	171.69
654.194	175.69
654.398	180.69
654.602	162.69
654.806	187.69
655.01	193.69
655.214	183.69
655.418	180.69
655.622	173.69
655.826	200.69
656.03	194.69
656.234	205.69
656.438	191.69
656.642	218.69
656.846	211.69
657.049	204.69
657.253	182.69
657.457	157.69
657.661	137.69
657.865	132.69
658.068	146.69
658.272	134.69
658.476	133.69
658.68	128.69
658.883	147.69
659.087	121.69
659.291	123.69
659.494	125.69
659.698	101.69
659.901	121.69
660.105	115.69
660.309	117.69
660.512	107.69
660.716	112.69
660.919	107.69
661.123	101.69
661.326	101.69
661.53	101.69
661.733	89.69
661.936	89.69
662.14	86.69
662.343	100.69
662.546	94.69
662.75	92.69
662.953	90.69
663.156	83.69
663.36	102.69
663.563	73.69
663.766	82.69
663.969	85.69
664.173	89.69
664.376	82.69
664.579	79.69
664.782	100.69
664.985	91.69
665.188	78.69
665.391	75.69
665.594	78.69
665.797	70.69
666	78.69
666.203	89.69
666.406	80.69
666.609	83.69
666.812	92.69
667.015	97.69
667.218	84.69
667.421	73.69
667.624	89.69
667.827	79.69
668.03	85.69
668.232	78.69
668.435	85.69
668.638	84.69
668.841	81.69
669.043	81.69
669.246	76.69
669.449	73.69
669.651	86.69
669.854	94.69
670.057	80.69
670.259	98.69
670.462	88.69
670.665	76.69
670.867	87.69
671.07	92.69
671.272	85.69
671.475	91.69
671.677	59.69
671.88	85.69
672.082	81.69
672.284	78.69
672.487	88.69
672.689	91.69
672.892	79.69
