Data from 1984.PennyLincolnUp.Lamp.En5.5.200Scan.071819.P1_HRD10591_16-59-14-976.txt Node
Date: Thu Jul 18 16:59:14 EDT 2019
User: cochatt
Spectrometer: HR+D1059
Trigger mode: 1
Integration Time (sec): 1.000000E-1
Scans to average: 1
Electric dark correction enabled: true
Nonlinearity correction enabled: false
Boxcar width: 0
XAxis mode: Wavelengths
Number of Pixels in Spectrum: 2048
>>>>>Begin Spectral Data<<<<<
223.165	-9.31
223.4	-9.31
223.635	-9.31
223.869	-17.31
224.104	-30.31
224.338	-24.31
224.573	3.69
224.808	-20.31
225.042	-17.31
225.277	7.69
225.511	-12.31
225.746	4.69
225.98	12.69
226.215	10.69
226.449	30.69
226.683	8.69
226.918	24.69
227.152	27.69
227.387	27.69
227.621	36.69
227.856	44.69
228.09	46.69
228.324	54.69
228.559	58.69
228.793	54.69
229.027	89.69
229.262	87.69
229.496	86.69
229.73	106.69
229.964	111.69
230.199	126.69
230.433	89.69
230.667	106.69
230.901	108.69
231.136	98.69
231.37	110.69
231.604	108.69
231.838	110.69
232.072	116.69
232.306	105.69
232.541	106.69
232.775	109.69
233.009	102.69
233.243	114.69
233.477	103.69
233.711	106.69
233.945	104.69
234.179	105.69
234.413	107.69
234.647	117.69
234.881	108.69
235.115	112.69
235.349	132.69
235.583	107.69
235.817	110.69
236.051	107.69
236.285	96.69
236.519	100.69
236.753	114.69
236.987	135.69
237.221	165.69
237.455	181.69
237.689	138.69
237.922	118.69
238.156	111.69
238.39	119.69
238.624	116.69
238.858	107.69
239.091	115.69
239.325	120.69
239.559	123.69
239.793	114.69
240.027	126.69
240.26	122.69
240.494	141.69
240.728	118.69
240.961	152.69
241.195	131.69
241.429	119.69
241.662	134.69
241.896	138.69
242.13	117.69
242.363	125.69
242.597	132.69
242.83	126.69
243.064	118.69
243.298	127.69
243.531	128.69
243.765	133.69
243.998	126.69
244.232	124.69
244.465	142.69
244.699	133.69
244.932	134.69
245.166	129.69
245.399	134.69
245.633	123.69
245.866	136.69
246.099	138.69
246.333	115.69
246.566	140.69
246.8	132.69
247.033	153.69
247.266	146.69
247.5	147.69
247.733	150.69
247.966	135.69
248.2	136.69
248.433	156.69
248.666	147.69
248.899	155.69
249.133	175.69
249.366	176.69
249.599	171.69
249.832	157.69
250.066	165.69
250.299	155.69
250.532	197.69
250.765	191.69
250.998	199.69
251.231	200.69
251.465	178.69
251.698	176.69
251.931	183.69
252.164	177.69
252.397	186.69
252.63	178.69
252.863	166.69
253.096	181.69
253.329	171.69
253.562	190.69
253.795	179.69
254.028	170.69
254.261	188.69
254.494	186.69
254.727	202.69
254.96	204.69
255.193	204.69
255.426	208.69
255.659	199.69
255.892	224.69
256.124	261.69
256.357	252.69
256.59	225.69
256.823	217.69
257.056	207.69
257.289	197.69
257.521	180.69
257.754	199.69
257.987	183.69
258.22	199.69
258.452	186.69
258.685	187.69
258.918	200.69
259.151	190.69
259.383	196.69
259.616	198.69
259.849	209.69
260.081	197.69
260.314	212.69
260.547	230.69
260.779	211.69
261.012	185.69
261.244	186.69
261.477	200.69
261.71	199.69
261.942	206.69
262.175	194.69
262.407	198.69
262.64	201.69
262.872	192.69
263.105	190.69
263.337	197.69
263.57	194.69
263.802	190.69
264.035	201.69
264.267	187.69
264.499	200.69
264.732	186.69
264.964	201.69
265.197	207.69
265.429	203.69
265.661	180.69
265.894	182.69
266.126	199.69
266.358	206.69
266.591	187.69
266.823	212.69
267.055	211.69
267.287	220.69
267.52	204.69
267.752	198.69
267.984	199.69
268.216	204.69
268.448	205.69
268.681	222.69
268.913	219.69
269.145	238.69
269.377	231.69
269.609	242.69
269.841	235.69
270.073	229.69
270.306	235.69
270.538	266.69
270.77	262.69
271.002	258.69
271.234	241.69
271.466	250.69
271.698	249.69
271.93	257.69
272.162	247.69
272.394	251.69
272.626	267.69
272.858	246.69
273.09	255.69
273.322	231.69
273.553	217.69
273.785	242.69
274.017	235.69
274.249	258.69
274.481	252.69
274.713	252.69
274.945	261.69
275.176	245.69
275.408	236.69
275.64	227.69
275.872	226.69
276.104	258.69
276.335	246.69
276.567	246.69
276.799	242.69
277.031	258.69
277.262	282.69
277.494	298.69
277.726	281.69
277.957	256.69
278.189	236.69
278.421	246.69
278.652	233.69
278.884	262.69
279.115	250.69
279.347	232.69
279.579	236.69
279.81	243.69
280.042	246.69
280.273	251.69
280.505	272.69
280.736	244.69
280.968	278.69
281.199	235.69
281.431	268.69
281.662	267.69
281.894	244.69
282.125	258.69
282.356	264.69
282.588	265.69
282.819	283.69
283.051	260.69
283.282	253.69
283.513	259.69
283.745	271.69
283.976	269.69
284.207	275.69
284.439	276.69
284.67	258.69
284.901	265.69
285.132	258.69
285.364	255.69
285.595	275.69
285.826	259.69
286.057	266.69
286.288	279.69
286.52	268.69
286.751	289.69
286.982	254.69
287.213	266.69
287.444	264.69
287.675	272.69
287.906	288.69
288.138	283.69
288.369	295.69
288.6	284.69
288.831	293.69
289.062	270.69
289.293	274.69
289.524	284.69
289.755	291.69
289.986	283.69
290.217	272.69
290.448	278.69
290.679	294.69
290.91	288.69
291.141	289.69
291.371	278.69
291.602	284.69
291.833	265.69
292.064	282.69
292.295	278.69
292.526	280.69
292.757	272.69
292.987	279.69
293.218	280.69
293.449	285.69
293.68	266.69
293.91	268.69
294.141	269.69
294.372	272.69
294.603	289.69
294.833	291.69
295.064	280.69
295.295	291.69
295.525	275.69
295.756	283.69
295.987	272.69
296.217	315.69
296.448	274.69
296.679	304.69
296.909	280.69
297.14	297.69
297.37	295.69
297.601	303.69
297.831	322.69
298.062	287.69
298.292	302.69
298.523	297.69
298.753	278.69
298.984	288.69
299.214	314.69
299.445	283.69
299.675	308.69
299.905	293.69
300.136	307.69
300.366	297.69
300.597	306.69
300.827	306.69
301.057	310.69
301.288	312.69
301.518	315.69
301.748	314.69
301.979	329.69
302.209	307.69
302.439	310.69
302.669	297.69
302.9	307.69
303.13	311.69
303.36	330.69
303.59	318.69
303.82	327.69
304.051	327.69
304.281	327.69
304.511	302.69
304.741	317.69
304.971	298.69
305.201	302.69
305.431	306.69
305.661	306.69
305.891	310.69
306.121	314.69
306.352	307.69
306.582	317.69
306.812	303.69
307.042	314.69
307.272	306.69
307.502	323.69
307.731	327.69
307.961	315.69
308.191	307.69
308.421	314.69
308.651	325.69
308.881	319.69
309.111	319.69
309.341	318.69
309.571	328.69
309.8	328.69
310.03	343.69
310.26	335.69
310.49	341.69
310.72	333.69
310.949	344.69
311.179	343.69
311.409	338.69
311.639	355.69
311.868	345.69
312.098	326.69
312.328	352.69
312.557	362.69
312.787	358.69
313.017	344.69
313.246	352.69
313.476	329.69
313.706	334.69
313.935	366.69
314.165	352.69
314.394	361.69
314.624	365.69
314.853	350.69
315.083	352.69
315.312	351.69
315.542	350.69
315.771	338.69
316.001	345.69
316.23	342.69
316.46	343.69
316.689	343.69
316.919	357.69
317.148	330.69
317.377	349.69
317.607	352.69
317.836	337.69
318.065	333.69
318.295	346.69
318.524	344.69
318.753	354.69
318.983	340.69
319.212	330.69
319.441	344.69
319.67	346.69
319.9	342.69
320.129	363.69
320.358	335.69
320.587	338.69
320.816	351.69
321.046	374.69
321.275	352.69
321.504	356.69
321.733	356.69
321.962	366.69
322.191	367.69
322.42	361.69
322.649	382.69
322.878	390.69
323.108	383.69
323.337	396.69
323.566	426.69
323.795	440.69
324.024	473.69
324.253	514.69
324.482	716.69
324.71	1018.69
324.939	1431.69
325.168	1216.69
325.397	677.69
325.626	515.69
325.855	450.69
326.084	427.69
326.313	419.69
326.542	422.69
326.77	477.69
326.999	524.69
327.228	688.69
327.457	939.69
327.686	1134.69
327.914	780.69
328.143	582.69
328.372	524.69
328.6	519.69
328.829	448.69
329.058	483.69
329.287	474.69
329.515	473.69
329.744	458.69
329.972	487.69
330.201	550.69
330.43	584.69
330.658	560.69
330.887	539.69
331.115	486.69
331.344	444.69
331.572	451.69
331.801	430.69
332.03	447.69
332.258	446.69
332.486	448.69
332.715	418.69
332.943	438.69
333.172	464.69
333.4	469.69
333.629	483.69
333.857	528.69
334.085	549.69
334.314	589.69
334.542	671.69
334.771	682.69
334.999	568.69
335.227	501.69
335.455	463.69
335.684	443.69
335.912	428.69
336.14	419.69
336.369	434.69
336.597	424.69
336.825	426.69
337.053	424.69
337.281	396.69
337.51	410.69
337.738	416.69
337.966	403.69
338.194	414.69
338.422	408.69
338.65	399.69
338.878	418.69
339.106	401.69
339.334	394.69
339.562	415.69
339.79	401.69
340.018	391.69
340.246	383.69
340.474	402.69
340.702	375.69
340.93	407.69
341.158	386.69
341.386	392.69
341.614	393.69
341.842	389.69
342.07	374.69
342.298	373.69
342.526	365.69
342.754	379.69
342.981	372.69
343.209	370.69
343.437	385.69
343.665	411.69
343.893	411.69
344.12	444.69
344.348	414.69
344.576	415.69
344.804	395.69
345.031	400.69
345.259	388.69
345.487	398.69
345.714	374.69
345.942	377.69
346.17	368.69
346.397	362.69
346.625	360.69
346.853	353.69
347.08	364.69
347.308	354.69
347.535	380.69
347.763	376.69
347.99	357.69
348.218	379.69
348.445	376.69
348.673	378.69
348.9	355.69
349.128	354.69
349.355	354.69
349.583	379.69
349.81	359.69
350.037	359.69
350.265	372.69
350.492	336.69
350.72	354.69
350.947	347.69
351.174	359.69
351.402	360.69
351.629	363.69
351.856	368.69
352.083	378.69
352.311	367.69
352.538	372.69
352.765	384.69
352.992	369.69
353.22	338.69
353.447	354.69
353.674	367.69
353.901	358.69
354.128	349.69
354.355	344.69
354.583	340.69
354.81	353.69
355.037	347.69
355.264	337.69
355.491	345.69
355.718	333.69
355.945	355.69
356.172	360.69
356.399	337.69
356.626	358.69
356.853	347.69
357.08	359.69
357.307	363.69
357.534	355.69
357.761	330.69
357.988	350.69
358.215	338.69
358.441	334.69
358.668	356.69
358.895	355.69
359.122	350.69
359.349	344.69
359.576	328.69
359.802	354.69
360.029	379.69
360.256	382.69
360.483	379.69
360.709	359.69
360.936	370.69
361.163	352.69
361.39	346.69
361.616	344.69
361.843	360.69
362.07	352.69
362.296	346.69
362.523	353.69
362.749	352.69
362.976	343.69
363.203	343.69
363.429	339.69
363.656	352.69
363.882	362.69
364.109	340.69
364.335	332.69
364.562	362.69
364.788	353.69
365.015	345.69
365.241	333.69
365.468	339.69
365.694	352.69
365.92	351.69
366.147	339.69
366.373	348.69
366.599	347.69
366.826	340.69
367.052	342.69
367.278	331.69
367.505	362.69
367.731	341.69
367.957	338.69
368.184	349.69
368.41	336.69
368.636	363.69
368.862	357.69
369.089	346.69
369.315	355.69
369.541	366.69
369.767	364.69
369.993	344.69
370.219	342.69
370.445	363.69
370.672	351.69
370.898	350.69
371.124	342.69
371.35	352.69
371.576	345.69
371.802	372.69
372.028	355.69
372.254	360.69
372.48	361.69
372.706	360.69
372.932	372.69
373.158	361.69
373.384	367.69
373.61	354.69
373.835	357.69
374.061	361.69
374.287	360.69
374.513	366.69
374.739	381.69
374.965	397.69
375.191	374.69
375.416	366.69
375.642	374.69
375.868	370.69
376.094	370.69
376.319	353.69
376.545	345.69
376.771	339.69
376.997	359.69
377.222	351.69
377.448	340.69
377.674	370.69
377.899	336.69
378.125	342.69
378.35	361.69
378.576	343.69
378.802	344.69
379.027	370.69
379.253	340.69
379.478	336.69
379.704	355.69
379.929	358.69
380.155	356.69
380.38	343.69
380.606	358.69
380.831	350.69
381.057	359.69
381.282	369.69
381.507	374.69
381.733	379.69
381.958	350.69
382.184	351.69
382.409	372.69
382.634	362.69
382.86	355.69
383.085	379.69
383.31	370.69
383.535	376.69
383.761	363.69
383.986	382.69
384.211	362.69
384.436	392.69
384.662	393.69
384.887	395.69
385.112	382.69
385.337	411.69
385.562	402.69
385.787	389.69
386.013	404.69
386.238	398.69
386.463	392.69
386.688	390.69
386.913	391.69
387.138	386.69
387.363	394.69
387.588	398.69
387.813	391.69
388.038	379.69
388.263	399.69
388.488	427.69
388.713	398.69
388.938	387.69
389.163	397.69
389.387	400.69
389.612	389.69
389.837	400.69
390.062	378.69
390.287	381.69
390.512	392.69
390.736	396.69
390.961	404.69
391.186	400.69
391.411	399.69
391.636	403.69
391.86	442.69
392.085	428.69
392.31	425.69
392.534	440.69
392.759	414.69
392.984	408.69
393.208	405.69
393.433	396.69
393.658	397.69
393.882	396.69
394.107	406.69
394.331	403.69
394.556	411.69
394.78	420.69
395.005	423.69
395.229	400.69
395.454	414.69
395.678	415.69
395.903	427.69
396.127	439.69
396.352	430.69
396.576	416.69
396.801	408.69
397.025	407.69
397.249	433.69
397.474	449.69
397.698	452.69
397.922	443.69
398.147	460.69
398.371	466.69
398.595	440.69
398.82	471.69
399.044	491.69
399.268	516.69
399.492	567.69
399.717	623.69
399.941	636.69
400.165	607.69
400.389	570.69
400.613	537.69
400.837	505.69
401.062	481.69
401.286	482.69
401.51	476.69
401.734	474.69
401.958	472.69
402.182	474.69
402.406	469.69
402.63	486.69
402.854	487.69
403.078	497.69
403.302	528.69
403.526	516.69
403.75	497.69
403.974	535.69
404.198	515.69
404.422	539.69
404.645	541.69
404.869	539.69
405.093	543.69
405.317	590.69
405.541	598.69
405.765	550.69
405.988	529.69
406.212	529.69
406.436	541.69
406.66	511.69
406.883	515.69
407.107	549.69
407.331	588.69
407.555	618.69
407.778	630.69
408.002	587.69
408.226	562.69
408.449	535.69
408.673	528.69
408.896	537.69
409.12	570.69
409.344	578.69
409.567	490.69
409.791	522.69
410.014	505.69
410.238	476.69
410.461	510.69
410.685	510.69
410.908	510.69
411.132	519.69
411.355	530.69
411.578	530.69
411.802	496.69
412.025	478.69
412.249	510.69
412.472	524.69
412.695	555.69
412.919	564.69
413.142	528.69
413.365	486.69
413.589	490.69
413.812	472.69
414.035	467.69
414.258	462.69
414.482	460.69
414.705	484.69
414.928	477.69
415.151	461.69
415.374	465.69
415.597	471.69
415.821	463.69
416.044	466.69
416.267	457.69
416.49	472.69
416.713	458.69
416.936	475.69
417.159	460.69
417.382	452.69
417.605	458.69
417.828	469.69
418.051	482.69
418.274	471.69
418.497	488.69
418.72	479.69
418.943	476.69
419.166	509.69
419.389	511.69
419.611	504.69
419.834	486.69
420.057	491.69
420.28	509.69
420.503	496.69
420.726	484.69
420.948	497.69
421.171	495.69
421.394	500.69
421.617	471.69
421.839	490.69
422.062	457.69
422.285	470.69
422.507	515.69
422.73	540.69
422.953	542.69
423.175	497.69
423.398	498.69
423.621	510.69
423.843	506.69
424.066	512.69
424.288	506.69
424.511	502.69
424.733	514.69
424.956	554.69
425.178	553.69
425.401	581.69
425.623	580.69
425.846	514.69
426.068	478.69
426.291	455.69
426.513	446.69
426.735	480.69
426.958	507.69
427.18	528.69
427.402	624.69
427.625	678.69
427.847	597.69
428.069	539.69
428.292	501.69
428.514	474.69
428.736	437.69
428.958	443.69
429.181	445.69
429.403	430.69
429.625	444.69
429.847	468.69
430.069	494.69
430.292	512.69
430.514	459.69
430.736	455.69
430.958	421.69
431.18	403.69
431.402	405.69
431.624	439.69
431.846	424.69
432.068	419.69
432.29	437.69
432.512	442.69
432.734	441.69
432.956	444.69
433.178	434.69
433.4	450.69
433.622	424.69
433.844	431.69
434.066	425.69
434.287	424.69
434.509	441.69
434.731	440.69
434.953	436.69
435.175	474.69
435.397	473.69
435.618	477.69
435.84	492.69
436.062	548.69
436.284	576.69
436.505	508.69
436.727	460.69
436.949	443.69
437.17	438.69
437.392	443.69
437.614	438.69
437.835	458.69
438.057	498.69
438.278	563.69
438.5	550.69
438.721	610.69
438.943	584.69
439.165	488.69
439.386	476.69
439.608	452.69
439.829	472.69
440.05	484.69
440.272	508.69
440.493	484.69
440.715	468.69
440.936	456.69
441.158	469.69
441.379	472.69
441.6	458.69
441.822	494.69
442.043	488.69
442.264	551.69
442.486	581.69
442.707	486.69
442.928	478.69
443.149	480.69
443.371	483.69
443.592	506.69
443.813	567.69
444.034	614.69
444.255	550.69
444.476	499.69
444.698	514.69
444.919	523.69
445.14	593.69
445.361	530.69
445.582	506.69
445.803	519.69
446.024	582.69
446.245	581.69
446.466	530.69
446.687	491.69
446.908	466.69
447.129	437.69
447.35	445.69
447.571	448.69
447.792	402.69
448.013	436.69
448.234	431.69
448.455	453.69
448.675	532.69
448.896	582.69
449.117	497.69
449.338	497.69
449.559	526.69
449.779	605.69
450	512.69
450.221	447.69
450.442	420.69
450.662	396.69
450.883	434.69
451.104	400.69
451.324	412.69
451.545	422.69
451.766	407.69
451.986	379.69
452.207	387.69
452.428	381.69
452.648	386.69
452.869	371.69
453.089	394.69
453.31	406.69
453.53	404.69
453.751	366.69
453.971	388.69
454.192	382.69
454.412	372.69
454.633	372.69
454.853	373.69
455.073	366.69
455.294	392.69
455.514	430.69
455.734	402.69
455.955	360.69
456.175	348.69
456.395	378.69
456.616	363.69
456.836	376.69
457.056	377.69
457.276	359.69
457.497	363.69
457.717	373.69
457.937	372.69
458.157	370.69
458.377	340.69
458.598	400.69
458.818	446.69
459.038	474.69
459.258	483.69
459.478	427.69
459.698	431.69
459.918	434.69
460.138	436.69
460.358	451.69
460.578	465.69
460.798	466.69
461.018	488.69
461.238	442.69
461.458	456.69
461.678	440.69
461.898	456.69
462.118	460.69
462.338	464.69
462.558	491.69
462.777	498.69
462.997	539.69
463.217	550.69
463.437	555.69
463.657	516.69
463.876	499.69
464.096	516.69
464.316	502.69
464.536	517.69
464.755	479.69
464.975	482.69
465.195	480.69
465.414	511.69
465.634	473.69
465.854	448.69
466.073	420.69
466.293	419.69
466.512	409.69
466.732	394.69
466.951	392.69
467.171	404.69
467.391	400.69
467.61	415.69
467.829	402.69
468.049	434.69
468.268	409.69
468.488	399.69
468.707	380.69
468.927	402.69
469.146	404.69
469.365	383.69
469.585	400.69
469.804	424.69
470.023	414.69
470.243	407.69
470.462	408.69
470.681	426.69
470.901	423.69
471.12	430.69
471.339	427.69
471.558	425.69
471.777	415.69
471.997	404.69
472.216	422.69
472.435	483.69
472.654	489.69
472.873	417.69
473.092	392.69
473.311	408.69
473.53	408.69
473.749	404.69
473.968	416.69
474.187	474.69
474.406	469.69
474.625	433.69
474.844	417.69
475.063	401.69
475.282	392.69
475.501	423.69
475.72	413.69
475.939	395.69
476.158	420.69
476.377	397.69
476.596	400.69
476.814	407.69
477.033	420.69
477.252	403.69
477.471	432.69
477.69	437.69
477.908	443.69
478.127	461.69
478.346	464.69
478.564	444.69
478.783	445.69
479.002	448.69
479.22	467.69
479.439	476.69
479.658	492.69
479.876	485.69
480.095	498.69
480.313	530.69
480.532	531.69
480.751	530.69
480.969	539.69
481.188	665.69
481.406	702.69
481.624	579.69
481.843	537.69
482.061	474.69
482.28	490.69
482.498	471.69
482.717	467.69
482.935	461.69
483.153	477.69
483.372	482.69
483.59	463.69
483.808	447.69
484.027	464.69
484.245	458.69
484.463	453.69
484.681	481.69
484.9	467.69
485.118	463.69
485.336	479.69
485.554	454.69
485.772	473.69
485.99	477.69
486.209	488.69
486.427	475.69
486.645	491.69
486.863	498.69
487.081	501.69
487.299	491.69
487.517	485.69
487.735	472.69
487.953	494.69
488.171	486.69
488.389	487.69
488.607	478.69
488.825	478.69
489.043	510.69
489.261	517.69
489.479	490.69
489.696	487.69
489.914	471.69
490.132	514.69
490.35	512.69
490.568	516.69
490.786	496.69
491.003	545.69
491.221	538.69
491.439	528.69
491.657	538.69
491.874	548.69
492.092	564.69
492.31	564.69
492.527	543.69
492.745	587.69
492.963	564.69
493.18	569.69
493.398	568.69
493.615	552.69
493.833	576.69
494.05	582.69
494.268	575.69
494.485	554.69
494.703	576.69
494.92	564.69
495.138	578.69
495.355	563.69
495.573	555.69
495.79	588.69
496.008	550.69
496.225	571.69
496.442	560.69
496.66	559.69
496.877	543.69
497.094	591.69
497.312	566.69
497.529	570.69
497.746	600.69
497.963	587.69
498.181	607.69
498.398	659.69
498.615	679.69
498.832	698.69
499.049	709.69
499.267	734.69
499.484	792.69
499.701	832.69
499.918	886.69
500.135	974.69
500.352	1059.69
500.569	1116.69
500.786	1089.69
501.003	1047.69
501.22	987.69
501.437	922.69
501.654	866.69
501.871	801.69
502.088	766.69
502.305	739.69
502.522	677.69
502.739	676.69
502.956	659.69
503.172	625.69
503.389	614.69
503.606	603.69
503.823	583.69
504.04	594.69
504.256	588.69
504.473	618.69
504.69	595.69
504.907	568.69
505.123	564.69
505.34	553.69
505.557	540.69
505.773	524.69
505.99	504.69
506.207	513.69
506.423	507.69
506.64	527.69
506.856	510.69
507.073	505.69
507.289	513.69
507.506	498.69
507.722	516.69
507.939	482.69
508.155	450.69
508.372	486.69
508.588	462.69
508.805	491.69
509.021	477.69
509.238	491.69
509.454	462.69
509.67	479.69
509.887	475.69
510.103	474.69
510.319	487.69
510.536	552.69
510.752	820.69
510.968	664.69
511.184	471.69
511.401	479.69
511.617	462.69
511.833	487.69
512.049	488.69
512.265	470.69
512.481	478.69
512.698	458.69
512.914	468.69
513.13	457.69
513.346	454.69
513.562	452.69
513.778	444.69
513.994	454.69
514.21	475.69
514.426	479.69
514.642	484.69
514.858	510.69
515.074	527.69
515.29	615.69
515.506	796.69
515.721	672.69
515.937	537.69
516.153	509.69
516.369	526.69
516.585	513.69
516.801	524.69
517.016	515.69
517.232	523.69
517.448	534.69
517.664	554.69
517.879	551.69
518.095	535.69
518.311	528.69
518.527	530.69
518.742	529.69
518.958	522.69
519.173	494.69
519.389	500.69
519.605	489.69
519.82	466.69
520.036	476.69
520.251	473.69
520.467	496.69
520.682	487.69
520.898	474.69
521.113	497.69
521.329	497.69
521.544	538.69
521.76	628.69
521.975	989.69
522.19	944.69
522.406	552.69
522.621	482.69
522.836	462.69
523.052	463.69
523.267	440.69
523.482	410.69
523.698	420.69
523.913	448.69
524.128	426.69
524.343	422.69
524.559	415.69
524.774	392.69
524.989	418.69
525.204	414.69
525.419	411.69
525.634	422.69
525.849	402.69
526.064	396.69
526.28	396.69
526.495	403.69
526.71	384.69
526.925	393.69
527.14	396.69
527.355	397.69
527.57	430.69
527.785	386.69
527.999	372.69
528.214	380.69
528.429	374.69
528.644	386.69
528.859	387.69
529.074	395.69
529.289	396.69
529.503	447.69
529.718	427.69
529.933	383.69
530.148	408.69
530.363	401.69
530.577	389.69
530.792	403.69
531.007	385.69
531.221	390.69
531.436	402.69
531.651	392.69
531.865	369.69
532.08	370.69
532.295	382.69
532.509	385.69
532.724	379.69
532.938	382.69
533.153	390.69
533.367	372.69
533.582	382.69
533.796	393.69
534.011	378.69
534.225	392.69
534.44	390.69
534.654	382.69
534.868	381.69
535.083	363.69
535.297	390.69
535.511	384.69
535.726	386.69
535.94	374.69
536.154	357.69
536.369	386.69
536.583	376.69
536.797	355.69
537.011	369.69
537.225	380.69
537.44	382.69
537.654	367.69
537.868	368.69
538.082	375.69
538.296	354.69
538.51	384.69
538.724	354.69
538.938	353.69
539.153	351.69
539.367	392.69
539.581	373.69
539.795	382.69
540.009	359.69
540.222	354.69
540.436	364.69
540.65	366.69
540.864	358.69
541.078	350.69
541.292	373.69
541.506	363.69
541.72	373.69
541.934	370.69
542.147	359.69
542.361	355.69
542.575	351.69
542.789	361.69
543.002	342.69
543.216	357.69
543.43	364.69
543.644	356.69
543.857	376.69
544.071	356.69
544.285	372.69
544.498	362.69
544.712	365.69
544.925	348.69
545.139	373.69
545.352	374.69
545.566	362.69
545.779	361.69
545.993	350.69
546.206	372.69
546.42	372.69
546.633	382.69
546.847	339.69
547.06	343.69
547.274	356.69
547.487	346.69
547.7	341.69
547.914	369.69
548.127	376.69
548.34	369.69
548.554	347.69
548.767	368.69
548.98	360.69
549.193	355.69
549.407	347.69
549.62	349.69
549.833	360.69
550.046	376.69
550.259	370.69
550.473	345.69
550.686	357.69
550.899	347.69
551.112	356.69
551.325	364.69
551.538	345.69
551.751	323.69
551.964	355.69
552.177	372.69
552.39	371.69
552.603	379.69
552.816	370.69
553.029	373.69
553.242	377.69
553.455	371.69
553.667	391.69
553.88	392.69
554.093	369.69
554.306	372.69
554.519	355.69
554.732	364.69
554.944	365.69
555.157	356.69
555.37	342.69
555.583	344.69
555.795	338.69
556.008	352.69
556.221	336.69
556.433	332.69
556.646	321.69
556.859	337.69
557.071	332.69
557.284	320.69
557.496	323.69
557.709	302.69
557.921	326.69
558.134	320.69
558.346	323.69
558.559	327.69
558.771	324.69
558.984	308.69
559.196	313.69
559.409	321.69
559.621	333.69
559.833	311.69
560.046	315.69
560.258	312.69
560.47	321.69
560.683	318.69
560.895	310.69
561.107	314.69
561.32	318.69
561.532	304.69
561.744	312.69
561.956	319.69
562.168	315.69
562.381	311.69
562.593	317.69
562.805	331.69
563.017	316.69
563.229	309.69
563.441	308.69
563.653	318.69
563.865	330.69
564.077	339.69
564.289	329.69
564.501	323.69
564.713	333.69
564.925	340.69
565.137	339.69
565.349	332.69
565.561	370.69
565.773	370.69
565.985	394.69
566.197	360.69
566.408	390.69
566.62	408.69
566.832	465.69
567.044	449.69
567.255	449.69
567.467	460.69
567.679	486.69
567.891	491.69
568.102	526.69
568.314	501.69
568.526	456.69
568.737	436.69
568.949	396.69
569.161	374.69
569.372	361.69
569.584	358.69
569.795	341.69
570.007	331.69
570.218	366.69
570.43	355.69
570.641	341.69
570.853	336.69
571.064	328.69
571.276	325.69
571.487	328.69
571.698	305.69
571.91	301.69
572.121	299.69
572.333	297.69
572.544	283.69
572.755	290.69
572.966	300.69
573.178	289.69
573.389	293.69
573.6	276.69
573.811	280.69
574.023	276.69
574.234	278.69
574.445	282.69
574.656	259.69
574.867	272.69
575.078	282.69
575.289	279.69
575.501	285.69
575.712	271.69
575.923	281.69
576.134	272.69
576.345	261.69
576.556	275.69
576.767	275.69
576.978	283.69
577.188	278.69
577.399	269.69
577.61	260.69
577.821	277.69
578.032	276.69
578.243	274.69
578.454	404.69
578.665	308.69
578.875	263.69
579.086	258.69
579.297	258.69
579.508	262.69
579.718	267.69
579.929	259.69
580.14	256.69
580.35	256.69
580.561	249.69
580.772	262.69
580.982	253.69
581.193	244.69
581.403	255.69
581.614	250.69
581.825	246.69
582.035	264.69
582.246	251.69
582.456	265.69
582.667	242.69
582.877	234.69
583.087	249.69
583.298	232.69
583.508	243.69
583.719	244.69
583.929	245.69
584.139	266.69
584.35	249.69
584.56	247.69
584.77	248.69
584.981	252.69
585.191	233.69
585.401	247.69
585.611	256.69
585.821	243.69
586.032	262.69
586.242	254.69
586.452	246.69
586.662	248.69
586.872	239.69
587.082	255.69
587.292	241.69
587.502	232.69
587.713	240.69
587.923	235.69
588.133	251.69
588.343	233.69
588.553	232.69
588.762	254.69
588.972	226.69
589.182	241.69
589.392	238.69
589.602	254.69
589.812	236.69
590.022	243.69
590.232	256.69
590.441	242.69
590.651	252.69
590.861	251.69
591.071	243.69
591.281	239.69
591.49	275.69
591.7	260.69
591.91	280.69
592.119	250.69
592.329	243.69
592.539	278.69
592.748	276.69
592.958	278.69
593.167	275.69
593.377	283.69
593.587	287.69
593.796	285.69
594.006	287.69
594.215	280.69
594.424	282.69
594.634	281.69
594.843	286.69
595.053	277.69
595.262	269.69
595.472	259.69
595.681	251.69
595.89	248.69
596.1	264.69
596.309	246.69
596.518	238.69
596.727	252.69
596.937	235.69
597.146	256.69
597.355	229.69
597.564	222.69
597.774	235.69
597.983	230.69
598.192	226.69
598.401	254.69
598.61	220.69
598.819	223.69
599.028	230.69
599.237	224.69
599.446	228.69
599.655	229.69
599.864	224.69
600.073	223.69
600.282	218.69
600.491	256.69
600.7	222.69
600.909	220.69
601.118	221.69
601.327	219.69
601.536	210.69
601.745	207.69
601.953	213.69
602.162	207.69
602.371	215.69
602.58	213.69
602.789	225.69
602.997	218.69
603.206	223.69
603.415	211.69
603.623	225.69
603.832	219.69
604.041	208.69
604.249	205.69
604.458	219.69
604.666	218.69
604.875	196.69
605.084	207.69
605.292	191.69
605.501	211.69
605.709	205.69
605.918	209.69
606.126	208.69
606.334	213.69
606.543	192.69
606.751	192.69
606.96	203.69
607.168	193.69
607.376	209.69
607.585	195.69
607.793	208.69
608.001	194.69
608.21	193.69
608.418	203.69
608.626	196.69
608.834	200.69
609.043	207.69
609.251	220.69
609.459	187.69
609.667	194.69
609.875	190.69
610.083	218.69
610.291	210.69
610.499	206.69
610.707	216.69
610.916	194.69
611.124	215.69
611.332	198.69
611.54	202.69
611.748	196.69
611.955	215.69
612.163	195.69
612.371	200.69
612.579	209.69
612.787	216.69
612.995	211.69
613.203	188.69
613.411	185.69
613.618	194.69
613.826	214.69
614.034	196.69
614.242	197.69
614.449	192.69
614.657	207.69
614.865	198.69
615.072	198.69
615.28	204.69
615.488	189.69
615.695	186.69
615.903	215.69
616.111	203.69
616.318	201.69
616.526	204.69
616.733	203.69
616.941	190.69
617.148	188.69
617.356	188.69
617.563	200.69
617.771	213.69
617.978	212.69
618.185	190.69
618.393	210.69
618.6	200.69
618.807	209.69
619.015	182.69
619.222	194.69
619.429	186.69
619.637	184.69
619.844	210.69
620.051	185.69
620.258	190.69
620.466	196.69
620.673	184.69
620.88	175.69
621.087	176.69
621.294	199.69
621.501	185.69
621.708	198.69
621.915	186.69
622.122	191.69
622.329	179.69
622.536	169.69
622.743	177.69
622.95	192.69
623.157	191.69
623.364	199.69
623.571	179.69
623.778	186.69
623.985	177.69
624.192	181.69
624.399	196.69
624.606	180.69
624.812	178.69
625.019	196.69
625.226	174.69
625.433	182.69
625.639	162.69
625.846	170.69
626.053	179.69
626.259	182.69
626.466	164.69
626.673	167.69
626.879	175.69
627.086	192.69
627.293	172.69
627.499	180.69
627.706	166.69
627.912	180.69
628.119	158.69
628.325	163.69
628.532	183.69
628.738	168.69
628.945	167.69
629.151	162.69
629.357	175.69
629.564	181.69
629.77	169.69
629.976	162.69
630.183	184.69
630.389	155.69
630.595	183.69
630.802	155.69
631.008	175.69
631.214	168.69
631.42	166.69
631.627	166.69
631.833	161.69
632.039	166.69
632.245	159.69
632.451	170.69
632.657	179.69
632.863	153.69
633.069	165.69
633.275	164.69
633.481	164.69
633.688	173.69
633.893	161.69
634.099	157.69
634.305	143.69
634.511	136.69
634.717	156.69
634.923	173.69
635.129	143.69
635.335	158.69
635.541	164.69
635.747	159.69
635.952	166.69
636.158	164.69
636.364	162.69
636.57	179.69
636.775	179.69
636.981	164.69
637.187	162.69
637.392	176.69
637.598	156.69
637.804	155.69
638.009	160.69
638.215	160.69
638.421	146.69
638.626	162.69
638.832	156.69
639.037	153.69
639.243	174.69
639.448	167.69
639.654	148.69
639.859	153.69
640.065	150.69
640.27	162.69
640.475	162.69
640.681	155.69
640.886	160.69
641.091	150.69
641.297	153.69
641.502	163.69
641.707	151.69
641.913	140.69
642.118	152.69
642.323	133.69
642.528	158.69
642.733	150.69
642.939	165.69
643.144	136.69
643.349	155.69
643.554	137.69
643.759	135.69
643.964	135.69
644.169	145.69
644.374	135.69
644.579	134.69
644.784	149.69
644.989	150.69
645.194	143.69
645.399	157.69
645.604	137.69
645.809	135.69
646.014	134.69
646.219	148.69
646.423	146.69
646.628	143.69
646.833	141.69
647.038	151.69
647.243	138.69
647.447	148.69
647.652	150.69
647.857	155.69
648.062	155.69
648.266	138.69
648.471	146.69
648.676	149.69
648.88	137.69
649.085	141.69
649.289	142.69
649.494	156.69
649.698	161.69
649.903	162.69
650.107	148.69
650.312	166.69
650.516	154.69
650.721	138.69
650.925	132.69
651.13	135.69
651.334	133.69
651.539	138.69
651.743	145.69
651.947	126.69
652.152	135.69
652.356	142.69
652.56	133.69
652.764	121.69
652.969	124.69
653.173	131.69
653.377	128.69
653.581	145.69
653.785	131.69
653.99	121.69
654.194	112.69
654.398	122.69
654.602	123.69
654.806	107.69
655.01	126.69
655.214	139.69
655.418	130.69
655.622	135.69
655.826	135.69
656.03	114.69
656.234	134.69
656.438	130.69
656.642	119.69
656.846	128.69
657.049	124.69
657.253	122.69
657.457	120.69
657.661	113.69
657.865	112.69
658.068	103.69
658.272	108.69
658.476	94.69
658.68	116.69
658.883	90.69
659.087	103.69
659.291	97.69
659.494	88.69
659.698	87.69
659.901	84.69
660.105	95.69
660.309	92.69
660.512	90.69
660.716	87.69
660.919	77.69
661.123	93.69
661.326	101.69
661.53	91.69
661.733	95.69
661.936	86.69
662.14	104.69
662.343	91.69
662.546	66.69
662.75	87.69
662.953	87.69
663.156	77.69
663.36	92.69
663.563	86.69
663.766	88.69
663.969	82.69
664.173	71.69
664.376	79.69
664.579	84.69
664.782	80.69
664.985	97.69
665.188	74.69
665.391	80.69
665.594	84.69
665.797	76.69
666	79.69
666.203	88.69
666.406	91.69
666.609	77.69
666.812	79.69
667.015	77.69
667.218	79.69
667.421	83.69
667.624	75.69
667.827	93.69
668.03	83.69
668.232	81.69
668.435	68.69
668.638	90.69
668.841	55.69
669.043	81.69
669.246	72.69
669.449	87.69
669.651	84.69
669.854	75.69
670.057	72.69
670.259	70.69
670.462	88.69
670.665	96.69
670.867	91.69
671.07	86.69
671.272	97.69
671.475	85.69
671.677	96.69
671.88	71.69
672.082	78.69
672.284	83.69
672.487	80.69
672.689	84.69
672.892	79.69
