Data from 1984.PennyLincolnUp.Lamp.En5.5.200Scan.071819.P1_HRD10591_16-59-01-968.txt Node
Date: Thu Jul 18 16:59:01 EDT 2019
User: cochatt
Spectrometer: HR+D1059
Trigger mode: 1
Integration Time (sec): 1.000000E-1
Scans to average: 1
Electric dark correction enabled: true
Nonlinearity correction enabled: false
Boxcar width: 0
XAxis mode: Wavelengths
Number of Pixels in Spectrum: 2048
>>>>>Begin Spectral Data<<<<<
223.165	-6.25
223.4	-6.25
223.635	-6.25
223.869	-23.25
224.104	-17.25
224.338	-10.25
224.573	-14.25
224.808	-10.25
225.042	-4.25
225.277	-4.25
225.511	-7.25
225.746	3.75
225.98	6.75
226.215	-5.25
226.449	11.75
226.683	24.75
226.918	33.75
227.152	21.75
227.387	20.75
227.621	33.75
227.856	41.75
228.09	40.75
228.324	47.75
228.559	52.75
228.793	65.75
229.027	89.75
229.262	107.75
229.496	96.75
229.73	107.75
229.964	121.75
230.199	115.75
230.433	113.75
230.667	102.75
230.901	103.75
231.136	99.75
231.37	114.75
231.604	115.75
231.838	103.75
232.072	114.75
232.306	117.75
232.541	118.75
232.775	109.75
233.009	105.75
233.243	120.75
233.477	99.75
233.711	96.75
233.945	128.75
234.179	107.75
234.413	129.75
234.647	107.75
234.881	107.75
235.115	118.75
235.349	109.75
235.583	118.75
235.817	132.75
236.051	116.75
236.285	102.75
236.519	109.75
236.753	124.75
236.987	125.75
237.221	141.75
237.455	173.75
237.689	157.75
237.922	129.75
238.156	137.75
238.39	122.75
238.624	107.75
238.858	118.75
239.091	119.75
239.325	120.75
239.559	110.75
239.793	129.75
240.027	139.75
240.26	113.75
240.494	131.75
240.728	117.75
240.961	130.75
241.195	132.75
241.429	126.75
241.662	124.75
241.896	135.75
242.13	135.75
242.363	123.75
242.597	119.75
242.83	131.75
243.064	134.75
243.298	127.75
243.531	132.75
243.765	141.75
243.998	126.75
244.232	115.75
244.465	126.75
244.699	139.75
244.932	131.75
245.166	126.75
245.399	141.75
245.633	136.75
245.866	127.75
246.099	133.75
246.333	139.75
246.566	164.75
246.8	129.75
247.033	131.75
247.266	151.75
247.5	146.75
247.733	139.75
247.966	142.75
248.2	154.75
248.433	139.75
248.666	164.75
248.899	156.75
249.133	166.75
249.366	182.75
249.599	164.75
249.832	163.75
250.066	147.75
250.299	164.75
250.532	187.75
250.765	192.75
250.998	196.75
251.231	198.75
251.465	190.75
251.698	168.75
251.931	175.75
252.164	174.75
252.397	172.75
252.63	174.75
252.863	178.75
253.096	195.75
253.329	189.75
253.562	200.75
253.795	191.75
254.028	198.75
254.261	192.75
254.494	198.75
254.727	194.75
254.96	228.75
255.193	228.75
255.426	215.75
255.659	206.75
255.892	215.75
256.124	251.75
256.357	247.75
256.59	237.75
256.823	203.75
257.056	212.75
257.289	192.75
257.521	199.75
257.754	181.75
257.987	185.75
258.22	200.75
258.452	187.75
258.685	194.75
258.918	183.75
259.151	200.75
259.383	196.75
259.616	192.75
259.849	193.75
260.081	199.75
260.314	205.75
260.547	212.75
260.779	215.75
261.012	193.75
261.244	197.75
261.477	206.75
261.71	199.75
261.942	181.75
262.175	199.75
262.407	197.75
262.64	206.75
262.872	181.75
263.105	192.75
263.337	193.75
263.57	205.75
263.802	206.75
264.035	190.75
264.267	188.75
264.499	181.75
264.732	206.75
264.964	197.75
265.197	212.75
265.429	207.75
265.661	194.75
265.894	206.75
266.126	198.75
266.358	204.75
266.591	206.75
266.823	193.75
267.055	209.75
267.287	228.75
267.52	200.75
267.752	215.75
267.984	200.75
268.216	232.75
268.448	231.75
268.681	230.75
268.913	233.75
269.145	225.75
269.377	249.75
269.609	251.75
269.841	236.75
270.073	248.75
270.306	235.75
270.538	262.75
270.77	260.75
271.002	253.75
271.234	260.75
271.466	255.75
271.698	247.75
271.93	254.75
272.162	255.75
272.394	271.75
272.626	260.75
272.858	262.75
273.09	261.75
273.322	244.75
273.553	238.75
273.785	259.75
274.017	246.75
274.249	234.75
274.481	243.75
274.713	223.75
274.945	261.75
275.176	226.75
275.408	253.75
275.64	243.75
275.872	240.75
276.104	262.75
276.335	252.75
276.567	253.75
276.799	275.75
277.031	268.75
277.262	271.75
277.494	271.75
277.726	277.75
277.957	253.75
278.189	257.75
278.421	271.75
278.652	235.75
278.884	251.75
279.115	245.75
279.347	246.75
279.579	251.75
279.81	259.75
280.042	244.75
280.273	268.75
280.505	263.75
280.736	264.75
280.968	255.75
281.199	260.75
281.431	266.75
281.662	254.75
281.894	273.75
282.125	268.75
282.356	280.75
282.588	279.75
282.819	275.75
283.051	274.75
283.282	282.75
283.513	281.75
283.745	249.75
283.976	266.75
284.207	263.75
284.439	262.75
284.67	275.75
284.901	285.75
285.132	267.75
285.364	275.75
285.595	283.75
285.826	278.75
286.057	264.75
286.288	284.75
286.52	255.75
286.751	271.75
286.982	287.75
287.213	269.75
287.444	276.75
287.675	301.75
287.906	278.75
288.138	284.75
288.369	292.75
288.6	295.75
288.831	289.75
289.062	271.75
289.293	272.75
289.524	271.75
289.755	277.75
289.986	285.75
290.217	290.75
290.448	284.75
290.679	299.75
290.91	290.75
291.141	256.75
291.371	277.75
291.602	281.75
291.833	281.75
292.064	293.75
292.295	283.75
292.526	282.75
292.757	296.75
292.987	289.75
293.218	282.75
293.449	297.75
293.68	284.75
293.91	270.75
294.141	280.75
294.372	285.75
294.603	287.75
294.833	285.75
295.064	277.75
295.295	283.75
295.525	269.75
295.756	279.75
295.987	292.75
296.217	298.75
296.448	294.75
296.679	295.75
296.909	311.75
297.14	301.75
297.37	300.75
297.601	277.75
297.831	307.75
298.062	302.75
298.292	317.75
298.523	304.75
298.753	298.75
298.984	300.75
299.214	322.75
299.445	301.75
299.675	308.75
299.905	299.75
300.136	301.75
300.366	321.75
300.597	293.75
300.827	307.75
301.057	324.75
301.288	333.75
301.518	316.75
301.748	339.75
301.979	332.75
302.209	323.75
302.439	329.75
302.669	299.75
302.9	343.75
303.13	337.75
303.36	324.75
303.59	315.75
303.82	331.75
304.051	304.75
304.281	317.75
304.511	333.75
304.741	312.75
304.971	318.75
305.201	283.75
305.431	302.75
305.661	310.75
305.891	332.75
306.121	328.75
306.352	317.75
306.582	330.75
306.812	324.75
307.042	314.75
307.272	316.75
307.502	325.75
307.731	317.75
307.961	313.75
308.191	326.75
308.421	315.75
308.651	323.75
308.881	323.75
309.111	330.75
309.341	334.75
309.571	326.75
309.8	328.75
310.03	350.75
310.26	346.75
310.49	341.75
310.72	346.75
310.949	366.75
311.179	353.75
311.409	347.75
311.639	326.75
311.868	361.75
312.098	347.75
312.328	358.75
312.557	365.75
312.787	355.75
313.017	353.75
313.246	355.75
313.476	334.75
313.706	365.75
313.935	357.75
314.165	372.75
314.394	360.75
314.624	355.75
314.853	348.75
315.083	357.75
315.312	352.75
315.542	344.75
315.771	351.75
316.001	341.75
316.23	356.75
316.46	348.75
316.689	355.75
316.919	353.75
317.148	362.75
317.377	364.75
317.607	370.75
317.836	358.75
318.065	353.75
318.295	339.75
318.524	356.75
318.753	347.75
318.983	358.75
319.212	318.75
319.441	340.75
319.67	358.75
319.9	369.75
320.129	353.75
320.358	355.75
320.587	346.75
320.816	362.75
321.046	339.75
321.275	367.75
321.504	365.75
321.733	363.75
321.962	379.75
322.191	378.75
322.42	378.75
322.649	376.75
322.878	389.75
323.108	399.75
323.337	427.75
323.566	420.75
323.795	436.75
324.024	469.75
324.253	536.75
324.482	712.75
324.71	1002.75
324.939	1406.75
325.168	1243.75
325.397	691.75
325.626	519.75
325.855	462.75
326.084	451.75
326.313	453.75
326.542	448.75
326.77	491.75
326.999	545.75
327.228	676.75
327.457	953.75
327.686	1141.75
327.914	790.75
328.143	586.75
328.372	525.75
328.6	512.75
328.829	487.75
329.058	484.75
329.287	500.75
329.515	493.75
329.744	486.75
329.972	494.75
330.201	510.75
330.43	569.75
330.658	547.75
330.887	535.75
331.115	499.75
331.344	452.75
331.572	469.75
331.801	444.75
332.03	422.75
332.258	430.75
332.486	431.75
332.715	454.75
332.943	474.75
333.172	458.75
333.4	485.75
333.629	509.75
333.857	520.75
334.085	565.75
334.314	580.75
334.542	637.75
334.771	632.75
334.999	549.75
335.227	486.75
335.455	476.75
335.684	443.75
335.912	445.75
336.14	455.75
336.369	431.75
336.597	454.75
336.825	452.75
337.053	426.75
337.281	420.75
337.51	422.75
337.738	414.75
337.966	411.75
338.194	391.75
338.422	433.75
338.65	407.75
338.878	413.75
339.106	407.75
339.334	407.75
339.562	408.75
339.79	393.75
340.018	405.75
340.246	388.75
340.474	398.75
340.702	398.75
340.93	396.75
341.158	390.75
341.386	396.75
341.614	414.75
341.842	381.75
342.07	405.75
342.298	399.75
342.526	389.75
342.754	384.75
342.981	384.75
343.209	380.75
343.437	404.75
343.665	417.75
343.893	427.75
344.12	431.75
344.348	444.75
344.576	423.75
344.804	395.75
345.031	412.75
345.259	405.75
345.487	385.75
345.714	387.75
345.942	347.75
346.17	388.75
346.397	375.75
346.625	374.75
346.853	379.75
347.08	372.75
347.308	373.75
347.535	374.75
347.763	386.75
347.99	367.75
348.218	383.75
348.445	382.75
348.673	378.75
348.9	373.75
349.128	383.75
349.355	388.75
349.583	378.75
349.81	366.75
350.037	358.75
350.265	367.75
350.492	350.75
350.72	373.75
350.947	359.75
351.174	371.75
351.402	403.75
351.629	363.75
351.856	373.75
352.083	381.75
352.311	380.75
352.538	373.75
352.765	384.75
352.992	378.75
353.22	381.75
353.447	358.75
353.674	346.75
353.901	379.75
354.128	357.75
354.355	344.75
354.583	359.75
354.81	377.75
355.037	363.75
355.264	355.75
355.491	346.75
355.718	349.75
355.945	355.75
356.172	351.75
356.399	338.75
356.626	350.75
356.853	349.75
357.08	355.75
357.307	362.75
357.534	355.75
357.761	355.75
357.988	381.75
358.215	360.75
358.441	343.75
358.668	357.75
358.895	334.75
359.122	342.75
359.349	341.75
359.576	371.75
359.802	377.75
360.029	378.75
360.256	402.75
360.483	378.75
360.709	373.75
360.936	371.75
361.163	360.75
361.39	365.75
361.616	362.75
361.843	382.75
362.07	375.75
362.296	375.75
362.523	366.75
362.749	345.75
362.976	361.75
363.203	354.75
363.429	373.75
363.656	353.75
363.882	353.75
364.109	372.75
364.335	354.75
364.562	351.75
364.788	366.75
365.015	358.75
365.241	366.75
365.468	335.75
365.694	361.75
365.92	361.75
366.147	369.75
366.373	355.75
366.599	356.75
366.826	344.75
367.052	362.75
367.278	354.75
367.505	360.75
367.731	350.75
367.957	354.75
368.184	372.75
368.41	352.75
368.636	354.75
368.862	373.75
369.089	365.75
369.315	340.75
369.541	360.75
369.767	339.75
369.993	380.75
370.219	368.75
370.445	345.75
370.672	351.75
370.898	363.75
371.124	350.75
371.35	346.75
371.576	379.75
371.802	388.75
372.028	372.75
372.254	374.75
372.48	363.75
372.706	363.75
372.932	373.75
373.158	369.75
373.384	373.75
373.61	353.75
373.835	371.75
374.061	363.75
374.287	362.75
374.513	366.75
374.739	376.75
374.965	389.75
375.191	407.75
375.416	389.75
375.642	377.75
375.868	371.75
376.094	380.75
376.319	372.75
376.545	352.75
376.771	352.75
376.997	359.75
377.222	357.75
377.448	361.75
377.674	357.75
377.899	362.75
378.125	376.75
378.35	353.75
378.576	345.75
378.802	340.75
379.027	351.75
379.253	370.75
379.478	360.75
379.704	353.75
379.929	339.75
380.155	359.75
380.38	342.75
380.606	359.75
380.831	366.75
381.057	375.75
381.282	375.75
381.507	371.75
381.733	363.75
381.958	351.75
382.184	349.75
382.409	377.75
382.634	371.75
382.86	384.75
383.085	393.75
383.31	375.75
383.535	379.75
383.761	362.75
383.986	385.75
384.211	363.75
384.436	381.75
384.662	405.75
384.887	398.75
385.112	413.75
385.337	422.75
385.562	405.75
385.787	381.75
386.013	413.75
386.238	420.75
386.463	410.75
386.688	398.75
386.913	417.75
387.138	418.75
387.363	410.75
387.588	398.75
387.813	392.75
388.038	398.75
388.263	390.75
388.488	408.75
388.713	387.75
388.938	406.75
389.163	393.75
389.387	400.75
389.612	391.75
389.837	397.75
390.062	399.75
390.287	409.75
390.512	383.75
390.736	410.75
390.961	414.75
391.186	399.75
391.411	413.75
391.636	417.75
391.86	436.75
392.085	457.75
392.31	445.75
392.534	439.75
392.759	430.75
392.984	426.75
393.208	417.75
393.433	419.75
393.658	393.75
393.882	396.75
394.107	429.75
394.331	426.75
394.556	410.75
394.78	424.75
395.005	415.75
395.229	413.75
395.454	425.75
395.678	440.75
395.903	452.75
396.127	450.75
396.352	419.75
396.576	448.75
396.801	426.75
397.025	418.75
397.249	433.75
397.474	456.75
397.698	430.75
397.922	444.75
398.147	471.75
398.371	461.75
398.595	465.75
398.82	487.75
399.044	478.75
399.268	523.75
399.492	580.75
399.717	614.75
399.941	639.75
400.165	605.75
400.389	599.75
400.613	513.75
400.837	505.75
401.062	482.75
401.286	486.75
401.51	486.75
401.734	469.75
401.958	474.75
402.182	492.75
402.406	488.75
402.63	508.75
402.854	510.75
403.078	518.75
403.302	501.75
403.526	535.75
403.75	515.75
403.974	542.75
404.198	500.75
404.422	528.75
404.645	513.75
404.869	533.75
405.093	553.75
405.317	607.75
405.541	607.75
405.765	566.75
405.988	559.75
406.212	562.75
406.436	543.75
406.66	558.75
406.883	519.75
407.107	565.75
407.331	600.75
407.555	656.75
407.778	637.75
408.002	599.75
408.226	567.75
408.449	550.75
408.673	553.75
408.896	572.75
409.12	588.75
409.344	568.75
409.567	497.75
409.791	503.75
410.014	497.75
410.238	509.75
410.461	514.75
410.685	500.75
410.908	511.75
411.132	514.75
411.355	539.75
411.578	533.75
411.802	501.75
412.025	486.75
412.249	511.75
412.472	555.75
412.695	569.75
412.919	569.75
413.142	534.75
413.365	528.75
413.589	494.75
413.812	477.75
414.035	469.75
414.258	484.75
414.482	482.75
414.705	474.75
414.928	481.75
415.151	468.75
415.374	475.75
415.597	465.75
415.821	478.75
416.044	452.75
416.267	451.75
416.49	463.75
416.713	472.75
416.936	467.75
417.159	452.75
417.382	487.75
417.605	483.75
417.828	484.75
418.051	478.75
418.274	467.75
418.497	469.75
418.72	490.75
418.943	504.75
419.166	521.75
419.389	527.75
419.611	540.75
419.834	520.75
420.057	532.75
420.28	539.75
420.503	531.75
420.726	504.75
420.948	503.75
421.171	526.75
421.394	536.75
421.617	483.75
421.839	483.75
422.062	501.75
422.285	479.75
422.507	513.75
422.73	561.75
422.953	539.75
423.175	525.75
423.398	510.75
423.621	497.75
423.843	523.75
424.066	517.75
424.288	513.75
424.511	511.75
424.733	544.75
424.956	615.75
425.178	568.75
425.401	571.75
425.623	579.75
425.846	527.75
426.068	470.75
426.291	483.75
426.513	491.75
426.735	506.75
426.958	523.75
427.18	542.75
427.402	626.75
427.625	673.75
427.847	600.75
428.069	539.75
428.292	519.75
428.514	506.75
428.736	478.75
428.958	462.75
429.181	457.75
429.403	457.75
429.625	472.75
429.847	464.75
430.069	505.75
430.292	517.75
430.514	467.75
430.736	463.75
430.958	445.75
431.18	437.75
431.402	449.75
431.624	423.75
431.846	429.75
432.068	420.75
432.29	448.75
432.512	437.75
432.734	438.75
432.956	434.75
433.178	448.75
433.4	446.75
433.622	445.75
433.844	433.75
434.066	436.75
434.287	445.75
434.509	439.75
434.731	473.75
434.953	474.75
435.175	477.75
435.397	482.75
435.618	478.75
435.84	503.75
436.062	546.75
436.284	603.75
436.505	505.75
436.727	485.75
436.949	453.75
437.17	462.75
437.392	440.75
437.614	445.75
437.835	475.75
438.057	508.75
438.278	556.75
438.5	577.75
438.721	617.75
438.943	599.75
439.165	519.75
439.386	474.75
439.608	481.75
439.829	468.75
440.05	492.75
440.272	493.75
440.493	503.75
440.715	451.75
440.936	447.75
441.158	454.75
441.379	458.75
441.6	473.75
441.822	486.75
442.043	492.75
442.264	557.75
442.486	563.75
442.707	513.75
442.928	486.75
443.149	503.75
443.371	515.75
443.592	555.75
443.813	597.75
444.034	617.75
444.255	552.75
444.476	533.75
444.698	524.75
444.919	533.75
445.14	635.75
445.361	578.75
445.582	528.75
445.803	538.75
446.024	595.75
446.245	587.75
446.466	545.75
446.687	503.75
446.908	473.75
447.129	457.75
447.35	435.75
447.571	445.75
447.792	437.75
448.013	451.75
448.234	454.75
448.455	459.75
448.675	546.75
448.896	588.75
449.117	511.75
449.338	510.75
449.559	553.75
449.779	615.75
450	513.75
450.221	454.75
450.442	427.75
450.662	438.75
450.883	430.75
451.104	424.75
451.324	415.75
451.545	411.75
451.766	433.75
451.986	401.75
452.207	417.75
452.428	406.75
452.648	402.75
452.869	401.75
453.089	401.75
453.31	415.75
453.53	413.75
453.751	413.75
453.971	394.75
454.192	403.75
454.412	425.75
454.633	405.75
454.853	401.75
455.073	386.75
455.294	395.75
455.514	443.75
455.734	441.75
455.955	390.75
456.175	380.75
456.395	378.75
456.616	381.75
456.836	367.75
457.056	379.75
457.276	395.75
457.497	388.75
457.717	363.75
457.937	373.75
458.157	394.75
458.377	399.75
458.598	408.75
458.818	427.75
459.038	469.75
459.258	473.75
459.478	457.75
459.698	438.75
459.918	443.75
460.138	429.75
460.358	471.75
460.578	471.75
460.798	477.75
461.018	474.75
461.238	487.75
461.458	470.75
461.678	455.75
461.898	463.75
462.118	474.75
462.338	489.75
462.558	495.75
462.777	513.75
462.997	537.75
463.217	579.75
463.437	553.75
463.657	508.75
463.876	522.75
464.096	532.75
464.316	530.75
464.536	537.75
464.755	531.75
464.975	502.75
465.195	498.75
465.414	527.75
465.634	476.75
465.854	461.75
466.073	434.75
466.293	439.75
466.512	409.75
466.732	409.75
466.951	417.75
467.171	408.75
467.391	431.75
467.61	422.75
467.829	416.75
468.049	434.75
468.268	453.75
468.488	437.75
468.707	405.75
468.927	403.75
469.146	402.75
469.365	392.75
469.585	415.75
469.804	417.75
470.023	431.75
470.243	431.75
470.462	441.75
470.681	430.75
470.901	453.75
471.12	429.75
471.339	430.75
471.558	414.75
471.777	398.75
471.997	431.75
472.216	451.75
472.435	491.75
472.654	475.75
472.873	457.75
473.092	427.75
473.311	428.75
473.53	414.75
473.749	406.75
473.968	437.75
474.187	491.75
474.406	489.75
474.625	426.75
474.844	409.75
475.063	407.75
475.282	401.75
475.501	403.75
475.72	406.75
475.939	417.75
476.158	413.75
476.377	424.75
476.596	420.75
476.814	424.75
477.033	434.75
477.252	424.75
477.471	426.75
477.69	460.75
477.908	437.75
478.127	462.75
478.346	448.75
478.564	473.75
478.783	479.75
479.002	506.75
479.22	473.75
479.439	508.75
479.658	498.75
479.876	473.75
480.095	495.75
480.313	516.75
480.532	533.75
480.751	514.75
480.969	527.75
481.188	618.75
481.406	659.75
481.624	577.75
481.843	519.75
482.061	495.75
482.28	508.75
482.498	504.75
482.717	467.75
482.935	471.75
483.153	470.75
483.372	490.75
483.59	463.75
483.808	457.75
484.027	453.75
484.245	464.75
484.463	475.75
484.681	487.75
484.9	487.75
485.118	485.75
485.336	474.75
485.554	492.75
485.772	497.75
485.99	526.75
486.209	489.75
486.427	479.75
486.645	508.75
486.863	475.75
487.081	480.75
487.299	500.75
487.517	521.75
487.735	465.75
487.953	473.75
488.171	500.75
488.389	507.75
488.607	506.75
488.825	505.75
489.043	490.75
489.261	513.75
489.479	514.75
489.696	522.75
489.914	512.75
490.132	531.75
490.35	515.75
490.568	511.75
490.786	517.75
491.003	524.75
491.221	563.75
491.439	568.75
491.657	560.75
491.874	557.75
492.092	583.75
492.31	550.75
492.527	575.75
492.745	591.75
492.963	597.75
493.18	565.75
493.398	575.75
493.615	594.75
493.833	592.75
494.05	566.75
494.268	589.75
494.485	574.75
494.703	590.75
494.92	584.75
495.138	583.75
495.355	579.75
495.573	561.75
495.79	569.75
496.008	589.75
496.225	574.75
496.442	584.75
496.66	565.75
496.877	585.75
497.094	589.75
497.312	597.75
497.529	612.75
497.746	607.75
497.963	599.75
498.181	635.75
498.398	647.75
498.615	665.75
498.832	708.75
499.049	710.75
499.267	753.75
499.484	829.75
499.701	878.75
499.918	920.75
500.135	988.75
500.352	1047.75
500.569	1147.75
500.786	1112.75
501.003	1068.75
501.22	986.75
501.437	919.75
501.654	861.75
501.871	820.75
502.088	775.75
502.305	731.75
502.522	697.75
502.739	698.75
502.956	663.75
503.172	626.75
503.389	603.75
503.606	616.75
503.823	604.75
504.04	589.75
504.256	599.75
504.473	597.75
504.69	601.75
504.907	578.75
505.123	586.75
505.34	547.75
505.557	544.75
505.773	556.75
505.99	560.75
506.207	524.75
506.423	538.75
506.64	516.75
506.856	528.75
507.073	492.75
507.289	495.75
507.506	523.75
507.722	516.75
507.939	517.75
508.155	503.75
508.372	487.75
508.588	505.75
508.805	493.75
509.021	478.75
509.238	481.75
509.454	483.75
509.67	526.75
509.887	478.75
510.103	461.75
510.319	505.75
510.536	556.75
510.752	833.75
510.968	695.75
511.184	495.75
511.401	482.75
511.617	489.75
511.833	503.75
512.049	478.75
512.265	474.75
512.481	493.75
512.698	495.75
512.914	499.75
513.13	476.75
513.346	470.75
513.562	476.75
513.778	486.75
513.994	474.75
514.21	476.75
514.426	498.75
514.642	497.75
514.858	504.75
515.074	539.75
515.29	625.75
515.506	814.75
515.721	716.75
515.937	557.75
516.153	527.75
516.369	517.75
516.585	537.75
516.801	516.75
517.016	534.75
517.232	541.75
517.448	565.75
517.664	557.75
517.879	556.75
518.095	546.75
518.311	550.75
518.527	548.75
518.742	535.75
518.958	529.75
519.173	485.75
519.389	525.75
519.605	470.75
519.82	483.75
520.036	505.75
520.251	484.75
520.467	490.75
520.682	505.75
520.898	499.75
521.113	523.75
521.329	532.75
521.544	558.75
521.76	660.75
521.975	1029.75
522.19	957.75
522.406	590.75
522.621	512.75
522.836	463.75
523.052	452.75
523.267	441.75
523.482	430.75
523.698	445.75
523.913	431.75
524.128	425.75
524.343	419.75
524.559	424.75
524.774	433.75
524.989	422.75
525.204	415.75
525.419	423.75
525.634	411.75
525.849	416.75
526.064	397.75
526.28	412.75
526.495	413.75
526.71	385.75
526.925	405.75
527.14	402.75
527.355	395.75
527.57	418.75
527.785	388.75
527.999	411.75
528.214	409.75
528.429	389.75
528.644	417.75
528.859	399.75
529.074	403.75
529.289	413.75
529.503	447.75
529.718	410.75
529.933	417.75
530.148	385.75
530.363	417.75
530.577	394.75
530.792	392.75
531.007	403.75
531.221	403.75
531.436	375.75
531.651	410.75
531.865	409.75
532.08	404.75
532.295	397.75
532.509	398.75
532.724	417.75
532.938	399.75
533.153	399.75
533.367	407.75
533.582	396.75
533.796	407.75
534.011	388.75
534.225	385.75
534.44	407.75
534.654	398.75
534.868	373.75
535.083	399.75
535.297	394.75
535.511	387.75
535.726	375.75
535.94	393.75
536.154	373.75
536.369	381.75
536.583	373.75
536.797	397.75
537.011	385.75
537.225	376.75
537.44	389.75
537.654	369.75
537.868	370.75
538.082	377.75
538.296	378.75
538.51	369.75
538.724	371.75
538.938	380.75
539.153	391.75
539.367	373.75
539.581	360.75
539.795	349.75
540.009	377.75
540.222	347.75
540.436	359.75
540.65	389.75
540.864	377.75
541.078	371.75
541.292	359.75
541.506	374.75
541.72	381.75
541.934	383.75
542.147	357.75
542.361	365.75
542.575	367.75
542.789	372.75
543.002	360.75
543.216	359.75
543.43	377.75
543.644	371.75
543.857	367.75
544.071	383.75
544.285	385.75
544.498	379.75
544.712	375.75
544.925	374.75
545.139	380.75
545.352	389.75
545.566	376.75
545.779	388.75
545.993	387.75
546.206	377.75
546.42	380.75
546.633	361.75
546.847	369.75
547.06	368.75
547.274	367.75
547.487	374.75
547.7	359.75
547.914	363.75
548.127	377.75
548.34	369.75
548.554	377.75
548.767	371.75
548.98	377.75
549.193	373.75
549.407	374.75
549.62	364.75
549.833	381.75
550.046	371.75
550.259	359.75
550.473	349.75
550.686	355.75
550.899	361.75
551.112	366.75
551.325	373.75
551.538	393.75
551.751	358.75
551.964	363.75
552.177	383.75
552.39	377.75
552.603	376.75
552.816	384.75
553.029	398.75
553.242	381.75
553.455	377.75
553.667	405.75
553.88	391.75
554.093	384.75
554.306	390.75
554.519	391.75
554.732	370.75
554.944	370.75
555.157	378.75
555.37	357.75
555.583	354.75
555.795	369.75
556.008	342.75
556.221	301.75
556.433	351.75
556.646	343.75
556.859	347.75
557.071	331.75
557.284	331.75
557.496	330.75
557.709	313.75
557.921	330.75
558.134	327.75
558.346	318.75
558.559	317.75
558.771	330.75
558.984	321.75
559.196	340.75
559.409	331.75
559.621	321.75
559.833	316.75
560.046	312.75
560.258	302.75
560.47	321.75
560.683	327.75
560.895	327.75
561.107	324.75
561.32	300.75
561.532	309.75
561.744	315.75
561.956	328.75
562.168	327.75
562.381	322.75
562.593	345.75
562.805	310.75
563.017	329.75
563.229	353.75
563.441	329.75
563.653	323.75
563.865	329.75
564.077	334.75
564.289	318.75
564.501	326.75
564.713	345.75
564.925	348.75
565.137	363.75
565.349	364.75
565.561	370.75
565.773	379.75
565.985	378.75
566.197	385.75
566.408	419.75
566.62	446.75
566.832	459.75
567.044	479.75
567.255	467.75
567.467	470.75
567.679	489.75
567.891	520.75
568.102	502.75
568.314	507.75
568.526	458.75
568.737	453.75
568.949	395.75
569.161	358.75
569.372	389.75
569.584	372.75
569.795	364.75
570.007	342.75
570.218	350.75
570.43	377.75
570.641	357.75
570.853	325.75
571.064	323.75
571.276	337.75
571.487	334.75
571.698	324.75
571.91	323.75
572.121	309.75
572.333	306.75
572.544	301.75
572.755	309.75
572.966	286.75
573.178	297.75
573.389	271.75
573.6	280.75
573.811	298.75
574.023	286.75
574.234	306.75
574.445	279.75
574.656	277.75
574.867	283.75
575.078	300.75
575.289	282.75
575.501	277.75
575.712	293.75
575.923	274.75
576.134	266.75
576.345	275.75
576.556	283.75
576.767	270.75
576.978	289.75
577.188	269.75
577.399	267.75
577.61	259.75
577.821	271.75
578.032	258.75
578.243	275.75
578.454	395.75
578.665	340.75
578.875	283.75
579.086	277.75
579.297	257.75
579.508	277.75
579.718	269.75
579.929	270.75
580.14	267.75
580.35	266.75
580.561	263.75
580.772	263.75
580.982	247.75
581.193	256.75
581.403	260.75
581.614	238.75
581.825	261.75
582.035	246.75
582.246	252.75
582.456	270.75
582.667	245.75
582.877	241.75
583.087	246.75
583.298	242.75
583.508	259.75
583.719	241.75
583.929	265.75
584.139	229.75
584.35	245.75
584.56	253.75
584.77	247.75
584.981	243.75
585.191	250.75
585.401	271.75
585.611	253.75
585.821	252.75
586.032	262.75
586.242	256.75
586.452	253.75
586.662	255.75
586.872	244.75
587.082	226.75
587.292	253.75
587.502	249.75
587.713	247.75
587.923	237.75
588.133	232.75
588.343	237.75
588.553	260.75
588.762	236.75
588.972	260.75
589.182	266.75
589.392	257.75
589.602	256.75
589.812	270.75
590.022	256.75
590.232	251.75
590.441	260.75
590.651	241.75
590.861	274.75
591.071	254.75
591.281	260.75
591.49	260.75
591.7	255.75
591.91	257.75
592.119	264.75
592.329	267.75
592.539	260.75
592.748	272.75
592.958	293.75
593.167	285.75
593.377	295.75
593.587	299.75
593.796	287.75
594.006	281.75
594.215	295.75
594.424	300.75
594.634	292.75
594.843	270.75
595.053	287.75
595.262	294.75
595.472	264.75
595.681	253.75
595.89	272.75
596.1	245.75
596.309	245.75
596.518	236.75
596.727	245.75
596.937	236.75
597.146	255.75
597.355	230.75
597.564	238.75
597.774	236.75
597.983	219.75
598.192	217.75
598.401	218.75
598.61	241.75
598.819	217.75
599.028	230.75
599.237	237.75
599.446	248.75
599.655	234.75
599.864	239.75
600.073	228.75
600.282	214.75
600.491	231.75
600.7	228.75
600.909	230.75
601.118	220.75
601.327	211.75
601.536	212.75
601.745	215.75
601.953	219.75
602.162	207.75
602.371	222.75
602.58	213.75
602.789	207.75
602.997	218.75
603.206	222.75
603.415	212.75
603.623	202.75
603.832	223.75
604.041	229.75
604.249	205.75
604.458	200.75
604.666	214.75
604.875	215.75
605.084	215.75
605.292	211.75
605.501	223.75
605.709	206.75
605.918	196.75
606.126	198.75
606.334	206.75
606.543	217.75
606.751	204.75
606.96	205.75
607.168	197.75
607.376	205.75
607.585	200.75
607.793	200.75
608.001	216.75
608.21	208.75
608.418	216.75
608.626	202.75
608.834	212.75
609.043	195.75
609.251	217.75
609.459	182.75
609.667	210.75
609.875	212.75
610.083	220.75
610.291	218.75
610.499	206.75
610.707	220.75
610.916	225.75
611.124	235.75
611.332	212.75
611.54	217.75
611.748	217.75
611.955	214.75
612.163	193.75
612.371	194.75
612.579	217.75
612.787	213.75
612.995	196.75
613.203	199.75
613.411	194.75
613.618	194.75
613.826	197.75
614.034	202.75
614.242	201.75
614.449	206.75
614.657	201.75
614.865	206.75
615.072	190.75
615.28	198.75
615.488	184.75
615.695	193.75
615.903	212.75
616.111	207.75
616.318	227.75
616.526	216.75
616.733	204.75
616.941	203.75
617.148	208.75
617.356	211.75
617.563	203.75
617.771	199.75
617.978	215.75
618.185	202.75
618.393	184.75
618.6	220.75
618.807	215.75
619.015	199.75
619.222	203.75
619.429	190.75
619.637	205.75
619.844	202.75
620.051	185.75
620.258	182.75
620.466	203.75
620.673	190.75
620.88	201.75
621.087	197.75
621.294	177.75
621.501	189.75
621.708	193.75
621.915	177.75
622.122	189.75
622.329	188.75
622.536	203.75
622.743	191.75
622.95	185.75
623.157	179.75
623.364	191.75
623.571	195.75
623.778	185.75
623.985	187.75
624.192	196.75
624.399	186.75
624.606	200.75
624.812	169.75
625.019	196.75
625.226	177.75
625.433	187.75
625.639	189.75
625.846	188.75
626.053	169.75
626.259	182.75
626.466	194.75
626.673	180.75
626.879	168.75
627.086	165.75
627.293	166.75
627.499	191.75
627.706	181.75
627.912	153.75
628.119	161.75
628.325	155.75
628.532	175.75
628.738	185.75
628.945	168.75
629.151	170.75
629.357	184.75
629.564	162.75
629.77	159.75
629.976	173.75
630.183	172.75
630.389	166.75
630.595	167.75
630.802	153.75
631.008	155.75
631.214	191.75
631.42	161.75
631.627	189.75
631.833	174.75
632.039	170.75
632.245	179.75
632.451	166.75
632.657	167.75
632.863	148.75
633.069	171.75
633.275	170.75
633.481	166.75
633.688	162.75
633.893	170.75
634.099	162.75
634.305	147.75
634.511	178.75
634.717	161.75
634.923	159.75
635.129	167.75
635.335	161.75
635.541	154.75
635.747	179.75
635.952	151.75
636.158	166.75
636.364	165.75
636.57	170.75
636.775	174.75
636.981	178.75
637.187	156.75
637.392	171.75
637.598	169.75
637.804	148.75
638.009	141.75
638.215	153.75
638.421	163.75
638.626	159.75
638.832	166.75
639.037	161.75
639.243	149.75
639.448	148.75
639.654	149.75
639.859	148.75
640.065	163.75
640.27	177.75
640.475	151.75
640.681	163.75
640.886	155.75
641.091	155.75
641.297	157.75
641.502	150.75
641.707	157.75
641.913	154.75
642.118	177.75
642.323	135.75
642.528	154.75
642.733	145.75
642.939	147.75
643.144	152.75
643.349	139.75
643.554	147.75
643.759	139.75
643.964	137.75
644.169	155.75
644.374	141.75
644.579	158.75
644.784	150.75
644.989	148.75
645.194	153.75
645.399	141.75
645.604	141.75
645.809	158.75
646.014	153.75
646.219	151.75
646.423	150.75
646.628	159.75
646.833	142.75
647.038	146.75
647.243	150.75
647.447	141.75
647.652	151.75
647.857	136.75
648.062	156.75
648.266	149.75
648.471	151.75
648.676	158.75
648.88	156.75
649.085	146.75
649.289	155.75
649.494	152.75
649.698	164.75
649.903	170.75
650.107	156.75
650.312	157.75
650.516	162.75
650.721	141.75
650.925	141.75
651.13	143.75
651.334	138.75
651.539	127.75
651.743	137.75
651.947	135.75
652.152	118.75
652.356	120.75
652.56	126.75
652.764	125.75
652.969	137.75
653.173	134.75
653.377	136.75
653.581	132.75
653.785	126.75
653.99	114.75
654.194	130.75
654.398	129.75
654.602	129.75
654.806	119.75
655.01	138.75
655.214	141.75
655.418	133.75
655.622	126.75
655.826	135.75
656.03	118.75
656.234	133.75
656.438	128.75
656.642	137.75
656.846	115.75
657.049	140.75
657.253	129.75
657.457	117.75
657.661	107.75
657.865	96.75
658.068	100.75
658.272	106.75
658.476	96.75
658.68	110.75
658.883	98.75
659.087	92.75
659.291	105.75
659.494	101.75
659.698	103.75
659.901	85.75
660.105	88.75
660.309	96.75
660.512	96.75
660.716	95.75
660.919	90.75
661.123	100.75
661.326	80.75
661.53	91.75
661.733	102.75
661.936	87.75
662.14	76.75
662.343	82.75
662.546	84.75
662.75	111.75
662.953	92.75
663.156	82.75
663.36	74.75
663.563	87.75
663.766	89.75
663.969	80.75
664.173	88.75
664.376	84.75
664.579	89.75
664.782	84.75
664.985	91.75
665.188	76.75
665.391	86.75
665.594	98.75
665.797	86.75
666	85.75
666.203	84.75
666.406	89.75
666.609	87.75
666.812	86.75
667.015	73.75
667.218	82.75
667.421	79.75
667.624	86.75
667.827	89.75
668.03	70.75
668.232	83.75
668.435	60.75
668.638	76.75
668.841	90.75
669.043	90.75
669.246	74.75
669.449	85.75
669.651	62.75
669.854	92.75
670.057	78.75
670.259	91.75
670.462	82.75
670.665	76.75
670.867	80.75
671.07	89.75
671.272	87.75
671.475	81.75
671.677	86.75
671.88	83.75
672.082	82.75
672.284	80.75
672.487	91.75
672.689	101.75
672.892	83.75
