Data from 1984.PennyLincolnUp.Lamp.En5.5.200Scan.071819.P1_HRD10591_16-59-36-968.txt Node
Date: Thu Jul 18 16:59:36 EDT 2019
User: cochatt
Spectrometer: HR+D1059
Trigger mode: 1
Integration Time (sec): 1.000000E-1
Scans to average: 1
Electric dark correction enabled: true
Nonlinearity correction enabled: false
Boxcar width: 0
XAxis mode: Wavelengths
Number of Pixels in Spectrum: 2048
>>>>>Begin Spectral Data<<<<<
223.165	-21.31
223.4	-21.31
223.635	-21.31
223.869	-16.31
224.104	-24.31
224.338	-11.31
224.573	-15.31
224.808	-3.31
225.042	-5.31
225.277	-7.31
225.511	13.69
225.746	6.69
225.98	1.69
226.215	9.69
226.449	18.69
226.683	18.69
226.918	9.69
227.152	25.69
227.387	28.69
227.621	32.69
227.856	40.69
228.09	33.69
228.324	38.69
228.559	62.69
228.793	58.69
229.027	91.69
229.262	97.69
229.496	99.69
229.73	105.69
229.964	119.69
230.199	110.69
230.433	100.69
230.667	98.69
230.901	106.69
231.136	107.69
231.37	96.69
231.604	104.69
231.838	113.69
232.072	99.69
232.306	107.69
232.541	90.69
232.775	100.69
233.009	98.69
233.243	97.69
233.477	94.69
233.711	110.69
233.945	106.69
234.179	99.69
234.413	106.69
234.647	112.69
234.881	102.69
235.115	116.69
235.349	106.69
235.583	105.69
235.817	115.69
236.051	119.69
236.285	90.69
236.519	106.69
236.753	107.69
236.987	123.69
237.221	136.69
237.455	170.69
237.689	154.69
237.922	116.69
238.156	125.69
238.39	126.69
238.624	112.69
238.858	109.69
239.091	113.69
239.325	109.69
239.559	117.69
239.793	128.69
240.027	116.69
240.26	117.69
240.494	134.69
240.728	138.69
240.961	128.69
241.195	119.69
241.429	121.69
241.662	132.69
241.896	128.69
242.13	116.69
242.363	125.69
242.597	127.69
242.83	133.69
243.064	129.69
243.298	127.69
243.531	114.69
243.765	122.69
243.998	127.69
244.232	139.69
244.465	138.69
244.699	125.69
244.932	121.69
245.166	140.69
245.399	152.69
245.633	127.69
245.866	138.69
246.099	124.69
246.333	127.69
246.566	128.69
246.8	136.69
247.033	141.69
247.266	126.69
247.5	141.69
247.733	149.69
247.966	155.69
248.2	159.69
248.433	163.69
248.666	158.69
248.899	164.69
249.133	185.69
249.366	180.69
249.599	158.69
249.832	146.69
250.066	166.69
250.299	179.69
250.532	198.69
250.765	202.69
250.998	192.69
251.231	191.69
251.465	203.69
251.698	180.69
251.931	169.69
252.164	166.69
252.397	169.69
252.63	180.69
252.863	168.69
253.096	177.69
253.329	180.69
253.562	190.69
253.795	190.69
254.028	178.69
254.261	175.69
254.494	194.69
254.727	209.69
254.96	207.69
255.193	226.69
255.426	209.69
255.659	218.69
255.892	242.69
256.124	257.69
256.357	274.69
256.59	266.69
256.823	214.69
257.056	210.69
257.289	209.69
257.521	196.69
257.754	199.69
257.987	197.69
258.22	182.69
258.452	195.69
258.685	200.69
258.918	180.69
259.151	197.69
259.383	198.69
259.616	190.69
259.849	196.69
260.081	202.69
260.314	225.69
260.547	211.69
260.779	209.69
261.012	195.69
261.244	208.69
261.477	200.69
261.71	194.69
261.942	189.69
262.175	214.69
262.407	215.69
262.64	203.69
262.872	215.69
263.105	199.69
263.337	186.69
263.57	190.69
263.802	192.69
264.035	189.69
264.267	200.69
264.499	177.69
264.732	221.69
264.964	188.69
265.197	204.69
265.429	212.69
265.661	196.69
265.894	187.69
266.126	203.69
266.358	210.69
266.591	203.69
266.823	191.69
267.055	221.69
267.287	203.69
267.52	194.69
267.752	208.69
267.984	202.69
268.216	196.69
268.448	212.69
268.681	232.69
268.913	229.69
269.145	238.69
269.377	252.69
269.609	238.69
269.841	241.69
270.073	222.69
270.306	243.69
270.538	249.69
270.77	254.69
271.002	270.69
271.234	238.69
271.466	260.69
271.698	267.69
271.93	266.69
272.162	279.69
272.394	274.69
272.626	249.69
272.858	242.69
273.09	229.69
273.322	234.69
273.553	227.69
273.785	234.69
274.017	250.69
274.249	250.69
274.481	254.69
274.713	235.69
274.945	227.69
275.176	239.69
275.408	253.69
275.64	243.69
275.872	257.69
276.104	242.69
276.335	246.69
276.567	259.69
276.799	262.69
277.031	276.69
277.262	289.69
277.494	307.69
277.726	274.69
277.957	263.69
278.189	258.69
278.421	280.69
278.652	258.69
278.884	250.69
279.115	243.69
279.347	246.69
279.579	262.69
279.81	246.69
280.042	246.69
280.273	263.69
280.505	262.69
280.736	270.69
280.968	264.69
281.199	270.69
281.431	242.69
281.662	260.69
281.894	257.69
282.125	267.69
282.356	272.69
282.588	279.69
282.819	287.69
283.051	259.69
283.282	254.69
283.513	276.69
283.745	254.69
283.976	268.69
284.207	257.69
284.439	268.69
284.67	263.69
284.901	278.69
285.132	291.69
285.364	276.69
285.595	263.69
285.826	279.69
286.057	300.69
286.288	285.69
286.52	280.69
286.751	279.69
286.982	281.69
287.213	278.69
287.444	276.69
287.675	273.69
287.906	267.69
288.138	280.69
288.369	292.69
288.6	290.69
288.831	288.69
289.062	293.69
289.293	288.69
289.524	273.69
289.755	284.69
289.986	285.69
290.217	284.69
290.448	298.69
290.679	279.69
290.91	272.69
291.141	292.69
291.371	278.69
291.602	301.69
291.833	265.69
292.064	304.69
292.295	289.69
292.526	286.69
292.757	297.69
292.987	307.69
293.218	280.69
293.449	299.69
293.68	285.69
293.91	308.69
294.141	266.69
294.372	279.69
294.603	294.69
294.833	304.69
295.064	286.69
295.295	289.69
295.525	288.69
295.756	287.69
295.987	298.69
296.217	314.69
296.448	328.69
296.679	311.69
296.909	298.69
297.14	292.69
297.37	289.69
297.601	291.69
297.831	302.69
298.062	295.69
298.292	299.69
298.523	321.69
298.753	298.69
298.984	304.69
299.214	309.69
299.445	300.69
299.675	283.69
299.905	326.69
300.136	302.69
300.366	297.69
300.597	315.69
300.827	325.69
301.057	318.69
301.288	304.69
301.518	335.69
301.748	331.69
301.979	330.69
302.209	329.69
302.439	339.69
302.669	320.69
302.9	316.69
303.13	324.69
303.36	320.69
303.59	320.69
303.82	331.69
304.051	307.69
304.281	321.69
304.511	317.69
304.741	302.69
304.971	310.69
305.201	318.69
305.431	317.69
305.661	319.69
305.891	339.69
306.121	318.69
306.352	336.69
306.582	325.69
306.812	320.69
307.042	329.69
307.272	332.69
307.502	329.69
307.731	329.69
307.961	331.69
308.191	318.69
308.421	306.69
308.651	334.69
308.881	305.69
309.111	333.69
309.341	332.69
309.571	336.69
309.8	347.69
310.03	356.69
310.26	346.69
310.49	355.69
310.72	351.69
310.949	347.69
311.179	352.69
311.409	343.69
311.639	364.69
311.868	350.69
312.098	336.69
312.328	357.69
312.557	355.69
312.787	375.69
313.017	372.69
313.246	361.69
313.476	348.69
313.706	348.69
313.935	347.69
314.165	360.69
314.394	370.69
314.624	356.69
314.853	368.69
315.083	334.69
315.312	356.69
315.542	355.69
315.771	338.69
316.001	361.69
316.23	354.69
316.46	366.69
316.689	377.69
316.919	356.69
317.148	354.69
317.377	368.69
317.607	346.69
317.836	350.69
318.065	348.69
318.295	354.69
318.524	358.69
318.753	344.69
318.983	346.69
319.212	372.69
319.441	360.69
319.67	354.69
319.9	359.69
320.129	375.69
320.358	344.69
320.587	350.69
320.816	366.69
321.046	375.69
321.275	359.69
321.504	350.69
321.733	367.69
321.962	375.69
322.191	389.69
322.42	379.69
322.649	389.69
322.878	411.69
323.108	385.69
323.337	414.69
323.566	436.69
323.795	440.69
324.024	468.69
324.253	545.69
324.482	746.69
324.71	1064.69
324.939	1460.69
325.168	1302.69
325.397	699.69
325.626	517.69
325.855	468.69
326.084	448.69
326.313	437.69
326.542	428.69
326.77	464.69
326.999	536.69
327.228	701.69
327.457	990.69
327.686	1168.69
327.914	815.69
328.143	632.69
328.372	564.69
328.6	526.69
328.829	492.69
329.058	527.69
329.287	504.69
329.515	499.69
329.744	515.69
329.972	534.69
330.201	598.69
330.43	634.69
330.658	614.69
330.887	555.69
331.115	528.69
331.344	489.69
331.572	454.69
331.801	467.69
332.03	475.69
332.258	459.69
332.486	453.69
332.715	471.69
332.943	466.69
333.172	484.69
333.4	494.69
333.629	512.69
333.857	523.69
334.085	573.69
334.314	629.69
334.542	736.69
334.771	778.69
334.999	610.69
335.227	560.69
335.455	468.69
335.684	466.69
335.912	449.69
336.14	450.69
336.369	451.69
336.597	443.69
336.825	444.69
337.053	457.69
337.281	422.69
337.51	422.69
337.738	430.69
337.966	419.69
338.194	420.69
338.422	409.69
338.65	410.69
338.878	387.69
339.106	411.69
339.334	404.69
339.562	392.69
339.79	405.69
340.018	400.69
340.246	402.69
340.474	414.69
340.702	382.69
340.93	372.69
341.158	374.69
341.386	386.69
341.614	395.69
341.842	398.69
342.07	390.69
342.298	376.69
342.526	379.69
342.754	383.69
342.981	372.69
343.209	384.69
343.437	396.69
343.665	399.69
343.893	423.69
344.12	434.69
344.348	430.69
344.576	422.69
344.804	422.69
345.031	392.69
345.259	392.69
345.487	397.69
345.714	377.69
345.942	381.69
346.17	373.69
346.397	387.69
346.625	372.69
346.853	388.69
347.08	381.69
347.308	368.69
347.535	368.69
347.763	374.69
347.99	369.69
348.218	378.69
348.445	379.69
348.673	379.69
348.9	376.69
349.128	380.69
349.355	352.69
349.583	374.69
349.81	358.69
350.037	359.69
350.265	359.69
350.492	342.69
350.72	364.69
350.947	384.69
351.174	372.69
351.402	375.69
351.629	367.69
351.856	397.69
352.083	368.69
352.311	379.69
352.538	372.69
352.765	372.69
352.992	391.69
353.22	377.69
353.447	368.69
353.674	366.69
353.901	363.69
354.128	372.69
354.355	354.69
354.583	338.69
354.81	367.69
355.037	352.69
355.264	351.69
355.491	361.69
355.718	362.69
355.945	364.69
356.172	347.69
356.399	357.69
356.626	330.69
356.853	359.69
357.08	344.69
357.307	345.69
357.534	349.69
357.761	346.69
357.988	358.69
358.215	355.69
358.441	339.69
358.668	352.69
358.895	368.69
359.122	350.69
359.349	357.69
359.576	365.69
359.802	376.69
360.029	396.69
360.256	401.69
360.483	385.69
360.709	378.69
360.936	370.69
361.163	357.69
361.39	359.69
361.616	376.69
361.843	356.69
362.07	360.69
362.296	364.69
362.523	353.69
362.749	359.69
362.976	339.69
363.203	363.69
363.429	358.69
363.656	347.69
363.882	369.69
364.109	366.69
364.335	337.69
364.562	337.69
364.788	367.69
365.015	355.69
365.241	366.69
365.468	366.69
365.694	357.69
365.92	360.69
366.147	363.69
366.373	354.69
366.599	356.69
366.826	354.69
367.052	343.69
367.278	358.69
367.505	342.69
367.731	368.69
367.957	340.69
368.184	360.69
368.41	343.69
368.636	366.69
368.862	347.69
369.089	353.69
369.315	356.69
369.541	369.69
369.767	354.69
369.993	351.69
370.219	342.69
370.445	363.69
370.672	368.69
370.898	368.69
371.124	361.69
371.35	382.69
371.576	371.69
371.802	339.69
372.028	370.69
372.254	361.69
372.48	382.69
372.706	384.69
372.932	362.69
373.158	364.69
373.384	351.69
373.61	352.69
373.835	353.69
374.061	366.69
374.287	370.69
374.513	389.69
374.739	369.69
374.965	359.69
375.191	390.69
375.416	384.69
375.642	369.69
375.868	370.69
376.094	387.69
376.319	382.69
376.545	352.69
376.771	370.69
376.997	368.69
377.222	375.69
377.448	369.69
377.674	363.69
377.899	342.69
378.125	369.69
378.35	350.69
378.576	352.69
378.802	373.69
379.027	356.69
379.253	358.69
379.478	356.69
379.704	364.69
379.929	342.69
380.155	340.69
380.38	357.69
380.606	366.69
380.831	362.69
381.057	356.69
381.282	351.69
381.507	334.69
381.733	354.69
381.958	358.69
382.184	376.69
382.409	358.69
382.634	374.69
382.86	352.69
383.085	364.69
383.31	386.69
383.535	375.69
383.761	384.69
383.986	394.69
384.211	369.69
384.436	402.69
384.662	415.69
384.887	403.69
385.112	402.69
385.337	410.69
385.562	411.69
385.787	394.69
386.013	431.69
386.238	408.69
386.463	407.69
386.688	410.69
386.913	409.69
387.138	401.69
387.363	408.69
387.588	405.69
387.813	411.69
388.038	399.69
388.263	410.69
388.488	402.69
388.713	422.69
388.938	409.69
389.163	376.69
389.387	414.69
389.612	397.69
389.837	396.69
390.062	391.69
390.287	394.69
390.512	396.69
390.736	403.69
390.961	415.69
391.186	414.69
391.411	431.69
391.636	416.69
391.86	434.69
392.085	437.69
392.31	424.69
392.534	428.69
392.759	414.69
392.984	405.69
393.208	412.69
393.433	400.69
393.658	419.69
393.882	420.69
394.107	434.69
394.331	430.69
394.556	424.69
394.78	421.69
395.005	430.69
395.229	418.69
395.454	437.69
395.678	446.69
395.903	458.69
396.127	435.69
396.352	437.69
396.576	434.69
396.801	424.69
397.025	406.69
397.249	449.69
397.474	441.69
397.698	443.69
397.922	453.69
398.147	453.69
398.371	459.69
398.595	473.69
398.82	483.69
399.044	491.69
399.268	535.69
399.492	579.69
399.717	619.69
399.941	637.69
400.165	634.69
400.389	598.69
400.613	554.69
400.837	520.69
401.062	499.69
401.286	498.69
401.51	486.69
401.734	481.69
401.958	494.69
402.182	496.69
402.406	497.69
402.63	512.69
402.854	500.69
403.078	518.69
403.302	506.69
403.526	526.69
403.75	511.69
403.974	527.69
404.198	522.69
404.422	531.69
404.645	553.69
404.869	538.69
405.093	586.69
405.317	618.69
405.541	622.69
405.765	596.69
405.988	544.69
406.212	544.69
406.436	538.69
406.66	552.69
406.883	553.69
407.107	562.69
407.331	579.69
407.555	623.69
407.778	666.69
408.002	615.69
408.226	569.69
408.449	539.69
408.673	561.69
408.896	542.69
409.12	546.69
409.344	554.69
409.567	520.69
409.791	503.69
410.014	520.69
410.238	503.69
410.461	500.69
410.685	496.69
410.908	519.69
411.132	515.69
411.355	535.69
411.578	526.69
411.802	514.69
412.025	513.69
412.249	513.69
412.472	548.69
412.695	606.69
412.919	602.69
413.142	534.69
413.365	495.69
413.589	532.69
413.812	497.69
414.035	482.69
414.258	470.69
414.482	496.69
414.705	481.69
414.928	496.69
415.151	496.69
415.374	479.69
415.597	470.69
415.821	495.69
416.044	460.69
416.267	479.69
416.49	455.69
416.713	472.69
416.936	445.69
417.159	444.69
417.382	456.69
417.605	483.69
417.828	476.69
418.051	483.69
418.274	493.69
418.497	489.69
418.72	482.69
418.943	461.69
419.166	488.69
419.389	517.69
419.611	526.69
419.834	523.69
420.057	510.69
420.28	534.69
420.503	547.69
420.726	505.69
420.948	517.69
421.171	521.69
421.394	536.69
421.617	486.69
421.839	483.69
422.062	483.69
422.285	485.69
422.507	539.69
422.73	551.69
422.953	565.69
423.175	516.69
423.398	530.69
423.621	502.69
423.843	516.69
424.066	518.69
424.288	491.69
424.511	533.69
424.733	546.69
424.956	611.69
425.178	550.69
425.401	575.69
425.623	564.69
425.846	515.69
426.068	474.69
426.291	487.69
426.513	462.69
426.735	483.69
426.958	515.69
427.18	543.69
427.402	650.69
427.625	692.69
427.847	654.69
428.069	580.69
428.292	530.69
428.514	479.69
428.736	474.69
428.958	445.69
429.181	459.69
429.403	450.69
429.625	449.69
429.847	458.69
430.069	497.69
430.292	516.69
430.514	454.69
430.736	455.69
430.958	447.69
431.18	428.69
431.402	434.69
431.624	437.69
431.846	424.69
432.068	446.69
432.29	467.69
432.512	426.69
432.734	434.69
432.956	418.69
433.178	451.69
433.4	441.69
433.622	442.69
433.844	421.69
434.066	430.69
434.287	442.69
434.509	447.69
434.731	466.69
434.953	486.69
435.175	474.69
435.397	488.69
435.618	494.69
435.84	521.69
436.062	563.69
436.284	588.69
436.505	483.69
436.727	479.69
436.949	439.69
437.17	420.69
437.392	441.69
437.614	450.69
437.835	459.69
438.057	520.69
438.278	570.69
438.5	565.69
438.721	630.69
438.943	613.69
439.165	510.69
439.386	487.69
439.608	481.69
439.829	460.69
440.05	471.69
440.272	512.69
440.493	494.69
440.715	449.69
440.936	464.69
441.158	456.69
441.379	487.69
441.6	470.69
441.822	502.69
442.043	504.69
442.264	545.69
442.486	561.69
442.707	511.69
442.928	495.69
443.149	500.69
443.371	499.69
443.592	534.69
443.813	581.69
444.034	625.69
444.255	548.69
444.476	546.69
444.698	559.69
444.919	538.69
445.14	609.69
445.361	559.69
445.582	539.69
445.803	560.69
446.024	588.69
446.245	624.69
446.466	566.69
446.687	482.69
446.908	465.69
447.129	453.69
447.35	433.69
447.571	427.69
447.792	421.69
448.013	424.69
448.234	448.69
448.455	457.69
448.675	525.69
448.896	594.69
449.117	522.69
449.338	522.69
449.559	562.69
449.779	604.69
450	522.69
450.221	441.69
450.442	435.69
450.662	420.69
450.883	410.69
451.104	432.69
451.324	422.69
451.545	419.69
451.766	398.69
451.986	398.69
452.207	378.69
452.428	395.69
452.648	400.69
452.869	386.69
453.089	394.69
453.31	405.69
453.53	424.69
453.751	400.69
453.971	379.69
454.192	397.69
454.412	396.69
454.633	400.69
454.853	378.69
455.073	395.69
455.294	411.69
455.514	422.69
455.734	442.69
455.955	391.69
456.175	366.69
456.395	363.69
456.616	371.69
456.836	358.69
457.056	368.69
457.276	374.69
457.497	374.69
457.717	386.69
457.937	368.69
458.157	374.69
458.377	371.69
458.598	409.69
458.818	437.69
459.038	485.69
459.258	502.69
459.478	486.69
459.698	427.69
459.918	432.69
460.138	456.69
460.358	469.69
460.578	470.69
460.798	476.69
461.018	489.69
461.238	466.69
461.458	454.69
461.678	466.69
461.898	467.69
462.118	466.69
462.338	492.69
462.558	498.69
462.777	511.69
462.997	532.69
463.217	550.69
463.437	558.69
463.657	535.69
463.876	527.69
464.096	524.69
464.316	518.69
464.536	512.69
464.755	500.69
464.975	491.69
465.195	510.69
465.414	506.69
465.634	496.69
465.854	454.69
466.073	451.69
466.293	439.69
466.512	418.69
466.732	417.69
466.951	419.69
467.171	423.69
467.391	416.69
467.61	442.69
467.829	425.69
468.049	428.69
468.268	467.69
468.488	430.69
468.707	414.69
468.927	417.69
469.146	434.69
469.365	396.69
469.585	400.69
469.804	406.69
470.023	414.69
470.243	417.69
470.462	426.69
470.681	423.69
470.901	432.69
471.12	403.69
471.339	414.69
471.558	419.69
471.777	436.69
471.997	434.69
472.216	474.69
472.435	521.69
472.654	507.69
472.873	447.69
473.092	449.69
473.311	409.69
473.53	421.69
473.749	411.69
473.968	442.69
474.187	489.69
474.406	494.69
474.625	439.69
474.844	409.69
475.063	424.69
475.282	435.69
475.501	426.69
475.72	415.69
475.939	403.69
476.158	412.69
476.377	414.69
476.596	432.69
476.814	418.69
477.033	430.69
477.252	426.69
477.471	428.69
477.69	452.69
477.908	460.69
478.127	463.69
478.346	444.69
478.564	465.69
478.783	454.69
479.002	480.69
479.22	486.69
479.439	494.69
479.658	504.69
479.876	512.69
480.095	494.69
480.313	533.69
480.532	523.69
480.751	532.69
480.969	576.69
481.188	679.69
481.406	778.69
481.624	641.69
481.843	555.69
482.061	520.69
482.28	498.69
482.498	481.69
482.717	477.69
482.935	483.69
483.153	473.69
483.372	498.69
483.59	474.69
483.808	481.69
484.027	458.69
484.245	474.69
484.463	463.69
484.681	485.69
484.9	502.69
485.118	490.69
485.336	484.69
485.554	490.69
485.772	486.69
485.99	510.69
486.209	476.69
486.427	487.69
486.645	483.69
486.863	490.69
487.081	515.69
487.299	522.69
487.517	523.69
487.735	487.69
487.953	509.69
488.171	505.69
488.389	500.69
488.607	520.69
488.825	495.69
489.043	503.69
489.261	507.69
489.479	499.69
489.696	535.69
489.914	504.69
490.132	539.69
490.35	541.69
490.568	530.69
490.786	550.69
491.003	536.69
491.221	554.69
491.439	564.69
491.657	582.69
491.874	592.69
492.092	594.69
492.31	608.69
492.527	578.69
492.745	591.69
492.963	619.69
493.18	608.69
493.398	594.69
493.615	597.69
493.833	594.69
494.05	587.69
494.268	587.69
494.485	571.69
494.703	613.69
494.92	572.69
495.138	576.69
495.355	580.69
495.573	595.69
495.79	583.69
496.008	578.69
496.225	583.69
496.442	594.69
496.66	598.69
496.877	582.69
497.094	579.69
497.312	602.69
497.529	628.69
497.746	614.69
497.963	629.69
498.181	649.69
498.398	647.69
498.615	690.69
498.832	696.69
499.049	712.69
499.267	752.69
499.484	818.69
499.701	868.69
499.918	919.69
500.135	976.69
500.352	1102.69
500.569	1091.69
500.786	1129.69
501.003	1093.69
501.22	999.69
501.437	921.69
501.654	890.69
501.871	823.69
502.088	770.69
502.305	751.69
502.522	697.69
502.739	675.69
502.956	653.69
503.172	625.69
503.389	611.69
503.606	597.69
503.823	586.69
504.04	603.69
504.256	618.69
504.473	621.69
504.69	590.69
504.907	603.69
505.123	588.69
505.34	562.69
505.557	545.69
505.773	528.69
505.99	545.69
506.207	547.69
506.423	522.69
506.64	518.69
506.856	521.69
507.073	522.69
507.289	507.69
507.506	528.69
507.722	528.69
507.939	538.69
508.155	506.69
508.372	492.69
508.588	516.69
508.805	507.69
509.021	468.69
509.238	489.69
509.454	486.69
509.67	475.69
509.887	478.69
510.103	479.69
510.319	476.69
510.536	562.69
510.752	819.69
510.968	695.69
511.184	513.69
511.401	492.69
511.617	478.69
511.833	491.69
512.049	509.69
512.265	498.69
512.481	518.69
512.698	485.69
512.914	485.69
513.13	478.69
513.346	451.69
513.562	478.69
513.778	474.69
513.994	471.69
514.21	458.69
514.426	478.69
514.642	512.69
514.858	525.69
515.074	547.69
515.29	602.69
515.506	820.69
515.721	699.69
515.937	534.69
516.153	536.69
516.369	520.69
516.585	514.69
516.801	546.69
517.016	534.69
517.232	558.69
517.448	555.69
517.664	558.69
517.879	518.69
518.095	568.69
518.311	534.69
518.527	536.69
518.742	513.69
518.958	515.69
519.173	520.69
519.389	500.69
519.605	490.69
519.82	489.69
520.036	497.69
520.251	500.69
520.467	540.69
520.682	518.69
520.898	507.69
521.113	495.69
521.329	533.69
521.544	559.69
521.76	651.69
521.975	962.69
522.19	964.69
522.406	600.69
522.621	510.69
522.836	478.69
523.052	456.69
523.267	431.69
523.482	446.69
523.698	456.69
523.913	435.69
524.128	445.69
524.343	422.69
524.559	424.69
524.774	421.69
524.989	423.69
525.204	404.69
525.419	439.69
525.634	424.69
525.849	425.69
526.064	377.69
526.28	405.69
526.495	416.69
526.71	396.69
526.925	404.69
527.14	391.69
527.355	390.69
527.57	392.69
527.785	394.69
527.999	392.69
528.214	391.69
528.429	406.69
528.644	396.69
528.859	396.69
529.074	415.69
529.289	415.69
529.503	449.69
529.718	431.69
529.933	439.69
530.148	426.69
530.363	400.69
530.577	402.69
530.792	409.69
531.007	392.69
531.221	408.69
531.436	379.69
531.651	393.69
531.865	396.69
532.08	382.69
532.295	390.69
532.509	369.69
532.724	390.69
532.938	418.69
533.153	405.69
533.367	403.69
533.582	403.69
533.796	406.69
534.011	392.69
534.225	390.69
534.44	392.69
534.654	402.69
534.868	378.69
535.083	387.69
535.297	391.69
535.511	375.69
535.726	409.69
535.94	403.69
536.154	375.69
536.369	400.69
536.583	378.69
536.797	355.69
537.011	370.69
537.225	386.69
537.44	360.69
537.654	370.69
537.868	363.69
538.082	384.69
538.296	368.69
538.51	380.69
538.724	386.69
538.938	382.69
539.153	358.69
539.367	382.69
539.581	377.69
539.795	354.69
540.009	360.69
540.222	360.69
540.436	393.69
540.65	374.69
540.864	386.69
541.078	372.69
541.292	370.69
541.506	379.69
541.72	358.69
541.934	380.69
542.147	373.69
542.361	377.69
542.575	378.69
542.789	354.69
543.002	376.69
543.216	380.69
543.43	380.69
543.644	374.69
543.857	404.69
544.071	363.69
544.285	357.69
544.498	381.69
544.712	377.69
544.925	369.69
545.139	375.69
545.352	374.69
545.566	378.69
545.779	371.69
545.993	373.69
546.206	373.69
546.42	383.69
546.633	355.69
546.847	366.69
547.06	368.69
547.274	379.69
547.487	373.69
547.7	349.69
547.914	368.69
548.127	359.69
548.34	370.69
548.554	368.69
548.767	366.69
548.98	374.69
549.193	378.69
549.407	399.69
549.62	381.69
549.833	371.69
550.046	384.69
550.259	351.69
550.473	369.69
550.686	380.69
550.899	367.69
551.112	362.69
551.325	355.69
551.538	363.69
551.751	343.69
551.964	362.69
552.177	351.69
552.39	380.69
552.603	384.69
552.816	383.69
553.029	402.69
553.242	384.69
553.455	386.69
553.667	396.69
553.88	398.69
554.093	388.69
554.306	395.69
554.519	381.69
554.732	379.69
554.944	375.69
555.157	354.69
555.37	342.69
555.583	370.69
555.795	343.69
556.008	347.69
556.221	347.69
556.433	327.69
556.646	332.69
556.859	323.69
557.071	332.69
557.284	329.69
557.496	322.69
557.709	323.69
557.921	335.69
558.134	329.69
558.346	327.69
558.559	334.69
558.771	324.69
558.984	341.69
559.196	314.69
559.409	346.69
559.621	345.69
559.833	317.69
560.046	331.69
560.258	324.69
560.47	351.69
560.683	330.69
560.895	316.69
561.107	321.69
561.32	315.69
561.532	309.69
561.744	308.69
561.956	308.69
562.168	332.69
562.381	318.69
562.593	314.69
562.805	326.69
563.017	329.69
563.229	344.69
563.441	320.69
563.653	314.69
563.865	326.69
564.077	342.69
564.289	345.69
564.501	335.69
564.713	333.69
564.925	345.69
565.137	350.69
565.349	338.69
565.561	356.69
565.773	362.69
565.985	376.69
566.197	391.69
566.408	430.69
566.62	451.69
566.832	454.69
567.044	455.69
567.255	474.69
567.467	464.69
567.679	478.69
567.891	510.69
568.102	503.69
568.314	504.69
568.526	478.69
568.737	454.69
568.949	415.69
569.161	396.69
569.372	376.69
569.584	384.69
569.795	343.69
570.007	356.69
570.218	356.69
570.43	337.69
570.641	333.69
570.853	350.69
571.064	321.69
571.276	361.69
571.487	303.69
571.698	314.69
571.91	322.69
572.121	323.69
572.333	296.69
572.544	302.69
572.755	304.69
572.966	299.69
573.178	306.69
573.389	286.69
573.6	287.69
573.811	291.69
574.023	294.69
574.234	299.69
574.445	291.69
574.656	271.69
574.867	283.69
575.078	258.69
575.289	298.69
575.501	297.69
575.712	288.69
575.923	281.69
576.134	261.69
576.345	282.69
576.556	281.69
576.767	289.69
576.978	276.69
577.188	262.69
577.399	275.69
577.61	286.69
577.821	262.69
578.032	265.69
578.243	286.69
578.454	386.69
578.665	316.69
578.875	262.69
579.086	257.69
579.297	265.69
579.508	257.69
579.718	272.69
579.929	268.69
580.14	268.69
580.35	263.69
580.561	239.69
580.772	257.69
580.982	254.69
581.193	247.69
581.403	262.69
581.614	253.69
581.825	263.69
582.035	251.69
582.246	252.69
582.456	279.69
582.667	262.69
582.877	251.69
583.087	234.69
583.298	264.69
583.508	258.69
583.719	242.69
583.929	263.69
584.139	246.69
584.35	252.69
584.56	254.69
584.77	227.69
584.981	268.69
585.191	253.69
585.401	260.69
585.611	256.69
585.821	264.69
586.032	263.69
586.242	240.69
586.452	243.69
586.662	243.69
586.872	238.69
587.082	242.69
587.292	266.69
587.502	271.69
587.713	258.69
587.923	243.69
588.133	252.69
588.343	238.69
588.553	252.69
588.762	252.69
588.972	254.69
589.182	244.69
589.392	256.69
589.602	252.69
589.812	254.69
590.022	235.69
590.232	226.69
590.441	232.69
590.651	270.69
590.861	260.69
591.071	255.69
591.281	269.69
591.49	258.69
591.7	241.69
591.91	243.69
592.119	246.69
592.329	287.69
592.539	266.69
592.748	282.69
592.958	275.69
593.167	281.69
593.377	282.69
593.587	301.69
593.796	298.69
594.006	295.69
594.215	290.69
594.424	282.69
594.634	295.69
594.843	279.69
595.053	266.69
595.262	268.69
595.472	263.69
595.681	255.69
595.89	247.69
596.1	271.69
596.309	229.69
596.518	259.69
596.727	268.69
596.937	248.69
597.146	230.69
597.355	240.69
597.564	230.69
597.774	228.69
597.983	218.69
598.192	220.69
598.401	228.69
598.61	220.69
598.819	229.69
599.028	245.69
599.237	215.69
599.446	225.69
599.655	222.69
599.864	220.69
600.073	224.69
600.282	203.69
600.491	224.69
600.7	221.69
600.909	224.69
601.118	217.69
601.327	208.69
601.536	223.69
601.745	234.69
601.953	220.69
602.162	223.69
602.371	199.69
602.58	208.69
602.789	225.69
602.997	223.69
603.206	218.69
603.415	203.69
603.623	222.69
603.832	205.69
604.041	216.69
604.249	220.69
604.458	226.69
604.666	203.69
604.875	214.69
605.084	201.69
605.292	210.69
605.501	228.69
605.709	214.69
605.918	211.69
606.126	221.69
606.334	210.69
606.543	200.69
606.751	206.69
606.96	212.69
607.168	214.69
607.376	203.69
607.585	217.69
607.793	224.69
608.001	220.69
608.21	210.69
608.418	203.69
608.626	200.69
608.834	209.69
609.043	228.69
609.251	192.69
609.459	198.69
609.667	211.69
609.875	212.69
610.083	194.69
610.291	193.69
610.499	200.69
610.707	210.69
610.916	210.69
611.124	214.69
611.332	209.69
611.54	204.69
611.748	209.69
611.955	199.69
612.163	227.69
612.371	212.69
612.579	194.69
612.787	200.69
612.995	203.69
613.203	209.69
613.411	196.69
613.618	198.69
613.826	190.69
614.034	203.69
614.242	198.69
614.449	200.69
614.657	198.69
614.865	205.69
615.072	190.69
615.28	195.69
615.488	193.69
615.695	195.69
615.903	201.69
616.111	211.69
616.318	219.69
616.526	201.69
616.733	197.69
616.941	199.69
617.148	200.69
617.356	201.69
617.563	199.69
617.771	192.69
617.978	212.69
618.185	191.69
618.393	192.69
618.6	219.69
618.807	196.69
619.015	199.69
619.222	215.69
619.429	184.69
619.637	202.69
619.844	203.69
620.051	194.69
620.258	187.69
620.466	192.69
620.673	188.69
620.88	200.69
621.087	187.69
621.294	204.69
621.501	190.69
621.708	187.69
621.915	195.69
622.122	191.69
622.329	184.69
622.536	192.69
622.743	178.69
622.95	183.69
623.157	192.69
623.364	180.69
623.571	202.69
623.778	166.69
623.985	187.69
624.192	203.69
624.399	181.69
624.606	192.69
624.812	185.69
625.019	182.69
625.226	163.69
625.433	174.69
625.639	187.69
625.846	180.69
626.053	168.69
626.259	176.69
626.466	194.69
626.673	165.69
626.879	181.69
627.086	193.69
627.293	151.69
627.499	168.69
627.706	176.69
627.912	167.69
628.119	176.69
628.325	182.69
628.532	162.69
628.738	184.69
628.945	190.69
629.151	175.69
629.357	176.69
629.564	171.69
629.77	172.69
629.976	162.69
630.183	158.69
630.389	166.69
630.595	162.69
630.802	155.69
631.008	188.69
631.214	170.69
631.42	166.69
631.627	179.69
631.833	162.69
632.039	161.69
632.245	164.69
632.451	167.69
632.657	171.69
632.863	169.69
633.069	162.69
633.275	155.69
633.481	159.69
633.688	160.69
633.893	162.69
634.099	174.69
634.305	159.69
634.511	158.69
634.717	174.69
634.923	157.69
635.129	167.69
635.335	164.69
635.541	155.69
635.747	163.69
635.952	160.69
636.158	144.69
636.364	171.69
636.57	196.69
636.775	178.69
636.981	177.69
637.187	153.69
637.392	152.69
637.598	159.69
637.804	156.69
638.009	157.69
638.215	144.69
638.421	164.69
638.626	162.69
638.832	179.69
639.037	162.69
639.243	160.69
639.448	140.69
639.654	175.69
639.859	148.69
640.065	144.69
640.27	161.69
640.475	144.69
640.681	153.69
640.886	154.69
641.091	163.69
641.297	164.69
641.502	147.69
641.707	150.69
641.913	161.69
642.118	147.69
642.323	156.69
642.528	156.69
642.733	146.69
642.939	131.69
643.144	148.69
643.349	148.69
643.554	148.69
643.759	157.69
643.964	150.69
644.169	148.69
644.374	149.69
644.579	146.69
644.784	150.69
644.989	148.69
645.194	140.69
645.399	153.69
645.604	142.69
645.809	141.69
646.014	149.69
646.219	154.69
646.423	151.69
646.628	154.69
646.833	139.69
647.038	162.69
647.243	155.69
647.447	119.69
647.652	146.69
647.857	150.69
648.062	150.69
648.266	145.69
648.471	160.69
648.676	151.69
648.88	153.69
649.085	146.69
649.289	146.69
649.494	169.69
649.698	161.69
649.903	163.69
650.107	164.69
650.312	150.69
650.516	149.69
650.721	147.69
650.925	133.69
651.13	132.69
651.334	135.69
651.539	130.69
651.743	134.69
651.947	137.69
652.152	140.69
652.356	123.69
652.56	126.69
652.764	123.69
652.969	128.69
653.173	120.69
653.377	114.69
653.581	118.69
653.785	137.69
653.99	124.69
654.194	133.69
654.398	124.69
654.602	132.69
654.806	124.69
655.01	133.69
655.214	123.69
655.418	112.69
655.622	121.69
655.826	114.69
656.03	130.69
656.234	112.69
656.438	134.69
656.642	132.69
656.846	148.69
657.049	121.69
657.253	123.69
657.457	131.69
657.661	114.69
657.865	97.69
658.068	104.69
658.272	116.69
658.476	119.69
658.68	97.69
658.883	110.69
659.087	89.69
659.291	92.69
659.494	94.69
659.698	105.69
659.901	99.69
660.105	101.69
660.309	86.69
660.512	85.69
660.716	90.69
660.919	91.69
661.123	75.69
661.326	90.69
661.53	68.69
661.733	80.69
661.936	81.69
662.14	91.69
662.343	89.69
662.546	77.69
662.75	81.69
662.953	94.69
663.156	82.69
663.36	71.69
663.563	86.69
663.766	82.69
663.969	83.69
664.173	68.69
664.376	108.69
664.579	76.69
664.782	82.69
664.985	89.69
665.188	90.69
665.391	78.69
665.594	75.69
665.797	76.69
666	81.69
666.203	75.69
666.406	89.69
666.609	82.69
666.812	82.69
667.015	88.69
667.218	82.69
667.421	84.69
667.624	88.69
667.827	86.69
668.03	79.69
668.232	62.69
668.435	88.69
668.638	71.69
668.841	81.69
669.043	83.69
669.246	74.69
669.449	91.69
669.651	75.69
669.854	75.69
670.057	71.69
670.259	65.69
670.462	79.69
670.665	73.69
670.867	81.69
671.07	84.69
671.272	85.69
671.475	75.69
671.677	75.69
671.88	78.69
672.082	76.69
672.284	90.69
672.487	79.69
672.689	79.69
672.892	63.69
