Data from 1984.PennyLincolnUp.Lamp.En5.5.200Scan.071819.P1_HRD10591_16-58-51-968.txt Node
Date: Thu Jul 18 16:58:51 EDT 2019
User: cochatt
Spectrometer: HR+D1059
Trigger mode: 1
Integration Time (sec): 1.000000E-1
Scans to average: 1
Electric dark correction enabled: true
Nonlinearity correction enabled: false
Boxcar width: 0
XAxis mode: Wavelengths
Number of Pixels in Spectrum: 2048
>>>>>Begin Spectral Data<<<<<
223.165	-0.62
223.4	-0.62
223.635	-0.62
223.869	2.38
224.104	-12.62
224.338	-19.62
224.573	-25.62
224.808	-23.62
225.042	-4.62
225.277	4.38
225.511	-0.62
225.746	2.38
225.98	11.38
226.215	11.38
226.449	-0.62
226.683	21.38
226.918	12.38
227.152	22.38
227.387	32.38
227.621	57.38
227.856	38.38
228.09	48.38
228.324	42.38
228.559	71.38
228.793	62.38
229.027	75.38
229.262	100.38
229.496	98.38
229.73	119.38
229.964	116.38
230.199	113.38
230.433	108.38
230.667	110.38
230.901	93.38
231.136	115.38
231.37	97.38
231.604	92.38
231.838	106.38
232.072	103.38
232.306	103.38
232.541	119.38
232.775	106.38
233.009	114.38
233.243	118.38
233.477	113.38
233.711	107.38
233.945	114.38
234.179	96.38
234.413	107.38
234.647	103.38
234.881	106.38
235.115	114.38
235.349	122.38
235.583	117.38
235.817	111.38
236.051	116.38
236.285	116.38
236.519	117.38
236.753	120.38
236.987	130.38
237.221	132.38
237.455	160.38
237.689	145.38
237.922	120.38
238.156	107.38
238.39	116.38
238.624	113.38
238.858	124.38
239.091	124.38
239.325	118.38
239.559	116.38
239.793	122.38
240.027	105.38
240.26	132.38
240.494	116.38
240.728	138.38
240.961	132.38
241.195	128.38
241.429	124.38
241.662	132.38
241.896	134.38
242.13	113.38
242.363	114.38
242.597	113.38
242.83	124.38
243.064	115.38
243.298	122.38
243.531	132.38
243.765	123.38
243.998	124.38
244.232	123.38
244.465	132.38
244.699	134.38
244.932	138.38
245.166	137.38
245.399	135.38
245.633	136.38
245.866	142.38
246.099	129.38
246.333	139.38
246.566	146.38
246.8	134.38
247.033	132.38
247.266	156.38
247.5	149.38
247.733	144.38
247.966	156.38
248.2	151.38
248.433	135.38
248.666	137.38
248.899	140.38
249.133	158.38
249.366	159.38
249.599	158.38
249.832	158.38
250.066	165.38
250.299	160.38
250.532	189.38
250.765	190.38
250.998	204.38
251.231	188.38
251.465	188.38
251.698	188.38
251.931	185.38
252.164	170.38
252.397	146.38
252.63	179.38
252.863	176.38
253.096	179.38
253.329	193.38
253.562	193.38
253.795	174.38
254.028	171.38
254.261	186.38
254.494	190.38
254.727	195.38
254.96	224.38
255.193	212.38
255.426	220.38
255.659	184.38
255.892	217.38
256.124	238.38
256.357	252.38
256.59	211.38
256.823	192.38
257.056	192.38
257.289	189.38
257.521	173.38
257.754	170.38
257.987	179.38
258.22	178.38
258.452	177.38
258.685	186.38
258.918	168.38
259.151	187.38
259.383	192.38
259.616	207.38
259.849	174.38
260.081	206.38
260.314	206.38
260.547	218.38
260.779	203.38
261.012	196.38
261.244	197.38
261.477	189.38
261.71	194.38
261.942	196.38
262.175	205.38
262.407	179.38
262.64	201.38
262.872	194.38
263.105	167.38
263.337	191.38
263.57	198.38
263.802	208.38
264.035	188.38
264.267	192.38
264.499	174.38
264.732	193.38
264.964	182.38
265.197	205.38
265.429	190.38
265.661	212.38
265.894	202.38
266.126	205.38
266.358	190.38
266.591	212.38
266.823	209.38
267.055	211.38
267.287	201.38
267.52	195.38
267.752	203.38
267.984	211.38
268.216	197.38
268.448	210.38
268.681	205.38
268.913	210.38
269.145	228.38
269.377	231.38
269.609	244.38
269.841	221.38
270.073	220.38
270.306	264.38
270.538	244.38
270.77	242.38
271.002	248.38
271.234	256.38
271.466	248.38
271.698	252.38
271.93	257.38
272.162	262.38
272.394	249.38
272.626	248.38
272.858	227.38
273.09	233.38
273.322	230.38
273.553	234.38
273.785	234.38
274.017	212.38
274.249	244.38
274.481	242.38
274.713	234.38
274.945	234.38
275.176	240.38
275.408	238.38
275.64	242.38
275.872	237.38
276.104	249.38
276.335	225.38
276.567	249.38
276.799	269.38
277.031	266.38
277.262	269.38
277.494	261.38
277.726	273.38
277.957	255.38
278.189	260.38
278.421	246.38
278.652	253.38
278.884	256.38
279.115	247.38
279.347	258.38
279.579	254.38
279.81	231.38
280.042	255.38
280.273	242.38
280.505	260.38
280.736	246.38
280.968	251.38
281.199	255.38
281.431	273.38
281.662	257.38
281.894	247.38
282.125	240.38
282.356	268.38
282.588	277.38
282.819	264.38
283.051	258.38
283.282	258.38
283.513	263.38
283.745	260.38
283.976	262.38
284.207	268.38
284.439	267.38
284.67	257.38
284.901	270.38
285.132	269.38
285.364	259.38
285.595	254.38
285.826	280.38
286.057	289.38
286.288	288.38
286.52	263.38
286.751	260.38
286.982	284.38
287.213	276.38
287.444	280.38
287.675	267.38
287.906	267.38
288.138	283.38
288.369	274.38
288.6	277.38
288.831	269.38
289.062	274.38
289.293	270.38
289.524	281.38
289.755	280.38
289.986	281.38
290.217	259.38
290.448	291.38
290.679	275.38
290.91	273.38
291.141	272.38
291.371	270.38
291.602	285.38
291.833	288.38
292.064	276.38
292.295	287.38
292.526	285.38
292.757	285.38
292.987	289.38
293.218	277.38
293.449	285.38
293.68	281.38
293.91	272.38
294.141	275.38
294.372	276.38
294.603	300.38
294.833	311.38
295.064	290.38
295.295	284.38
295.525	265.38
295.756	293.38
295.987	288.38
296.217	282.38
296.448	318.38
296.679	304.38
296.909	278.38
297.14	293.38
297.37	298.38
297.601	295.38
297.831	289.38
298.062	284.38
298.292	300.38
298.523	288.38
298.753	313.38
298.984	278.38
299.214	302.38
299.445	293.38
299.675	298.38
299.905	308.38
300.136	305.38
300.366	291.38
300.597	293.38
300.827	294.38
301.057	297.38
301.288	318.38
301.518	309.38
301.748	327.38
301.979	320.38
302.209	303.38
302.439	316.38
302.669	319.38
302.9	325.38
303.13	321.38
303.36	315.38
303.59	316.38
303.82	328.38
304.051	316.38
304.281	292.38
304.511	308.38
304.741	322.38
304.971	313.38
305.201	295.38
305.431	310.38
305.661	293.38
305.891	289.38
306.121	325.38
306.352	320.38
306.582	321.38
306.812	296.38
307.042	291.38
307.272	306.38
307.502	306.38
307.731	317.38
307.961	311.38
308.191	298.38
308.421	285.38
308.651	316.38
308.881	306.38
309.111	323.38
309.341	310.38
309.571	336.38
309.8	328.38
310.03	339.38
310.26	375.38
310.49	338.38
310.72	320.38
310.949	349.38
311.179	334.38
311.409	326.38
311.639	335.38
311.868	336.38
312.098	345.38
312.328	344.38
312.557	356.38
312.787	365.38
313.017	360.38
313.246	346.38
313.476	345.38
313.706	338.38
313.935	344.38
314.165	342.38
314.394	350.38
314.624	371.38
314.853	341.38
315.083	340.38
315.312	356.38
315.542	332.38
315.771	341.38
316.001	340.38
316.23	342.38
316.46	331.38
316.689	347.38
316.919	349.38
317.148	355.38
317.377	349.38
317.607	348.38
317.836	336.38
318.065	343.38
318.295	329.38
318.524	350.38
318.753	340.38
318.983	340.38
319.212	337.38
319.441	345.38
319.67	339.38
319.9	325.38
320.129	337.38
320.358	341.38
320.587	328.38
320.816	338.38
321.046	345.38
321.275	343.38
321.504	358.38
321.733	363.38
321.962	349.38
322.191	342.38
322.42	360.38
322.649	390.38
322.878	392.38
323.108	395.38
323.337	400.38
323.566	420.38
323.795	417.38
324.024	454.38
324.253	524.38
324.482	684.38
324.71	1021.38
324.939	1374.38
325.168	1191.38
325.397	657.38
325.626	504.38
325.855	448.38
326.084	430.38
326.313	428.38
326.542	420.38
326.77	426.38
326.999	509.38
327.228	650.38
327.457	937.38
327.686	1082.38
327.914	755.38
328.143	564.38
328.372	526.38
328.6	488.38
328.829	460.38
329.058	458.38
329.287	467.38
329.515	462.38
329.744	455.38
329.972	476.38
330.201	514.38
330.43	520.38
330.658	537.38
330.887	502.38
331.115	475.38
331.344	475.38
331.572	417.38
331.801	442.38
332.03	454.38
332.258	419.38
332.486	435.38
332.715	429.38
332.943	447.38
333.172	461.38
333.4	461.38
333.629	496.38
333.857	478.38
334.085	522.38
334.314	555.38
334.542	599.38
334.771	624.38
334.999	553.38
335.227	477.38
335.455	460.38
335.684	446.38
335.912	432.38
336.14	435.38
336.369	432.38
336.597	424.38
336.825	423.38
337.053	421.38
337.281	409.38
337.51	416.38
337.738	385.38
337.966	398.38
338.194	406.38
338.422	394.38
338.65	396.38
338.878	404.38
339.106	378.38
339.334	412.38
339.562	380.38
339.79	402.38
340.018	409.38
340.246	388.38
340.474	392.38
340.702	378.38
340.93	376.38
341.158	370.38
341.386	392.38
341.614	391.38
341.842	374.38
342.07	380.38
342.298	375.38
342.526	364.38
342.754	361.38
342.981	372.38
343.209	388.38
343.437	401.38
343.665	404.38
343.893	394.38
344.12	420.38
344.348	420.38
344.576	414.38
344.804	393.38
345.031	382.38
345.259	400.38
345.487	398.38
345.714	372.38
345.942	388.38
346.17	356.38
346.397	360.38
346.625	375.38
346.853	363.38
347.08	371.38
347.308	363.38
347.535	353.38
347.763	349.38
347.99	360.38
348.218	366.38
348.445	368.38
348.673	377.38
348.9	333.38
349.128	346.38
349.355	350.38
349.583	364.38
349.81	351.38
350.037	348.38
350.265	365.38
350.492	346.38
350.72	361.38
350.947	348.38
351.174	354.38
351.402	372.38
351.629	353.38
351.856	359.38
352.083	373.38
352.311	376.38
352.538	337.38
352.765	355.38
352.992	372.38
353.22	356.38
353.447	345.38
353.674	358.38
353.901	356.38
354.128	344.38
354.355	368.38
354.583	340.38
354.81	353.38
355.037	344.38
355.264	340.38
355.491	354.38
355.718	337.38
355.945	364.38
356.172	348.38
356.399	344.38
356.626	350.38
356.853	362.38
357.08	326.38
357.307	352.38
357.534	343.38
357.761	332.38
357.988	354.38
358.215	346.38
358.441	343.38
358.668	337.38
358.895	333.38
359.122	334.38
359.349	346.38
359.576	340.38
359.802	378.38
360.029	394.38
360.256	391.38
360.483	387.38
360.709	351.38
360.936	364.38
361.163	361.38
361.39	368.38
361.616	370.38
361.843	360.38
362.07	340.38
362.296	374.38
362.523	344.38
362.749	361.38
362.976	348.38
363.203	352.38
363.429	341.38
363.656	362.38
363.882	354.38
364.109	337.38
364.335	335.38
364.562	334.38
364.788	320.38
365.015	347.38
365.241	338.38
365.468	323.38
365.694	333.38
365.92	345.38
366.147	344.38
366.373	347.38
366.599	329.38
366.826	347.38
367.052	335.38
367.278	349.38
367.505	351.38
367.731	360.38
367.957	330.38
368.184	363.38
368.41	363.38
368.636	349.38
368.862	361.38
369.089	352.38
369.315	355.38
369.541	337.38
369.767	337.38
369.993	332.38
370.219	352.38
370.445	352.38
370.672	340.38
370.898	340.38
371.124	359.38
371.35	360.38
371.576	342.38
371.802	360.38
372.028	359.38
372.254	366.38
372.48	371.38
372.706	368.38
372.932	360.38
373.158	349.38
373.384	359.38
373.61	364.38
373.835	349.38
374.061	349.38
374.287	360.38
374.513	371.38
374.739	381.38
374.965	356.38
375.191	368.38
375.416	392.38
375.642	381.38
375.868	372.38
376.094	352.38
376.319	354.38
376.545	360.38
376.771	364.38
376.997	348.38
377.222	362.38
377.448	349.38
377.674	357.38
377.899	353.38
378.125	349.38
378.35	336.38
378.576	349.38
378.802	344.38
379.027	338.38
379.253	353.38
379.478	344.38
379.704	356.38
379.929	334.38
380.155	351.38
380.38	352.38
380.606	344.38
380.831	353.38
381.057	353.38
381.282	352.38
381.507	350.38
381.733	337.38
381.958	339.38
382.184	349.38
382.409	358.38
382.634	374.38
382.86	370.38
383.085	372.38
383.31	343.38
383.535	356.38
383.761	389.38
383.986	358.38
384.211	386.38
384.436	392.38
384.662	390.38
384.887	396.38
385.112	377.38
385.337	400.38
385.562	384.38
385.787	386.38
386.013	397.38
386.238	398.38
386.463	401.38
386.688	377.38
386.913	396.38
387.138	389.38
387.363	391.38
387.588	393.38
387.813	389.38
388.038	393.38
388.263	407.38
388.488	381.38
388.713	388.38
388.938	377.38
389.163	403.38
389.387	401.38
389.612	390.38
389.837	390.38
390.062	379.38
390.287	384.38
390.512	383.38
390.736	393.38
390.961	393.38
391.186	395.38
391.411	414.38
391.636	408.38
391.86	420.38
392.085	442.38
392.31	435.38
392.534	422.38
392.759	422.38
392.984	405.38
393.208	403.38
393.433	413.38
393.658	404.38
393.882	395.38
394.107	399.38
394.331	396.38
394.556	393.38
394.78	412.38
395.005	396.38
395.229	405.38
395.454	410.38
395.678	428.38
395.903	421.38
396.127	443.38
396.352	422.38
396.576	420.38
396.801	416.38
397.025	430.38
397.249	398.38
397.474	414.38
397.698	424.38
397.922	435.38
398.147	458.38
398.371	427.38
398.595	446.38
398.82	462.38
399.044	476.38
399.268	508.38
399.492	566.38
399.717	626.38
399.941	619.38
400.165	604.38
400.389	568.38
400.613	544.38
400.837	498.38
401.062	491.38
401.286	472.38
401.51	469.38
401.734	478.38
401.958	480.38
402.182	473.38
402.406	475.38
402.63	498.38
402.854	476.38
403.078	514.38
403.302	476.38
403.526	515.38
403.75	528.38
403.974	502.38
404.198	516.38
404.422	532.38
404.645	504.38
404.869	509.38
405.093	557.38
405.317	566.38
405.541	594.38
405.765	547.38
405.988	541.38
406.212	507.38
406.436	506.38
406.66	556.38
406.883	524.38
407.107	537.38
407.331	583.38
407.555	609.38
407.778	612.38
408.002	582.38
408.226	533.38
408.449	532.38
408.673	538.38
408.896	538.38
409.12	554.38
409.344	530.38
409.567	516.38
409.791	494.38
410.014	508.38
410.238	500.38
410.461	521.38
410.685	482.38
410.908	493.38
411.132	500.38
411.355	506.38
411.578	510.38
411.802	495.38
412.025	497.38
412.249	497.38
412.472	512.38
412.695	556.38
412.919	534.38
413.142	486.38
413.365	485.38
413.589	501.38
413.812	472.38
414.035	474.38
414.258	449.38
414.482	454.38
414.705	463.38
414.928	451.38
415.151	454.38
415.374	459.38
415.597	450.38
415.821	453.38
416.044	442.38
416.267	457.38
416.49	468.38
416.713	452.38
416.936	459.38
417.159	475.38
417.382	461.38
417.605	464.38
417.828	480.38
418.051	474.38
418.274	477.38
418.497	452.38
418.72	482.38
418.943	462.38
419.166	486.38
419.389	502.38
419.611	488.38
419.834	496.38
420.057	486.38
420.28	506.38
420.503	482.38
420.726	478.38
420.948	504.38
421.171	484.38
421.394	502.38
421.617	456.38
421.839	478.38
422.062	471.38
422.285	474.38
422.507	494.38
422.73	554.38
422.953	516.38
423.175	499.38
423.398	503.38
423.621	476.38
423.843	502.38
424.066	471.38
424.288	502.38
424.511	492.38
424.733	532.38
424.956	572.38
425.178	558.38
425.401	573.38
425.623	552.38
425.846	489.38
426.068	461.38
426.291	470.38
426.513	470.38
426.735	436.38
426.958	508.38
427.18	539.38
427.402	613.38
427.625	678.38
427.847	577.38
428.069	543.38
428.292	502.38
428.514	452.38
428.736	464.38
428.958	444.38
429.181	443.38
429.403	426.38
429.625	432.38
429.847	446.38
430.069	483.38
430.292	479.38
430.514	429.38
430.736	459.38
430.958	422.38
431.18	430.38
431.402	419.38
431.624	395.38
431.846	397.38
432.068	428.38
432.29	443.38
432.512	429.38
432.734	429.38
432.956	409.38
433.178	424.38
433.4	428.38
433.622	438.38
433.844	409.38
434.066	417.38
434.287	441.38
434.509	433.38
434.731	434.38
434.953	470.38
435.175	468.38
435.397	480.38
435.618	458.38
435.84	481.38
436.062	530.38
436.284	567.38
436.505	491.38
436.727	462.38
436.949	436.38
437.17	408.38
437.392	448.38
437.614	427.38
437.835	438.38
438.057	503.38
438.278	526.38
438.5	570.38
438.721	614.38
438.943	569.38
439.165	472.38
439.386	447.38
439.608	461.38
439.829	460.38
440.05	476.38
440.272	493.38
440.493	480.38
440.715	453.38
440.936	420.38
441.158	445.38
441.379	444.38
441.6	478.38
441.822	456.38
442.043	489.38
442.264	515.38
442.486	564.38
442.707	492.38
442.928	496.38
443.149	504.38
443.371	504.38
443.592	522.38
443.813	569.38
444.034	607.38
444.255	518.38
444.476	494.38
444.698	537.38
444.919	528.38
445.14	620.38
445.361	557.38
445.582	510.38
445.803	521.38
446.024	552.38
446.245	581.38
446.466	526.38
446.687	470.38
446.908	456.38
447.129	421.38
447.35	420.38
447.571	408.38
447.792	416.38
448.013	420.38
448.234	411.38
448.455	469.38
448.675	510.38
448.896	571.38
449.117	506.38
449.338	490.38
449.559	561.38
449.779	580.38
450	490.38
450.221	420.38
450.442	411.38
450.662	421.38
450.883	410.38
451.104	412.38
451.324	416.38
451.545	414.38
451.766	378.38
451.986	401.38
452.207	368.38
452.428	380.38
452.648	382.38
452.869	376.38
453.089	372.38
453.31	421.38
453.53	397.38
453.751	376.38
453.971	372.38
454.192	387.38
454.412	372.38
454.633	379.38
454.853	387.38
455.073	372.38
455.294	386.38
455.514	426.38
455.734	407.38
455.955	382.38
456.175	360.38
456.395	366.38
456.616	368.38
456.836	363.38
457.056	356.38
457.276	360.38
457.497	360.38
457.717	368.38
457.937	365.38
458.157	359.38
458.377	371.38
458.598	393.38
458.818	399.38
459.038	478.38
459.258	476.38
459.478	424.38
459.698	419.38
459.918	429.38
460.138	441.38
460.358	438.38
460.578	441.38
460.798	460.38
461.018	460.38
461.238	454.38
461.458	449.38
461.678	459.38
461.898	444.38
462.118	458.38
462.338	483.38
462.558	481.38
462.777	501.38
462.997	520.38
463.217	540.38
463.437	551.38
463.657	525.38
463.876	492.38
464.096	487.38
464.316	503.38
464.536	500.38
464.755	516.38
464.975	472.38
465.195	512.38
465.414	521.38
465.634	457.38
465.854	453.38
466.073	437.38
466.293	420.38
466.512	410.38
466.732	393.38
466.951	384.38
467.171	390.38
467.391	422.38
467.61	393.38
467.829	405.38
468.049	408.38
468.268	408.38
468.488	411.38
468.707	398.38
468.927	398.38
469.146	385.38
469.365	383.38
469.585	395.38
469.804	413.38
470.023	441.38
470.243	398.38
470.462	403.38
470.681	418.38
470.901	433.38
471.12	426.38
471.339	416.38
471.558	397.38
471.777	408.38
471.997	410.38
472.216	409.38
472.435	454.38
472.654	437.38
472.873	439.38
473.092	397.38
473.311	387.38
473.53	394.38
473.749	383.38
473.968	436.38
474.187	496.38
474.406	491.38
474.625	402.38
474.844	402.38
475.063	396.38
475.282	405.38
475.501	379.38
475.72	388.38
475.939	401.38
476.158	428.38
476.377	413.38
476.596	416.38
476.814	429.38
477.033	392.38
477.252	412.38
477.471	423.38
477.69	428.38
477.908	435.38
478.127	461.38
478.346	442.38
478.564	451.38
478.783	448.38
479.002	470.38
479.22	473.38
479.439	477.38
479.658	472.38
479.876	488.38
480.095	488.38
480.313	510.38
480.532	515.38
480.751	514.38
480.969	501.38
481.188	585.38
481.406	619.38
481.624	559.38
481.843	514.38
482.061	491.38
482.28	468.38
482.498	467.38
482.717	460.38
482.935	448.38
483.153	433.38
483.372	439.38
483.59	456.38
483.808	458.38
484.027	449.38
484.245	440.38
484.463	456.38
484.681	448.38
484.9	444.38
485.118	463.38
485.336	455.38
485.554	480.38
485.772	489.38
485.99	487.38
486.209	489.38
486.427	473.38
486.645	466.38
486.863	489.38
487.081	481.38
487.299	474.38
487.517	485.38
487.735	461.38
487.953	461.38
488.171	485.38
488.389	487.38
488.607	486.38
488.825	478.38
489.043	482.38
489.261	465.38
489.479	509.38
489.696	498.38
489.914	515.38
490.132	490.38
490.35	493.38
490.568	509.38
490.786	507.38
491.003	512.38
491.221	531.38
491.439	523.38
491.657	526.38
491.874	548.38
492.092	533.38
492.31	549.38
492.527	553.38
492.745	543.38
492.963	589.38
493.18	554.38
493.398	565.38
493.615	546.38
493.833	576.38
494.05	588.38
494.268	551.38
494.485	556.38
494.703	558.38
494.92	550.38
495.138	524.38
495.355	557.38
495.573	558.38
495.79	548.38
496.008	540.38
496.225	553.38
496.442	544.38
496.66	568.38
496.877	549.38
497.094	556.38
497.312	568.38
497.529	564.38
497.746	577.38
497.963	568.38
498.181	617.38
498.398	616.38
498.615	663.38
498.832	698.38
499.049	715.38
499.267	731.38
499.484	807.38
499.701	838.38
499.918	886.38
500.135	940.38
500.352	1061.38
500.569	1095.38
500.786	1103.38
501.003	1044.38
501.22	990.38
501.437	908.38
501.654	837.38
501.871	802.38
502.088	756.38
502.305	724.38
502.522	692.38
502.739	646.38
502.956	644.38
503.172	641.38
503.389	596.38
503.606	619.38
503.823	603.38
504.04	580.38
504.256	589.38
504.473	593.38
504.69	596.38
504.907	585.38
505.123	551.38
505.34	546.38
505.557	533.38
505.773	509.38
505.99	492.38
506.207	512.38
506.423	506.38
506.64	505.38
506.856	505.38
507.073	488.38
507.289	484.38
507.506	491.38
507.722	493.38
507.939	504.38
508.155	493.38
508.372	465.38
508.588	473.38
508.805	467.38
509.021	472.38
509.238	475.38
509.454	475.38
509.67	479.38
509.887	470.38
510.103	483.38
510.319	459.38
510.536	549.38
510.752	789.38
510.968	658.38
511.184	483.38
511.401	463.38
511.617	477.38
511.833	485.38
512.049	498.38
512.265	482.38
512.481	499.38
512.698	468.38
512.914	471.38
513.13	450.38
513.346	443.38
513.562	450.38
513.778	451.38
513.994	462.38
514.21	459.38
514.426	469.38
514.642	485.38
514.858	496.38
515.074	538.38
515.29	586.38
515.506	781.38
515.721	670.38
515.937	532.38
516.153	506.38
516.369	479.38
516.585	491.38
516.801	485.38
517.016	488.38
517.232	487.38
517.448	557.38
517.664	549.38
517.879	539.38
518.095	544.38
518.311	510.38
518.527	522.38
518.742	500.38
518.958	505.38
519.173	501.38
519.389	496.38
519.605	477.38
519.82	468.38
520.036	468.38
520.251	487.38
520.467	461.38
520.682	467.38
520.898	474.38
521.113	467.38
521.329	495.38
521.544	540.38
521.76	620.38
521.975	912.38
522.19	909.38
522.406	574.38
522.621	474.38
522.836	449.38
523.052	424.38
523.267	428.38
523.482	437.38
523.698	424.38
523.913	401.38
524.128	421.38
524.343	418.38
524.559	406.38
524.774	411.38
524.989	414.38
525.204	412.38
525.419	416.38
525.634	406.38
525.849	409.38
526.064	396.38
526.28	395.38
526.495	404.38
526.71	407.38
526.925	390.38
527.14	386.38
527.355	383.38
527.57	397.38
527.785	405.38
527.999	372.38
528.214	398.38
528.429	403.38
528.644	391.38
528.859	396.38
529.074	384.38
529.289	392.38
529.503	441.38
529.718	423.38
529.933	395.38
530.148	408.38
530.363	382.38
530.577	377.38
530.792	379.38
531.007	390.38
531.221	382.38
531.436	392.38
531.651	394.38
531.865	376.38
532.08	395.38
532.295	395.38
532.509	370.38
532.724	391.38
532.938	396.38
533.153	392.38
533.367	388.38
533.582	372.38
533.796	378.38
534.011	386.38
534.225	386.38
534.44	380.38
534.654	390.38
534.868	402.38
535.083	397.38
535.297	387.38
535.511	374.38
535.726	388.38
535.94	369.38
536.154	383.38
536.369	384.38
536.583	354.38
536.797	355.38
537.011	352.38
537.225	385.38
537.44	368.38
537.654	345.38
537.868	359.38
538.082	362.38
538.296	347.38
538.51	348.38
538.724	360.38
538.938	361.38
539.153	371.38
539.367	384.38
539.581	360.38
539.795	370.38
540.009	360.38
540.222	356.38
540.436	365.38
540.65	368.38
540.864	365.38
541.078	381.38
541.292	378.38
541.506	355.38
541.72	353.38
541.934	370.38
542.147	358.38
542.361	369.38
542.575	348.38
542.789	357.38
543.002	342.38
543.216	358.38
543.43	358.38
543.644	351.38
543.857	376.38
544.071	355.38
544.285	335.38
544.498	355.38
544.712	342.38
544.925	374.38
545.139	342.38
545.352	348.38
545.566	363.38
545.779	364.38
545.993	345.38
546.206	363.38
546.42	362.38
546.633	352.38
546.847	375.38
547.06	360.38
547.274	356.38
547.487	360.38
547.7	357.38
547.914	346.38
548.127	361.38
548.34	365.38
548.554	353.38
548.767	365.38
548.98	343.38
549.193	354.38
549.407	341.38
549.62	351.38
549.833	367.38
550.046	375.38
550.259	359.38
550.473	343.38
550.686	355.38
550.899	346.38
551.112	341.38
551.325	332.38
551.538	370.38
551.751	340.38
551.964	355.38
552.177	349.38
552.39	351.38
552.603	377.38
552.816	386.38
553.029	380.38
553.242	389.38
553.455	384.38
553.667	393.38
553.88	393.38
554.093	388.38
554.306	373.38
554.519	356.38
554.732	357.38
554.944	370.38
555.157	348.38
555.37	335.38
555.583	338.38
555.795	347.38
556.008	311.38
556.221	334.38
556.433	315.38
556.646	330.38
556.859	333.38
557.071	310.38
557.284	313.38
557.496	309.38
557.709	324.38
557.921	336.38
558.134	316.38
558.346	316.38
558.559	298.38
558.771	316.38
558.984	328.38
559.196	300.38
559.409	293.38
559.621	332.38
559.833	301.38
560.046	314.38
560.258	315.38
560.47	312.38
560.683	292.38
560.895	314.38
561.107	314.38
561.32	291.38
561.532	311.38
561.744	314.38
561.956	305.38
562.168	311.38
562.381	333.38
562.593	334.38
562.805	307.38
563.017	308.38
563.229	323.38
563.441	316.38
563.653	334.38
563.865	308.38
564.077	319.38
564.289	322.38
564.501	348.38
564.713	333.38
564.925	329.38
565.137	335.38
565.349	350.38
565.561	341.38
565.773	378.38
565.985	370.38
566.197	400.38
566.408	415.38
566.62	429.38
566.832	435.38
567.044	447.38
567.255	452.38
567.467	473.38
567.679	464.38
567.891	499.38
568.102	517.38
568.314	510.38
568.526	439.38
568.737	436.38
568.949	401.38
569.161	352.38
569.372	364.38
569.584	345.38
569.795	337.38
570.007	334.38
570.218	362.38
570.43	346.38
570.641	337.38
570.853	313.38
571.064	319.38
571.276	325.38
571.487	322.38
571.698	310.38
571.91	289.38
572.121	316.38
572.333	291.38
572.544	306.38
572.755	297.38
572.966	290.38
573.178	273.38
573.389	270.38
573.6	268.38
573.811	280.38
574.023	282.38
574.234	273.38
574.445	294.38
574.656	270.38
574.867	288.38
575.078	272.38
575.289	289.38
575.501	281.38
575.712	287.38
575.923	292.38
576.134	267.38
576.345	271.38
576.556	276.38
576.767	261.38
576.978	284.38
577.188	273.38
577.399	272.38
577.61	251.38
577.821	269.38
578.032	268.38
578.243	310.38
578.454	416.38
578.665	310.38
578.875	276.38
579.086	269.38
579.297	282.38
579.508	276.38
579.718	256.38
579.929	237.38
580.14	245.38
580.35	240.38
580.561	269.38
580.772	236.38
580.982	257.38
581.193	250.38
581.403	252.38
581.614	260.38
581.825	249.38
582.035	234.38
582.246	260.38
582.456	232.38
582.667	256.38
582.877	251.38
583.087	274.38
583.298	252.38
583.508	247.38
583.719	256.38
583.929	254.38
584.139	265.38
584.35	237.38
584.56	246.38
584.77	253.38
584.981	254.38
585.191	224.38
585.401	237.38
585.611	251.38
585.821	243.38
586.032	242.38
586.242	237.38
586.452	236.38
586.662	244.38
586.872	252.38
587.082	259.38
587.292	231.38
587.502	245.38
587.713	252.38
587.923	248.38
588.133	238.38
588.343	222.38
588.553	235.38
588.762	249.38
588.972	251.38
589.182	231.38
589.392	245.38
589.602	244.38
589.812	243.38
590.022	256.38
590.232	247.38
590.441	259.38
590.651	224.38
590.861	237.38
591.071	243.38
591.281	258.38
591.49	241.38
591.7	232.38
591.91	262.38
592.119	255.38
592.329	253.38
592.539	261.38
592.748	279.38
592.958	281.38
593.167	286.38
593.377	282.38
593.587	293.38
593.796	287.38
594.006	278.38
594.215	289.38
594.424	296.38
594.634	277.38
594.843	288.38
595.053	273.38
595.262	252.38
595.472	244.38
595.681	242.38
595.89	260.38
596.1	250.38
596.309	240.38
596.518	246.38
596.727	236.38
596.937	244.38
597.146	221.38
597.355	236.38
597.564	241.38
597.774	218.38
597.983	249.38
598.192	227.38
598.401	216.38
598.61	233.38
598.819	205.38
599.028	207.38
599.237	227.38
599.446	221.38
599.655	230.38
599.864	236.38
600.073	206.38
600.282	225.38
600.491	233.38
600.7	218.38
600.909	205.38
601.118	206.38
601.327	213.38
601.536	232.38
601.745	208.38
601.953	210.38
602.162	228.38
602.371	213.38
602.58	209.38
602.789	197.38
602.997	214.38
603.206	202.38
603.415	228.38
603.623	211.38
603.832	197.38
604.041	201.38
604.249	196.38
604.458	205.38
604.666	207.38
604.875	201.38
605.084	190.38
605.292	218.38
605.501	201.38
605.709	214.38
605.918	210.38
606.126	200.38
606.334	197.38
606.543	199.38
606.751	205.38
606.96	204.38
607.168	192.38
607.376	201.38
607.585	229.38
607.793	200.38
608.001	198.38
608.21	203.38
608.418	206.38
608.626	200.38
608.834	204.38
609.043	194.38
609.251	197.38
609.459	186.38
609.667	204.38
609.875	217.38
610.083	208.38
610.291	201.38
610.499	205.38
610.707	223.38
610.916	197.38
611.124	216.38
611.332	204.38
611.54	207.38
611.748	203.38
611.955	206.38
612.163	213.38
612.371	194.38
612.579	201.38
612.787	217.38
612.995	188.38
613.203	197.38
613.411	195.38
613.618	193.38
613.826	202.38
614.034	190.38
614.242	195.38
614.449	178.38
614.657	204.38
614.865	215.38
615.072	188.38
615.28	197.38
615.488	206.38
615.695	190.38
615.903	188.38
616.111	204.38
616.318	197.38
616.526	187.38
616.733	198.38
616.941	197.38
617.148	188.38
617.356	184.38
617.563	196.38
617.771	191.38
617.978	207.38
618.185	182.38
618.393	205.38
618.6	200.38
618.807	190.38
619.015	180.38
619.222	196.38
619.429	201.38
619.637	198.38
619.844	185.38
620.051	194.38
620.258	200.38
620.466	199.38
620.673	197.38
620.88	171.38
621.087	174.38
621.294	173.38
621.501	192.38
621.708	182.38
621.915	184.38
622.122	186.38
622.329	181.38
622.536	194.38
622.743	167.38
622.95	184.38
623.157	179.38
623.364	173.38
623.571	184.38
623.778	178.38
623.985	187.38
624.192	192.38
624.399	192.38
624.606	183.38
624.812	171.38
625.019	190.38
625.226	175.38
625.433	186.38
625.639	180.38
625.846	181.38
626.053	177.38
626.259	172.38
626.466	189.38
626.673	180.38
626.879	181.38
627.086	177.38
627.293	171.38
627.499	178.38
627.706	173.38
627.912	169.38
628.119	167.38
628.325	171.38
628.532	185.38
628.738	164.38
628.945	164.38
629.151	166.38
629.357	177.38
629.564	162.38
629.77	167.38
629.976	168.38
630.183	158.38
630.389	173.38
630.595	176.38
630.802	146.38
631.008	154.38
631.214	164.38
631.42	165.38
631.627	181.38
631.833	163.38
632.039	162.38
632.245	163.38
632.451	172.38
632.657	156.38
632.863	158.38
633.069	165.38
633.275	165.38
633.481	167.38
633.688	160.38
633.893	162.38
634.099	162.38
634.305	166.38
634.511	158.38
634.717	163.38
634.923	159.38
635.129	158.38
635.335	165.38
635.541	157.38
635.747	154.38
635.952	162.38
636.158	160.38
636.364	165.38
636.57	177.38
636.775	179.38
636.981	160.38
637.187	158.38
637.392	143.38
637.598	154.38
637.804	171.38
638.009	157.38
638.215	145.38
638.421	140.38
638.626	176.38
638.832	150.38
639.037	136.38
639.243	150.38
639.448	157.38
639.654	151.38
639.859	143.38
640.065	151.38
640.27	161.38
640.475	152.38
640.681	138.38
640.886	172.38
641.091	153.38
641.297	149.38
641.502	145.38
641.707	154.38
641.913	145.38
642.118	153.38
642.323	138.38
642.528	161.38
642.733	151.38
642.939	137.38
643.144	140.38
643.349	160.38
643.554	154.38
643.759	128.38
643.964	157.38
644.169	137.38
644.374	163.38
644.579	154.38
644.784	147.38
644.989	141.38
645.194	139.38
645.399	147.38
645.604	140.38
645.809	143.38
646.014	144.38
646.219	151.38
646.423	143.38
646.628	158.38
646.833	150.38
647.038	151.38
647.243	140.38
647.447	140.38
647.652	132.38
647.857	159.38
648.062	151.38
648.266	148.38
648.471	155.38
648.676	163.38
648.88	144.38
649.085	149.38
649.289	148.38
649.494	156.38
649.698	161.38
649.903	155.38
650.107	150.38
650.312	148.38
650.516	142.38
650.721	153.38
650.925	144.38
651.13	132.38
651.334	134.38
651.539	125.38
651.743	145.38
651.947	126.38
652.152	128.38
652.356	130.38
652.56	152.38
652.764	139.38
652.969	133.38
653.173	142.38
653.377	128.38
653.581	116.38
653.785	132.38
653.99	120.38
654.194	128.38
654.398	129.38
654.602	135.38
654.806	116.38
655.01	125.38
655.214	126.38
655.418	122.38
655.622	132.38
655.826	123.38
656.03	134.38
656.234	138.38
656.438	125.38
656.642	126.38
656.846	127.38
657.049	131.38
657.253	125.38
657.457	112.38
657.661	109.38
657.865	120.38
658.068	108.38
658.272	116.38
658.476	122.38
658.68	109.38
658.883	92.38
659.087	99.38
659.291	101.38
659.494	92.38
659.698	84.38
659.901	95.38
660.105	97.38
660.309	88.38
660.512	76.38
660.716	84.38
660.919	92.38
661.123	107.38
661.326	89.38
661.53	92.38
661.733	66.38
661.936	85.38
662.14	91.38
662.343	102.38
662.546	91.38
662.75	83.38
662.953	89.38
663.156	88.38
663.36	90.38
663.563	75.38
663.766	82.38
663.969	91.38
664.173	74.38
664.376	71.38
664.579	89.38
664.782	86.38
664.985	89.38
665.188	86.38
665.391	84.38
665.594	83.38
665.797	75.38
666	80.38
666.203	96.38
666.406	72.38
666.609	84.38
666.812	75.38
667.015	91.38
667.218	75.38
667.421	106.38
667.624	83.38
667.827	83.38
668.03	76.38
668.232	90.38
668.435	78.38
668.638	73.38
668.841	69.38
669.043	96.38
669.246	93.38
669.449	84.38
669.651	81.38
669.854	77.38
670.057	86.38
670.259	80.38
670.462	85.38
670.665	92.38
670.867	88.38
671.07	74.38
671.272	90.38
671.475	87.38
671.677	85.38
671.88	80.38
672.082	88.38
672.284	78.38
672.487	77.38
672.689	83.38
672.892	88.38
