Data from 1984.PennyLincolnUp.Lamp.En5.5.200Scan.071819.P1_HRD10591_16-58-00-967.txt Node
Date: Thu Jul 18 16:58:00 EDT 2019
User: cochatt
Spectrometer: HR+D1059
Trigger mode: 1
Integration Time (sec): 1.000000E-1
Scans to average: 1
Electric dark correction enabled: true
Nonlinearity correction enabled: false
Boxcar width: 0
XAxis mode: Wavelengths
Number of Pixels in Spectrum: 2048
>>>>>Begin Spectral Data<<<<<
223.165	-13.25
223.4	-13.25
223.635	-13.25
223.869	-14.25
224.104	-14.25
224.338	-2.25
224.573	-10.25
224.808	-13.25
225.042	-9.25
225.277	-17.25
225.511	-10.25
225.746	3.75
225.98	9.75
226.215	7.75
226.449	20.75
226.683	14.75
226.918	22.75
227.152	24.75
227.387	30.75
227.621	45.75
227.856	29.75
228.09	44.75
228.324	35.75
228.559	61.75
228.793	73.75
229.027	82.75
229.262	101.75
229.496	83.75
229.73	112.75
229.964	121.75
230.199	95.75
230.433	108.75
230.667	100.75
230.901	95.75
231.136	101.75
231.37	94.75
231.604	110.75
231.838	102.75
232.072	103.75
232.306	107.75
232.541	119.75
232.775	100.75
233.009	123.75
233.243	103.75
233.477	108.75
233.711	134.75
233.945	114.75
234.179	115.75
234.413	107.75
234.647	115.75
234.881	103.75
235.115	125.75
235.349	110.75
235.583	115.75
235.817	123.75
236.051	122.75
236.285	113.75
236.519	104.75
236.753	115.75
236.987	109.75
237.221	137.75
237.455	170.75
237.689	140.75
237.922	135.75
238.156	112.75
238.39	119.75
238.624	112.75
238.858	121.75
239.091	115.75
239.325	123.75
239.559	113.75
239.793	114.75
240.027	119.75
240.26	125.75
240.494	132.75
240.728	127.75
240.961	119.75
241.195	124.75
241.429	128.75
241.662	115.75
241.896	132.75
242.13	122.75
242.363	129.75
242.597	117.75
242.83	123.75
243.064	122.75
243.298	127.75
243.531	130.75
243.765	130.75
243.998	121.75
244.232	119.75
244.465	124.75
244.699	132.75
244.932	136.75
245.166	134.75
245.399	134.75
245.633	119.75
245.866	127.75
246.099	129.75
246.333	128.75
246.566	127.75
246.8	125.75
247.033	131.75
247.266	139.75
247.5	139.75
247.733	141.75
247.966	160.75
248.2	155.75
248.433	151.75
248.666	156.75
248.899	165.75
249.133	154.75
249.366	187.75
249.599	157.75
249.832	155.75
250.066	165.75
250.299	142.75
250.532	158.75
250.765	189.75
250.998	189.75
251.231	194.75
251.465	164.75
251.698	191.75
251.931	184.75
252.164	179.75
252.397	168.75
252.63	179.75
252.863	177.75
253.096	188.75
253.329	192.75
253.562	182.75
253.795	178.75
254.028	189.75
254.261	187.75
254.494	198.75
254.727	201.75
254.96	204.75
255.193	203.75
255.426	182.75
255.659	198.75
255.892	187.75
256.124	179.75
256.357	206.75
256.59	197.75
256.823	195.75
257.056	191.75
257.289	183.75
257.521	190.75
257.754	172.75
257.987	187.75
258.22	180.75
258.452	187.75
258.685	183.75
258.918	193.75
259.151	182.75
259.383	197.75
259.616	193.75
259.849	204.75
260.081	192.75
260.314	198.75
260.547	219.75
260.779	193.75
261.012	193.75
261.244	204.75
261.477	199.75
261.71	197.75
261.942	198.75
262.175	194.75
262.407	193.75
262.64	216.75
262.872	186.75
263.105	186.75
263.337	180.75
263.57	181.75
263.802	194.75
264.035	203.75
264.267	198.75
264.499	199.75
264.732	198.75
264.964	203.75
265.197	183.75
265.429	199.75
265.661	180.75
265.894	210.75
266.126	207.75
266.358	193.75
266.591	199.75
266.823	201.75
267.055	197.75
267.287	213.75
267.52	214.75
267.752	213.75
267.984	214.75
268.216	203.75
268.448	209.75
268.681	203.75
268.913	222.75
269.145	225.75
269.377	236.75
269.609	234.75
269.841	226.75
270.073	228.75
270.306	241.75
270.538	249.75
270.77	255.75
271.002	248.75
271.234	228.75
271.466	257.75
271.698	260.75
271.93	247.75
272.162	260.75
272.394	240.75
272.626	244.75
272.858	245.75
273.09	251.75
273.322	267.75
273.553	244.75
273.785	247.75
274.017	237.75
274.249	240.75
274.481	235.75
274.713	227.75
274.945	241.75
275.176	238.75
275.408	230.75
275.64	235.75
275.872	243.75
276.104	253.75
276.335	250.75
276.567	249.75
276.799	249.75
277.031	259.75
277.262	245.75
277.494	250.75
277.726	273.75
277.957	260.75
278.189	250.75
278.421	237.75
278.652	248.75
278.884	249.75
279.115	260.75
279.347	234.75
279.579	237.75
279.81	233.75
280.042	246.75
280.273	259.75
280.505	255.75
280.736	258.75
280.968	252.75
281.199	245.75
281.431	261.75
281.662	241.75
281.894	251.75
282.125	270.75
282.356	261.75
282.588	275.75
282.819	269.75
283.051	260.75
283.282	264.75
283.513	250.75
283.745	275.75
283.976	267.75
284.207	270.75
284.439	278.75
284.67	277.75
284.901	276.75
285.132	267.75
285.364	259.75
285.595	261.75
285.826	267.75
286.057	291.75
286.288	271.75
286.52	266.75
286.751	285.75
286.982	264.75
287.213	283.75
287.444	265.75
287.675	274.75
287.906	284.75
288.138	286.75
288.369	278.75
288.6	288.75
288.831	276.75
289.062	284.75
289.293	287.75
289.524	282.75
289.755	291.75
289.986	289.75
290.217	290.75
290.448	263.75
290.679	265.75
290.91	279.75
291.141	287.75
291.371	278.75
291.602	281.75
291.833	283.75
292.064	282.75
292.295	258.75
292.526	262.75
292.757	281.75
292.987	267.75
293.218	293.75
293.449	287.75
293.68	278.75
293.91	278.75
294.141	273.75
294.372	268.75
294.603	274.75
294.833	275.75
295.064	288.75
295.295	296.75
295.525	284.75
295.756	290.75
295.987	274.75
296.217	285.75
296.448	301.75
296.679	276.75
296.909	265.75
297.14	307.75
297.37	298.75
297.601	297.75
297.831	302.75
298.062	285.75
298.292	280.75
298.523	310.75
298.753	304.75
298.984	316.75
299.214	310.75
299.445	295.75
299.675	307.75
299.905	295.75
300.136	300.75
300.366	277.75
300.597	314.75
300.827	291.75
301.057	295.75
301.288	326.75
301.518	295.75
301.748	325.75
301.979	335.75
302.209	323.75
302.439	322.75
302.669	318.75
302.9	309.75
303.13	300.75
303.36	299.75
303.59	309.75
303.82	311.75
304.051	327.75
304.281	307.75
304.511	305.75
304.741	329.75
304.971	323.75
305.201	326.75
305.431	312.75
305.661	325.75
305.891	291.75
306.121	325.75
306.352	316.75
306.582	311.75
306.812	286.75
307.042	334.75
307.272	305.75
307.502	307.75
307.731	321.75
307.961	325.75
308.191	322.75
308.421	323.75
308.651	297.75
308.881	318.75
309.111	323.75
309.341	327.75
309.571	328.75
309.8	315.75
310.03	332.75
310.26	337.75
310.49	330.75
310.72	321.75
310.949	350.75
311.179	358.75
311.409	357.75
311.639	348.75
311.868	365.75
312.098	327.75
312.328	321.75
312.557	341.75
312.787	362.75
313.017	350.75
313.246	357.75
313.476	349.75
313.706	340.75
313.935	352.75
314.165	359.75
314.394	364.75
314.624	351.75
314.853	333.75
315.083	337.75
315.312	350.75
315.542	350.75
315.771	343.75
316.001	326.75
316.23	337.75
316.46	343.75
316.689	355.75
316.919	329.75
317.148	346.75
317.377	353.75
317.607	353.75
317.836	326.75
318.065	343.75
318.295	345.75
318.524	350.75
318.753	317.75
318.983	338.75
319.212	342.75
319.441	332.75
319.67	354.75
319.9	360.75
320.129	339.75
320.358	349.75
320.587	357.75
320.816	344.75
321.046	333.75
321.275	358.75
321.504	339.75
321.733	345.75
321.962	343.75
322.191	366.75
322.42	358.75
322.649	379.75
322.878	391.75
323.108	396.75
323.337	407.75
323.566	402.75
323.795	410.75
324.024	443.75
324.253	534.75
324.482	681.75
324.71	947.75
324.939	1308.75
325.168	1118.75
325.397	669.75
325.626	493.75
325.855	441.75
326.084	427.75
326.313	421.75
326.542	418.75
326.77	445.75
326.999	501.75
327.228	640.75
327.457	854.75
327.686	1057.75
327.914	708.75
328.143	545.75
328.372	482.75
328.6	455.75
328.829	443.75
329.058	460.75
329.287	455.75
329.515	423.75
329.744	434.75
329.972	408.75
330.201	463.75
330.43	472.75
330.658	460.75
330.887	482.75
331.115	444.75
331.344	441.75
331.572	417.75
331.801	415.75
332.03	418.75
332.258	429.75
332.486	419.75
332.715	427.75
332.943	438.75
333.172	422.75
333.4	451.75
333.629	459.75
333.857	459.75
334.085	471.75
334.314	458.75
334.542	486.75
334.771	487.75
334.999	457.75
335.227	453.75
335.455	442.75
335.684	437.75
335.912	421.75
336.14	420.75
336.369	421.75
336.597	424.75
336.825	420.75
337.053	420.75
337.281	396.75
337.51	381.75
337.738	398.75
337.966	414.75
338.194	404.75
338.422	393.75
338.65	417.75
338.878	391.75
339.106	390.75
339.334	393.75
339.562	383.75
339.79	381.75
340.018	373.75
340.246	375.75
340.474	390.75
340.702	396.75
340.93	375.75
341.158	382.75
341.386	387.75
341.614	379.75
341.842	387.75
342.07	392.75
342.298	369.75
342.526	387.75
342.754	388.75
342.981	383.75
343.209	391.75
343.437	386.75
343.665	391.75
343.893	431.75
344.12	421.75
344.348	405.75
344.576	413.75
344.804	403.75
345.031	406.75
345.259	404.75
345.487	399.75
345.714	398.75
345.942	377.75
346.17	375.75
346.397	373.75
346.625	361.75
346.853	387.75
347.08	350.75
347.308	381.75
347.535	372.75
347.763	384.75
347.99	370.75
348.218	364.75
348.445	387.75
348.673	373.75
348.9	360.75
349.128	375.75
349.355	367.75
349.583	361.75
349.81	377.75
350.037	357.75
350.265	339.75
350.492	369.75
350.72	384.75
350.947	354.75
351.174	368.75
351.402	355.75
351.629	355.75
351.856	349.75
352.083	357.75
352.311	372.75
352.538	373.75
352.765	363.75
352.992	357.75
353.22	353.75
353.447	344.75
353.674	332.75
353.901	361.75
354.128	371.75
354.355	346.75
354.583	335.75
354.81	349.75
355.037	383.75
355.264	346.75
355.491	343.75
355.718	356.75
355.945	349.75
356.172	348.75
356.399	341.75
356.626	324.75
356.853	338.75
357.08	348.75
357.307	343.75
357.534	349.75
357.761	349.75
357.988	335.75
358.215	349.75
358.441	326.75
358.668	343.75
358.895	354.75
359.122	337.75
359.349	350.75
359.576	353.75
359.802	361.75
360.029	375.75
360.256	381.75
360.483	372.75
360.709	365.75
360.936	367.75
361.163	355.75
361.39	353.75
361.616	355.75
361.843	354.75
362.07	362.75
362.296	336.75
362.523	346.75
362.749	337.75
362.976	346.75
363.203	354.75
363.429	343.75
363.656	352.75
363.882	335.75
364.109	355.75
364.335	351.75
364.562	361.75
364.788	351.75
365.015	350.75
365.241	338.75
365.468	341.75
365.694	364.75
365.92	346.75
366.147	349.75
366.373	337.75
366.599	347.75
366.826	342.75
367.052	339.75
367.278	352.75
367.505	353.75
367.731	341.75
367.957	344.75
368.184	335.75
368.41	371.75
368.636	381.75
368.862	350.75
369.089	348.75
369.315	341.75
369.541	347.75
369.767	347.75
369.993	337.75
370.219	354.75
370.445	341.75
370.672	341.75
370.898	339.75
371.124	348.75
371.35	351.75
371.576	342.75
371.802	363.75
372.028	346.75
372.254	358.75
372.48	343.75
372.706	345.75
372.932	346.75
373.158	375.75
373.384	381.75
373.61	353.75
373.835	350.75
374.061	354.75
374.287	348.75
374.513	371.75
374.739	355.75
374.965	374.75
375.191	370.75
375.416	374.75
375.642	380.75
375.868	356.75
376.094	365.75
376.319	354.75
376.545	372.75
376.771	352.75
376.997	341.75
377.222	370.75
377.448	339.75
377.674	343.75
377.899	360.75
378.125	352.75
378.35	354.75
378.576	335.75
378.802	323.75
379.027	334.75
379.253	352.75
379.478	337.75
379.704	341.75
379.929	336.75
380.155	345.75
380.38	360.75
380.606	357.75
380.831	326.75
381.057	376.75
381.282	348.75
381.507	337.75
381.733	345.75
381.958	359.75
382.184	379.75
382.409	373.75
382.634	373.75
382.86	374.75
383.085	362.75
383.31	369.75
383.535	357.75
383.761	356.75
383.986	373.75
384.211	387.75
384.436	405.75
384.662	409.75
384.887	385.75
385.112	385.75
385.337	393.75
385.562	396.75
385.787	411.75
386.013	418.75
386.238	403.75
386.463	407.75
386.688	413.75
386.913	390.75
387.138	399.75
387.363	405.75
387.588	408.75
387.813	417.75
388.038	405.75
388.263	395.75
388.488	393.75
388.713	386.75
388.938	409.75
389.163	390.75
389.387	409.75
389.612	387.75
389.837	410.75
390.062	400.75
390.287	406.75
390.512	389.75
390.736	386.75
390.961	378.75
391.186	407.75
391.411	407.75
391.636	407.75
391.86	425.75
392.085	421.75
392.31	442.75
392.534	403.75
392.759	425.75
392.984	420.75
393.208	389.75
393.433	419.75
393.658	424.75
393.882	395.75
394.107	414.75
394.331	413.75
394.556	412.75
394.78	428.75
395.005	417.75
395.229	416.75
395.454	410.75
395.678	430.75
395.903	430.75
396.127	456.75
396.352	438.75
396.576	428.75
396.801	412.75
397.025	410.75
397.249	397.75
397.474	449.75
397.698	430.75
397.922	419.75
398.147	439.75
398.371	465.75
398.595	483.75
398.82	474.75
399.044	494.75
399.268	535.75
399.492	565.75
399.717	610.75
399.941	626.75
400.165	581.75
400.389	584.75
400.613	540.75
400.837	510.75
401.062	502.75
401.286	461.75
401.51	458.75
401.734	467.75
401.958	478.75
402.182	473.75
402.406	481.75
402.63	501.75
402.854	497.75
403.078	506.75
403.302	491.75
403.526	519.75
403.75	504.75
403.974	490.75
404.198	514.75
404.422	537.75
404.645	535.75
404.869	485.75
405.093	529.75
405.317	536.75
405.541	542.75
405.765	541.75
405.988	505.75
406.212	518.75
406.436	546.75
406.66	537.75
406.883	551.75
407.107	550.75
407.331	591.75
407.555	623.75
407.778	635.75
408.002	574.75
408.226	557.75
408.449	537.75
408.673	542.75
408.896	534.75
409.12	563.75
409.344	571.75
409.567	512.75
409.791	507.75
410.014	520.75
410.238	502.75
410.461	485.75
410.685	501.75
410.908	484.75
411.132	493.75
411.355	536.75
411.578	521.75
411.802	494.75
412.025	470.75
412.249	485.75
412.472	521.75
412.695	542.75
412.919	502.75
413.142	491.75
413.365	474.75
413.589	479.75
413.812	460.75
414.035	462.75
414.258	462.75
414.482	466.75
414.705	457.75
414.928	464.75
415.151	468.75
415.374	458.75
415.597	461.75
415.821	449.75
416.044	446.75
416.267	447.75
416.49	474.75
416.713	452.75
416.936	468.75
417.159	453.75
417.382	454.75
417.605	464.75
417.828	477.75
418.051	455.75
418.274	456.75
418.497	435.75
418.72	458.75
418.943	460.75
419.166	476.75
419.389	528.75
419.611	502.75
419.834	482.75
420.057	502.75
420.28	472.75
420.503	478.75
420.726	460.75
420.948	468.75
421.171	488.75
421.394	532.75
421.617	464.75
421.839	451.75
422.062	485.75
422.285	483.75
422.507	500.75
422.73	550.75
422.953	535.75
423.175	492.75
423.398	493.75
423.621	495.75
423.843	512.75
424.066	513.75
424.288	508.75
424.511	493.75
424.733	535.75
424.956	570.75
425.178	546.75
425.401	562.75
425.623	572.75
425.846	511.75
426.068	495.75
426.291	453.75
426.513	467.75
426.735	462.75
426.958	499.75
427.18	555.75
427.402	618.75
427.625	657.75
427.847	586.75
428.069	535.75
428.292	484.75
428.514	477.75
428.736	454.75
428.958	442.75
429.181	437.75
429.403	437.75
429.625	455.75
429.847	442.75
430.069	485.75
430.292	458.75
430.514	439.75
430.736	436.75
430.958	434.75
431.18	425.75
431.402	419.75
431.624	428.75
431.846	445.75
432.068	426.75
432.29	425.75
432.512	436.75
432.734	445.75
432.956	427.75
433.178	425.75
433.4	451.75
433.622	430.75
433.844	443.75
434.066	420.75
434.287	445.75
434.509	429.75
434.731	448.75
434.953	458.75
435.175	484.75
435.397	459.75
435.618	502.75
435.84	477.75
436.062	509.75
436.284	551.75
436.505	499.75
436.727	452.75
436.949	460.75
437.17	429.75
437.392	438.75
437.614	425.75
437.835	456.75
438.057	515.75
438.278	567.75
438.5	550.75
438.721	607.75
438.943	590.75
439.165	494.75
439.386	467.75
439.608	463.75
439.829	441.75
440.05	494.75
440.272	491.75
440.493	481.75
440.715	465.75
440.936	442.75
441.158	458.75
441.379	468.75
441.6	467.75
441.822	468.75
442.043	483.75
442.264	556.75
442.486	566.75
442.707	495.75
442.928	476.75
443.149	480.75
443.371	491.75
443.592	508.75
443.813	567.75
444.034	609.75
444.255	558.75
444.476	507.75
444.698	517.75
444.919	523.75
445.14	651.75
445.361	557.75
445.582	501.75
445.803	548.75
446.024	577.75
446.245	577.75
446.466	555.75
446.687	475.75
446.908	459.75
447.129	437.75
447.35	446.75
447.571	445.75
447.792	420.75
448.013	438.75
448.234	433.75
448.455	445.75
448.675	516.75
448.896	584.75
449.117	490.75
449.338	482.75
449.559	550.75
449.779	578.75
450	523.75
450.221	429.75
450.442	424.75
450.662	398.75
450.883	423.75
451.104	423.75
451.324	428.75
451.545	380.75
451.766	397.75
451.986	382.75
452.207	391.75
452.428	382.75
452.648	387.75
452.869	404.75
453.089	394.75
453.31	386.75
453.53	404.75
453.751	407.75
453.971	393.75
454.192	382.75
454.412	362.75
454.633	392.75
454.853	394.75
455.073	374.75
455.294	409.75
455.514	419.75
455.734	436.75
455.955	409.75
456.175	363.75
456.395	357.75
456.616	355.75
456.836	353.75
457.056	351.75
457.276	361.75
457.497	384.75
457.717	378.75
457.937	358.75
458.157	371.75
458.377	381.75
458.598	406.75
458.818	421.75
459.038	464.75
459.258	481.75
459.478	456.75
459.698	439.75
459.918	433.75
460.138	449.75
460.358	463.75
460.578	466.75
460.798	449.75
461.018	478.75
461.238	446.75
461.458	443.75
461.678	437.75
461.898	459.75
462.118	459.75
462.338	458.75
462.558	474.75
462.777	500.75
462.997	523.75
463.217	559.75
463.437	542.75
463.657	539.75
463.876	488.75
464.096	495.75
464.316	504.75
464.536	506.75
464.755	498.75
464.975	491.75
465.195	483.75
465.414	491.75
465.634	468.75
465.854	443.75
466.073	437.75
466.293	416.75
466.512	424.75
466.732	399.75
466.951	418.75
467.171	397.75
467.391	404.75
467.61	419.75
467.829	420.75
468.049	410.75
468.268	404.75
468.488	395.75
468.707	398.75
468.927	416.75
469.146	380.75
469.365	390.75
469.585	374.75
469.804	418.75
470.023	404.75
470.243	421.75
470.462	401.75
470.681	414.75
470.901	403.75
471.12	407.75
471.339	417.75
471.558	421.75
471.777	412.75
471.997	410.75
472.216	406.75
472.435	420.75
472.654	420.75
472.873	399.75
473.092	408.75
473.311	400.75
473.53	387.75
473.749	405.75
473.968	404.75
474.187	478.75
474.406	485.75
474.625	430.75
474.844	391.75
475.063	399.75
475.282	411.75
475.501	414.75
475.72	413.75
475.939	407.75
476.158	417.75
476.377	402.75
476.596	414.75
476.814	417.75
477.033	420.75
477.252	425.75
477.471	432.75
477.69	429.75
477.908	426.75
478.127	451.75
478.346	435.75
478.564	440.75
478.783	452.75
479.002	442.75
479.22	462.75
479.439	463.75
479.658	466.75
479.876	466.75
480.095	497.75
480.313	521.75
480.532	527.75
480.751	501.75
480.969	508.75
481.188	551.75
481.406	537.75
481.624	505.75
481.843	490.75
482.061	471.75
482.28	465.75
482.498	462.75
482.717	448.75
482.935	470.75
483.153	447.75
483.372	467.75
483.59	462.75
483.808	447.75
484.027	450.75
484.245	451.75
484.463	430.75
484.681	457.75
484.9	466.75
485.118	462.75
485.336	450.75
485.554	497.75
485.772	449.75
485.99	473.75
486.209	478.75
486.427	483.75
486.645	477.75
486.863	473.75
487.081	483.75
487.299	506.75
487.517	489.75
487.735	473.75
487.953	485.75
488.171	487.75
488.389	477.75
488.607	481.75
488.825	452.75
489.043	476.75
489.261	504.75
489.479	502.75
489.696	478.75
489.914	511.75
490.132	489.75
490.35	523.75
490.568	515.75
490.786	502.75
491.003	539.75
491.221	505.75
491.439	511.75
491.657	525.75
491.874	544.75
492.092	519.75
492.31	516.75
492.527	535.75
492.745	548.75
492.963	537.75
493.18	539.75
493.398	530.75
493.615	542.75
493.833	544.75
494.05	557.75
494.268	547.75
494.485	544.75
494.703	557.75
494.92	545.75
495.138	553.75
495.355	539.75
495.573	542.75
495.79	552.75
496.008	565.75
496.225	549.75
496.442	554.75
496.66	528.75
496.877	555.75
497.094	567.75
497.312	582.75
497.529	583.75
497.746	602.75
497.963	619.75
498.181	645.75
498.398	631.75
498.615	659.75
498.832	701.75
499.049	703.75
499.267	770.75
499.484	804.75
499.701	825.75
499.918	885.75
500.135	990.75
500.352	1057.75
500.569	1087.75
500.786	1103.75
501.003	1033.75
501.22	956.75
501.437	897.75
501.654	851.75
501.871	826.75
502.088	771.75
502.305	704.75
502.522	693.75
502.739	678.75
502.956	652.75
503.172	633.75
503.389	611.75
503.606	601.75
503.823	603.75
504.04	598.75
504.256	605.75
504.473	568.75
504.69	585.75
504.907	594.75
505.123	563.75
505.34	549.75
505.557	543.75
505.773	527.75
505.99	517.75
506.207	533.75
506.423	501.75
506.64	499.75
506.856	477.75
507.073	500.75
507.289	487.75
507.506	476.75
507.722	489.75
507.939	491.75
508.155	501.75
508.372	492.75
508.588	472.75
508.805	470.75
509.021	478.75
509.238	487.75
509.454	482.75
509.67	476.75
509.887	473.75
510.103	504.75
510.319	482.75
510.536	515.75
510.752	729.75
510.968	623.75
511.184	488.75
511.401	470.75
511.617	475.75
511.833	457.75
512.049	459.75
512.265	459.75
512.481	480.75
512.698	481.75
512.914	469.75
513.13	475.75
513.346	439.75
513.562	459.75
513.778	458.75
513.994	450.75
514.21	455.75
514.426	472.75
514.642	486.75
514.858	493.75
515.074	513.75
515.29	571.75
515.506	745.75
515.721	661.75
515.937	519.75
516.153	501.75
516.369	474.75
516.585	493.75
516.801	504.75
517.016	522.75
517.232	516.75
517.448	530.75
517.664	559.75
517.879	557.75
518.095	548.75
518.311	551.75
518.527	518.75
518.742	537.75
518.958	491.75
519.173	506.75
519.389	488.75
519.605	480.75
519.82	449.75
520.036	478.75
520.251	479.75
520.467	501.75
520.682	487.75
520.898	487.75
521.113	486.75
521.329	509.75
521.544	526.75
521.76	606.75
521.975	882.75
522.19	897.75
522.406	572.75
522.621	476.75
522.836	459.75
523.052	444.75
523.267	428.75
523.482	436.75
523.698	422.75
523.913	415.75
524.128	417.75
524.343	403.75
524.559	387.75
524.774	411.75
524.989	414.75
525.204	400.75
525.419	387.75
525.634	404.75
525.849	403.75
526.064	404.75
526.28	392.75
526.495	400.75
526.71	413.75
526.925	389.75
527.14	393.75
527.355	398.75
527.57	395.75
527.785	400.75
527.999	388.75
528.214	374.75
528.429	379.75
528.644	391.75
528.859	376.75
529.074	400.75
529.289	398.75
529.503	429.75
529.718	416.75
529.933	398.75
530.148	391.75
530.363	401.75
530.577	385.75
530.792	366.75
531.007	381.75
531.221	383.75
531.436	388.75
531.651	396.75
531.865	391.75
532.08	401.75
532.295	403.75
532.509	399.75
532.724	382.75
532.938	401.75
533.153	406.75
533.367	386.75
533.582	387.75
533.796	381.75
534.011	397.75
534.225	392.75
534.44	382.75
534.654	378.75
534.868	377.75
535.083	379.75
535.297	383.75
535.511	386.75
535.726	373.75
535.94	384.75
536.154	365.75
536.369	369.75
536.583	365.75
536.797	357.75
537.011	367.75
537.225	352.75
537.44	367.75
537.654	372.75
537.868	355.75
538.082	364.75
538.296	363.75
538.51	345.75
538.724	364.75
538.938	359.75
539.153	352.75
539.367	360.75
539.581	347.75
539.795	373.75
540.009	371.75
540.222	343.75
540.436	356.75
540.65	361.75
540.864	354.75
541.078	365.75
541.292	365.75
541.506	373.75
541.72	350.75
541.934	348.75
542.147	369.75
542.361	371.75
542.575	346.75
542.789	362.75
543.002	355.75
543.216	369.75
543.43	383.75
543.644	379.75
543.857	374.75
544.071	338.75
544.285	373.75
544.498	373.75
544.712	376.75
544.925	369.75
545.139	361.75
545.352	365.75
545.566	350.75
545.779	393.75
545.993	363.75
546.206	371.75
546.42	373.75
546.633	357.75
546.847	357.75
547.06	363.75
547.274	362.75
547.487	361.75
547.7	351.75
547.914	374.75
548.127	362.75
548.34	371.75
548.554	366.75
548.767	358.75
548.98	362.75
549.193	364.75
549.407	364.75
549.62	370.75
549.833	356.75
550.046	367.75
550.259	347.75
550.473	345.75
550.686	362.75
550.899	364.75
551.112	353.75
551.325	340.75
551.538	349.75
551.751	385.75
551.964	374.75
552.177	356.75
552.39	369.75
552.603	366.75
552.816	364.75
553.029	389.75
553.242	379.75
553.455	381.75
553.667	394.75
553.88	367.75
554.093	369.75
554.306	377.75
554.519	381.75
554.732	364.75
554.944	366.75
555.157	330.75
555.37	355.75
555.583	339.75
555.795	328.75
556.008	333.75
556.221	343.75
556.433	330.75
556.646	337.75
556.859	330.75
557.071	332.75
557.284	323.75
557.496	322.75
557.709	321.75
557.921	325.75
558.134	309.75
558.346	315.75
558.559	332.75
558.771	319.75
558.984	323.75
559.196	310.75
559.409	308.75
559.621	314.75
559.833	318.75
560.046	311.75
560.258	324.75
560.47	311.75
560.683	313.75
560.895	312.75
561.107	318.75
561.32	320.75
561.532	317.75
561.744	306.75
561.956	328.75
562.168	313.75
562.381	313.75
562.593	312.75
562.805	326.75
563.017	331.75
563.229	319.75
563.441	306.75
563.653	311.75
563.865	309.75
564.077	317.75
564.289	346.75
564.501	335.75
564.713	350.75
564.925	332.75
565.137	328.75
565.349	354.75
565.561	364.75
565.773	369.75
565.985	364.75
566.197	369.75
566.408	409.75
566.62	420.75
566.832	458.75
567.044	446.75
567.255	450.75
567.467	467.75
567.679	477.75
567.891	490.75
568.102	494.75
568.314	485.75
568.526	460.75
568.737	423.75
568.949	409.75
569.161	383.75
569.372	359.75
569.584	370.75
569.795	348.75
570.007	343.75
570.218	362.75
570.43	350.75
570.641	338.75
570.853	331.75
571.064	344.75
571.276	330.75
571.487	310.75
571.698	313.75
571.91	313.75
572.121	310.75
572.333	304.75
572.544	274.75
572.755	294.75
572.966	281.75
573.178	301.75
573.389	274.75
573.6	277.75
573.811	283.75
574.023	278.75
574.234	283.75
574.445	292.75
574.656	283.75
574.867	290.75
575.078	286.75
575.289	298.75
575.501	279.75
575.712	289.75
575.923	280.75
576.134	247.75
576.345	264.75
576.556	286.75
576.767	271.75
576.978	250.75
577.188	262.75
577.399	266.75
577.61	279.75
577.821	261.75
578.032	273.75
578.243	306.75
578.454	393.75
578.665	311.75
578.875	283.75
579.086	257.75
579.297	274.75
579.508	251.75
579.718	262.75
579.929	260.75
580.14	250.75
580.35	257.75
580.561	257.75
580.772	275.75
580.982	254.75
581.193	247.75
581.403	244.75
581.614	252.75
581.825	249.75
582.035	255.75
582.246	243.75
582.456	256.75
582.667	256.75
582.877	252.75
583.087	250.75
583.298	256.75
583.508	259.75
583.719	261.75
583.929	239.75
584.139	264.75
584.35	253.75
584.56	260.75
584.77	257.75
584.981	236.75
585.191	247.75
585.401	237.75
585.611	243.75
585.821	247.75
586.032	262.75
586.242	260.75
586.452	266.75
586.662	244.75
586.872	247.75
587.082	258.75
587.292	242.75
587.502	248.75
587.713	232.75
587.923	245.75
588.133	262.75
588.343	245.75
588.553	251.75
588.762	267.75
588.972	258.75
589.182	275.75
589.392	251.75
589.602	254.75
589.812	251.75
590.022	242.75
590.232	246.75
590.441	253.75
590.651	255.75
590.861	253.75
591.071	236.75
591.281	270.75
591.49	253.75
591.7	257.75
591.91	265.75
592.119	250.75
592.329	263.75
592.539	265.75
592.748	277.75
592.958	273.75
593.167	282.75
593.377	305.75
593.587	305.75
593.796	282.75
594.006	280.75
594.215	293.75
594.424	320.75
594.634	277.75
594.843	265.75
595.053	279.75
595.262	277.75
595.472	267.75
595.681	259.75
595.89	254.75
596.1	250.75
596.309	243.75
596.518	240.75
596.727	241.75
596.937	245.75
597.146	238.75
597.355	237.75
597.564	234.75
597.774	230.75
597.983	246.75
598.192	221.75
598.401	225.75
598.61	218.75
598.819	229.75
599.028	240.75
599.237	233.75
599.446	229.75
599.655	220.75
599.864	219.75
600.073	230.75
600.282	218.75
600.491	232.75
600.7	215.75
600.909	220.75
601.118	215.75
601.327	212.75
601.536	234.75
601.745	219.75
601.953	202.75
602.162	206.75
602.371	227.75
602.58	216.75
602.789	225.75
602.997	216.75
603.206	219.75
603.415	217.75
603.623	211.75
603.832	199.75
604.041	212.75
604.249	203.75
604.458	201.75
604.666	214.75
604.875	218.75
605.084	198.75
605.292	212.75
605.501	223.75
605.709	221.75
605.918	210.75
606.126	206.75
606.334	203.75
606.543	213.75
606.751	209.75
606.96	202.75
607.168	197.75
607.376	214.75
607.585	234.75
607.793	197.75
608.001	203.75
608.21	194.75
608.418	197.75
608.626	195.75
608.834	189.75
609.043	194.75
609.251	189.75
609.459	189.75
609.667	199.75
609.875	190.75
610.083	211.75
610.291	219.75
610.499	206.75
610.707	203.75
610.916	189.75
611.124	197.75
611.332	207.75
611.54	222.75
611.748	220.75
611.955	206.75
612.163	196.75
612.371	207.75
612.579	198.75
612.787	207.75
612.995	204.75
613.203	212.75
613.411	206.75
613.618	202.75
613.826	198.75
614.034	196.75
614.242	183.75
614.449	194.75
614.657	203.75
614.865	204.75
615.072	198.75
615.28	205.75
615.488	200.75
615.695	198.75
615.903	195.75
616.111	199.75
616.318	210.75
616.526	196.75
616.733	202.75
616.941	191.75
617.148	211.75
617.356	204.75
617.563	203.75
617.771	192.75
617.978	203.75
618.185	195.75
618.393	203.75
618.6	216.75
618.807	188.75
619.015	196.75
619.222	194.75
619.429	194.75
619.637	201.75
619.844	205.75
620.051	195.75
620.258	181.75
620.466	201.75
620.673	185.75
620.88	197.75
621.087	207.75
621.294	179.75
621.501	180.75
621.708	191.75
621.915	200.75
622.122	197.75
622.329	198.75
622.536	174.75
622.743	197.75
622.95	181.75
623.157	189.75
623.364	194.75
623.571	186.75
623.778	183.75
623.985	174.75
624.192	197.75
624.399	169.75
624.606	194.75
624.812	185.75
625.019	181.75
625.226	160.75
625.433	177.75
625.639	177.75
625.846	173.75
626.053	153.75
626.259	171.75
626.466	184.75
626.673	175.75
626.879	180.75
627.086	166.75
627.293	175.75
627.499	168.75
627.706	174.75
627.912	170.75
628.119	174.75
628.325	179.75
628.532	162.75
628.738	169.75
628.945	181.75
629.151	161.75
629.357	173.75
629.564	196.75
629.77	174.75
629.976	164.75
630.183	171.75
630.389	161.75
630.595	141.75
630.802	151.75
631.008	153.75
631.214	162.75
631.42	172.75
631.627	173.75
631.833	165.75
632.039	174.75
632.245	177.75
632.451	186.75
632.657	165.75
632.863	166.75
633.069	151.75
633.275	170.75
633.481	153.75
633.688	151.75
633.893	172.75
634.099	168.75
634.305	158.75
634.511	157.75
634.717	153.75
634.923	150.75
635.129	148.75
635.335	171.75
635.541	165.75
635.747	158.75
635.952	165.75
636.158	157.75
636.364	154.75
636.57	143.75
636.775	147.75
636.981	156.75
637.187	160.75
637.392	164.75
637.598	154.75
637.804	177.75
638.009	170.75
638.215	167.75
638.421	156.75
638.626	163.75
638.832	167.75
639.037	157.75
639.243	151.75
639.448	162.75
639.654	152.75
639.859	151.75
640.065	154.75
640.27	155.75
640.475	142.75
640.681	165.75
640.886	140.75
641.091	156.75
641.297	150.75
641.502	147.75
641.707	147.75
641.913	153.75
642.118	156.75
642.323	146.75
642.528	146.75
642.733	156.75
642.939	152.75
643.144	155.75
643.349	144.75
643.554	151.75
643.759	138.75
643.964	131.75
644.169	153.75
644.374	154.75
644.579	153.75
644.784	137.75
644.989	147.75
645.194	150.75
645.399	146.75
645.604	148.75
645.809	141.75
646.014	156.75
646.219	156.75
646.423	148.75
646.628	143.75
646.833	157.75
647.038	155.75
647.243	141.75
647.447	143.75
647.652	159.75
647.857	162.75
648.062	161.75
648.266	160.75
648.471	157.75
648.676	152.75
648.88	153.75
649.085	162.75
649.289	165.75
649.494	146.75
649.698	169.75
649.903	150.75
650.107	143.75
650.312	137.75
650.516	132.75
650.721	140.75
650.925	150.75
651.13	139.75
651.334	141.75
651.539	139.75
651.743	122.75
651.947	138.75
652.152	141.75
652.356	138.75
652.56	134.75
652.764	126.75
652.969	131.75
653.173	131.75
653.377	125.75
653.581	136.75
653.785	128.75
653.99	119.75
654.194	117.75
654.398	127.75
654.602	125.75
654.806	120.75
655.01	121.75
655.214	113.75
655.418	143.75
655.622	110.75
655.826	120.75
656.03	121.75
656.234	126.75
656.438	117.75
656.642	147.75
656.846	124.75
657.049	129.75
657.253	110.75
657.457	122.75
657.661	114.75
657.865	97.75
658.068	106.75
658.272	86.75
658.476	110.75
658.68	124.75
658.883	109.75
659.087	114.75
659.291	86.75
659.494	90.75
659.698	93.75
659.901	96.75
660.105	86.75
660.309	110.75
660.512	98.75
660.716	98.75
660.919	101.75
661.123	100.75
661.326	103.75
661.53	108.75
661.733	87.75
661.936	90.75
662.14	94.75
662.343	79.75
662.546	90.75
662.75	79.75
662.953	94.75
663.156	91.75
663.36	72.75
663.563	81.75
663.766	86.75
663.969	78.75
664.173	82.75
664.376	91.75
664.579	90.75
664.782	90.75
664.985	70.75
665.188	78.75
665.391	74.75
665.594	79.75
665.797	79.75
666	82.75
666.203	78.75
666.406	70.75
666.609	89.75
666.812	86.75
667.015	81.75
667.218	78.75
667.421	91.75
667.624	71.75
667.827	70.75
668.03	86.75
668.232	90.75
668.435	100.75
668.638	84.75
668.841	84.75
669.043	92.75
669.246	83.75
669.449	75.75
669.651	85.75
669.854	85.75
670.057	89.75
670.259	78.75
670.462	78.75
670.665	90.75
670.867	89.75
671.07	97.75
671.272	98.75
671.475	86.75
671.677	77.75
671.88	86.75
672.082	79.75
672.284	87.75
672.487	88.75
672.689	79.75
672.892	80.75
