Data from 1984.PennyLincolnUp.Lamp.En5.5.200Scan.071819.P1_HRD10591_16-57-43-968.txt Node
Date: Thu Jul 18 16:57:43 EDT 2019
User: cochatt
Spectrometer: HR+D1059
Trigger mode: 1
Integration Time (sec): 1.000000E-1
Scans to average: 1
Electric dark correction enabled: true
Nonlinearity correction enabled: false
Boxcar width: 0
XAxis mode: Wavelengths
Number of Pixels in Spectrum: 2048
>>>>>Begin Spectral Data<<<<<
223.165	-6.12
223.4	-6.12
223.635	-6.12
223.869	-28.12
224.104	-26.12
224.338	-13.12
224.573	-12.12
224.808	-18.12
225.042	-0.12
225.277	-11.12
225.511	-1.12
225.746	2.88
225.98	8.88
226.215	10.88
226.449	13.88
226.683	32.88
226.918	12.88
227.152	33.88
227.387	42.88
227.621	36.88
227.856	46.88
228.09	34.88
228.324	54.88
228.559	43.88
228.793	73.88
229.027	82.88
229.262	105.88
229.496	89.88
229.73	89.88
229.964	119.88
230.199	100.88
230.433	106.88
230.667	104.88
230.901	104.88
231.136	97.88
231.37	91.88
231.604	102.88
231.838	100.88
232.072	108.88
232.306	108.88
232.541	113.88
232.775	104.88
233.009	103.88
233.243	117.88
233.477	116.88
233.711	121.88
233.945	117.88
234.179	119.88
234.413	119.88
234.647	104.88
234.881	110.88
235.115	116.88
235.349	119.88
235.583	107.88
235.817	116.88
236.051	96.88
236.285	106.88
236.519	111.88
236.753	106.88
236.987	124.88
237.221	136.88
237.455	162.88
237.689	134.88
237.922	117.88
238.156	125.88
238.39	108.88
238.624	117.88
238.858	104.88
239.091	116.88
239.325	115.88
239.559	124.88
239.793	120.88
240.027	110.88
240.26	130.88
240.494	132.88
240.728	131.88
240.961	135.88
241.195	120.88
241.429	125.88
241.662	123.88
241.896	113.88
242.13	115.88
242.363	126.88
242.597	136.88
242.83	121.88
243.064	122.88
243.298	138.88
243.531	132.88
243.765	138.88
243.998	135.88
244.232	140.88
244.465	134.88
244.699	128.88
244.932	134.88
245.166	148.88
245.399	134.88
245.633	139.88
245.866	139.88
246.099	149.88
246.333	137.88
246.566	144.88
246.8	145.88
247.033	156.88
247.266	132.88
247.5	144.88
247.733	134.88
247.966	133.88
248.2	152.88
248.433	137.88
248.666	148.88
248.899	156.88
249.133	176.88
249.366	163.88
249.599	163.88
249.832	139.88
250.066	140.88
250.299	169.88
250.532	169.88
250.765	170.88
250.998	187.88
251.231	172.88
251.465	177.88
251.698	174.88
251.931	182.88
252.164	165.88
252.397	166.88
252.63	176.88
252.863	181.88
253.096	178.88
253.329	197.88
253.562	181.88
253.795	186.88
254.028	179.88
254.261	188.88
254.494	195.88
254.727	200.88
254.96	219.88
255.193	208.88
255.426	199.88
255.659	205.88
255.892	194.88
256.124	182.88
256.357	186.88
256.59	184.88
256.823	189.88
257.056	174.88
257.289	187.88
257.521	187.88
257.754	173.88
257.987	168.88
258.22	179.88
258.452	194.88
258.685	181.88
258.918	187.88
259.151	167.88
259.383	185.88
259.616	198.88
259.849	189.88
260.081	188.88
260.314	187.88
260.547	212.88
260.779	215.88
261.012	203.88
261.244	194.88
261.477	201.88
261.71	204.88
261.942	203.88
262.175	196.88
262.407	206.88
262.64	191.88
262.872	179.88
263.105	193.88
263.337	188.88
263.57	170.88
263.802	200.88
264.035	194.88
264.267	189.88
264.499	196.88
264.732	174.88
264.964	190.88
265.197	199.88
265.429	209.88
265.661	193.88
265.894	208.88
266.126	204.88
266.358	197.88
266.591	200.88
266.823	195.88
267.055	204.88
267.287	225.88
267.52	195.88
267.752	215.88
267.984	224.88
268.216	214.88
268.448	213.88
268.681	211.88
268.913	231.88
269.145	215.88
269.377	238.88
269.609	226.88
269.841	237.88
270.073	220.88
270.306	256.88
270.538	246.88
270.77	274.88
271.002	257.88
271.234	216.88
271.466	256.88
271.698	257.88
271.93	275.88
272.162	279.88
272.394	277.88
272.626	245.88
272.858	268.88
273.09	238.88
273.322	235.88
273.553	258.88
273.785	223.88
274.017	248.88
274.249	222.88
274.481	224.88
274.713	237.88
274.945	248.88
275.176	254.88
275.408	252.88
275.64	237.88
275.872	231.88
276.104	235.88
276.335	246.88
276.567	242.88
276.799	251.88
277.031	251.88
277.262	299.88
277.494	272.88
277.726	270.88
277.957	237.88
278.189	257.88
278.421	238.88
278.652	243.88
278.884	240.88
279.115	249.88
279.347	236.88
279.579	260.88
279.81	256.88
280.042	254.88
280.273	255.88
280.505	246.88
280.736	256.88
280.968	249.88
281.199	261.88
281.431	266.88
281.662	258.88
281.894	256.88
282.125	244.88
282.356	261.88
282.588	257.88
282.819	259.88
283.051	270.88
283.282	249.88
283.513	257.88
283.745	267.88
283.976	256.88
284.207	269.88
284.439	273.88
284.67	274.88
284.901	270.88
285.132	278.88
285.364	258.88
285.595	267.88
285.826	263.88
286.057	267.88
286.288	246.88
286.52	278.88
286.751	290.88
286.982	289.88
287.213	284.88
287.444	266.88
287.675	260.88
287.906	284.88
288.138	276.88
288.369	277.88
288.6	266.88
288.831	270.88
289.062	288.88
289.293	279.88
289.524	278.88
289.755	283.88
289.986	282.88
290.217	258.88
290.448	278.88
290.679	284.88
290.91	275.88
291.141	292.88
291.371	290.88
291.602	276.88
291.833	264.88
292.064	289.88
292.295	269.88
292.526	266.88
292.757	264.88
292.987	278.88
293.218	256.88
293.449	282.88
293.68	290.88
293.91	283.88
294.141	285.88
294.372	287.88
294.603	276.88
294.833	265.88
295.064	290.88
295.295	290.88
295.525	278.88
295.756	292.88
295.987	307.88
296.217	306.88
296.448	308.88
296.679	288.88
296.909	280.88
297.14	301.88
297.37	294.88
297.601	294.88
297.831	270.88
298.062	297.88
298.292	297.88
298.523	299.88
298.753	288.88
298.984	282.88
299.214	296.88
299.445	289.88
299.675	289.88
299.905	287.88
300.136	309.88
300.366	312.88
300.597	311.88
300.827	315.88
301.057	319.88
301.288	301.88
301.518	312.88
301.748	310.88
301.979	312.88
302.209	329.88
302.439	305.88
302.669	320.88
302.9	313.88
303.13	322.88
303.36	302.88
303.59	320.88
303.82	333.88
304.051	306.88
304.281	318.88
304.511	310.88
304.741	297.88
304.971	313.88
305.201	309.88
305.431	304.88
305.661	316.88
305.891	310.88
306.121	316.88
306.352	328.88
306.582	308.88
306.812	310.88
307.042	311.88
307.272	334.88
307.502	317.88
307.731	307.88
307.961	334.88
308.191	322.88
308.421	304.88
308.651	330.88
308.881	301.88
309.111	324.88
309.341	324.88
309.571	327.88
309.8	329.88
310.03	332.88
310.26	336.88
310.49	329.88
310.72	338.88
310.949	324.88
311.179	352.88
311.409	325.88
311.639	337.88
311.868	332.88
312.098	347.88
312.328	341.88
312.557	361.88
312.787	349.88
313.017	358.88
313.246	359.88
313.476	344.88
313.706	339.88
313.935	346.88
314.165	363.88
314.394	341.88
314.624	340.88
314.853	343.88
315.083	328.88
315.312	344.88
315.542	344.88
315.771	342.88
316.001	344.88
316.23	354.88
316.46	345.88
316.689	356.88
316.919	339.88
317.148	362.88
317.377	357.88
317.607	378.88
317.836	343.88
318.065	328.88
318.295	334.88
318.524	343.88
318.753	349.88
318.983	350.88
319.212	328.88
319.441	344.88
319.67	350.88
319.9	344.88
320.129	341.88
320.358	344.88
320.587	351.88
320.816	352.88
321.046	359.88
321.275	345.88
321.504	354.88
321.733	357.88
321.962	341.88
322.191	346.88
322.42	380.88
322.649	375.88
322.878	376.88
323.108	366.88
323.337	378.88
323.566	401.88
323.795	416.88
324.024	440.88
324.253	487.88
324.482	636.88
324.71	887.88
324.939	1224.88
325.168	1093.88
325.397	616.88
325.626	471.88
325.855	431.88
326.084	424.88
326.313	414.88
326.542	393.88
326.77	426.88
326.999	499.88
327.228	597.88
327.457	847.88
327.686	957.88
327.914	668.88
328.143	500.88
328.372	458.88
328.6	436.88
328.829	406.88
329.058	448.88
329.287	419.88
329.515	414.88
329.744	405.88
329.972	411.88
330.201	410.88
330.43	413.88
330.658	436.88
330.887	446.88
331.115	452.88
331.344	417.88
331.572	395.88
331.801	406.88
332.03	438.88
332.258	405.88
332.486	413.88
332.715	404.88
332.943	426.88
333.172	421.88
333.4	439.88
333.629	447.88
333.857	463.88
334.085	466.88
334.314	467.88
334.542	440.88
334.771	457.88
334.999	449.88
335.227	443.88
335.455	437.88
335.684	417.88
335.912	420.88
336.14	419.88
336.369	422.88
336.597	407.88
336.825	421.88
337.053	407.88
337.281	411.88
337.51	395.88
337.738	399.88
337.966	401.88
338.194	393.88
338.422	383.88
338.65	401.88
338.878	406.88
339.106	402.88
339.334	393.88
339.562	394.88
339.79	363.88
340.018	381.88
340.246	394.88
340.474	395.88
340.702	399.88
340.93	393.88
341.158	384.88
341.386	382.88
341.614	358.88
341.842	383.88
342.07	376.88
342.298	354.88
342.526	356.88
342.754	370.88
342.981	380.88
343.209	364.88
343.437	397.88
343.665	400.88
343.893	417.88
344.12	443.88
344.348	416.88
344.576	398.88
344.804	407.88
345.031	384.88
345.259	396.88
345.487	384.88
345.714	376.88
345.942	366.88
346.17	380.88
346.397	370.88
346.625	372.88
346.853	364.88
347.08	359.88
347.308	344.88
347.535	370.88
347.763	364.88
347.99	361.88
348.218	377.88
348.445	354.88
348.673	371.88
348.9	373.88
349.128	346.88
349.355	358.88
349.583	345.88
349.81	353.88
350.037	345.88
350.265	359.88
350.492	341.88
350.72	370.88
350.947	341.88
351.174	357.88
351.402	357.88
351.629	353.88
351.856	341.88
352.083	353.88
352.311	357.88
352.538	366.88
352.765	369.88
352.992	368.88
353.22	353.88
353.447	342.88
353.674	339.88
353.901	338.88
354.128	344.88
354.355	350.88
354.583	358.88
354.81	349.88
355.037	360.88
355.264	339.88
355.491	356.88
355.718	324.88
355.945	346.88
356.172	345.88
356.399	365.88
356.626	355.88
356.853	339.88
357.08	347.88
357.307	355.88
357.534	334.88
357.761	342.88
357.988	342.88
358.215	340.88
358.441	344.88
358.668	347.88
358.895	355.88
359.122	345.88
359.349	341.88
359.576	364.88
359.802	352.88
360.029	367.88
360.256	378.88
360.483	372.88
360.709	345.88
360.936	347.88
361.163	344.88
361.39	345.88
361.616	362.88
361.843	358.88
362.07	351.88
362.296	354.88
362.523	349.88
362.749	368.88
362.976	344.88
363.203	341.88
363.429	353.88
363.656	334.88
363.882	336.88
364.109	339.88
364.335	343.88
364.562	326.88
364.788	314.88
365.015	358.88
365.241	349.88
365.468	340.88
365.694	339.88
365.92	349.88
366.147	330.88
366.373	343.88
366.599	352.88
366.826	337.88
367.052	342.88
367.278	331.88
367.505	347.88
367.731	348.88
367.957	340.88
368.184	361.88
368.41	369.88
368.636	355.88
368.862	344.88
369.089	328.88
369.315	355.88
369.541	363.88
369.767	339.88
369.993	337.88
370.219	355.88
370.445	353.88
370.672	370.88
370.898	349.88
371.124	372.88
371.35	346.88
371.576	333.88
371.802	358.88
372.028	369.88
372.254	357.88
372.48	343.88
372.706	357.88
372.932	361.88
373.158	373.88
373.384	362.88
373.61	355.88
373.835	355.88
374.061	360.88
374.287	365.88
374.513	359.88
374.739	364.88
374.965	370.88
375.191	365.88
375.416	362.88
375.642	374.88
375.868	374.88
376.094	354.88
376.319	351.88
376.545	363.88
376.771	356.88
376.997	330.88
377.222	347.88
377.448	343.88
377.674	345.88
377.899	373.88
378.125	361.88
378.35	318.88
378.576	340.88
378.802	342.88
379.027	346.88
379.253	351.88
379.478	356.88
379.704	358.88
379.929	345.88
380.155	349.88
380.38	356.88
380.606	351.88
380.831	350.88
381.057	353.88
381.282	359.88
381.507	342.88
381.733	352.88
381.958	347.88
382.184	361.88
382.409	350.88
382.634	374.88
382.86	360.88
383.085	372.88
383.31	372.88
383.535	382.88
383.761	376.88
383.986	397.88
384.211	381.88
384.436	406.88
384.662	392.88
384.887	400.88
385.112	389.88
385.337	393.88
385.562	376.88
385.787	380.88
386.013	402.88
386.238	410.88
386.463	401.88
386.688	389.88
386.913	395.88
387.138	405.88
387.363	399.88
387.588	411.88
387.813	387.88
388.038	401.88
388.263	394.88
388.488	409.88
388.713	396.88
388.938	405.88
389.163	385.88
389.387	396.88
389.612	382.88
389.837	370.88
390.062	380.88
390.287	371.88
390.512	391.88
390.736	388.88
390.961	411.88
391.186	411.88
391.411	410.88
391.636	422.88
391.86	428.88
392.085	435.88
392.31	409.88
392.534	402.88
392.759	422.88
392.984	403.88
393.208	408.88
393.433	399.88
393.658	413.88
393.882	407.88
394.107	418.88
394.331	397.88
394.556	409.88
394.78	425.88
395.005	416.88
395.229	404.88
395.454	398.88
395.678	422.88
395.903	431.88
396.127	441.88
396.352	425.88
396.576	421.88
396.801	405.88
397.025	429.88
397.249	434.88
397.474	449.88
397.698	414.88
397.922	447.88
398.147	444.88
398.371	439.88
398.595	453.88
398.82	466.88
399.044	472.88
399.268	532.88
399.492	562.88
399.717	626.88
399.941	636.88
400.165	606.88
400.389	600.88
400.613	557.88
400.837	499.88
401.062	469.88
401.286	495.88
401.51	460.88
401.734	478.88
401.958	466.88
402.182	473.88
402.406	502.88
402.63	514.88
402.854	496.88
403.078	519.88
403.302	499.88
403.526	516.88
403.75	513.88
403.974	535.88
404.198	508.88
404.422	520.88
404.645	510.88
404.869	505.88
405.093	515.88
405.317	519.88
405.541	546.88
405.765	519.88
405.988	487.88
406.212	518.88
406.436	498.88
406.66	533.88
406.883	550.88
407.107	546.88
407.331	569.88
407.555	610.88
407.778	631.88
408.002	589.88
408.226	564.88
408.449	539.88
408.673	551.88
408.896	550.88
409.12	568.88
409.344	535.88
409.567	502.88
409.791	512.88
410.014	462.88
410.238	494.88
410.461	486.88
410.685	484.88
410.908	500.88
411.132	499.88
411.355	540.88
411.578	512.88
411.802	482.88
412.025	469.88
412.249	493.88
412.472	508.88
412.695	496.88
412.919	478.88
413.142	482.88
413.365	473.88
413.589	473.88
413.812	460.88
414.035	443.88
414.258	457.88
414.482	465.88
414.705	462.88
414.928	476.88
415.151	465.88
415.374	454.88
415.597	445.88
415.821	443.88
416.044	468.88
416.267	455.88
416.49	462.88
416.713	457.88
416.936	462.88
417.159	453.88
417.382	439.88
417.605	445.88
417.828	462.88
418.051	457.88
418.274	468.88
418.497	475.88
418.72	452.88
418.943	481.88
419.166	485.88
419.389	501.88
419.611	497.88
419.834	475.88
420.057	479.88
420.28	466.88
420.503	473.88
420.726	473.88
420.948	473.88
421.171	489.88
421.394	542.88
421.617	483.88
421.839	491.88
422.062	466.88
422.285	498.88
422.507	507.88
422.73	544.88
422.953	542.88
423.175	489.88
423.398	491.88
423.621	506.88
423.843	491.88
424.066	485.88
424.288	501.88
424.511	500.88
424.733	524.88
424.956	578.88
425.178	556.88
425.401	554.88
425.623	586.88
425.846	519.88
426.068	498.88
426.291	489.88
426.513	456.88
426.735	497.88
426.958	498.88
427.18	573.88
427.402	633.88
427.625	668.88
427.847	564.88
428.069	516.88
428.292	486.88
428.514	458.88
428.736	433.88
428.958	439.88
429.181	418.88
429.403	430.88
429.625	439.88
429.847	456.88
430.069	485.88
430.292	472.88
430.514	444.88
430.736	433.88
430.958	416.88
431.18	428.88
431.402	419.88
431.624	397.88
431.846	418.88
432.068	420.88
432.29	426.88
432.512	415.88
432.734	427.88
432.956	425.88
433.178	470.88
433.4	426.88
433.622	441.88
433.844	435.88
434.066	420.88
434.287	418.88
434.509	437.88
434.731	447.88
434.953	483.88
435.175	475.88
435.397	466.88
435.618	459.88
435.84	471.88
436.062	530.88
436.284	549.88
436.505	486.88
436.727	446.88
436.949	445.88
437.17	446.88
437.392	427.88
437.614	446.88
437.835	457.88
438.057	472.88
438.278	563.88
438.5	534.88
438.721	599.88
438.943	593.88
439.165	500.88
439.386	468.88
439.608	471.88
439.829	452.88
440.05	476.88
440.272	465.88
440.493	458.88
440.715	457.88
440.936	461.88
441.158	436.88
441.379	456.88
441.6	471.88
441.822	482.88
442.043	504.88
442.264	516.88
442.486	540.88
442.707	504.88
442.928	456.88
443.149	476.88
443.371	522.88
443.592	523.88
443.813	569.88
444.034	604.88
444.255	540.88
444.476	509.88
444.698	530.88
444.919	516.88
445.14	638.88
445.361	566.88
445.582	498.88
445.803	537.88
446.024	548.88
446.245	577.88
446.466	524.88
446.687	489.88
446.908	448.88
447.129	423.88
447.35	442.88
447.571	417.88
447.792	417.88
448.013	409.88
448.234	413.88
448.455	441.88
448.675	525.88
448.896	577.88
449.117	512.88
449.338	481.88
449.559	546.88
449.779	594.88
450	484.88
450.221	429.88
450.442	399.88
450.662	407.88
450.883	416.88
451.104	416.88
451.324	397.88
451.545	388.88
451.766	397.88
451.986	381.88
452.207	374.88
452.428	375.88
452.648	382.88
452.869	395.88
453.089	378.88
453.31	391.88
453.53	406.88
453.751	384.88
453.971	362.88
454.192	384.88
454.412	396.88
454.633	378.88
454.853	386.88
455.073	370.88
455.294	396.88
455.514	440.88
455.734	439.88
455.955	386.88
456.175	380.88
456.395	371.88
456.616	376.88
456.836	368.88
457.056	377.88
457.276	357.88
457.497	365.88
457.717	371.88
457.937	372.88
458.157	377.88
458.377	378.88
458.598	403.88
458.818	422.88
459.038	449.88
459.258	472.88
459.478	452.88
459.698	445.88
459.918	415.88
460.138	462.88
460.358	470.88
460.578	454.88
460.798	457.88
461.018	461.88
461.238	475.88
461.458	481.88
461.678	461.88
461.898	440.88
462.118	459.88
462.338	481.88
462.558	494.88
462.777	500.88
462.997	514.88
463.217	549.88
463.437	554.88
463.657	517.88
463.876	516.88
464.096	516.88
464.316	496.88
464.536	502.88
464.755	494.88
464.975	479.88
465.195	494.88
465.414	494.88
465.634	446.88
465.854	435.88
466.073	442.88
466.293	409.88
466.512	430.88
466.732	402.88
466.951	406.88
467.171	395.88
467.391	405.88
467.61	377.88
467.829	420.88
468.049	404.88
468.268	395.88
468.488	383.88
468.707	380.88
468.927	388.88
469.146	386.88
469.365	386.88
469.585	371.88
469.804	406.88
470.023	400.88
470.243	417.88
470.462	395.88
470.681	418.88
470.901	430.88
471.12	405.88
471.339	388.88
471.558	422.88
471.777	420.88
471.997	398.88
472.216	373.88
472.435	400.88
472.654	398.88
472.873	394.88
473.092	382.88
473.311	387.88
473.53	380.88
473.749	387.88
473.968	414.88
474.187	485.88
474.406	473.88
474.625	425.88
474.844	403.88
475.063	398.88
475.282	381.88
475.501	402.88
475.72	394.88
475.939	407.88
476.158	405.88
476.377	407.88
476.596	401.88
476.814	406.88
477.033	395.88
477.252	416.88
477.471	432.88
477.69	426.88
477.908	446.88
478.127	443.88
478.346	469.88
478.564	464.88
478.783	464.88
479.002	466.88
479.22	466.88
479.439	478.88
479.658	460.88
479.876	469.88
480.095	497.88
480.313	524.88
480.532	522.88
480.751	488.88
480.969	488.88
481.188	493.88
481.406	501.88
481.624	469.88
481.843	461.88
482.061	441.88
482.28	422.88
482.498	448.88
482.717	451.88
482.935	455.88
483.153	425.88
483.372	437.88
483.59	439.88
483.808	455.88
484.027	438.88
484.245	444.88
484.463	465.88
484.681	448.88
484.9	470.88
485.118	463.88
485.336	458.88
485.554	445.88
485.772	470.88
485.99	461.88
486.209	485.88
486.427	462.88
486.645	491.88
486.863	489.88
487.081	477.88
487.299	483.88
487.517	484.88
487.735	469.88
487.953	457.88
488.171	483.88
488.389	503.88
488.607	479.88
488.825	467.88
489.043	479.88
489.261	482.88
489.479	495.88
489.696	492.88
489.914	486.88
490.132	493.88
490.35	470.88
490.568	483.88
490.786	498.88
491.003	497.88
491.221	512.88
491.439	489.88
491.657	513.88
491.874	530.88
492.092	521.88
492.31	530.88
492.527	532.88
492.745	522.88
492.963	520.88
493.18	499.88
493.398	524.88
493.615	544.88
493.833	540.88
494.05	550.88
494.268	553.88
494.485	533.88
494.703	545.88
494.92	537.88
495.138	552.88
495.355	552.88
495.573	548.88
495.79	539.88
496.008	546.88
496.225	539.88
496.442	528.88
496.66	551.88
496.877	556.88
497.094	565.88
497.312	558.88
497.529	574.88
497.746	605.88
497.963	625.88
498.181	632.88
498.398	628.88
498.615	649.88
498.832	661.88
499.049	688.88
499.267	746.88
499.484	793.88
499.701	848.88
499.918	892.88
500.135	985.88
500.352	1048.88
500.569	1091.88
500.786	1072.88
501.003	1064.88
501.22	972.88
501.437	899.88
501.654	846.88
501.871	792.88
502.088	740.88
502.305	730.88
502.522	688.88
502.739	675.88
502.956	652.88
503.172	612.88
503.389	605.88
503.606	595.88
503.823	590.88
504.04	579.88
504.256	577.88
504.473	583.88
504.69	575.88
504.907	602.88
505.123	573.88
505.34	549.88
505.557	540.88
505.773	487.88
505.99	522.88
506.207	500.88
506.423	508.88
506.64	508.88
506.856	506.88
507.073	482.88
507.289	496.88
507.506	492.88
507.722	497.88
507.939	516.88
508.155	515.88
508.372	505.88
508.588	469.88
508.805	465.88
509.021	455.88
509.238	475.88
509.454	477.88
509.67	469.88
509.887	473.88
510.103	469.88
510.319	478.88
510.536	534.88
510.752	748.88
510.968	618.88
511.184	493.88
511.401	444.88
511.617	425.88
511.833	467.88
512.049	453.88
512.265	457.88
512.481	436.88
512.698	435.88
512.914	451.88
513.13	446.88
513.346	448.88
513.562	442.88
513.778	463.88
513.994	439.88
514.21	462.88
514.426	470.88
514.642	474.88
514.858	487.88
515.074	504.88
515.29	567.88
515.506	715.88
515.721	611.88
515.937	525.88
516.153	524.88
516.369	493.88
516.585	504.88
516.801	486.88
517.016	530.88
517.232	530.88
517.448	527.88
517.664	546.88
517.879	545.88
518.095	536.88
518.311	535.88
518.527	512.88
518.742	516.88
518.958	514.88
519.173	505.88
519.389	485.88
519.605	482.88
519.82	488.88
520.036	471.88
520.251	457.88
520.467	478.88
520.682	470.88
520.898	460.88
521.113	481.88
521.329	501.88
521.544	498.88
521.76	582.88
521.975	848.88
522.19	850.88
522.406	546.88
522.621	478.88
522.836	483.88
523.052	432.88
523.267	444.88
523.482	436.88
523.698	383.88
523.913	415.88
524.128	402.88
524.343	414.88
524.559	398.88
524.774	397.88
524.989	401.88
525.204	418.88
525.419	437.88
525.634	393.88
525.849	398.88
526.064	395.88
526.28	405.88
526.495	407.88
526.71	392.88
526.925	383.88
527.14	397.88
527.355	388.88
527.57	407.88
527.785	385.88
527.999	385.88
528.214	394.88
528.429	405.88
528.644	405.88
528.859	399.88
529.074	388.88
529.289	382.88
529.503	419.88
529.718	423.88
529.933	411.88
530.148	374.88
530.363	400.88
530.577	385.88
530.792	376.88
531.007	375.88
531.221	390.88
531.436	382.88
531.651	377.88
531.865	390.88
532.08	395.88
532.295	388.88
532.509	379.88
532.724	378.88
532.938	384.88
533.153	374.88
533.367	405.88
533.582	375.88
533.796	380.88
534.011	381.88
534.225	375.88
534.44	364.88
534.654	390.88
534.868	386.88
535.083	383.88
535.297	388.88
535.511	376.88
535.726	381.88
535.94	384.88
536.154	380.88
536.369	370.88
536.583	355.88
536.797	364.88
537.011	361.88
537.225	378.88
537.44	386.88
537.654	362.88
537.868	356.88
538.082	352.88
538.296	364.88
538.51	352.88
538.724	366.88
538.938	370.88
539.153	353.88
539.367	356.88
539.581	354.88
539.795	360.88
540.009	377.88
540.222	370.88
540.436	368.88
540.65	362.88
540.864	368.88
541.078	356.88
541.292	362.88
541.506	362.88
541.72	348.88
541.934	382.88
542.147	348.88
542.361	362.88
542.575	353.88
542.789	352.88
543.002	369.88
543.216	352.88
543.43	376.88
543.644	377.88
543.857	370.88
544.071	365.88
544.285	365.88
544.498	368.88
544.712	366.88
544.925	369.88
545.139	337.88
545.352	353.88
545.566	364.88
545.779	372.88
545.993	378.88
546.206	378.88
546.42	379.88
546.633	354.88
546.847	368.88
547.06	350.88
547.274	370.88
547.487	355.88
547.7	344.88
547.914	358.88
548.127	354.88
548.34	368.88
548.554	371.88
548.767	364.88
548.98	360.88
549.193	360.88
549.407	371.88
549.62	363.88
549.833	357.88
550.046	378.88
550.259	352.88
550.473	369.88
550.686	363.88
550.899	358.88
551.112	379.88
551.325	364.88
551.538	351.88
551.751	368.88
551.964	360.88
552.177	342.88
552.39	365.88
552.603	348.88
552.816	377.88
553.029	378.88
553.242	391.88
553.455	387.88
553.667	381.88
553.88	376.88
554.093	374.88
554.306	378.88
554.519	390.88
554.732	355.88
554.944	365.88
555.157	357.88
555.37	341.88
555.583	341.88
555.795	342.88
556.008	313.88
556.221	329.88
556.433	324.88
556.646	334.88
556.859	326.88
557.071	328.88
557.284	324.88
557.496	317.88
557.709	330.88
557.921	311.88
558.134	325.88
558.346	314.88
558.559	322.88
558.771	300.88
558.984	324.88
559.196	316.88
559.409	325.88
559.621	310.88
559.833	328.88
560.046	311.88
560.258	306.88
560.47	298.88
560.683	312.88
560.895	292.88
561.107	329.88
561.32	310.88
561.532	312.88
561.744	309.88
561.956	313.88
562.168	301.88
562.381	312.88
562.593	315.88
562.805	316.88
563.017	314.88
563.229	316.88
563.441	323.88
563.653	322.88
563.865	321.88
564.077	322.88
564.289	345.88
564.501	334.88
564.713	335.88
564.925	340.88
565.137	336.88
565.349	337.88
565.561	358.88
565.773	368.88
565.985	358.88
566.197	378.88
566.408	394.88
566.62	447.88
566.832	459.88
567.044	462.88
567.255	472.88
567.467	467.88
567.679	475.88
567.891	505.88
568.102	516.88
568.314	498.88
568.526	461.88
568.737	425.88
568.949	413.88
569.161	372.88
569.372	366.88
569.584	357.88
569.795	356.88
570.007	330.88
570.218	345.88
570.43	340.88
570.641	337.88
570.853	342.88
571.064	341.88
571.276	312.88
571.487	299.88
571.698	327.88
571.91	295.88
572.121	307.88
572.333	310.88
572.544	298.88
572.755	310.88
572.966	308.88
573.178	289.88
573.389	290.88
573.6	289.88
573.811	273.88
574.023	290.88
574.234	270.88
574.445	278.88
574.656	288.88
574.867	278.88
575.078	278.88
575.289	282.88
575.501	291.88
575.712	259.88
575.923	271.88
576.134	266.88
576.345	270.88
576.556	262.88
576.767	276.88
576.978	265.88
577.188	267.88
577.399	267.88
577.61	275.88
577.821	264.88
578.032	249.88
578.243	279.88
578.454	375.88
578.665	308.88
578.875	256.88
579.086	261.88
579.297	282.88
579.508	276.88
579.718	246.88
579.929	259.88
580.14	256.88
580.35	249.88
580.561	249.88
580.772	246.88
580.982	256.88
581.193	261.88
581.403	260.88
581.614	255.88
581.825	240.88
582.035	240.88
582.246	245.88
582.456	256.88
582.667	244.88
582.877	243.88
583.087	253.88
583.298	241.88
583.508	248.88
583.719	246.88
583.929	252.88
584.139	256.88
584.35	246.88
584.56	243.88
584.77	238.88
584.981	259.88
585.191	240.88
585.401	226.88
585.611	258.88
585.821	238.88
586.032	247.88
586.242	233.88
586.452	246.88
586.662	250.88
586.872	232.88
587.082	247.88
587.292	248.88
587.502	261.88
587.713	251.88
587.923	248.88
588.133	236.88
588.343	245.88
588.553	251.88
588.762	248.88
588.972	251.88
589.182	294.88
589.392	287.88
589.602	249.88
589.812	276.88
590.022	260.88
590.232	254.88
590.441	266.88
590.651	245.88
590.861	251.88
591.071	230.88
591.281	233.88
591.49	275.88
591.7	265.88
591.91	260.88
592.119	266.88
592.329	266.88
592.539	270.88
592.748	278.88
592.958	283.88
593.167	271.88
593.377	288.88
593.587	313.88
593.796	294.88
594.006	278.88
594.215	275.88
594.424	295.88
594.634	285.88
594.843	289.88
595.053	260.88
595.262	265.88
595.472	282.88
595.681	249.88
595.89	256.88
596.1	229.88
596.309	240.88
596.518	241.88
596.727	243.88
596.937	240.88
597.146	244.88
597.355	238.88
597.564	235.88
597.774	238.88
597.983	228.88
598.192	232.88
598.401	232.88
598.61	206.88
598.819	218.88
599.028	251.88
599.237	217.88
599.446	228.88
599.655	232.88
599.864	198.88
600.073	224.88
600.282	222.88
600.491	224.88
600.7	225.88
600.909	217.88
601.118	200.88
601.327	208.88
601.536	212.88
601.745	220.88
601.953	217.88
602.162	222.88
602.371	198.88
602.58	221.88
602.789	210.88
602.997	214.88
603.206	211.88
603.415	219.88
603.623	206.88
603.832	211.88
604.041	207.88
604.249	206.88
604.458	211.88
604.666	215.88
604.875	202.88
605.084	196.88
605.292	205.88
605.501	218.88
605.709	204.88
605.918	193.88
606.126	203.88
606.334	222.88
606.543	220.88
606.751	210.88
606.96	194.88
607.168	198.88
607.376	197.88
607.585	207.88
607.793	203.88
608.001	203.88
608.21	203.88
608.418	197.88
608.626	206.88
608.834	210.88
609.043	206.88
609.251	207.88
609.459	196.88
609.667	199.88
609.875	202.88
610.083	205.88
610.291	200.88
610.499	193.88
610.707	195.88
610.916	206.88
611.124	221.88
611.332	195.88
611.54	206.88
611.748	210.88
611.955	207.88
612.163	208.88
612.371	196.88
612.579	211.88
612.787	201.88
612.995	212.88
613.203	202.88
613.411	182.88
613.618	192.88
613.826	209.88
614.034	201.88
614.242	217.88
614.449	205.88
614.657	185.88
614.865	176.88
615.072	197.88
615.28	188.88
615.488	183.88
615.695	207.88
615.903	190.88
616.111	195.88
616.318	220.88
616.526	200.88
616.733	217.88
616.941	198.88
617.148	188.88
617.356	212.88
617.563	199.88
617.771	180.88
617.978	189.88
618.185	189.88
618.393	192.88
618.6	194.88
618.807	201.88
619.015	198.88
619.222	193.88
619.429	191.88
619.637	189.88
619.844	199.88
620.051	191.88
620.258	198.88
620.466	189.88
620.673	178.88
620.88	184.88
621.087	183.88
621.294	187.88
621.501	172.88
621.708	174.88
621.915	188.88
622.122	206.88
622.329	192.88
622.536	196.88
622.743	181.88
622.95	186.88
623.157	201.88
623.364	191.88
623.571	193.88
623.778	191.88
623.985	206.88
624.192	172.88
624.399	168.88
624.606	181.88
624.812	172.88
625.019	188.88
625.226	178.88
625.433	183.88
625.639	189.88
625.846	203.88
626.053	173.88
626.259	190.88
626.466	193.88
626.673	188.88
626.879	171.88
627.086	182.88
627.293	189.88
627.499	186.88
627.706	184.88
627.912	165.88
628.119	172.88
628.325	156.88
628.532	179.88
628.738	178.88
628.945	188.88
629.151	174.88
629.357	182.88
629.564	160.88
629.77	174.88
629.976	168.88
630.183	173.88
630.389	160.88
630.595	176.88
630.802	163.88
631.008	168.88
631.214	172.88
631.42	170.88
631.627	170.88
631.833	163.88
632.039	165.88
632.245	159.88
632.451	176.88
632.657	146.88
632.863	172.88
633.069	166.88
633.275	145.88
633.481	168.88
633.688	176.88
633.893	169.88
634.099	159.88
634.305	151.88
634.511	153.88
634.717	147.88
634.923	157.88
635.129	139.88
635.335	166.88
635.541	173.88
635.747	156.88
635.952	157.88
636.158	157.88
636.364	169.88
636.57	169.88
636.775	153.88
636.981	148.88
637.187	147.88
637.392	165.88
637.598	168.88
637.804	162.88
638.009	167.88
638.215	176.88
638.421	157.88
638.626	152.88
638.832	155.88
639.037	165.88
639.243	155.88
639.448	154.88
639.654	154.88
639.859	161.88
640.065	160.88
640.27	156.88
640.475	168.88
640.681	160.88
640.886	157.88
641.091	146.88
641.297	161.88
641.502	155.88
641.707	149.88
641.913	159.88
642.118	158.88
642.323	161.88
642.528	154.88
642.733	148.88
642.939	149.88
643.144	145.88
643.349	135.88
643.554	144.88
643.759	152.88
643.964	156.88
644.169	153.88
644.374	150.88
644.579	141.88
644.784	153.88
644.989	125.88
645.194	133.88
645.399	148.88
645.604	136.88
645.809	124.88
646.014	146.88
646.219	155.88
646.423	142.88
646.628	142.88
646.833	140.88
647.038	149.88
647.243	160.88
647.447	163.88
647.652	158.88
647.857	136.88
648.062	142.88
648.266	162.88
648.471	142.88
648.676	147.88
648.88	163.88
649.085	150.88
649.289	145.88
649.494	161.88
649.698	164.88
649.903	155.88
650.107	149.88
650.312	157.88
650.516	146.88
650.721	141.88
650.925	119.88
651.13	137.88
651.334	130.88
651.539	144.88
651.743	138.88
651.947	149.88
652.152	124.88
652.356	123.88
652.56	131.88
652.764	129.88
652.969	155.88
653.173	126.88
653.377	133.88
653.581	135.88
653.785	135.88
653.99	134.88
654.194	126.88
654.398	133.88
654.602	130.88
654.806	137.88
655.01	116.88
655.214	139.88
655.418	127.88
655.622	129.88
655.826	124.88
656.03	128.88
656.234	117.88
656.438	127.88
656.642	134.88
656.846	136.88
657.049	109.88
657.253	120.88
657.457	117.88
657.661	108.88
657.865	116.88
658.068	101.88
658.272	113.88
658.476	108.88
658.68	95.88
658.883	92.88
659.087	99.88
659.291	87.88
659.494	100.88
659.698	90.88
659.901	92.88
660.105	95.88
660.309	83.88
660.512	83.88
660.716	95.88
660.919	85.88
661.123	98.88
661.326	88.88
661.53	76.88
661.733	109.88
661.936	91.88
662.14	85.88
662.343	93.88
662.546	82.88
662.75	96.88
662.953	85.88
663.156	84.88
663.36	81.88
663.563	99.88
663.766	73.88
663.969	76.88
664.173	91.88
664.376	93.88
664.579	73.88
664.782	79.88
664.985	60.88
665.188	84.88
665.391	68.88
665.594	90.88
665.797	87.88
666	91.88
666.203	84.88
666.406	84.88
666.609	91.88
666.812	77.88
667.015	83.88
667.218	102.88
667.421	76.88
667.624	70.88
667.827	77.88
668.03	90.88
668.232	77.88
668.435	92.88
668.638	74.88
668.841	88.88
669.043	72.88
669.246	82.88
669.449	90.88
669.651	81.88
669.854	94.88
670.057	97.88
670.259	79.88
670.462	82.88
670.665	79.88
670.867	90.88
671.07	86.88
671.272	74.88
671.475	84.88
671.677	78.88
671.88	81.88
672.082	101.88
672.284	88.88
672.487	91.88
672.689	85.88
672.892	79.88
