Data from 1984.PennyLincolnUp.Lamp.En5.5.200Scan.071819.P1_HRD10591_16-58-45-968.txt Node
Date: Thu Jul 18 16:58:45 EDT 2019
User: cochatt
Spectrometer: HR+D1059
Trigger mode: 1
Integration Time (sec): 1.000000E-1
Scans to average: 1
Electric dark correction enabled: true
Nonlinearity correction enabled: false
Boxcar width: 0
XAxis mode: Wavelengths
Number of Pixels in Spectrum: 2048
>>>>>Begin Spectral Data<<<<<
223.165	-18.62
223.4	-18.62
223.635	-18.62
223.869	-23.62
224.104	-10.62
224.338	-13.62
224.573	-11.62
224.808	-15.62
225.042	-8.62
225.277	2.38
225.511	-6.62
225.746	2.38
225.98	-3.62
226.215	11.38
226.449	24.38
226.683	25.38
226.918	28.38
227.152	18.38
227.387	29.38
227.621	26.38
227.856	41.38
228.09	42.38
228.324	62.38
228.559	52.38
228.793	62.38
229.027	90.38
229.262	85.38
229.496	91.38
229.73	111.38
229.964	118.38
230.199	97.38
230.433	108.38
230.667	88.38
230.901	99.38
231.136	96.38
231.37	101.38
231.604	105.38
231.838	92.38
232.072	112.38
232.306	98.38
232.541	106.38
232.775	113.38
233.009	115.38
233.243	104.38
233.477	112.38
233.711	102.38
233.945	116.38
234.179	112.38
234.413	106.38
234.647	116.38
234.881	109.38
235.115	93.38
235.349	118.38
235.583	117.38
235.817	102.38
236.051	113.38
236.285	99.38
236.519	114.38
236.753	130.38
236.987	123.38
237.221	138.38
237.455	164.38
237.689	140.38
237.922	110.38
238.156	105.38
238.39	122.38
238.624	132.38
238.858	120.38
239.091	114.38
239.325	103.38
239.559	101.38
239.793	117.38
240.027	118.38
240.26	119.38
240.494	132.38
240.728	117.38
240.961	128.38
241.195	121.38
241.429	123.38
241.662	113.38
241.896	121.38
242.13	127.38
242.363	106.38
242.597	128.38
242.83	140.38
243.064	133.38
243.298	135.38
243.531	134.38
243.765	130.38
243.998	132.38
244.232	129.38
244.465	132.38
244.699	147.38
244.932	129.38
245.166	127.38
245.399	136.38
245.633	141.38
245.866	131.38
246.099	129.38
246.333	136.38
246.566	144.38
246.8	147.38
247.033	139.38
247.266	141.38
247.5	148.38
247.733	130.38
247.966	154.38
248.2	163.38
248.433	141.38
248.666	135.38
248.899	162.38
249.133	186.38
249.366	166.38
249.599	162.38
249.832	161.38
250.066	163.38
250.299	168.38
250.532	185.38
250.765	190.38
250.998	185.38
251.231	172.38
251.465	170.38
251.698	162.38
251.931	182.38
252.164	178.38
252.397	173.38
252.63	155.38
252.863	170.38
253.096	174.38
253.329	181.38
253.562	181.38
253.795	192.38
254.028	180.38
254.261	182.38
254.494	190.38
254.727	187.38
254.96	218.38
255.193	216.38
255.426	209.38
255.659	186.38
255.892	224.38
256.124	231.38
256.357	232.38
256.59	201.38
256.823	207.38
257.056	199.38
257.289	210.38
257.521	201.38
257.754	182.38
257.987	180.38
258.22	189.38
258.452	157.38
258.685	189.38
258.918	187.38
259.151	182.38
259.383	190.38
259.616	193.38
259.849	201.38
260.081	200.38
260.314	208.38
260.547	194.38
260.779	206.38
261.012	189.38
261.244	202.38
261.477	195.38
261.71	179.38
261.942	196.38
262.175	182.38
262.407	193.38
262.64	190.38
262.872	205.38
263.105	192.38
263.337	192.38
263.57	182.38
263.802	213.38
264.035	201.38
264.267	208.38
264.499	206.38
264.732	192.38
264.964	189.38
265.197	203.38
265.429	195.38
265.661	193.38
265.894	206.38
266.126	209.38
266.358	190.38
266.591	194.38
266.823	212.38
267.055	209.38
267.287	201.38
267.52	198.38
267.752	202.38
267.984	213.38
268.216	195.38
268.448	216.38
268.681	211.38
268.913	240.38
269.145	242.38
269.377	252.38
269.609	243.38
269.841	222.38
270.073	230.38
270.306	252.38
270.538	265.38
270.77	245.38
271.002	242.38
271.234	229.38
271.466	233.38
271.698	246.38
271.93	258.38
272.162	261.38
272.394	255.38
272.626	258.38
272.858	248.38
273.09	240.38
273.322	229.38
273.553	245.38
273.785	233.38
274.017	230.38
274.249	249.38
274.481	231.38
274.713	243.38
274.945	227.38
275.176	235.38
275.408	240.38
275.64	231.38
275.872	237.38
276.104	260.38
276.335	235.38
276.567	228.38
276.799	233.38
277.031	262.38
277.262	269.38
277.494	263.38
277.726	279.38
277.957	244.38
278.189	258.38
278.421	229.38
278.652	254.38
278.884	238.38
279.115	243.38
279.347	233.38
279.579	256.38
279.81	260.38
280.042	254.38
280.273	257.38
280.505	262.38
280.736	256.38
280.968	271.38
281.199	260.38
281.431	267.38
281.662	237.38
281.894	261.38
282.125	268.38
282.356	286.38
282.588	271.38
282.819	281.38
283.051	249.38
283.282	268.38
283.513	268.38
283.745	261.38
283.976	265.38
284.207	250.38
284.439	261.38
284.67	260.38
284.901	272.38
285.132	281.38
285.364	266.38
285.595	248.38
285.826	264.38
286.057	261.38
286.288	270.38
286.52	257.38
286.751	252.38
286.982	250.38
287.213	279.38
287.444	263.38
287.675	275.38
287.906	270.38
288.138	292.38
288.369	275.38
288.6	266.38
288.831	284.38
289.062	282.38
289.293	288.38
289.524	291.38
289.755	262.38
289.986	289.38
290.217	279.38
290.448	278.38
290.679	278.38
290.91	274.38
291.141	274.38
291.371	273.38
291.602	280.38
291.833	278.38
292.064	267.38
292.295	276.38
292.526	267.38
292.757	262.38
292.987	273.38
293.218	286.38
293.449	294.38
293.68	277.38
293.91	292.38
294.141	276.38
294.372	296.38
294.603	285.38
294.833	274.38
295.064	269.38
295.295	270.38
295.525	273.38
295.756	283.38
295.987	294.38
296.217	306.38
296.448	296.38
296.679	285.38
296.909	312.38
297.14	294.38
297.37	307.38
297.601	282.38
297.831	295.38
298.062	278.38
298.292	291.38
298.523	289.38
298.753	292.38
298.984	286.38
299.214	300.38
299.445	309.38
299.675	284.38
299.905	294.38
300.136	288.38
300.366	318.38
300.597	298.38
300.827	297.38
301.057	311.38
301.288	324.38
301.518	315.38
301.748	301.38
301.979	308.38
302.209	315.38
302.439	331.38
302.669	331.38
302.9	323.38
303.13	309.38
303.36	309.38
303.59	313.38
303.82	314.38
304.051	304.38
304.281	314.38
304.511	296.38
304.741	320.38
304.971	310.38
305.201	306.38
305.431	289.38
305.661	312.38
305.891	306.38
306.121	316.38
306.352	314.38
306.582	309.38
306.812	308.38
307.042	308.38
307.272	315.38
307.502	298.38
307.731	331.38
307.961	326.38
308.191	309.38
308.421	311.38
308.651	305.38
308.881	318.38
309.111	316.38
309.341	313.38
309.571	315.38
309.8	307.38
310.03	337.38
310.26	331.38
310.49	333.38
310.72	351.38
310.949	335.38
311.179	336.38
311.409	318.38
311.639	345.38
311.868	345.38
312.098	340.38
312.328	343.38
312.557	348.38
312.787	340.38
313.017	349.38
313.246	347.38
313.476	340.38
313.706	349.38
313.935	333.38
314.165	361.38
314.394	353.38
314.624	354.38
314.853	352.38
315.083	352.38
315.312	337.38
315.542	331.38
315.771	340.38
316.001	342.38
316.23	321.38
316.46	335.38
316.689	337.38
316.919	322.38
317.148	349.38
317.377	333.38
317.607	338.38
317.836	340.38
318.065	356.38
318.295	348.38
318.524	341.38
318.753	338.38
318.983	353.38
319.212	347.38
319.441	348.38
319.67	353.38
319.9	342.38
320.129	353.38
320.358	355.38
320.587	328.38
320.816	342.38
321.046	354.38
321.275	349.38
321.504	348.38
321.733	368.38
321.962	358.38
322.191	366.38
322.42	359.38
322.649	366.38
322.878	388.38
323.108	394.38
323.337	387.38
323.566	397.38
323.795	424.38
324.024	448.38
324.253	517.38
324.482	670.38
324.71	978.38
324.939	1356.38
325.168	1144.38
325.397	661.38
325.626	492.38
325.855	436.38
326.084	426.38
326.313	430.38
326.542	396.38
326.77	444.38
326.999	507.38
327.228	639.38
327.457	865.38
327.686	1034.38
327.914	718.38
328.143	560.38
328.372	494.38
328.6	486.38
328.829	449.38
329.058	449.38
329.287	457.38
329.515	444.38
329.744	451.38
329.972	452.38
330.201	477.38
330.43	509.38
330.658	492.38
330.887	486.38
331.115	483.38
331.344	453.38
331.572	435.38
331.801	438.38
332.03	433.38
332.258	432.38
332.486	443.38
332.715	427.38
332.943	428.38
333.172	425.38
333.4	437.38
333.629	471.38
333.857	484.38
334.085	491.38
334.314	552.38
334.542	574.38
334.771	572.38
334.999	525.38
335.227	485.38
335.455	446.38
335.684	427.38
335.912	452.38
336.14	413.38
336.369	417.38
336.597	405.38
336.825	408.38
337.053	414.38
337.281	409.38
337.51	394.38
337.738	435.38
337.966	397.38
338.194	394.38
338.422	406.38
338.65	418.38
338.878	398.38
339.106	386.38
339.334	386.38
339.562	383.38
339.79	371.38
340.018	372.38
340.246	386.38
340.474	381.38
340.702	390.38
340.93	371.38
341.158	392.38
341.386	382.38
341.614	385.38
341.842	395.38
342.07	368.38
342.298	378.38
342.526	393.38
342.754	374.38
342.981	381.38
343.209	389.38
343.437	402.38
343.665	406.38
343.893	438.38
344.12	422.38
344.348	416.38
344.576	389.38
344.804	387.38
345.031	397.38
345.259	379.38
345.487	384.38
345.714	390.38
345.942	393.38
346.17	377.38
346.397	375.38
346.625	357.38
346.853	370.38
347.08	358.38
347.308	364.38
347.535	384.38
347.763	363.38
347.99	357.38
348.218	387.38
348.445	388.38
348.673	392.38
348.9	370.38
349.128	371.38
349.355	355.38
349.583	354.38
349.81	364.38
350.037	346.38
350.265	350.38
350.492	361.38
350.72	376.38
350.947	366.38
351.174	372.38
351.402	360.38
351.629	359.38
351.856	366.38
352.083	363.38
352.311	362.38
352.538	346.38
352.765	359.38
352.992	375.38
353.22	365.38
353.447	344.38
353.674	318.38
353.901	354.38
354.128	349.38
354.355	344.38
354.583	341.38
354.81	338.38
355.037	359.38
355.264	346.38
355.491	346.38
355.718	342.38
355.945	356.38
356.172	347.38
356.399	339.38
356.626	363.38
356.853	338.38
357.08	355.38
357.307	355.38
357.534	338.38
357.761	321.38
357.988	349.38
358.215	340.38
358.441	324.38
358.668	349.38
358.895	344.38
359.122	356.38
359.349	349.38
359.576	357.38
359.802	364.38
360.029	374.38
360.256	375.38
360.483	370.38
360.709	334.38
360.936	356.38
361.163	352.38
361.39	360.38
361.616	365.38
361.843	345.38
362.07	337.38
362.296	350.38
362.523	343.38
362.749	357.38
362.976	349.38
363.203	344.38
363.429	352.38
363.656	341.38
363.882	362.38
364.109	339.38
364.335	352.38
364.562	326.38
364.788	334.38
365.015	337.38
365.241	312.38
365.468	349.38
365.694	349.38
365.92	378.38
366.147	337.38
366.373	334.38
366.599	330.38
366.826	349.38
367.052	342.38
367.278	340.38
367.505	345.38
367.731	348.38
367.957	332.38
368.184	330.38
368.41	338.38
368.636	339.38
368.862	368.38
369.089	349.38
369.315	345.38
369.541	345.38
369.767	353.38
369.993	350.38
370.219	350.38
370.445	340.38
370.672	360.38
370.898	356.38
371.124	350.38
371.35	363.38
371.576	343.38
371.802	370.38
372.028	338.38
372.254	364.38
372.48	360.38
372.706	369.38
372.932	361.38
373.158	359.38
373.384	361.38
373.61	346.38
373.835	366.38
374.061	363.38
374.287	345.38
374.513	350.38
374.739	362.38
374.965	355.38
375.191	370.38
375.416	375.38
375.642	369.38
375.868	365.38
376.094	374.38
376.319	343.38
376.545	356.38
376.771	356.38
376.997	348.38
377.222	329.38
377.448	352.38
377.674	365.38
377.899	324.38
378.125	328.38
378.35	322.38
378.576	353.38
378.802	359.38
379.027	340.38
379.253	332.38
379.478	345.38
379.704	348.38
379.929	348.38
380.155	350.38
380.38	357.38
380.606	337.38
380.831	330.38
381.057	350.38
381.282	331.38
381.507	334.38
381.733	369.38
381.958	349.38
382.184	352.38
382.409	362.38
382.634	362.38
382.86	338.38
383.085	352.38
383.31	369.38
383.535	371.38
383.761	350.38
383.986	352.38
384.211	372.38
384.436	401.38
384.662	399.38
384.887	385.38
385.112	384.38
385.337	388.38
385.562	371.38
385.787	395.38
386.013	411.38
386.238	402.38
386.463	394.38
386.688	388.38
386.913	394.38
387.138	390.38
387.363	403.38
387.588	397.38
387.813	398.38
388.038	388.38
388.263	394.38
388.488	385.38
388.713	398.38
388.938	394.38
389.163	381.38
389.387	383.38
389.612	389.38
389.837	395.38
390.062	399.38
390.287	378.38
390.512	381.38
390.736	404.38
390.961	417.38
391.186	402.38
391.411	408.38
391.636	406.38
391.86	432.38
392.085	413.38
392.31	420.38
392.534	417.38
392.759	405.38
392.984	415.38
393.208	407.38
393.433	394.38
393.658	405.38
393.882	391.38
394.107	371.38
394.331	411.38
394.556	405.38
394.78	411.38
395.005	417.38
395.229	416.38
395.454	442.38
395.678	422.38
395.903	434.38
396.127	434.38
396.352	430.38
396.576	422.38
396.801	415.38
397.025	416.38
397.249	427.38
397.474	417.38
397.698	418.38
397.922	449.38
398.147	450.38
398.371	463.38
398.595	447.38
398.82	487.38
399.044	486.38
399.268	497.38
399.492	578.38
399.717	610.38
399.941	613.38
400.165	625.38
400.389	575.38
400.613	514.38
400.837	492.38
401.062	488.38
401.286	452.38
401.51	467.38
401.734	460.38
401.958	470.38
402.182	468.38
402.406	477.38
402.63	484.38
402.854	512.38
403.078	496.38
403.302	482.38
403.526	492.38
403.75	509.38
403.974	514.38
404.198	486.38
404.422	509.38
404.645	509.38
404.869	548.38
405.093	544.38
405.317	566.38
405.541	574.38
405.765	553.38
405.988	503.38
406.212	526.38
406.436	535.38
406.66	556.38
406.883	517.38
407.107	574.38
407.331	548.38
407.555	626.38
407.778	634.38
408.002	593.38
408.226	578.38
408.449	528.38
408.673	517.38
408.896	523.38
409.12	547.38
409.344	553.38
409.567	497.38
409.791	524.38
410.014	531.38
410.238	479.38
410.461	461.38
410.685	491.38
410.908	512.38
411.132	516.38
411.355	524.38
411.578	523.38
411.802	480.38
412.025	514.38
412.249	523.38
412.472	519.38
412.695	524.38
412.919	536.38
413.142	492.38
413.365	494.38
413.589	520.38
413.812	486.38
414.035	450.38
414.258	481.38
414.482	448.38
414.705	468.38
414.928	464.38
415.151	445.38
415.374	460.38
415.597	456.38
415.821	456.38
416.044	449.38
416.267	439.38
416.49	448.38
416.713	463.38
416.936	456.38
417.159	443.38
417.382	450.38
417.605	469.38
417.828	444.38
418.051	461.38
418.274	458.38
418.497	444.38
418.72	476.38
418.943	450.38
419.166	467.38
419.389	512.38
419.611	485.38
419.834	507.38
420.057	486.38
420.28	506.38
420.503	510.38
420.726	464.38
420.948	474.38
421.171	489.38
421.394	496.38
421.617	467.38
421.839	450.38
422.062	475.38
422.285	481.38
422.507	514.38
422.73	535.38
422.953	550.38
423.175	482.38
423.398	472.38
423.621	480.38
423.843	500.38
424.066	489.38
424.288	485.38
424.511	512.38
424.733	533.38
424.956	558.38
425.178	544.38
425.401	556.38
425.623	571.38
425.846	510.38
426.068	493.38
426.291	474.38
426.513	484.38
426.735	453.38
426.958	508.38
427.18	539.38
427.402	609.38
427.625	658.38
427.847	606.38
428.069	540.38
428.292	505.38
428.514	482.38
428.736	448.38
428.958	449.38
429.181	456.38
429.403	430.38
429.625	407.38
429.847	430.38
430.069	474.38
430.292	476.38
430.514	444.38
430.736	426.38
430.958	444.38
431.18	406.38
431.402	417.38
431.624	414.38
431.846	411.38
432.068	414.38
432.29	428.38
432.512	422.38
432.734	426.38
432.956	437.38
433.178	430.38
433.4	420.38
433.622	417.38
433.844	420.38
434.066	406.38
434.287	404.38
434.509	428.38
434.731	472.38
434.953	464.38
435.175	462.38
435.397	480.38
435.618	464.38
435.84	469.38
436.062	517.38
436.284	546.38
436.505	473.38
436.727	451.38
436.949	443.38
437.17	427.38
437.392	433.38
437.614	432.38
437.835	446.38
438.057	498.38
438.278	556.38
438.5	545.38
438.721	606.38
438.943	583.38
439.165	489.38
439.386	459.38
439.608	464.38
439.829	470.38
440.05	466.38
440.272	493.38
440.493	462.38
440.715	458.38
440.936	466.38
441.158	437.38
441.379	432.38
441.6	463.38
441.822	470.38
442.043	490.38
442.264	531.38
442.486	553.38
442.707	509.38
442.928	469.38
443.149	491.38
443.371	493.38
443.592	525.38
443.813	553.38
444.034	588.38
444.255	510.38
444.476	499.38
444.698	501.38
444.919	520.38
445.14	603.38
445.361	524.38
445.582	498.38
445.803	521.38
446.024	591.38
446.245	566.38
446.466	525.38
446.687	469.38
446.908	464.38
447.129	450.38
447.35	432.38
447.571	421.38
447.792	416.38
448.013	413.38
448.234	421.38
448.455	429.38
448.675	538.38
448.896	595.38
449.117	505.38
449.338	473.38
449.559	531.38
449.779	612.38
450	501.38
450.221	442.38
450.442	439.38
450.662	408.38
450.883	403.38
451.104	409.38
451.324	394.38
451.545	410.38
451.766	389.38
451.986	380.38
452.207	384.38
452.428	391.38
452.648	402.38
452.869	399.38
453.089	359.38
453.31	388.38
453.53	378.38
453.751	377.38
453.971	387.38
454.192	366.38
454.412	382.38
454.633	380.38
454.853	384.38
455.073	385.38
455.294	373.38
455.514	425.38
455.734	401.38
455.955	371.38
456.175	355.38
456.395	374.38
456.616	363.38
456.836	352.38
457.056	372.38
457.276	356.38
457.497	373.38
457.717	348.38
457.937	362.38
458.157	384.38
458.377	376.38
458.598	378.38
458.818	428.38
459.038	454.38
459.258	483.38
459.478	437.38
459.698	428.38
459.918	422.38
460.138	432.38
460.358	457.38
460.578	469.38
460.798	445.38
461.018	461.38
461.238	435.38
461.458	461.38
461.678	472.38
461.898	440.38
462.118	463.38
462.338	488.38
462.558	489.38
462.777	502.38
462.997	526.38
463.217	568.38
463.437	566.38
463.657	506.38
463.876	497.38
464.096	512.38
464.316	502.38
464.536	523.38
464.755	512.38
464.975	482.38
465.195	482.38
465.414	484.38
465.634	451.38
465.854	444.38
466.073	436.38
466.293	419.38
466.512	388.38
466.732	405.38
466.951	404.38
467.171	394.38
467.391	407.38
467.61	404.38
467.829	420.38
468.049	401.38
468.268	392.38
468.488	404.38
468.707	392.38
468.927	374.38
469.146	398.38
469.365	388.38
469.585	400.38
469.804	389.38
470.023	402.38
470.243	421.38
470.462	404.38
470.681	432.38
470.901	430.38
471.12	417.38
471.339	422.38
471.558	415.38
471.777	399.38
471.997	393.38
472.216	408.38
472.435	448.38
472.654	441.38
472.873	416.38
473.092	407.38
473.311	404.38
473.53	393.38
473.749	396.38
473.968	414.38
474.187	462.38
474.406	478.38
474.625	410.38
474.844	408.38
475.063	399.38
475.282	385.38
475.501	401.38
475.72	421.38
475.939	391.38
476.158	414.38
476.377	417.38
476.596	387.38
476.814	419.38
477.033	424.38
477.252	394.38
477.471	413.38
477.69	420.38
477.908	441.38
478.127	460.38
478.346	448.38
478.564	459.38
478.783	456.38
479.002	457.38
479.22	449.38
479.439	470.38
479.658	469.38
479.876	486.38
480.095	488.38
480.313	514.38
480.532	516.38
480.751	520.38
480.969	521.38
481.188	593.38
481.406	614.38
481.624	541.38
481.843	509.38
482.061	483.38
482.28	472.38
482.498	458.38
482.717	441.38
482.935	441.38
483.153	432.38
483.372	455.38
483.59	450.38
483.808	473.38
484.027	467.38
484.245	451.38
484.463	472.38
484.681	438.38
484.9	461.38
485.118	478.38
485.336	462.38
485.554	468.38
485.772	468.38
485.99	454.38
486.209	474.38
486.427	476.38
486.645	469.38
486.863	486.38
487.081	482.38
487.299	481.38
487.517	479.38
487.735	477.38
487.953	494.38
488.171	468.38
488.389	461.38
488.607	486.38
488.825	488.38
489.043	471.38
489.261	485.38
489.479	471.38
489.696	497.38
489.914	467.38
490.132	472.38
490.35	497.38
490.568	500.38
490.786	508.38
491.003	504.38
491.221	524.38
491.439	532.38
491.657	534.38
491.874	556.38
492.092	556.38
492.31	531.38
492.527	541.38
492.745	559.38
492.963	553.38
493.18	546.38
493.398	544.38
493.615	568.38
493.833	548.38
494.05	557.38
494.268	551.38
494.485	555.38
494.703	531.38
494.92	541.38
495.138	554.38
495.355	565.38
495.573	555.38
495.79	537.38
496.008	548.38
496.225	554.38
496.442	552.38
496.66	564.38
496.877	540.38
497.094	571.38
497.312	584.38
497.529	601.38
497.746	602.38
497.963	588.38
498.181	627.38
498.398	628.38
498.615	672.38
498.832	684.38
499.049	710.38
499.267	717.38
499.484	795.38
499.701	808.38
499.918	863.38
500.135	940.38
500.352	1030.38
500.569	1067.38
500.786	1104.38
501.003	1044.38
501.22	975.38
501.437	892.38
501.654	851.38
501.871	783.38
502.088	746.38
502.305	691.38
502.522	692.38
502.739	672.38
502.956	643.38
503.172	624.38
503.389	614.38
503.606	604.38
503.823	591.38
504.04	624.38
504.256	578.38
504.473	598.38
504.69	585.38
504.907	597.38
505.123	579.38
505.34	544.38
505.557	521.38
505.773	517.38
505.99	496.38
506.207	524.38
506.423	494.38
506.64	519.38
506.856	500.38
507.073	513.38
507.289	513.38
507.506	481.38
507.722	481.38
507.939	500.38
508.155	458.38
508.372	476.38
508.588	481.38
508.805	492.38
509.021	482.38
509.238	476.38
509.454	475.38
509.67	468.38
509.887	465.38
510.103	478.38
510.319	460.38
510.536	526.38
510.752	794.38
510.968	630.38
511.184	492.38
511.401	484.38
511.617	465.38
511.833	469.38
512.049	483.38
512.265	505.38
512.481	464.38
512.698	445.38
512.914	446.38
513.13	451.38
513.346	453.38
513.562	446.38
513.778	448.38
513.994	463.38
514.21	453.38
514.426	482.38
514.642	496.38
514.858	488.38
515.074	512.38
515.29	551.38
515.506	747.38
515.721	642.38
515.937	512.38
516.153	484.38
516.369	507.38
516.585	480.38
516.801	489.38
517.016	526.38
517.232	508.38
517.448	512.38
517.664	568.38
517.879	552.38
518.095	527.38
518.311	510.38
518.527	514.38
518.742	525.38
518.958	499.38
519.173	483.38
519.389	473.38
519.605	474.38
519.82	474.38
520.036	472.38
520.251	500.38
520.467	491.38
520.682	450.38
520.898	494.38
521.113	466.38
521.329	505.38
521.544	536.38
521.76	608.38
521.975	909.38
522.19	904.38
522.406	575.38
522.621	497.38
522.836	430.38
523.052	440.38
523.267	442.38
523.482	433.38
523.698	418.38
523.913	436.38
524.128	412.38
524.343	405.38
524.559	399.38
524.774	409.38
524.989	385.38
525.204	428.38
525.419	408.38
525.634	384.38
525.849	390.38
526.064	398.38
526.28	398.38
526.495	381.38
526.71	385.38
526.925	381.38
527.14	389.38
527.355	376.38
527.57	379.38
527.785	378.38
527.999	404.38
528.214	392.38
528.429	387.38
528.644	396.38
528.859	399.38
529.074	407.38
529.289	406.38
529.503	426.38
529.718	426.38
529.933	394.38
530.148	384.38
530.363	404.38
530.577	392.38
530.792	378.38
531.007	373.38
531.221	387.38
531.436	377.38
531.651	390.38
531.865	359.38
532.08	363.38
532.295	372.38
532.509	400.38
532.724	390.38
532.938	385.38
533.153	376.38
533.367	369.38
533.582	389.38
533.796	372.38
534.011	376.38
534.225	364.38
534.44	375.38
534.654	384.38
534.868	377.38
535.083	375.38
535.297	360.38
535.511	365.38
535.726	372.38
535.94	378.38
536.154	372.38
536.369	350.38
536.583	360.38
536.797	364.38
537.011	347.38
537.225	356.38
537.44	344.38
537.654	371.38
537.868	360.38
538.082	350.38
538.296	355.38
538.51	369.38
538.724	368.38
538.938	355.38
539.153	386.38
539.367	362.38
539.581	358.38
539.795	349.38
540.009	363.38
540.222	363.38
540.436	362.38
540.65	359.38
540.864	362.38
541.078	336.38
541.292	375.38
541.506	368.38
541.72	369.38
541.934	349.38
542.147	346.38
542.361	363.38
542.575	357.38
542.789	370.38
543.002	376.38
543.216	368.38
543.43	377.38
543.644	357.38
543.857	392.38
544.071	357.38
544.285	370.38
544.498	373.38
544.712	355.38
544.925	370.38
545.139	361.38
545.352	357.38
545.566	370.38
545.779	366.38
545.993	370.38
546.206	380.38
546.42	357.38
546.633	370.38
546.847	357.38
547.06	354.38
547.274	358.38
547.487	378.38
547.7	345.38
547.914	331.38
548.127	345.38
548.34	356.38
548.554	349.38
548.767	356.38
548.98	353.38
549.193	359.38
549.407	368.38
549.62	376.38
549.833	370.38
550.046	342.38
550.259	361.38
550.473	346.38
550.686	371.38
550.899	355.38
551.112	347.38
551.325	376.38
551.538	371.38
551.751	367.38
551.964	354.38
552.177	359.38
552.39	364.38
552.603	367.38
552.816	392.38
553.029	387.38
553.242	384.38
553.455	387.38
553.667	388.38
553.88	384.38
554.093	364.38
554.306	384.38
554.519	361.38
554.732	366.38
554.944	365.38
555.157	361.38
555.37	353.38
555.583	342.38
555.795	340.38
556.008	325.38
556.221	333.38
556.433	333.38
556.646	333.38
556.859	335.38
557.071	338.38
557.284	338.38
557.496	339.38
557.709	304.38
557.921	325.38
558.134	316.38
558.346	316.38
558.559	316.38
558.771	301.38
558.984	321.38
559.196	305.38
559.409	299.38
559.621	332.38
559.833	311.38
560.046	314.38
560.258	330.38
560.47	331.38
560.683	301.38
560.895	313.38
561.107	309.38
561.32	298.38
561.532	292.38
561.744	334.38
561.956	305.38
562.168	302.38
562.381	297.38
562.593	300.38
562.805	317.38
563.017	339.38
563.229	356.38
563.441	328.38
563.653	312.38
563.865	299.38
564.077	307.38
564.289	308.38
564.501	323.38
564.713	342.38
564.925	348.38
565.137	367.38
565.349	340.38
565.561	322.38
565.773	366.38
565.985	386.38
566.197	376.38
566.408	410.38
566.62	428.38
566.832	435.38
567.044	457.38
567.255	465.38
567.467	448.38
567.679	484.38
567.891	517.38
568.102	494.38
568.314	477.38
568.526	463.38
568.737	420.38
568.949	389.38
569.161	391.38
569.372	362.38
569.584	359.38
569.795	348.38
570.007	327.38
570.218	349.38
570.43	344.38
570.641	327.38
570.853	314.38
571.064	316.38
571.276	338.38
571.487	325.38
571.698	312.38
571.91	294.38
572.121	280.38
572.333	297.38
572.544	306.38
572.755	288.38
572.966	293.38
573.178	293.38
573.389	296.38
573.6	280.38
573.811	294.38
574.023	282.38
574.234	273.38
574.445	284.38
574.656	280.38
574.867	276.38
575.078	288.38
575.289	289.38
575.501	291.38
575.712	267.38
575.923	280.38
576.134	267.38
576.345	270.38
576.556	270.38
576.767	274.38
576.978	271.38
577.188	267.38
577.399	263.38
577.61	255.38
577.821	251.38
578.032	253.38
578.243	271.38
578.454	402.38
578.665	333.38
578.875	271.38
579.086	240.38
579.297	250.38
579.508	246.38
579.718	257.38
579.929	277.38
580.14	271.38
580.35	267.38
580.561	244.38
580.772	256.38
580.982	253.38
581.193	260.38
581.403	276.38
581.614	245.38
581.825	240.38
582.035	248.38
582.246	239.38
582.456	250.38
582.667	248.38
582.877	248.38
583.087	234.38
583.298	236.38
583.508	248.38
583.719	247.38
583.929	265.38
584.139	248.38
584.35	256.38
584.56	267.38
584.77	237.38
584.981	243.38
585.191	242.38
585.401	259.38
585.611	256.38
585.821	241.38
586.032	247.38
586.242	241.38
586.452	251.38
586.662	251.38
586.872	236.38
587.082	249.38
587.292	246.38
587.502	225.38
587.713	230.38
587.923	238.38
588.133	252.38
588.343	239.38
588.553	242.38
588.762	242.38
588.972	223.38
589.182	235.38
589.392	241.38
589.602	268.38
589.812	238.38
590.022	240.38
590.232	260.38
590.441	252.38
590.651	258.38
590.861	243.38
591.071	253.38
591.281	240.38
591.49	237.38
591.7	249.38
591.91	267.38
592.119	255.38
592.329	265.38
592.539	266.38
592.748	283.38
592.958	268.38
593.167	286.38
593.377	282.38
593.587	270.38
593.796	294.38
594.006	299.38
594.215	305.38
594.424	277.38
594.634	282.38
594.843	284.38
595.053	284.38
595.262	268.38
595.472	261.38
595.681	259.38
595.89	248.38
596.1	242.38
596.309	240.38
596.518	240.38
596.727	243.38
596.937	234.38
597.146	234.38
597.355	229.38
597.564	227.38
597.774	219.38
597.983	228.38
598.192	227.38
598.401	217.38
598.61	215.38
598.819	220.38
599.028	222.38
599.237	222.38
599.446	213.38
599.655	212.38
599.864	216.38
600.073	186.38
600.282	219.38
600.491	198.38
600.7	221.38
600.909	221.38
601.118	220.38
601.327	203.38
601.536	213.38
601.745	205.38
601.953	194.38
602.162	211.38
602.371	205.38
602.58	205.38
602.789	211.38
602.997	209.38
603.206	228.38
603.415	216.38
603.623	218.38
603.832	226.38
604.041	195.38
604.249	196.38
604.458	217.38
604.666	217.38
604.875	212.38
605.084	212.38
605.292	232.38
605.501	209.38
605.709	194.38
605.918	210.38
606.126	213.38
606.334	195.38
606.543	188.38
606.751	205.38
606.96	209.38
607.168	219.38
607.376	186.38
607.585	192.38
607.793	198.38
608.001	192.38
608.21	192.38
608.418	187.38
608.626	202.38
608.834	212.38
609.043	203.38
609.251	196.38
609.459	212.38
609.667	213.38
609.875	213.38
610.083	197.38
610.291	209.38
610.499	212.38
610.707	193.38
610.916	203.38
611.124	198.38
611.332	195.38
611.54	217.38
611.748	224.38
611.955	191.38
612.163	210.38
612.371	211.38
612.579	216.38
612.787	193.38
612.995	187.38
613.203	207.38
613.411	192.38
613.618	213.38
613.826	198.38
614.034	186.38
614.242	204.38
614.449	194.38
614.657	185.38
614.865	205.38
615.072	208.38
615.28	209.38
615.488	186.38
615.695	202.38
615.903	206.38
616.111	204.38
616.318	185.38
616.526	180.38
616.733	188.38
616.941	202.38
617.148	206.38
617.356	195.38
617.563	191.38
617.771	198.38
617.978	189.38
618.185	190.38
618.393	194.38
618.6	185.38
618.807	183.38
619.015	198.38
619.222	190.38
619.429	208.38
619.637	193.38
619.844	186.38
620.051	201.38
620.258	199.38
620.466	197.38
620.673	196.38
620.88	179.38
621.087	181.38
621.294	204.38
621.501	186.38
621.708	194.38
621.915	186.38
622.122	195.38
622.329	179.38
622.536	179.38
622.743	166.38
622.95	173.38
623.157	188.38
623.364	186.38
623.571	199.38
623.778	192.38
623.985	177.38
624.192	177.38
624.399	169.38
624.606	199.38
624.812	176.38
625.019	166.38
625.226	187.38
625.433	194.38
625.639	168.38
625.846	166.38
626.053	189.38
626.259	173.38
626.466	170.38
626.673	191.38
626.879	162.38
627.086	176.38
627.293	169.38
627.499	174.38
627.706	170.38
627.912	185.38
628.119	172.38
628.325	171.38
628.532	163.38
628.738	166.38
628.945	181.38
629.151	172.38
629.357	163.38
629.564	171.38
629.77	169.38
629.976	172.38
630.183	171.38
630.389	171.38
630.595	157.38
630.802	162.38
631.008	160.38
631.214	172.38
631.42	163.38
631.627	173.38
631.833	154.38
632.039	161.38
632.245	164.38
632.451	155.38
632.657	177.38
632.863	162.38
633.069	165.38
633.275	168.38
633.481	162.38
633.688	164.38
633.893	183.38
634.099	156.38
634.305	164.38
634.511	168.38
634.717	164.38
634.923	174.38
635.129	165.38
635.335	158.38
635.541	167.38
635.747	170.38
635.952	161.38
636.158	164.38
636.364	161.38
636.57	157.38
636.775	164.38
636.981	157.38
637.187	146.38
637.392	136.38
637.598	157.38
637.804	148.38
638.009	165.38
638.215	147.38
638.421	161.38
638.626	160.38
638.832	160.38
639.037	157.38
639.243	138.38
639.448	149.38
639.654	164.38
639.859	160.38
640.065	160.38
640.27	148.38
640.475	150.38
640.681	152.38
640.886	142.38
641.091	154.38
641.297	156.38
641.502	165.38
641.707	144.38
641.913	160.38
642.118	150.38
642.323	148.38
642.528	148.38
642.733	150.38
642.939	148.38
643.144	140.38
643.349	155.38
643.554	152.38
643.759	138.38
643.964	144.38
644.169	144.38
644.374	160.38
644.579	145.38
644.784	136.38
644.989	148.38
645.194	134.38
645.399	134.38
645.604	136.38
645.809	149.38
646.014	156.38
646.219	127.38
646.423	146.38
646.628	139.38
646.833	146.38
647.038	156.38
647.243	161.38
647.447	146.38
647.652	138.38
647.857	150.38
648.062	156.38
648.266	150.38
648.471	164.38
648.676	164.38
648.88	167.38
649.085	157.38
649.289	134.38
649.494	156.38
649.698	142.38
649.903	153.38
650.107	170.38
650.312	154.38
650.516	138.38
650.721	157.38
650.925	143.38
651.13	130.38
651.334	124.38
651.539	145.38
651.743	126.38
651.947	130.38
652.152	138.38
652.356	135.38
652.56	140.38
652.764	128.38
652.969	127.38
653.173	130.38
653.377	136.38
653.581	124.38
653.785	128.38
653.99	118.38
654.194	113.38
654.398	122.38
654.602	129.38
654.806	120.38
655.01	131.38
655.214	132.38
655.418	137.38
655.622	123.38
655.826	121.38
656.03	119.38
656.234	131.38
656.438	117.38
656.642	133.38
656.846	133.38
657.049	119.38
657.253	118.38
657.457	114.38
657.661	118.38
657.865	119.38
658.068	100.38
658.272	103.38
658.476	107.38
658.68	95.38
658.883	94.38
659.087	112.38
659.291	91.38
659.494	92.38
659.698	101.38
659.901	87.38
660.105	98.38
660.309	91.38
660.512	90.38
660.716	90.38
660.919	82.38
661.123	98.38
661.326	87.38
661.53	83.38
661.733	98.38
661.936	96.38
662.14	87.38
662.343	87.38
662.546	76.38
662.75	85.38
662.953	91.38
663.156	85.38
663.36	85.38
663.563	85.38
663.766	81.38
663.969	72.38
664.173	82.38
664.376	79.38
664.579	88.38
664.782	62.38
664.985	81.38
665.188	85.38
665.391	92.38
665.594	90.38
665.797	67.38
666	84.38
666.203	81.38
666.406	77.38
666.609	84.38
666.812	98.38
667.015	74.38
667.218	77.38
667.421	86.38
667.624	90.38
667.827	68.38
668.03	86.38
668.232	64.38
668.435	87.38
668.638	82.38
668.841	81.38
669.043	78.38
669.246	94.38
669.449	81.38
669.651	84.38
669.854	78.38
670.057	83.38
670.259	91.38
670.462	91.38
670.665	77.38
670.867	80.38
671.07	78.38
671.272	93.38
671.475	76.38
671.677	89.38
671.88	79.38
672.082	92.38
672.284	88.38
672.487	91.38
672.689	78.38
672.892	76.38
