Data from 1984.PennyLincolnUp.Lamp.En5.5.200Scan.071819.P1_HRD10591_16-59-58-969.txt Node
Date: Thu Jul 18 16:59:58 EDT 2019
User: cochatt
Spectrometer: HR+D1059
Trigger mode: 1
Integration Time (sec): 1.000000E-1
Scans to average: 1
Electric dark correction enabled: true
Nonlinearity correction enabled: false
Boxcar width: 0
XAxis mode: Wavelengths
Number of Pixels in Spectrum: 2048
>>>>>Begin Spectral Data<<<<<
223.165	-19.12
223.4	-19.12
223.635	-19.12
223.869	-4.12
224.104	-14.12
224.338	-14.12
224.573	-17.12
224.808	-8.12
225.042	-15.12
225.277	-5.12
225.511	-11.12
225.746	-3.12
225.98	3.88
226.215	19.88
226.449	13.88
226.683	20.88
226.918	19.88
227.152	32.88
227.387	48.88
227.621	41.88
227.856	38.88
228.09	57.88
228.324	63.88
228.559	54.88
228.793	51.88
229.027	82.88
229.262	88.88
229.496	103.88
229.73	95.88
229.964	124.88
230.199	119.88
230.433	98.88
230.667	119.88
230.901	98.88
231.136	101.88
231.37	102.88
231.604	124.88
231.838	103.88
232.072	115.88
232.306	120.88
232.541	106.88
232.775	107.88
233.009	102.88
233.243	99.88
233.477	99.88
233.711	108.88
233.945	122.88
234.179	113.88
234.413	113.88
234.647	119.88
234.881	122.88
235.115	105.88
235.349	123.88
235.583	124.88
235.817	123.88
236.051	118.88
236.285	119.88
236.519	125.88
236.753	134.88
236.987	134.88
237.221	147.88
237.455	171.88
237.689	144.88
237.922	119.88
238.156	132.88
238.39	129.88
238.624	125.88
238.858	118.88
239.091	120.88
239.325	116.88
239.559	126.88
239.793	120.88
240.027	117.88
240.26	133.88
240.494	135.88
240.728	120.88
240.961	120.88
241.195	123.88
241.429	139.88
241.662	134.88
241.896	132.88
242.13	127.88
242.363	128.88
242.597	127.88
242.83	128.88
243.064	119.88
243.298	119.88
243.531	130.88
243.765	131.88
243.998	123.88
244.232	149.88
244.465	140.88
244.699	122.88
244.932	126.88
245.166	123.88
245.399	133.88
245.633	131.88
245.866	132.88
246.099	141.88
246.333	147.88
246.566	129.88
246.8	156.88
247.033	145.88
247.266	153.88
247.5	140.88
247.733	152.88
247.966	146.88
248.2	161.88
248.433	151.88
248.666	146.88
248.899	167.88
249.133	177.88
249.366	187.88
249.599	178.88
249.832	159.88
250.066	177.88
250.299	182.88
250.532	187.88
250.765	202.88
250.998	208.88
251.231	208.88
251.465	196.88
251.698	187.88
251.931	172.88
252.164	172.88
252.397	185.88
252.63	185.88
252.863	170.88
253.096	184.88
253.329	197.88
253.562	189.88
253.795	169.88
254.028	185.88
254.261	197.88
254.494	191.88
254.727	200.88
254.96	214.88
255.193	204.88
255.426	219.88
255.659	227.88
255.892	228.88
256.124	275.88
256.357	294.88
256.59	265.88
256.823	217.88
257.056	210.88
257.289	217.88
257.521	207.88
257.754	184.88
257.987	191.88
258.22	193.88
258.452	199.88
258.685	178.88
258.918	184.88
259.151	199.88
259.383	186.88
259.616	201.88
259.849	202.88
260.081	198.88
260.314	225.88
260.547	213.88
260.779	207.88
261.012	199.88
261.244	203.88
261.477	223.88
261.71	191.88
261.942	203.88
262.175	202.88
262.407	211.88
262.64	194.88
262.872	210.88
263.105	212.88
263.337	209.88
263.57	196.88
263.802	187.88
264.035	208.88
264.267	208.88
264.499	195.88
264.732	191.88
264.964	194.88
265.197	191.88
265.429	199.88
265.661	200.88
265.894	204.88
266.126	192.88
266.358	200.88
266.591	193.88
266.823	218.88
267.055	206.88
267.287	203.88
267.52	212.88
267.752	213.88
267.984	231.88
268.216	218.88
268.448	207.88
268.681	207.88
268.913	215.88
269.145	241.88
269.377	245.88
269.609	237.88
269.841	237.88
270.073	229.88
270.306	246.88
270.538	264.88
270.77	249.88
271.002	241.88
271.234	247.88
271.466	261.88
271.698	245.88
271.93	268.88
272.162	267.88
272.394	277.88
272.626	239.88
272.858	251.88
273.09	255.88
273.322	251.88
273.553	240.88
273.785	241.88
274.017	259.88
274.249	263.88
274.481	226.88
274.713	233.88
274.945	235.88
275.176	254.88
275.408	248.88
275.64	272.88
275.872	255.88
276.104	247.88
276.335	229.88
276.567	255.88
276.799	283.88
277.031	293.88
277.262	303.88
277.494	294.88
277.726	283.88
277.957	264.88
278.189	267.88
278.421	268.88
278.652	264.88
278.884	254.88
279.115	249.88
279.347	241.88
279.579	275.88
279.81	269.88
280.042	261.88
280.273	270.88
280.505	280.88
280.736	282.88
280.968	276.88
281.199	273.88
281.431	268.88
281.662	263.88
281.894	273.88
282.125	251.88
282.356	267.88
282.588	282.88
282.819	289.88
283.051	270.88
283.282	252.88
283.513	268.88
283.745	270.88
283.976	274.88
284.207	285.88
284.439	274.88
284.67	272.88
284.901	268.88
285.132	273.88
285.364	269.88
285.595	273.88
285.826	271.88
286.057	287.88
286.288	272.88
286.52	278.88
286.751	284.88
286.982	281.88
287.213	280.88
287.444	305.88
287.675	277.88
287.906	292.88
288.138	284.88
288.369	286.88
288.6	299.88
288.831	297.88
289.062	283.88
289.293	274.88
289.524	281.88
289.755	275.88
289.986	299.88
290.217	282.88
290.448	269.88
290.679	285.88
290.91	296.88
291.141	284.88
291.371	280.88
291.602	283.88
291.833	276.88
292.064	285.88
292.295	279.88
292.526	277.88
292.757	295.88
292.987	287.88
293.218	283.88
293.449	313.88
293.68	308.88
293.91	284.88
294.141	277.88
294.372	290.88
294.603	294.88
294.833	285.88
295.064	283.88
295.295	315.88
295.525	287.88
295.756	295.88
295.987	295.88
296.217	293.88
296.448	311.88
296.679	309.88
296.909	287.88
297.14	281.88
297.37	312.88
297.601	282.88
297.831	297.88
298.062	294.88
298.292	291.88
298.523	307.88
298.753	292.88
298.984	300.88
299.214	304.88
299.445	303.88
299.675	325.88
299.905	325.88
300.136	287.88
300.366	303.88
300.597	290.88
300.827	317.88
301.057	325.88
301.288	314.88
301.518	309.88
301.748	292.88
301.979	319.88
302.209	329.88
302.439	336.88
302.669	332.88
302.9	310.88
303.13	311.88
303.36	298.88
303.59	313.88
303.82	328.88
304.051	333.88
304.281	311.88
304.511	321.88
304.741	323.88
304.971	321.88
305.201	313.88
305.431	337.88
305.661	334.88
305.891	317.88
306.121	335.88
306.352	313.88
306.582	296.88
306.812	309.88
307.042	326.88
307.272	325.88
307.502	333.88
307.731	318.88
307.961	322.88
308.191	321.88
308.421	327.88
308.651	338.88
308.881	332.88
309.111	335.88
309.341	325.88
309.571	331.88
309.8	337.88
310.03	337.88
310.26	324.88
310.49	348.88
310.72	330.88
310.949	358.88
311.179	361.88
311.409	350.88
311.639	333.88
311.868	345.88
312.098	348.88
312.328	344.88
312.557	365.88
312.787	386.88
313.017	361.88
313.246	337.88
313.476	354.88
313.706	347.88
313.935	357.88
314.165	373.88
314.394	379.88
314.624	376.88
314.853	353.88
315.083	354.88
315.312	348.88
315.542	343.88
315.771	334.88
316.001	369.88
316.23	355.88
316.46	365.88
316.689	365.88
316.919	346.88
317.148	369.88
317.377	344.88
317.607	348.88
317.836	386.88
318.065	366.88
318.295	331.88
318.524	347.88
318.753	333.88
318.983	375.88
319.212	355.88
319.441	332.88
319.67	369.88
319.9	359.88
320.129	356.88
320.358	361.88
320.587	363.88
320.816	356.88
321.046	365.88
321.275	363.88
321.504	388.88
321.733	373.88
321.962	382.88
322.191	385.88
322.42	372.88
322.649	391.88
322.878	376.88
323.108	400.88
323.337	420.88
323.566	418.88
323.795	443.88
324.024	460.88
324.253	551.88
324.482	737.88
324.71	1083.88
324.939	1494.88
325.168	1260.88
325.397	716.88
325.626	530.88
325.855	475.88
326.084	448.88
326.313	447.88
326.542	444.88
326.77	483.88
326.999	545.88
327.228	706.88
327.457	978.88
327.686	1145.88
327.914	817.88
328.143	646.88
328.372	579.88
328.6	578.88
328.829	504.88
329.058	470.88
329.287	505.88
329.515	518.88
329.744	516.88
329.972	531.88
330.201	600.88
330.43	667.88
330.658	635.88
330.887	553.88
331.115	537.88
331.344	484.88
331.572	462.88
331.801	455.88
332.03	467.88
332.258	471.88
332.486	448.88
332.715	453.88
332.943	457.88
333.172	487.88
333.4	493.88
333.629	534.88
333.857	555.88
334.085	604.88
334.314	687.88
334.542	785.88
334.771	771.88
334.999	617.88
335.227	540.88
335.455	497.88
335.684	479.88
335.912	484.88
336.14	458.88
336.369	460.88
336.597	461.88
336.825	430.88
337.053	423.88
337.281	439.88
337.51	437.88
337.738	428.88
337.966	405.88
338.194	423.88
338.422	417.88
338.65	422.88
338.878	401.88
339.106	404.88
339.334	413.88
339.562	408.88
339.79	396.88
340.018	385.88
340.246	410.88
340.474	384.88
340.702	390.88
340.93	384.88
341.158	387.88
341.386	403.88
341.614	397.88
341.842	403.88
342.07	377.88
342.298	378.88
342.526	395.88
342.754	391.88
342.981	388.88
343.209	384.88
343.437	399.88
343.665	424.88
343.893	427.88
344.12	448.88
344.348	441.88
344.576	424.88
344.804	409.88
345.031	401.88
345.259	397.88
345.487	396.88
345.714	389.88
345.942	396.88
346.17	383.88
346.397	385.88
346.625	374.88
346.853	367.88
347.08	362.88
347.308	387.88
347.535	362.88
347.763	375.88
347.99	394.88
348.218	387.88
348.445	371.88
348.673	388.88
348.9	384.88
349.128	377.88
349.355	364.88
349.583	389.88
349.81	369.88
350.037	368.88
350.265	367.88
350.492	358.88
350.72	360.88
350.947	377.88
351.174	380.88
351.402	395.88
351.629	362.88
351.856	368.88
352.083	373.88
352.311	383.88
352.538	370.88
352.765	395.88
352.992	376.88
353.22	375.88
353.447	364.88
353.674	386.88
353.901	375.88
354.128	355.88
354.355	376.88
354.583	335.88
354.81	358.88
355.037	362.88
355.264	357.88
355.491	351.88
355.718	330.88
355.945	359.88
356.172	339.88
356.399	352.88
356.626	351.88
356.853	367.88
357.08	340.88
357.307	335.88
357.534	340.88
357.761	337.88
357.988	359.88
358.215	353.88
358.441	350.88
358.668	365.88
358.895	352.88
359.122	356.88
359.349	346.88
359.576	363.88
359.802	393.88
360.029	401.88
360.256	376.88
360.483	386.88
360.709	375.88
360.936	378.88
361.163	360.88
361.39	373.88
361.616	371.88
361.843	362.88
362.07	359.88
362.296	372.88
362.523	357.88
362.749	373.88
362.976	351.88
363.203	369.88
363.429	356.88
363.656	336.88
363.882	351.88
364.109	348.88
364.335	349.88
364.562	356.88
364.788	367.88
365.015	348.88
365.241	332.88
365.468	359.88
365.694	367.88
365.92	349.88
366.147	352.88
366.373	359.88
366.599	352.88
366.826	352.88
367.052	352.88
367.278	341.88
367.505	369.88
367.731	358.88
367.957	359.88
368.184	371.88
368.41	367.88
368.636	354.88
368.862	348.88
369.089	372.88
369.315	340.88
369.541	357.88
369.767	349.88
369.993	344.88
370.219	343.88
370.445	355.88
370.672	372.88
370.898	360.88
371.124	363.88
371.35	364.88
371.576	370.88
371.802	364.88
372.028	381.88
372.254	375.88
372.48	355.88
372.706	371.88
372.932	372.88
373.158	352.88
373.384	365.88
373.61	358.88
373.835	373.88
374.061	371.88
374.287	358.88
374.513	348.88
374.739	347.88
374.965	376.88
375.191	375.88
375.416	371.88
375.642	369.88
375.868	369.88
376.094	387.88
376.319	375.88
376.545	371.88
376.771	355.88
376.997	378.88
377.222	369.88
377.448	353.88
377.674	367.88
377.899	364.88
378.125	359.88
378.35	365.88
378.576	350.88
378.802	339.88
379.027	342.88
379.253	371.88
379.478	377.88
379.704	347.88
379.929	338.88
380.155	362.88
380.38	357.88
380.606	346.88
380.831	340.88
381.057	361.88
381.282	362.88
381.507	375.88
381.733	364.88
381.958	352.88
382.184	355.88
382.409	360.88
382.634	367.88
382.86	374.88
383.085	368.88
383.31	376.88
383.535	379.88
383.761	375.88
383.986	373.88
384.211	389.88
384.436	397.88
384.662	385.88
384.887	411.88
385.112	402.88
385.337	401.88
385.562	413.88
385.787	408.88
386.013	409.88
386.238	394.88
386.463	403.88
386.688	429.88
386.913	399.88
387.138	404.88
387.363	385.88
387.588	425.88
387.813	393.88
388.038	394.88
388.263	405.88
388.488	389.88
388.713	407.88
388.938	398.88
389.163	402.88
389.387	393.88
389.612	389.88
389.837	390.88
390.062	388.88
390.287	391.88
390.512	391.88
390.736	393.88
390.961	402.88
391.186	402.88
391.411	414.88
391.636	436.88
391.86	448.88
392.085	427.88
392.31	436.88
392.534	434.88
392.759	422.88
392.984	428.88
393.208	424.88
393.433	421.88
393.658	417.88
393.882	404.88
394.107	409.88
394.331	420.88
394.556	415.88
394.78	431.88
395.005	403.88
395.229	417.88
395.454	424.88
395.678	439.88
395.903	431.88
396.127	435.88
396.352	442.88
396.576	400.88
396.801	415.88
397.025	417.88
397.249	435.88
397.474	449.88
397.698	437.88
397.922	448.88
398.147	454.88
398.371	467.88
398.595	449.88
398.82	476.88
399.044	491.88
399.268	544.88
399.492	590.88
399.717	606.88
399.941	636.88
400.165	618.88
400.389	577.88
400.613	541.88
400.837	487.88
401.062	492.88
401.286	504.88
401.51	484.88
401.734	465.88
401.958	473.88
402.182	487.88
402.406	499.88
402.63	477.88
402.854	481.88
403.078	508.88
403.302	515.88
403.526	531.88
403.75	537.88
403.974	528.88
404.198	501.88
404.422	532.88
404.645	541.88
404.869	539.88
405.093	579.88
405.317	596.88
405.541	643.88
405.765	591.88
405.988	565.88
406.212	549.88
406.436	531.88
406.66	572.88
406.883	535.88
407.107	554.88
407.331	580.88
407.555	648.88
407.778	651.88
408.002	605.88
408.226	561.88
408.449	558.88
408.673	540.88
408.896	572.88
409.12	571.88
409.344	552.88
409.567	522.88
409.791	511.88
410.014	518.88
410.238	487.88
410.461	497.88
410.685	511.88
410.908	492.88
411.132	517.88
411.355	537.88
411.578	539.88
411.802	501.88
412.025	485.88
412.249	523.88
412.472	560.88
412.695	592.88
412.919	622.88
413.142	542.88
413.365	518.88
413.589	501.88
413.812	506.88
414.035	505.88
414.258	498.88
414.482	490.88
414.705	467.88
414.928	489.88
415.151	489.88
415.374	458.88
415.597	474.88
415.821	468.88
416.044	480.88
416.267	464.88
416.49	469.88
416.713	481.88
416.936	482.88
417.159	471.88
417.382	463.88
417.605	492.88
417.828	486.88
418.051	487.88
418.274	477.88
418.497	461.88
418.72	461.88
418.943	459.88
419.166	501.88
419.389	517.88
419.611	517.88
419.834	552.88
420.057	505.88
420.28	519.88
420.503	536.88
420.726	520.88
420.948	514.88
421.171	539.88
421.394	522.88
421.617	481.88
421.839	502.88
422.062	493.88
422.285	494.88
422.507	521.88
422.73	553.88
422.953	557.88
423.175	533.88
423.398	492.88
423.621	489.88
423.843	504.88
424.066	515.88
424.288	518.88
424.511	506.88
424.733	564.88
424.956	606.88
425.178	575.88
425.401	575.88
425.623	587.88
425.846	515.88
426.068	474.88
426.291	483.88
426.513	476.88
426.735	496.88
426.958	515.88
427.18	559.88
427.402	624.88
427.625	665.88
427.847	627.88
428.069	597.88
428.292	543.88
428.514	479.88
428.736	464.88
428.958	463.88
429.181	459.88
429.403	421.88
429.625	445.88
429.847	452.88
430.069	498.88
430.292	498.88
430.514	448.88
430.736	456.88
430.958	435.88
431.18	450.88
431.402	435.88
431.624	441.88
431.846	434.88
432.068	425.88
432.29	433.88
432.512	459.88
432.734	451.88
432.956	420.88
433.178	429.88
433.4	438.88
433.622	433.88
433.844	435.88
434.066	457.88
434.287	424.88
434.509	444.88
434.731	468.88
434.953	459.88
435.175	491.88
435.397	494.88
435.618	481.88
435.84	500.88
436.062	560.88
436.284	584.88
436.505	505.88
436.727	470.88
436.949	436.88
437.17	448.88
437.392	433.88
437.614	456.88
437.835	455.88
438.057	516.88
438.278	577.88
438.5	580.88
438.721	633.88
438.943	608.88
439.165	483.88
439.386	472.88
439.608	463.88
439.829	458.88
440.05	488.88
440.272	528.88
440.493	486.88
440.715	477.88
440.936	478.88
441.158	465.88
441.379	467.88
441.6	484.88
441.822	497.88
442.043	512.88
442.264	577.88
442.486	583.88
442.707	539.88
442.928	504.88
443.149	499.88
443.371	507.88
443.592	548.88
443.813	592.88
444.034	641.88
444.255	573.88
444.476	513.88
444.698	535.88
444.919	537.88
445.14	639.88
445.361	567.88
445.582	526.88
445.803	559.88
446.024	591.88
446.245	584.88
446.466	552.88
446.687	496.88
446.908	460.88
447.129	447.88
447.35	435.88
447.571	437.88
447.792	425.88
448.013	440.88
448.234	447.88
448.455	483.88
448.675	565.88
448.896	617.88
449.117	527.88
449.338	511.88
449.559	566.88
449.779	647.88
450	523.88
450.221	457.88
450.442	420.88
450.662	401.88
450.883	422.88
451.104	453.88
451.324	419.88
451.545	417.88
451.766	411.88
451.986	390.88
452.207	409.88
452.428	409.88
452.648	409.88
452.869	409.88
453.089	400.88
453.31	415.88
453.53	400.88
453.751	408.88
453.971	389.88
454.192	401.88
454.412	410.88
454.633	380.88
454.853	368.88
455.073	385.88
455.294	404.88
455.514	415.88
455.734	421.88
455.955	392.88
456.175	367.88
456.395	373.88
456.616	370.88
456.836	378.88
457.056	378.88
457.276	387.88
457.497	384.88
457.717	380.88
457.937	375.88
458.157	376.88
458.377	392.88
458.598	416.88
458.818	429.88
459.038	480.88
459.258	503.88
459.478	465.88
459.698	443.88
459.918	431.88
460.138	463.88
460.358	468.88
460.578	463.88
460.798	476.88
461.018	458.88
461.238	483.88
461.458	465.88
461.678	468.88
461.898	466.88
462.118	476.88
462.338	496.88
462.558	489.88
462.777	491.88
462.997	533.88
463.217	552.88
463.437	550.88
463.657	522.88
463.876	523.88
464.096	515.88
464.316	532.88
464.536	522.88
464.755	506.88
464.975	503.88
465.195	496.88
465.414	528.88
465.634	465.88
465.854	462.88
466.073	432.88
466.293	410.88
466.512	424.88
466.732	435.88
466.951	410.88
467.171	413.88
467.391	421.88
467.61	420.88
467.829	410.88
468.049	428.88
468.268	461.88
468.488	425.88
468.707	418.88
468.927	399.88
469.146	397.88
469.365	417.88
469.585	400.88
469.804	418.88
470.023	414.88
470.243	435.88
470.462	404.88
470.681	436.88
470.901	448.88
471.12	406.88
471.339	439.88
471.558	426.88
471.777	405.88
471.997	421.88
472.216	469.88
472.435	575.88
472.654	532.88
472.873	452.88
473.092	420.88
473.311	417.88
473.53	412.88
473.749	402.88
473.968	459.88
474.187	487.88
474.406	499.88
474.625	447.88
474.844	425.88
475.063	428.88
475.282	393.88
475.501	419.88
475.72	421.88
475.939	426.88
476.158	423.88
476.377	426.88
476.596	434.88
476.814	415.88
477.033	423.88
477.252	415.88
477.471	444.88
477.69	449.88
477.908	442.88
478.127	456.88
478.346	460.88
478.564	472.88
478.783	468.88
479.002	497.88
479.22	475.88
479.439	504.88
479.658	485.88
479.876	505.88
480.095	511.88
480.313	543.88
480.532	556.88
480.751	545.88
480.969	563.88
481.188	749.88
481.406	814.88
481.624	635.88
481.843	586.88
482.061	527.88
482.28	528.88
482.498	501.88
482.717	498.88
482.935	473.88
483.153	501.88
483.372	469.88
483.59	485.88
483.808	471.88
484.027	471.88
484.245	475.88
484.463	475.88
484.681	481.88
484.9	477.88
485.118	475.88
485.336	476.88
485.554	491.88
485.772	509.88
485.99	491.88
486.209	488.88
486.427	483.88
486.645	502.88
486.863	499.88
487.081	509.88
487.299	528.88
487.517	499.88
487.735	471.88
487.953	517.88
488.171	490.88
488.389	490.88
488.607	500.88
488.825	508.88
489.043	484.88
489.261	519.88
489.479	493.88
489.696	521.88
489.914	508.88
490.132	515.88
490.35	537.88
490.568	531.88
490.786	538.88
491.003	571.88
491.221	566.88
491.439	572.88
491.657	581.88
491.874	605.88
492.092	578.88
492.31	598.88
492.527	599.88
492.745	598.88
492.963	610.88
493.18	604.88
493.398	595.88
493.615	585.88
493.833	602.88
494.05	610.88
494.268	593.88
494.485	585.88
494.703	585.88
494.92	622.88
495.138	602.88
495.355	602.88
495.573	591.88
495.79	597.88
496.008	603.88
496.225	596.88
496.442	577.88
496.66	602.88
496.877	578.88
497.094	580.88
497.312	613.88
497.529	616.88
497.746	598.88
497.963	616.88
498.181	657.88
498.398	668.88
498.615	701.88
498.832	704.88
499.049	742.88
499.267	765.88
499.484	827.88
499.701	884.88
499.918	930.88
500.135	980.88
500.352	1060.88
500.569	1094.88
500.786	1144.88
501.003	1095.88
501.22	1010.88
501.437	924.88
501.654	857.88
501.871	833.88
502.088	785.88
502.305	744.88
502.522	707.88
502.739	711.88
502.956	662.88
503.172	650.88
503.389	609.88
503.606	614.88
503.823	627.88
504.04	625.88
504.256	627.88
504.473	634.88
504.69	626.88
504.907	603.88
505.123	563.88
505.34	553.88
505.557	546.88
505.773	551.88
505.99	548.88
506.207	554.88
506.423	534.88
506.64	524.88
506.856	499.88
507.073	523.88
507.289	549.88
507.506	522.88
507.722	518.88
507.939	516.88
508.155	485.88
508.372	500.88
508.588	489.88
508.805	493.88
509.021	490.88
509.238	486.88
509.454	479.88
509.67	489.88
509.887	483.88
510.103	485.88
510.319	491.88
510.536	543.88
510.752	806.88
510.968	689.88
511.184	498.88
511.401	486.88
511.617	485.88
511.833	521.88
512.049	500.88
512.265	505.88
512.481	487.88
512.698	486.88
512.914	483.88
513.13	485.88
513.346	483.88
513.562	459.88
513.778	457.88
513.994	487.88
514.21	471.88
514.426	488.88
514.642	486.88
514.858	507.88
515.074	550.88
515.29	597.88
515.506	823.88
515.721	696.88
515.937	535.88
516.153	507.88
516.369	520.88
516.585	510.88
516.801	529.88
517.016	528.88
517.232	533.88
517.448	564.88
517.664	561.88
517.879	546.88
518.095	566.88
518.311	549.88
518.527	530.88
518.742	525.88
518.958	504.88
519.173	507.88
519.389	503.88
519.605	482.88
519.82	487.88
520.036	493.88
520.251	487.88
520.467	498.88
520.682	509.88
520.898	500.88
521.113	514.88
521.329	529.88
521.544	560.88
521.76	684.88
521.975	944.88
522.19	949.88
522.406	612.88
522.621	481.88
522.836	454.88
523.052	458.88
523.267	467.88
523.482	449.88
523.698	424.88
523.913	433.88
524.128	435.88
524.343	411.88
524.559	420.88
524.774	425.88
524.989	454.88
525.204	413.88
525.419	415.88
525.634	419.88
525.849	411.88
526.064	421.88
526.28	409.88
526.495	396.88
526.71	414.88
526.925	395.88
527.14	419.88
527.355	409.88
527.57	416.88
527.785	409.88
527.999	413.88
528.214	389.88
528.429	418.88
528.644	398.88
528.859	400.88
529.074	408.88
529.289	421.88
529.503	439.88
529.718	435.88
529.933	423.88
530.148	399.88
530.363	417.88
530.577	404.88
530.792	423.88
531.007	401.88
531.221	382.88
531.436	404.88
531.651	383.88
531.865	393.88
532.08	416.88
532.295	387.88
532.509	391.88
532.724	382.88
532.938	390.88
533.153	392.88
533.367	384.88
533.582	380.88
533.796	394.88
534.011	390.88
534.225	378.88
534.44	386.88
534.654	394.88
534.868	376.88
535.083	379.88
535.297	383.88
535.511	392.88
535.726	394.88
535.94	389.88
536.154	392.88
536.369	388.88
536.583	378.88
536.797	381.88
537.011	367.88
537.225	379.88
537.44	370.88
537.654	387.88
537.868	372.88
538.082	393.88
538.296	401.88
538.51	386.88
538.724	373.88
538.938	388.88
539.153	376.88
539.367	386.88
539.581	382.88
539.795	379.88
540.009	363.88
540.222	377.88
540.436	365.88
540.65	377.88
540.864	363.88
541.078	375.88
541.292	373.88
541.506	380.88
541.72	391.88
541.934	377.88
542.147	370.88
542.361	381.88
542.575	361.88
542.789	374.88
543.002	372.88
543.216	361.88
543.43	383.88
543.644	375.88
543.857	388.88
544.071	372.88
544.285	367.88
544.498	368.88
544.712	379.88
544.925	363.88
545.139	383.88
545.352	372.88
545.566	381.88
545.779	368.88
545.993	364.88
546.206	376.88
546.42	375.88
546.633	373.88
546.847	355.88
547.06	352.88
547.274	354.88
547.487	364.88
547.7	367.88
547.914	369.88
548.127	361.88
548.34	367.88
548.554	345.88
548.767	365.88
548.98	349.88
549.193	371.88
549.407	351.88
549.62	381.88
549.833	345.88
550.046	364.88
550.259	378.88
550.473	341.88
550.686	355.88
550.899	359.88
551.112	347.88
551.325	367.88
551.538	342.88
551.751	363.88
551.964	363.88
552.177	370.88
552.39	367.88
552.603	373.88
552.816	406.88
553.029	388.88
553.242	391.88
553.455	379.88
553.667	408.88
553.88	404.88
554.093	382.88
554.306	396.88
554.519	365.88
554.732	377.88
554.944	375.88
555.157	358.88
555.37	367.88
555.583	351.88
555.795	357.88
556.008	346.88
556.221	347.88
556.433	329.88
556.646	342.88
556.859	325.88
557.071	351.88
557.284	329.88
557.496	327.88
557.709	345.88
557.921	330.88
558.134	325.88
558.346	328.88
558.559	320.88
558.771	322.88
558.984	324.88
559.196	327.88
559.409	312.88
559.621	326.88
559.833	317.88
560.046	321.88
560.258	339.88
560.47	329.88
560.683	311.88
560.895	313.88
561.107	323.88
561.32	322.88
561.532	319.88
561.744	320.88
561.956	305.88
562.168	306.88
562.381	315.88
562.593	315.88
562.805	317.88
563.017	320.88
563.229	315.88
563.441	315.88
563.653	321.88
563.865	335.88
564.077	322.88
564.289	340.88
564.501	326.88
564.713	375.88
564.925	373.88
565.137	344.88
565.349	351.88
565.561	374.88
565.773	379.88
565.985	389.88
566.197	397.88
566.408	408.88
566.62	437.88
566.832	450.88
567.044	468.88
567.255	461.88
567.467	468.88
567.679	489.88
567.891	492.88
568.102	480.88
568.314	490.88
568.526	452.88
568.737	446.88
568.949	427.88
569.161	385.88
569.372	360.88
569.584	362.88
569.795	354.88
570.007	348.88
570.218	352.88
570.43	361.88
570.641	346.88
570.853	327.88
571.064	347.88
571.276	338.88
571.487	327.88
571.698	298.88
571.91	315.88
572.121	293.88
572.333	290.88
572.544	293.88
572.755	280.88
572.966	266.88
573.178	301.88
573.389	275.88
573.6	291.88
573.811	289.88
574.023	288.88
574.234	281.88
574.445	285.88
574.656	284.88
574.867	279.88
575.078	283.88
575.289	293.88
575.501	289.88
575.712	311.88
575.923	292.88
576.134	270.88
576.345	279.88
576.556	283.88
576.767	278.88
576.978	275.88
577.188	269.88
577.399	276.88
577.61	272.88
577.821	256.88
578.032	265.88
578.243	293.88
578.454	396.88
578.665	335.88
578.875	259.88
579.086	265.88
579.297	267.88
579.508	263.88
579.718	263.88
579.929	274.88
580.14	241.88
580.35	268.88
580.561	257.88
580.772	251.88
580.982	271.88
581.193	260.88
581.403	259.88
581.614	259.88
581.825	251.88
582.035	239.88
582.246	259.88
582.456	257.88
582.667	249.88
582.877	241.88
583.087	231.88
583.298	255.88
583.508	260.88
583.719	248.88
583.929	239.88
584.139	234.88
584.35	255.88
584.56	255.88
584.77	264.88
584.981	256.88
585.191	261.88
585.401	244.88
585.611	243.88
585.821	249.88
586.032	262.88
586.242	240.88
586.452	239.88
586.662	236.88
586.872	236.88
587.082	253.88
587.292	253.88
587.502	255.88
587.713	257.88
587.923	252.88
588.133	247.88
588.343	259.88
588.553	237.88
588.762	252.88
588.972	252.88
589.182	256.88
589.392	247.88
589.602	257.88
589.812	255.88
590.022	264.88
590.232	251.88
590.441	248.88
590.651	233.88
590.861	256.88
591.071	265.88
591.281	235.88
591.49	267.88
591.7	282.88
591.91	267.88
592.119	255.88
592.329	268.88
592.539	277.88
592.748	282.88
592.958	295.88
593.167	295.88
593.377	296.88
593.587	286.88
593.796	291.88
594.006	299.88
594.215	296.88
594.424	281.88
594.634	272.88
594.843	287.88
595.053	263.88
595.262	271.88
595.472	268.88
595.681	255.88
595.89	249.88
596.1	259.88
596.309	260.88
596.518	246.88
596.727	244.88
596.937	244.88
597.146	220.88
597.355	236.88
597.564	232.88
597.774	223.88
597.983	239.88
598.192	242.88
598.401	235.88
598.61	214.88
598.819	236.88
599.028	231.88
599.237	224.88
599.446	216.88
599.655	233.88
599.864	196.88
600.073	209.88
600.282	215.88
600.491	231.88
600.7	231.88
600.909	223.88
601.118	216.88
601.327	234.88
601.536	202.88
601.745	226.88
601.953	213.88
602.162	235.88
602.371	228.88
602.58	211.88
602.789	228.88
602.997	214.88
603.206	211.88
603.415	205.88
603.623	210.88
603.832	212.88
604.041	233.88
604.249	215.88
604.458	204.88
604.666	200.88
604.875	219.88
605.084	214.88
605.292	213.88
605.501	202.88
605.709	210.88
605.918	213.88
606.126	234.88
606.334	228.88
606.543	212.88
606.751	213.88
606.96	201.88
607.168	199.88
607.376	217.88
607.585	208.88
607.793	206.88
608.001	201.88
608.21	215.88
608.418	214.88
608.626	202.88
608.834	221.88
609.043	204.88
609.251	213.88
609.459	201.88
609.667	194.88
609.875	218.88
610.083	202.88
610.291	206.88
610.499	206.88
610.707	201.88
610.916	189.88
611.124	207.88
611.332	227.88
611.54	217.88
611.748	220.88
611.955	209.88
612.163	211.88
612.371	227.88
612.579	212.88
612.787	203.88
612.995	215.88
613.203	217.88
613.411	221.88
613.618	196.88
613.826	193.88
614.034	205.88
614.242	189.88
614.449	200.88
614.657	211.88
614.865	215.88
615.072	203.88
615.28	209.88
615.488	191.88
615.695	197.88
615.903	197.88
616.111	203.88
616.318	203.88
616.526	204.88
616.733	198.88
616.941	208.88
617.148	205.88
617.356	195.88
617.563	207.88
617.771	203.88
617.978	198.88
618.185	210.88
618.393	209.88
618.6	197.88
618.807	187.88
619.015	204.88
619.222	180.88
619.429	191.88
619.637	199.88
619.844	193.88
620.051	193.88
620.258	196.88
620.466	189.88
620.673	193.88
620.88	201.88
621.087	195.88
621.294	186.88
621.501	188.88
621.708	192.88
621.915	191.88
622.122	204.88
622.329	180.88
622.536	195.88
622.743	185.88
622.95	187.88
623.157	176.88
623.364	179.88
623.571	184.88
623.778	174.88
623.985	179.88
624.192	189.88
624.399	180.88
624.606	191.88
624.812	175.88
625.019	170.88
625.226	172.88
625.433	193.88
625.639	178.88
625.846	167.88
626.053	183.88
626.259	157.88
626.466	177.88
626.673	172.88
626.879	173.88
627.086	176.88
627.293	181.88
627.499	171.88
627.706	166.88
627.912	172.88
628.119	175.88
628.325	165.88
628.532	175.88
628.738	162.88
628.945	179.88
629.151	175.88
629.357	167.88
629.564	163.88
629.77	162.88
629.976	177.88
630.183	193.88
630.389	172.88
630.595	176.88
630.802	175.88
631.008	175.88
631.214	170.88
631.42	186.88
631.627	170.88
631.833	165.88
632.039	163.88
632.245	176.88
632.451	166.88
632.657	159.88
632.863	164.88
633.069	162.88
633.275	164.88
633.481	170.88
633.688	162.88
633.893	151.88
634.099	162.88
634.305	159.88
634.511	154.88
634.717	162.88
634.923	160.88
635.129	164.88
635.335	167.88
635.541	163.88
635.747	148.88
635.952	169.88
636.158	187.88
636.364	159.88
636.57	181.88
636.775	167.88
636.981	162.88
637.187	176.88
637.392	165.88
637.598	170.88
637.804	157.88
638.009	163.88
638.215	182.88
638.421	156.88
638.626	154.88
638.832	150.88
639.037	153.88
639.243	153.88
639.448	172.88
639.654	171.88
639.859	158.88
640.065	150.88
640.27	159.88
640.475	159.88
640.681	156.88
640.886	151.88
641.091	146.88
641.297	153.88
641.502	158.88
641.707	144.88
641.913	150.88
642.118	147.88
642.323	137.88
642.528	153.88
642.733	126.88
642.939	141.88
643.144	162.88
643.349	149.88
643.554	154.88
643.759	152.88
643.964	147.88
644.169	154.88
644.374	126.88
644.579	153.88
644.784	137.88
644.989	155.88
645.194	148.88
645.399	155.88
645.604	156.88
645.809	172.88
646.014	156.88
646.219	147.88
646.423	148.88
646.628	141.88
646.833	162.88
647.038	153.88
647.243	148.88
647.447	149.88
647.652	144.88
647.857	157.88
648.062	152.88
648.266	132.88
648.471	157.88
648.676	180.88
648.88	159.88
649.085	155.88
649.289	147.88
649.494	149.88
649.698	164.88
649.903	157.88
650.107	161.88
650.312	147.88
650.516	138.88
650.721	138.88
650.925	132.88
651.13	127.88
651.334	125.88
651.539	149.88
651.743	135.88
651.947	122.88
652.152	131.88
652.356	129.88
652.56	131.88
652.764	134.88
652.969	114.88
653.173	132.88
653.377	124.88
653.581	129.88
653.785	140.88
653.99	128.88
654.194	121.88
654.398	120.88
654.602	117.88
654.806	141.88
655.01	136.88
655.214	117.88
655.418	130.88
655.622	126.88
655.826	126.88
656.03	116.88
656.234	108.88
656.438	123.88
656.642	134.88
656.846	132.88
657.049	131.88
657.253	117.88
657.457	114.88
657.661	109.88
657.865	102.88
658.068	113.88
658.272	101.88
658.476	98.88
658.68	97.88
658.883	91.88
659.087	95.88
659.291	90.88
659.494	89.88
659.698	93.88
659.901	98.88
660.105	91.88
660.309	101.88
660.512	97.88
660.716	96.88
660.919	92.88
661.123	85.88
661.326	91.88
661.53	68.88
661.733	82.88
661.936	96.88
662.14	96.88
662.343	93.88
662.546	92.88
662.75	68.88
662.953	89.88
663.156	96.88
663.36	84.88
663.563	95.88
663.766	83.88
663.969	78.88
664.173	74.88
664.376	80.88
664.579	77.88
664.782	79.88
664.985	78.88
665.188	81.88
665.391	81.88
665.594	73.88
665.797	79.88
666	99.88
666.203	85.88
666.406	83.88
666.609	77.88
666.812	93.88
667.015	77.88
667.218	77.88
667.421	77.88
667.624	90.88
667.827	100.88
668.03	85.88
668.232	78.88
668.435	87.88
668.638	82.88
668.841	84.88
669.043	100.88
669.246	80.88
669.449	71.88
669.651	86.88
669.854	85.88
670.057	91.88
670.259	80.88
670.462	77.88
670.665	92.88
670.867	79.88
671.07	82.88
671.272	93.88
671.475	96.88
671.677	79.88
671.88	98.88
672.082	87.88
672.284	83.88
672.487	84.88
672.689	73.88
672.892	68.88
