Data from 1984.PennyLincolnUp.Lamp.En5.5.200Scan.071819.P1_HRD10591_16-59-20-970.txt Node
Date: Thu Jul 18 16:59:20 EDT 2019
User: cochatt
Spectrometer: HR+D1059
Trigger mode: 1
Integration Time (sec): 1.000000E-1
Scans to average: 1
Electric dark correction enabled: true
Nonlinearity correction enabled: false
Boxcar width: 0
XAxis mode: Wavelengths
Number of Pixels in Spectrum: 2048
>>>>>Begin Spectral Data<<<<<
223.165	-20.31
223.4	-20.31
223.635	-20.31
223.869	-18.31
224.104	-18.31
224.338	-19.31
224.573	-7.31
224.808	-10.31
225.042	-0.31
225.277	-16.31
225.511	4.69
225.746	5.69
225.98	11.69
226.215	4.69
226.449	22.69
226.683	19.69
226.918	14.69
227.152	26.69
227.387	21.69
227.621	34.69
227.856	44.69
228.09	58.69
228.324	58.69
228.559	43.69
228.793	64.69
229.027	91.69
229.262	93.69
229.496	110.69
229.73	123.69
229.964	113.69
230.199	106.69
230.433	95.69
230.667	103.69
230.901	104.69
231.136	86.69
231.37	106.69
231.604	117.69
231.838	114.69
232.072	91.69
232.306	93.69
232.541	115.69
232.775	103.69
233.009	107.69
233.243	116.69
233.477	111.69
233.711	108.69
233.945	115.69
234.179	127.69
234.413	118.69
234.647	120.69
234.881	109.69
235.115	113.69
235.349	113.69
235.583	123.69
235.817	127.69
236.051	113.69
236.285	108.69
236.519	125.69
236.753	127.69
236.987	129.69
237.221	117.69
237.455	168.69
237.689	146.69
237.922	129.69
238.156	127.69
238.39	91.69
238.624	115.69
238.858	121.69
239.091	124.69
239.325	122.69
239.559	117.69
239.793	119.69
240.027	111.69
240.26	131.69
240.494	138.69
240.728	131.69
240.961	122.69
241.195	126.69
241.429	120.69
241.662	124.69
241.896	119.69
242.13	120.69
242.363	123.69
242.597	130.69
242.83	150.69
243.064	127.69
243.298	143.69
243.531	133.69
243.765	132.69
243.998	135.69
244.232	133.69
244.465	134.69
244.699	137.69
244.932	139.69
245.166	139.69
245.399	140.69
245.633	122.69
245.866	125.69
246.099	133.69
246.333	136.69
246.566	144.69
246.8	146.69
247.033	141.69
247.266	139.69
247.5	166.69
247.733	135.69
247.966	148.69
248.2	162.69
248.433	155.69
248.666	145.69
248.899	159.69
249.133	165.69
249.366	191.69
249.599	177.69
249.832	157.69
250.066	155.69
250.299	175.69
250.532	177.69
250.765	196.69
250.998	206.69
251.231	209.69
251.465	196.69
251.698	183.69
251.931	159.69
252.164	162.69
252.397	163.69
252.63	173.69
252.863	171.69
253.096	189.69
253.329	194.69
253.562	179.69
253.795	194.69
254.028	185.69
254.261	179.69
254.494	188.69
254.727	221.69
254.96	218.69
255.193	217.69
255.426	200.69
255.659	203.69
255.892	223.69
256.124	282.69
256.357	259.69
256.59	223.69
256.823	201.69
257.056	211.69
257.289	199.69
257.521	205.69
257.754	195.69
257.987	184.69
258.22	193.69
258.452	179.69
258.685	189.69
258.918	191.69
259.151	201.69
259.383	198.69
259.616	189.69
259.849	197.69
260.081	189.69
260.314	207.69
260.547	221.69
260.779	204.69
261.012	195.69
261.244	195.69
261.477	204.69
261.71	197.69
261.942	194.69
262.175	202.69
262.407	194.69
262.64	200.69
262.872	202.69
263.105	217.69
263.337	192.69
263.57	198.69
263.802	182.69
264.035	203.69
264.267	188.69
264.499	195.69
264.732	186.69
264.964	198.69
265.197	194.69
265.429	208.69
265.661	215.69
265.894	204.69
266.126	206.69
266.358	200.69
266.591	188.69
266.823	198.69
267.055	219.69
267.287	225.69
267.52	218.69
267.752	210.69
267.984	197.69
268.216	197.69
268.448	224.69
268.681	231.69
268.913	229.69
269.145	218.69
269.377	237.69
269.609	223.69
269.841	233.69
270.073	248.69
270.306	250.69
270.538	259.69
270.77	262.69
271.002	274.69
271.234	263.69
271.466	255.69
271.698	272.69
271.93	272.69
272.162	250.69
272.394	261.69
272.626	267.69
272.858	265.69
273.09	243.69
273.322	237.69
273.553	245.69
273.785	257.69
274.017	259.69
274.249	241.69
274.481	217.69
274.713	245.69
274.945	247.69
275.176	247.69
275.408	262.69
275.64	243.69
275.872	258.69
276.104	235.69
276.335	252.69
276.567	251.69
276.799	255.69
277.031	287.69
277.262	265.69
277.494	289.69
277.726	275.69
277.957	261.69
278.189	255.69
278.421	261.69
278.652	248.69
278.884	264.69
279.115	234.69
279.347	239.69
279.579	249.69
279.81	243.69
280.042	235.69
280.273	256.69
280.505	261.69
280.736	273.69
280.968	258.69
281.199	249.69
281.431	255.69
281.662	259.69
281.894	262.69
282.125	264.69
282.356	268.69
282.588	270.69
282.819	283.69
283.051	265.69
283.282	259.69
283.513	275.69
283.745	274.69
283.976	267.69
284.207	269.69
284.439	271.69
284.67	268.69
284.901	270.69
285.132	259.69
285.364	251.69
285.595	269.69
285.826	263.69
286.057	291.69
286.288	275.69
286.52	260.69
286.751	275.69
286.982	256.69
287.213	285.69
287.444	291.69
287.675	289.69
287.906	269.69
288.138	297.69
288.369	285.69
288.6	289.69
288.831	286.69
289.062	295.69
289.293	288.69
289.524	279.69
289.755	292.69
289.986	263.69
290.217	257.69
290.448	273.69
290.679	287.69
290.91	281.69
291.141	284.69
291.371	275.69
291.602	282.69
291.833	262.69
292.064	270.69
292.295	276.69
292.526	275.69
292.757	282.69
292.987	290.69
293.218	295.69
293.449	269.69
293.68	280.69
293.91	287.69
294.141	276.69
294.372	277.69
294.603	273.69
294.833	276.69
295.064	289.69
295.295	298.69
295.525	306.69
295.756	287.69
295.987	279.69
296.217	315.69
296.448	309.69
296.679	281.69
296.909	275.69
297.14	273.69
297.37	293.69
297.601	293.69
297.831	283.69
298.062	297.69
298.292	299.69
298.523	296.69
298.753	297.69
298.984	311.69
299.214	317.69
299.445	308.69
299.675	306.69
299.905	320.69
300.136	310.69
300.366	311.69
300.597	294.69
300.827	316.69
301.057	327.69
301.288	311.69
301.518	304.69
301.748	316.69
301.979	338.69
302.209	319.69
302.439	313.69
302.669	321.69
302.9	294.69
303.13	321.69
303.36	308.69
303.59	315.69
303.82	325.69
304.051	316.69
304.281	315.69
304.511	307.69
304.741	314.69
304.971	317.69
305.201	330.69
305.431	320.69
305.661	323.69
305.891	317.69
306.121	311.69
306.352	316.69
306.582	317.69
306.812	329.69
307.042	318.69
307.272	329.69
307.502	305.69
307.731	311.69
307.961	329.69
308.191	326.69
308.421	311.69
308.651	325.69
308.881	305.69
309.111	319.69
309.341	304.69
309.571	319.69
309.8	315.69
310.03	312.69
310.26	339.69
310.49	326.69
310.72	351.69
310.949	323.69
311.179	348.69
311.409	333.69
311.639	343.69
311.868	340.69
312.098	346.69
312.328	357.69
312.557	348.69
312.787	362.69
313.017	371.69
313.246	356.69
313.476	351.69
313.706	347.69
313.935	363.69
314.165	363.69
314.394	358.69
314.624	367.69
314.853	344.69
315.083	347.69
315.312	348.69
315.542	337.69
315.771	355.69
316.001	343.69
316.23	329.69
316.46	354.69
316.689	343.69
316.919	339.69
317.148	362.69
317.377	357.69
317.607	346.69
317.836	351.69
318.065	345.69
318.295	344.69
318.524	362.69
318.753	348.69
318.983	353.69
319.212	341.69
319.441	348.69
319.67	351.69
319.9	344.69
320.129	352.69
320.358	339.69
320.587	339.69
320.816	350.69
321.046	370.69
321.275	357.69
321.504	373.69
321.733	374.69
321.962	383.69
322.191	387.69
322.42	363.69
322.649	395.69
322.878	394.69
323.108	388.69
323.337	391.69
323.566	427.69
323.795	438.69
324.024	448.69
324.253	544.69
324.482	704.69
324.71	1025.69
324.939	1407.69
325.168	1231.69
325.397	687.69
325.626	516.69
325.855	444.69
326.084	432.69
326.313	428.69
326.542	463.69
326.77	445.69
326.999	515.69
327.228	641.69
327.457	943.69
327.686	1122.69
327.914	807.69
328.143	562.69
328.372	554.69
328.6	515.69
328.829	483.69
329.058	497.69
329.287	488.69
329.515	473.69
329.744	481.69
329.972	522.69
330.201	550.69
330.43	585.69
330.658	568.69
330.887	523.69
331.115	488.69
331.344	470.69
331.572	447.69
331.801	445.69
332.03	457.69
332.258	463.69
332.486	433.69
332.715	424.69
332.943	470.69
333.172	465.69
333.4	476.69
333.629	488.69
333.857	511.69
334.085	574.69
334.314	610.69
334.542	696.69
334.771	676.69
334.999	585.69
335.227	523.69
335.455	471.69
335.684	454.69
335.912	457.69
336.14	447.69
336.369	428.69
336.597	418.69
336.825	447.69
337.053	426.69
337.281	410.69
337.51	422.69
337.738	414.69
337.966	423.69
338.194	421.69
338.422	399.69
338.65	416.69
338.878	404.69
339.106	401.69
339.334	410.69
339.562	398.69
339.79	404.69
340.018	410.69
340.246	389.69
340.474	385.69
340.702	405.69
340.93	393.69
341.158	377.69
341.386	375.69
341.614	391.69
341.842	399.69
342.07	401.69
342.298	371.69
342.526	401.69
342.754	385.69
342.981	397.69
343.209	380.69
343.437	384.69
343.665	415.69
343.893	435.69
344.12	415.69
344.348	418.69
344.576	417.69
344.804	415.69
345.031	406.69
345.259	393.69
345.487	389.69
345.714	385.69
345.942	378.69
346.17	385.69
346.397	371.69
346.625	354.69
346.853	379.69
347.08	361.69
347.308	361.69
347.535	397.69
347.763	379.69
347.99	362.69
348.218	373.69
348.445	373.69
348.673	376.69
348.9	380.69
349.128	385.69
349.355	379.69
349.583	374.69
349.81	353.69
350.037	363.69
350.265	351.69
350.492	331.69
350.72	363.69
350.947	367.69
351.174	372.69
351.402	385.69
351.629	369.69
351.856	355.69
352.083	369.69
352.311	395.69
352.538	383.69
352.765	365.69
352.992	359.69
353.22	364.69
353.447	358.69
353.674	346.69
353.901	347.69
354.128	337.69
354.355	343.69
354.583	348.69
354.81	350.69
355.037	346.69
355.264	344.69
355.491	347.69
355.718	348.69
355.945	347.69
356.172	352.69
356.399	357.69
356.626	325.69
356.853	361.69
357.08	352.69
357.307	351.69
357.534	365.69
357.761	339.69
357.988	346.69
358.215	346.69
358.441	337.69
358.668	364.69
358.895	338.69
359.122	348.69
359.349	354.69
359.576	372.69
359.802	371.69
360.029	383.69
360.256	369.69
360.483	360.69
360.709	373.69
360.936	373.69
361.163	356.69
361.39	375.69
361.616	365.69
361.843	346.69
362.07	362.69
362.296	351.69
362.523	374.69
362.749	377.69
362.976	351.69
363.203	340.69
363.429	348.69
363.656	381.69
363.882	349.69
364.109	328.69
364.335	333.69
364.562	342.69
364.788	355.69
365.015	341.69
365.241	350.69
365.468	359.69
365.694	357.69
365.92	362.69
366.147	338.69
366.373	349.69
366.599	347.69
366.826	332.69
367.052	358.69
367.278	352.69
367.505	352.69
367.731	360.69
367.957	353.69
368.184	338.69
368.41	374.69
368.636	369.69
368.862	360.69
369.089	362.69
369.315	354.69
369.541	349.69
369.767	354.69
369.993	350.69
370.219	356.69
370.445	349.69
370.672	352.69
370.898	351.69
371.124	358.69
371.35	350.69
371.576	344.69
371.802	358.69
372.028	361.69
372.254	349.69
372.48	354.69
372.706	354.69
372.932	388.69
373.158	377.69
373.384	365.69
373.61	367.69
373.835	351.69
374.061	364.69
374.287	355.69
374.513	359.69
374.739	371.69
374.965	383.69
375.191	396.69
375.416	379.69
375.642	368.69
375.868	364.69
376.094	378.69
376.319	369.69
376.545	365.69
376.771	369.69
376.997	364.69
377.222	342.69
377.448	364.69
377.674	359.69
377.899	351.69
378.125	357.69
378.35	347.69
378.576	349.69
378.802	365.69
379.027	361.69
379.253	358.69
379.478	357.69
379.704	360.69
379.929	360.69
380.155	339.69
380.38	356.69
380.606	345.69
380.831	354.69
381.057	359.69
381.282	336.69
381.507	352.69
381.733	365.69
381.958	340.69
382.184	365.69
382.409	363.69
382.634	356.69
382.86	365.69
383.085	377.69
383.31	367.69
383.535	373.69
383.761	372.69
383.986	377.69
384.211	398.69
384.436	396.69
384.662	386.69
384.887	415.69
385.112	392.69
385.337	415.69
385.562	404.69
385.787	392.69
386.013	388.69
386.238	393.69
386.463	420.69
386.688	401.69
386.913	395.69
387.138	422.69
387.363	409.69
387.588	404.69
387.813	401.69
388.038	401.69
388.263	408.69
388.488	397.69
388.713	401.69
388.938	409.69
389.163	412.69
389.387	426.69
389.612	395.69
389.837	387.69
390.062	384.69
390.287	387.69
390.512	396.69
390.736	410.69
390.961	399.69
391.186	403.69
391.411	411.69
391.636	421.69
391.86	436.69
392.085	427.69
392.31	420.69
392.534	419.69
392.759	436.69
392.984	417.69
393.208	424.69
393.433	440.69
393.658	400.69
393.882	411.69
394.107	424.69
394.331	413.69
394.556	417.69
394.78	424.69
395.005	408.69
395.229	415.69
395.454	397.69
395.678	415.69
395.903	438.69
396.127	445.69
396.352	424.69
396.576	443.69
396.801	413.69
397.025	422.69
397.249	419.69
397.474	432.69
397.698	439.69
397.922	458.69
398.147	460.69
398.371	445.69
398.595	463.69
398.82	482.69
399.044	501.69
399.268	528.69
399.492	581.69
399.717	618.69
399.941	660.69
400.165	605.69
400.389	613.69
400.613	525.69
400.837	512.69
401.062	498.69
401.286	474.69
401.51	461.69
401.734	473.69
401.958	511.69
402.182	487.69
402.406	479.69
402.63	485.69
402.854	481.69
403.078	516.69
403.302	515.69
403.526	499.69
403.75	513.69
403.974	525.69
404.198	511.69
404.422	522.69
404.645	532.69
404.869	547.69
405.093	553.69
405.317	598.69
405.541	611.69
405.765	560.69
405.988	537.69
406.212	526.69
406.436	517.69
406.66	536.69
406.883	535.69
407.107	541.69
407.331	576.69
407.555	649.69
407.778	627.69
408.002	596.69
408.226	540.69
408.449	552.69
408.673	553.69
408.896	548.69
409.12	578.69
409.344	552.69
409.567	512.69
409.791	531.69
410.014	521.69
410.238	517.69
410.461	483.69
410.685	485.69
410.908	499.69
411.132	528.69
411.355	526.69
411.578	533.69
411.802	507.69
412.025	518.69
412.249	528.69
412.472	556.69
412.695	570.69
412.919	557.69
413.142	515.69
413.365	500.69
413.589	499.69
413.812	493.69
414.035	474.69
414.258	486.69
414.482	498.69
414.705	458.69
414.928	476.69
415.151	450.69
415.374	454.69
415.597	455.69
415.821	455.69
416.044	457.69
416.267	455.69
416.49	463.69
416.713	462.69
416.936	454.69
417.159	442.69
417.382	452.69
417.605	460.69
417.828	473.69
418.051	499.69
418.274	479.69
418.497	461.69
418.72	463.69
418.943	485.69
419.166	502.69
419.389	534.69
419.611	526.69
419.834	515.69
420.057	523.69
420.28	512.69
420.503	530.69
420.726	511.69
420.948	498.69
421.171	502.69
421.394	533.69
421.617	497.69
421.839	496.69
422.062	486.69
422.285	491.69
422.507	529.69
422.73	565.69
422.953	552.69
423.175	495.69
423.398	482.69
423.621	497.69
423.843	521.69
424.066	504.69
424.288	517.69
424.511	528.69
424.733	551.69
424.956	585.69
425.178	564.69
425.401	559.69
425.623	576.69
425.846	495.69
426.068	474.69
426.291	482.69
426.513	489.69
426.735	498.69
426.958	517.69
427.18	548.69
427.402	631.69
427.625	709.69
427.847	631.69
428.069	593.69
428.292	532.69
428.514	470.69
428.736	488.69
428.958	466.69
429.181	433.69
429.403	431.69
429.625	432.69
429.847	444.69
430.069	490.69
430.292	509.69
430.514	464.69
430.736	434.69
430.958	432.69
431.18	418.69
431.402	439.69
431.624	424.69
431.846	419.69
432.068	437.69
432.29	435.69
432.512	420.69
432.734	452.69
432.956	438.69
433.178	427.69
433.4	442.69
433.622	430.69
433.844	426.69
434.066	447.69
434.287	420.69
434.509	438.69
434.731	447.69
434.953	479.69
435.175	478.69
435.397	485.69
435.618	476.69
435.84	498.69
436.062	559.69
436.284	575.69
436.505	515.69
436.727	464.69
436.949	450.69
437.17	441.69
437.392	437.69
437.614	440.69
437.835	451.69
438.057	518.69
438.278	547.69
438.5	567.69
438.721	600.69
438.943	567.69
439.165	481.69
439.386	470.69
439.608	460.69
439.829	448.69
440.05	471.69
440.272	495.69
440.493	483.69
440.715	478.69
440.936	443.69
441.158	440.69
441.379	461.69
441.6	487.69
441.822	491.69
442.043	503.69
442.264	548.69
442.486	575.69
442.707	523.69
442.928	497.69
443.149	505.69
443.371	489.69
443.592	529.69
443.813	567.69
444.034	631.69
444.255	521.69
444.476	520.69
444.698	526.69
444.919	537.69
445.14	599.69
445.361	549.69
445.582	524.69
445.803	543.69
446.024	585.69
446.245	603.69
446.466	571.69
446.687	488.69
446.908	458.69
447.129	439.69
447.35	441.69
447.571	439.69
447.792	410.69
448.013	421.69
448.234	447.69
448.455	450.69
448.675	526.69
448.896	607.69
449.117	529.69
449.338	500.69
449.559	553.69
449.779	633.69
450	516.69
450.221	457.69
450.442	410.69
450.662	431.69
450.883	412.69
451.104	444.69
451.324	412.69
451.545	398.69
451.766	383.69
451.986	381.69
452.207	383.69
452.428	393.69
452.648	409.69
452.869	402.69
453.089	420.69
453.31	410.69
453.53	386.69
453.751	385.69
453.971	412.69
454.192	384.69
454.412	388.69
454.633	397.69
454.853	398.69
455.073	380.69
455.294	371.69
455.514	425.69
455.734	419.69
455.955	390.69
456.175	392.69
456.395	370.69
456.616	362.69
456.836	359.69
457.056	368.69
457.276	380.69
457.497	382.69
457.717	387.69
457.937	385.69
458.157	400.69
458.377	401.69
458.598	412.69
458.818	438.69
459.038	468.69
459.258	490.69
459.478	450.69
459.698	443.69
459.918	456.69
460.138	437.69
460.358	463.69
460.578	461.69
460.798	455.69
461.018	463.69
461.238	475.69
461.458	447.69
461.678	460.69
461.898	472.69
462.118	476.69
462.338	485.69
462.558	492.69
462.777	474.69
462.997	531.69
463.217	567.69
463.437	559.69
463.657	520.69
463.876	507.69
464.096	508.69
464.316	519.69
464.536	519.69
464.755	521.69
464.975	496.69
465.195	509.69
465.414	517.69
465.634	465.69
465.854	450.69
466.073	452.69
466.293	432.69
466.512	414.69
466.732	413.69
466.951	409.69
467.171	407.69
467.391	418.69
467.61	417.69
467.829	413.69
468.049	426.69
468.268	413.69
468.488	423.69
468.707	422.69
468.927	405.69
469.146	399.69
469.365	393.69
469.585	415.69
469.804	393.69
470.023	422.69
470.243	415.69
470.462	442.69
470.681	452.69
470.901	424.69
471.12	423.69
471.339	416.69
471.558	414.69
471.777	416.69
471.997	403.69
472.216	429.69
472.435	500.69
472.654	484.69
472.873	436.69
473.092	435.69
473.311	414.69
473.53	385.69
473.749	404.69
473.968	454.69
474.187	493.69
474.406	485.69
474.625	443.69
474.844	424.69
475.063	397.69
475.282	416.69
475.501	419.69
475.72	421.69
475.939	402.69
476.158	415.69
476.377	410.69
476.596	433.69
476.814	435.69
477.033	424.69
477.252	423.69
477.471	433.69
477.69	475.69
477.908	452.69
478.127	458.69
478.346	453.69
478.564	450.69
478.783	465.69
479.002	473.69
479.22	488.69
479.439	464.69
479.658	496.69
479.876	507.69
480.095	526.69
480.313	520.69
480.532	538.69
480.751	549.69
480.969	523.69
481.188	667.69
481.406	720.69
481.624	578.69
481.843	515.69
482.061	504.69
482.28	484.69
482.498	487.69
482.717	478.69
482.935	475.69
483.153	482.69
483.372	470.69
483.59	465.69
483.808	451.69
484.027	499.69
484.245	463.69
484.463	465.69
484.681	493.69
484.9	480.69
485.118	483.69
485.336	451.69
485.554	496.69
485.772	493.69
485.99	467.69
486.209	473.69
486.427	491.69
486.645	480.69
486.863	490.69
487.081	487.69
487.299	513.69
487.517	503.69
487.735	490.69
487.953	484.69
488.171	501.69
488.389	516.69
488.607	492.69
488.825	487.69
489.043	499.69
489.261	487.69
489.479	499.69
489.696	521.69
489.914	531.69
490.132	499.69
490.35	511.69
490.568	531.69
490.786	532.69
491.003	533.69
491.221	563.69
491.439	569.69
491.657	573.69
491.874	560.69
492.092	571.69
492.31	592.69
492.527	583.69
492.745	588.69
492.963	573.69
493.18	589.69
493.398	588.69
493.615	578.69
493.833	573.69
494.05	576.69
494.268	599.69
494.485	564.69
494.703	594.69
494.92	582.69
495.138	602.69
495.355	594.69
495.573	565.69
495.79	571.69
496.008	562.69
496.225	553.69
496.442	556.69
496.66	600.69
496.877	580.69
497.094	584.69
497.312	615.69
497.529	600.69
497.746	598.69
497.963	632.69
498.181	641.69
498.398	645.69
498.615	673.69
498.832	696.69
499.049	717.69
499.267	758.69
499.484	808.69
499.701	837.69
499.918	883.69
500.135	977.69
500.352	1044.69
500.569	1060.69
500.786	1106.69
501.003	1071.69
501.22	1004.69
501.437	923.69
501.654	839.69
501.871	821.69
502.088	783.69
502.305	730.69
502.522	693.69
502.739	708.69
502.956	667.69
503.172	633.69
503.389	628.69
503.606	583.69
503.823	606.69
504.04	587.69
504.256	579.69
504.473	584.69
504.69	602.69
504.907	593.69
505.123	585.69
505.34	548.69
505.557	540.69
505.773	538.69
505.99	524.69
506.207	538.69
506.423	539.69
506.64	520.69
506.856	506.69
507.073	529.69
507.289	500.69
507.506	517.69
507.722	510.69
507.939	499.69
508.155	509.69
508.372	490.69
508.588	495.69
508.805	501.69
509.021	486.69
509.238	509.69
509.454	489.69
509.67	499.69
509.887	475.69
510.103	479.69
510.319	476.69
510.536	575.69
510.752	784.69
510.968	652.69
511.184	487.69
511.401	467.69
511.617	484.69
511.833	482.69
512.049	489.69
512.265	493.69
512.481	495.69
512.698	497.69
512.914	476.69
513.13	472.69
513.346	466.69
513.562	478.69
513.778	458.69
513.994	478.69
514.21	491.69
514.426	500.69
514.642	503.69
514.858	503.69
515.074	535.69
515.29	602.69
515.506	821.69
515.721	679.69
515.937	530.69
516.153	526.69
516.369	513.69
516.585	514.69
516.801	520.69
517.016	525.69
517.232	528.69
517.448	555.69
517.664	539.69
517.879	556.69
518.095	564.69
518.311	557.69
518.527	540.69
518.742	548.69
518.958	520.69
519.173	492.69
519.389	505.69
519.605	473.69
519.82	478.69
520.036	477.69
520.251	501.69
520.467	498.69
520.682	498.69
520.898	496.69
521.113	492.69
521.329	517.69
521.544	523.69
521.76	651.69
521.975	983.69
522.19	959.69
522.406	601.69
522.621	513.69
522.836	476.69
523.052	470.69
523.267	433.69
523.482	440.69
523.698	433.69
523.913	425.69
524.128	437.69
524.343	424.69
524.559	417.69
524.774	406.69
524.989	403.69
525.204	429.69
525.419	431.69
525.634	409.69
525.849	400.69
526.064	420.69
526.28	416.69
526.495	397.69
526.71	379.69
526.925	391.69
527.14	392.69
527.355	402.69
527.57	401.69
527.785	394.69
527.999	404.69
528.214	402.69
528.429	414.69
528.644	405.69
528.859	396.69
529.074	407.69
529.289	398.69
529.503	435.69
529.718	438.69
529.933	397.69
530.148	396.69
530.363	395.69
530.577	396.69
530.792	389.69
531.007	393.69
531.221	394.69
531.436	395.69
531.651	374.69
531.865	372.69
532.08	380.69
532.295	400.69
532.509	386.69
532.724	390.69
532.938	386.69
533.153	405.69
533.367	397.69
533.582	374.69
533.796	384.69
534.011	400.69
534.225	391.69
534.44	384.69
534.654	386.69
534.868	376.69
535.083	399.69
535.297	397.69
535.511	389.69
535.726	402.69
535.94	397.69
536.154	380.69
536.369	379.69
536.583	374.69
536.797	364.69
537.011	374.69
537.225	346.69
537.44	365.69
537.654	369.69
537.868	369.69
538.082	353.69
538.296	377.69
538.51	356.69
538.724	368.69
538.938	377.69
539.153	364.69
539.367	377.69
539.581	374.69
539.795	344.69
540.009	375.69
540.222	374.69
540.436	362.69
540.65	364.69
540.864	384.69
541.078	371.69
541.292	372.69
541.506	363.69
541.72	373.69
541.934	363.69
542.147	370.69
542.361	359.69
542.575	369.69
542.789	373.69
543.002	362.69
543.216	353.69
543.43	371.69
543.644	366.69
543.857	355.69
544.071	373.69
544.285	369.69
544.498	379.69
544.712	361.69
544.925	361.69
545.139	390.69
545.352	376.69
545.566	368.69
545.779	373.69
545.993	368.69
546.206	365.69
546.42	379.69
546.633	369.69
546.847	380.69
547.06	359.69
547.274	371.69
547.487	371.69
547.7	376.69
547.914	357.69
548.127	375.69
548.34	379.69
548.554	361.69
548.767	371.69
548.98	360.69
549.193	355.69
549.407	369.69
549.62	377.69
549.833	363.69
550.046	376.69
550.259	357.69
550.473	344.69
550.686	378.69
550.899	340.69
551.112	362.69
551.325	357.69
551.538	369.69
551.751	363.69
551.964	368.69
552.177	378.69
552.39	360.69
552.603	374.69
552.816	367.69
553.029	382.69
553.242	380.69
553.455	387.69
553.667	408.69
553.88	399.69
554.093	377.69
554.306	351.69
554.519	367.69
554.732	369.69
554.944	338.69
555.157	353.69
555.37	347.69
555.583	350.69
555.795	350.69
556.008	330.69
556.221	327.69
556.433	339.69
556.646	336.69
556.859	333.69
557.071	350.69
557.284	328.69
557.496	330.69
557.709	320.69
557.921	323.69
558.134	310.69
558.346	321.69
558.559	327.69
558.771	327.69
558.984	306.69
559.196	316.69
559.409	316.69
559.621	308.69
559.833	305.69
560.046	313.69
560.258	326.69
560.47	311.69
560.683	311.69
560.895	324.69
561.107	321.69
561.32	306.69
561.532	330.69
561.744	304.69
561.956	308.69
562.168	303.69
562.381	348.69
562.593	325.69
562.805	333.69
563.017	321.69
563.229	322.69
563.441	313.69
563.653	307.69
563.865	336.69
564.077	328.69
564.289	335.69
564.501	334.69
564.713	332.69
564.925	358.69
565.137	363.69
565.349	345.69
565.561	364.69
565.773	356.69
565.985	388.69
566.197	412.69
566.408	401.69
566.62	415.69
566.832	461.69
567.044	447.69
567.255	441.69
567.467	453.69
567.679	496.69
567.891	517.69
568.102	493.69
568.314	488.69
568.526	458.69
568.737	425.69
568.949	400.69
569.161	375.69
569.372	375.69
569.584	369.69
569.795	359.69
570.007	362.69
570.218	372.69
570.43	356.69
570.641	325.69
570.853	329.69
571.064	355.69
571.276	334.69
571.487	335.69
571.698	317.69
571.91	322.69
572.121	313.69
572.333	312.69
572.544	292.69
572.755	289.69
572.966	291.69
573.178	300.69
573.389	283.69
573.6	290.69
573.811	297.69
574.023	293.69
574.234	283.69
574.445	299.69
574.656	281.69
574.867	299.69
575.078	276.69
575.289	288.69
575.501	287.69
575.712	247.69
575.923	265.69
576.134	285.69
576.345	287.69
576.556	307.69
576.767	279.69
576.978	277.69
577.188	273.69
577.399	267.69
577.61	267.69
577.821	277.69
578.032	273.69
578.243	291.69
578.454	383.69
578.665	321.69
578.875	263.69
579.086	250.69
579.297	255.69
579.508	255.69
579.718	283.69
579.929	263.69
580.14	249.69
580.35	260.69
580.561	249.69
580.772	270.69
580.982	268.69
581.193	257.69
581.403	264.69
581.614	260.69
581.825	263.69
582.035	251.69
582.246	264.69
582.456	269.69
582.667	245.69
582.877	232.69
583.087	256.69
583.298	241.69
583.508	250.69
583.719	236.69
583.929	255.69
584.139	244.69
584.35	250.69
584.56	253.69
584.77	255.69
584.981	248.69
585.191	261.69
585.401	263.69
585.611	272.69
585.821	262.69
586.032	256.69
586.242	244.69
586.452	247.69
586.662	231.69
586.872	251.69
587.082	243.69
587.292	240.69
587.502	236.69
587.713	243.69
587.923	261.69
588.133	243.69
588.343	255.69
588.553	240.69
588.762	258.69
588.972	259.69
589.182	268.69
589.392	259.69
589.602	252.69
589.812	249.69
590.022	266.69
590.232	255.69
590.441	262.69
590.651	248.69
590.861	246.69
591.071	255.69
591.281	250.69
591.49	257.69
591.7	273.69
591.91	265.69
592.119	259.69
592.329	264.69
592.539	279.69
592.748	262.69
592.958	286.69
593.167	298.69
593.377	288.69
593.587	299.69
593.796	306.69
594.006	290.69
594.215	272.69
594.424	296.69
594.634	272.69
594.843	281.69
595.053	280.69
595.262	276.69
595.472	263.69
595.681	262.69
595.89	240.69
596.1	252.69
596.309	242.69
596.518	244.69
596.727	246.69
596.937	241.69
597.146	235.69
597.355	259.69
597.564	233.69
597.774	243.69
597.983	233.69
598.192	229.69
598.401	231.69
598.61	221.69
598.819	214.69
599.028	241.69
599.237	241.69
599.446	217.69
599.655	234.69
599.864	231.69
600.073	222.69
600.282	231.69
600.491	210.69
600.7	215.69
600.909	218.69
601.118	212.69
601.327	199.69
601.536	213.69
601.745	217.69
601.953	220.69
602.162	211.69
602.371	227.69
602.58	236.69
602.789	219.69
602.997	205.69
603.206	231.69
603.415	211.69
603.623	220.69
603.832	208.69
604.041	207.69
604.249	198.69
604.458	212.69
604.666	200.69
604.875	195.69
605.084	202.69
605.292	193.69
605.501	197.69
605.709	192.69
605.918	218.69
606.126	211.69
606.334	211.69
606.543	200.69
606.751	197.69
606.96	203.69
607.168	210.69
607.376	209.69
607.585	208.69
607.793	197.69
608.001	203.69
608.21	206.69
608.418	205.69
608.626	205.69
608.834	211.69
609.043	214.69
609.251	221.69
609.459	206.69
609.667	208.69
609.875	221.69
610.083	205.69
610.291	202.69
610.499	202.69
610.707	210.69
610.916	218.69
611.124	230.69
611.332	196.69
611.54	202.69
611.748	199.69
611.955	206.69
612.163	198.69
612.371	205.69
612.579	211.69
612.787	207.69
612.995	197.69
613.203	200.69
613.411	208.69
613.618	201.69
613.826	201.69
614.034	207.69
614.242	218.69
614.449	202.69
614.657	213.69
614.865	207.69
615.072	199.69
615.28	205.69
615.488	201.69
615.695	195.69
615.903	214.69
616.111	211.69
616.318	200.69
616.526	195.69
616.733	189.69
616.941	191.69
617.148	199.69
617.356	203.69
617.563	208.69
617.771	189.69
617.978	198.69
618.185	201.69
618.393	191.69
618.6	205.69
618.807	200.69
619.015	204.69
619.222	200.69
619.429	197.69
619.637	188.69
619.844	187.69
620.051	188.69
620.258	175.69
620.466	195.69
620.673	178.69
620.88	191.69
621.087	185.69
621.294	191.69
621.501	191.69
621.708	184.69
621.915	207.69
622.122	195.69
622.329	201.69
622.536	183.69
622.743	190.69
622.95	168.69
623.157	175.69
623.364	200.69
623.571	189.69
623.778	176.69
623.985	176.69
624.192	176.69
624.399	173.69
624.606	173.69
624.812	179.69
625.019	179.69
625.226	181.69
625.433	178.69
625.639	162.69
625.846	173.69
626.053	179.69
626.259	176.69
626.466	176.69
626.673	169.69
626.879	180.69
627.086	171.69
627.293	182.69
627.499	173.69
627.706	185.69
627.912	158.69
628.119	173.69
628.325	180.69
628.532	174.69
628.738	185.69
628.945	175.69
629.151	180.69
629.357	173.69
629.564	175.69
629.77	177.69
629.976	177.69
630.183	157.69
630.389	165.69
630.595	168.69
630.802	168.69
631.008	150.69
631.214	158.69
631.42	165.69
631.627	156.69
631.833	162.69
632.039	178.69
632.245	172.69
632.451	164.69
632.657	155.69
632.863	164.69
633.069	155.69
633.275	171.69
633.481	164.69
633.688	172.69
633.893	159.69
634.099	158.69
634.305	157.69
634.511	156.69
634.717	158.69
634.923	160.69
635.129	158.69
635.335	149.69
635.541	145.69
635.747	139.69
635.952	142.69
636.158	163.69
636.364	171.69
636.57	174.69
636.775	179.69
636.981	175.69
637.187	141.69
637.392	137.69
637.598	183.69
637.804	170.69
638.009	153.69
638.215	161.69
638.421	160.69
638.626	161.69
638.832	153.69
639.037	158.69
639.243	162.69
639.448	150.69
639.654	163.69
639.859	141.69
640.065	143.69
640.27	153.69
640.475	146.69
640.681	146.69
640.886	146.69
641.091	147.69
641.297	156.69
641.502	161.69
641.707	139.69
641.913	149.69
642.118	162.69
642.323	150.69
642.528	137.69
642.733	135.69
642.939	147.69
643.144	159.69
643.349	141.69
643.554	154.69
643.759	145.69
643.964	149.69
644.169	142.69
644.374	155.69
644.579	152.69
644.784	155.69
644.989	133.69
645.194	141.69
645.399	149.69
645.604	142.69
645.809	147.69
646.014	139.69
646.219	144.69
646.423	150.69
646.628	147.69
646.833	137.69
647.038	142.69
647.243	129.69
647.447	150.69
647.652	149.69
647.857	147.69
648.062	139.69
648.266	142.69
648.471	161.69
648.676	148.69
648.88	151.69
649.085	161.69
649.289	150.69
649.494	144.69
649.698	160.69
649.903	164.69
650.107	157.69
650.312	139.69
650.516	133.69
650.721	151.69
650.925	135.69
651.13	137.69
651.334	145.69
651.539	130.69
651.743	131.69
651.947	137.69
652.152	133.69
652.356	123.69
652.56	135.69
652.764	122.69
652.969	138.69
653.173	125.69
653.377	115.69
653.581	121.69
653.785	129.69
653.99	128.69
654.194	123.69
654.398	113.69
654.602	131.69
654.806	130.69
655.01	122.69
655.214	104.69
655.418	121.69
655.622	129.69
655.826	112.69
656.03	124.69
656.234	107.69
656.438	119.69
656.642	143.69
656.846	122.69
657.049	137.69
657.253	133.69
657.457	115.69
657.661	101.69
657.865	109.69
658.068	97.69
658.272	104.69
658.476	104.69
658.68	105.69
658.883	109.69
659.087	99.69
659.291	94.69
659.494	104.69
659.698	83.69
659.901	96.69
660.105	103.69
660.309	86.69
660.512	92.69
660.716	85.69
660.919	99.69
661.123	85.69
661.326	98.69
661.53	88.69
661.733	93.69
661.936	76.69
662.14	79.69
662.343	93.69
662.546	90.69
662.75	82.69
662.953	95.69
663.156	76.69
663.36	76.69
663.563	90.69
663.766	84.69
663.969	87.69
664.173	84.69
664.376	74.69
664.579	78.69
664.782	90.69
664.985	83.69
665.188	82.69
665.391	84.69
665.594	78.69
665.797	86.69
666	86.69
666.203	88.69
666.406	71.69
666.609	76.69
666.812	79.69
667.015	80.69
667.218	81.69
667.421	93.69
667.624	85.69
667.827	95.69
668.03	71.69
668.232	67.69
668.435	66.69
668.638	85.69
668.841	89.69
669.043	83.69
669.246	73.69
669.449	72.69
669.651	68.69
669.854	75.69
670.057	69.69
670.259	71.69
670.462	92.69
670.665	89.69
670.867	81.69
671.07	76.69
671.272	82.69
671.475	68.69
671.677	101.69
671.88	87.69
672.082	73.69
672.284	77.69
672.487	85.69
672.689	84.69
672.892	80.69
