Data from 1984.PennyLincolnUp.Lamp.En5.5.200Scan.071819.P1_HRD10591_16-57-39-970.txt Node
Date: Thu Jul 18 16:57:39 EDT 2019
User: cochatt
Spectrometer: HR+D1059
Trigger mode: 1
Integration Time (sec): 1.000000E-1
Scans to average: 1
Electric dark correction enabled: true
Nonlinearity correction enabled: false
Boxcar width: 0
XAxis mode: Wavelengths
Number of Pixels in Spectrum: 2048
>>>>>Begin Spectral Data<<<<<
223.165	-8.12
223.4	-8.12
223.635	-8.12
223.869	-20.12
224.104	-26.12
224.338	-23.12
224.573	-16.12
224.808	-8.12
225.042	2.88
225.277	-0.12
225.511	11.88
225.746	-0.12
225.98	3.88
226.215	17.88
226.449	1.88
226.683	10.88
226.918	26.88
227.152	25.88
227.387	17.88
227.621	43.88
227.856	44.88
228.09	44.88
228.324	45.88
228.559	40.88
228.793	75.88
229.027	83.88
229.262	89.88
229.496	87.88
229.73	101.88
229.964	125.88
230.199	105.88
230.433	99.88
230.667	89.88
230.901	93.88
231.136	111.88
231.37	88.88
231.604	98.88
231.838	109.88
232.072	107.88
232.306	100.88
232.541	106.88
232.775	109.88
233.009	104.88
233.243	94.88
233.477	113.88
233.711	99.88
233.945	101.88
234.179	111.88
234.413	100.88
234.647	107.88
234.881	115.88
235.115	106.88
235.349	105.88
235.583	117.88
235.817	115.88
236.051	97.88
236.285	102.88
236.519	104.88
236.753	106.88
236.987	112.88
237.221	133.88
237.455	145.88
237.689	147.88
237.922	107.88
238.156	119.88
238.39	113.88
238.624	115.88
238.858	116.88
239.091	103.88
239.325	115.88
239.559	121.88
239.793	119.88
240.027	113.88
240.26	131.88
240.494	133.88
240.728	135.88
240.961	133.88
241.195	126.88
241.429	127.88
241.662	128.88
241.896	134.88
242.13	109.88
242.363	106.88
242.597	112.88
242.83	125.88
243.064	120.88
243.298	131.88
243.531	128.88
243.765	127.88
243.998	130.88
244.232	129.88
244.465	126.88
244.699	137.88
244.932	135.88
245.166	154.88
245.399	149.88
245.633	133.88
245.866	147.88
246.099	130.88
246.333	136.88
246.566	131.88
246.8	132.88
247.033	153.88
247.266	146.88
247.5	149.88
247.733	163.88
247.966	138.88
248.2	136.88
248.433	167.88
248.666	141.88
248.899	142.88
249.133	147.88
249.366	174.88
249.599	170.88
249.832	161.88
250.066	153.88
250.299	174.88
250.532	162.88
250.765	143.88
250.998	164.88
251.231	191.88
251.465	161.88
251.698	167.88
251.931	185.88
252.164	163.88
252.397	148.88
252.63	179.88
252.863	178.88
253.096	170.88
253.329	189.88
253.562	189.88
253.795	182.88
254.028	180.88
254.261	177.88
254.494	192.88
254.727	200.88
254.96	205.88
255.193	201.88
255.426	205.88
255.659	181.88
255.892	204.88
256.124	173.88
256.357	181.88
256.59	177.88
256.823	177.88
257.056	174.88
257.289	175.88
257.521	176.88
257.754	187.88
257.987	168.88
258.22	188.88
258.452	177.88
258.685	176.88
258.918	177.88
259.151	171.88
259.383	189.88
259.616	186.88
259.849	203.88
260.081	190.88
260.314	213.88
260.547	209.88
260.779	205.88
261.012	197.88
261.244	199.88
261.477	196.88
261.71	194.88
261.942	202.88
262.175	201.88
262.407	196.88
262.64	176.88
262.872	175.88
263.105	181.88
263.337	187.88
263.57	183.88
263.802	193.88
264.035	206.88
264.267	208.88
264.499	194.88
264.732	180.88
264.964	198.88
265.197	191.88
265.429	197.88
265.661	188.88
265.894	197.88
266.126	211.88
266.358	204.88
266.591	202.88
266.823	203.88
267.055	191.88
267.287	187.88
267.52	219.88
267.752	205.88
267.984	214.88
268.216	221.88
268.448	206.88
268.681	193.88
268.913	221.88
269.145	235.88
269.377	240.88
269.609	228.88
269.841	225.88
270.073	226.88
270.306	266.88
270.538	256.88
270.77	258.88
271.002	249.88
271.234	264.88
271.466	245.88
271.698	248.88
271.93	256.88
272.162	246.88
272.394	254.88
272.626	252.88
272.858	240.88
273.09	239.88
273.322	241.88
273.553	234.88
273.785	228.88
274.017	222.88
274.249	219.88
274.481	233.88
274.713	241.88
274.945	239.88
275.176	238.88
275.408	221.88
275.64	226.88
275.872	255.88
276.104	226.88
276.335	243.88
276.567	230.88
276.799	246.88
277.031	253.88
277.262	248.88
277.494	257.88
277.726	251.88
277.957	236.88
278.189	234.88
278.421	252.88
278.652	258.88
278.884	239.88
279.115	243.88
279.347	250.88
279.579	240.88
279.81	242.88
280.042	260.88
280.273	261.88
280.505	240.88
280.736	236.88
280.968	227.88
281.199	266.88
281.431	253.88
281.662	260.88
281.894	261.88
282.125	256.88
282.356	265.88
282.588	283.88
282.819	269.88
283.051	252.88
283.282	266.88
283.513	263.88
283.745	269.88
283.976	256.88
284.207	278.88
284.439	259.88
284.67	259.88
284.901	267.88
285.132	245.88
285.364	252.88
285.595	265.88
285.826	246.88
286.057	259.88
286.288	270.88
286.52	269.88
286.751	249.88
286.982	267.88
287.213	283.88
287.444	269.88
287.675	276.88
287.906	258.88
288.138	267.88
288.369	304.88
288.6	278.88
288.831	258.88
289.062	283.88
289.293	265.88
289.524	279.88
289.755	270.88
289.986	281.88
290.217	266.88
290.448	263.88
290.679	265.88
290.91	269.88
291.141	285.88
291.371	264.88
291.602	268.88
291.833	269.88
292.064	276.88
292.295	276.88
292.526	274.88
292.757	280.88
292.987	278.88
293.218	280.88
293.449	273.88
293.68	276.88
293.91	287.88
294.141	280.88
294.372	279.88
294.603	256.88
294.833	273.88
295.064	269.88
295.295	273.88
295.525	269.88
295.756	292.88
295.987	285.88
296.217	287.88
296.448	314.88
296.679	293.88
296.909	283.88
297.14	275.88
297.37	281.88
297.601	289.88
297.831	295.88
298.062	304.88
298.292	285.88
298.523	300.88
298.753	300.88
298.984	288.88
299.214	287.88
299.445	281.88
299.675	296.88
299.905	297.88
300.136	293.88
300.366	317.88
300.597	306.88
300.827	313.88
301.057	320.88
301.288	323.88
301.518	319.88
301.748	296.88
301.979	308.88
302.209	322.88
302.439	300.88
302.669	308.88
302.9	339.88
303.13	309.88
303.36	313.88
303.59	303.88
303.82	303.88
304.051	307.88
304.281	322.88
304.511	312.88
304.741	289.88
304.971	301.88
305.201	292.88
305.431	295.88
305.661	319.88
305.891	303.88
306.121	303.88
306.352	281.88
306.582	292.88
306.812	310.88
307.042	319.88
307.272	296.88
307.502	300.88
307.731	317.88
307.961	310.88
308.191	315.88
308.421	324.88
308.651	314.88
308.881	300.88
309.111	307.88
309.341	311.88
309.571	317.88
309.8	312.88
310.03	314.88
310.26	320.88
310.49	309.88
310.72	332.88
310.949	343.88
311.179	323.88
311.409	323.88
311.639	316.88
311.868	303.88
312.098	328.88
312.328	349.88
312.557	362.88
312.787	357.88
313.017	344.88
313.246	343.88
313.476	323.88
313.706	324.88
313.935	334.88
314.165	361.88
314.394	342.88
314.624	339.88
314.853	324.88
315.083	329.88
315.312	335.88
315.542	316.88
315.771	344.88
316.001	348.88
316.23	341.88
316.46	309.88
316.689	336.88
316.919	365.88
317.148	328.88
317.377	342.88
317.607	345.88
317.836	337.88
318.065	335.88
318.295	324.88
318.524	317.88
318.753	352.88
318.983	339.88
319.212	352.88
319.441	331.88
319.67	345.88
319.9	359.88
320.129	336.88
320.358	337.88
320.587	332.88
320.816	326.88
321.046	332.88
321.275	355.88
321.504	354.88
321.733	351.88
321.962	355.88
322.191	365.88
322.42	340.88
322.649	358.88
322.878	372.88
323.108	355.88
323.337	356.88
323.566	378.88
323.795	390.88
324.024	413.88
324.253	481.88
324.482	611.88
324.71	858.88
324.939	1205.88
325.168	1043.88
325.397	609.88
325.626	474.88
325.855	426.88
326.084	405.88
326.313	403.88
326.542	404.88
326.77	442.88
326.999	486.88
327.228	553.88
327.457	794.88
327.686	917.88
327.914	671.88
328.143	511.88
328.372	453.88
328.6	414.88
328.829	403.88
329.058	393.88
329.287	426.88
329.515	423.88
329.744	411.88
329.972	385.88
330.201	396.88
330.43	412.88
330.658	406.88
330.887	440.88
331.115	417.88
331.344	407.88
331.572	421.88
331.801	410.88
332.03	419.88
332.258	403.88
332.486	412.88
332.715	401.88
332.943	425.88
333.172	427.88
333.4	439.88
333.629	451.88
333.857	461.88
334.085	449.88
334.314	447.88
334.542	448.88
334.771	431.88
334.999	401.88
335.227	426.88
335.455	423.88
335.684	439.88
335.912	422.88
336.14	407.88
336.369	396.88
336.597	417.88
336.825	409.88
337.053	394.88
337.281	408.88
337.51	414.88
337.738	405.88
337.966	388.88
338.194	398.88
338.422	357.88
338.65	401.88
338.878	387.88
339.106	405.88
339.334	389.88
339.562	381.88
339.79	371.88
340.018	379.88
340.246	372.88
340.474	371.88
340.702	375.88
340.93	385.88
341.158	383.88
341.386	368.88
341.614	371.88
341.842	378.88
342.07	376.88
342.298	372.88
342.526	352.88
342.754	362.88
342.981	359.88
343.209	373.88
343.437	378.88
343.665	391.88
343.893	408.88
344.12	413.88
344.348	391.88
344.576	375.88
344.804	387.88
345.031	383.88
345.259	368.88
345.487	379.88
345.714	375.88
345.942	346.88
346.17	363.88
346.397	356.88
346.625	351.88
346.853	351.88
347.08	344.88
347.308	329.88
347.535	378.88
347.763	355.88
347.99	359.88
348.218	359.88
348.445	352.88
348.673	361.88
348.9	353.88
349.128	361.88
349.355	359.88
349.583	351.88
349.81	356.88
350.037	353.88
350.265	349.88
350.492	340.88
350.72	337.88
350.947	357.88
351.174	351.88
351.402	349.88
351.629	338.88
351.856	362.88
352.083	356.88
352.311	362.88
352.538	355.88
352.765	351.88
352.992	344.88
353.22	335.88
353.447	341.88
353.674	337.88
353.901	362.88
354.128	335.88
354.355	329.88
354.583	355.88
354.81	348.88
355.037	330.88
355.264	333.88
355.491	342.88
355.718	330.88
355.945	354.88
356.172	344.88
356.399	329.88
356.626	342.88
356.853	317.88
357.08	360.88
357.307	345.88
357.534	344.88
357.761	337.88
357.988	347.88
358.215	335.88
358.441	329.88
358.668	350.88
358.895	349.88
359.122	318.88
359.349	363.88
359.576	346.88
359.802	368.88
360.029	363.88
360.256	373.88
360.483	349.88
360.709	359.88
360.936	349.88
361.163	333.88
361.39	332.88
361.616	363.88
361.843	352.88
362.07	352.88
362.296	345.88
362.523	347.88
362.749	344.88
362.976	312.88
363.203	324.88
363.429	327.88
363.656	328.88
363.882	332.88
364.109	336.88
364.335	335.88
364.562	324.88
364.788	347.88
365.015	328.88
365.241	343.88
365.468	328.88
365.694	343.88
365.92	329.88
366.147	320.88
366.373	332.88
366.599	339.88
366.826	335.88
367.052	342.88
367.278	333.88
367.505	338.88
367.731	343.88
367.957	346.88
368.184	352.88
368.41	357.88
368.636	341.88
368.862	343.88
369.089	340.88
369.315	326.88
369.541	344.88
369.767	327.88
369.993	337.88
370.219	329.88
370.445	344.88
370.672	341.88
370.898	357.88
371.124	341.88
371.35	352.88
371.576	348.88
371.802	344.88
372.028	346.88
372.254	347.88
372.48	345.88
372.706	353.88
372.932	366.88
373.158	369.88
373.384	373.88
373.61	363.88
373.835	365.88
374.061	343.88
374.287	354.88
374.513	362.88
374.739	377.88
374.965	377.88
375.191	360.88
375.416	377.88
375.642	369.88
375.868	367.88
376.094	357.88
376.319	361.88
376.545	379.88
376.771	337.88
376.997	359.88
377.222	342.88
377.448	351.88
377.674	361.88
377.899	328.88
378.125	368.88
378.35	336.88
378.576	327.88
378.802	331.88
379.027	327.88
379.253	334.88
379.478	349.88
379.704	348.88
379.929	340.88
380.155	333.88
380.38	343.88
380.606	346.88
380.831	337.88
381.057	357.88
381.282	338.88
381.507	333.88
381.733	359.88
381.958	351.88
382.184	372.88
382.409	369.88
382.634	350.88
382.86	359.88
383.085	373.88
383.31	373.88
383.535	368.88
383.761	378.88
383.986	362.88
384.211	379.88
384.436	379.88
384.662	381.88
384.887	376.88
385.112	393.88
385.337	381.88
385.562	379.88
385.787	391.88
386.013	400.88
386.238	380.88
386.463	395.88
386.688	385.88
386.913	376.88
387.138	379.88
387.363	388.88
387.588	381.88
387.813	399.88
388.038	385.88
388.263	392.88
388.488	397.88
388.713	398.88
388.938	381.88
389.163	365.88
389.387	383.88
389.612	396.88
389.837	395.88
390.062	379.88
390.287	365.88
390.512	394.88
390.736	368.88
390.961	399.88
391.186	398.88
391.411	391.88
391.636	379.88
391.86	393.88
392.085	418.88
392.31	416.88
392.534	410.88
392.759	424.88
392.984	389.88
393.208	401.88
393.433	430.88
393.658	407.88
393.882	401.88
394.107	403.88
394.331	412.88
394.556	405.88
394.78	425.88
395.005	407.88
395.229	432.88
395.454	404.88
395.678	406.88
395.903	452.88
396.127	432.88
396.352	423.88
396.576	419.88
396.801	423.88
397.025	408.88
397.249	405.88
397.474	415.88
397.698	415.88
397.922	427.88
398.147	426.88
398.371	443.88
398.595	460.88
398.82	434.88
399.044	485.88
399.268	512.88
399.492	573.88
399.717	615.88
399.941	637.88
400.165	594.88
400.389	574.88
400.613	534.88
400.837	501.88
401.062	479.88
401.286	475.88
401.51	443.88
401.734	459.88
401.958	466.88
402.182	456.88
402.406	456.88
402.63	480.88
402.854	468.88
403.078	470.88
403.302	488.88
403.526	501.88
403.75	488.88
403.974	511.88
404.198	496.88
404.422	488.88
404.645	507.88
404.869	488.88
405.093	494.88
405.317	496.88
405.541	531.88
405.765	517.88
405.988	503.88
406.212	497.88
406.436	518.88
406.66	537.88
406.883	503.88
407.107	545.88
407.331	570.88
407.555	619.88
407.778	607.88
408.002	577.88
408.226	550.88
408.449	521.88
408.673	528.88
408.896	526.88
409.12	563.88
409.344	541.88
409.567	513.88
409.791	501.88
410.014	475.88
410.238	493.88
410.461	475.88
410.685	508.88
410.908	486.88
411.132	508.88
411.355	547.88
411.578	515.88
411.802	471.88
412.025	449.88
412.249	460.88
412.472	469.88
412.695	474.88
412.919	470.88
413.142	465.88
413.365	454.88
413.589	445.88
413.812	443.88
414.035	464.88
414.258	443.88
414.482	441.88
414.705	433.88
414.928	429.88
415.151	454.88
415.374	454.88
415.597	456.88
415.821	428.88
416.044	463.88
416.267	443.88
416.49	428.88
416.713	439.88
416.936	433.88
417.159	440.88
417.382	425.88
417.605	450.88
417.828	436.88
418.051	475.88
418.274	462.88
418.497	434.88
418.72	471.88
418.943	459.88
419.166	469.88
419.389	490.88
419.611	482.88
419.834	482.88
420.057	461.88
420.28	467.88
420.503	460.88
420.726	451.88
420.948	453.88
421.171	465.88
421.394	508.88
421.617	460.88
421.839	459.88
422.062	445.88
422.285	470.88
422.507	491.88
422.73	525.88
422.953	513.88
423.175	482.88
423.398	495.88
423.621	492.88
423.843	509.88
424.066	491.88
424.288	502.88
424.511	479.88
424.733	532.88
424.956	557.88
425.178	543.88
425.401	538.88
425.623	543.88
425.846	498.88
426.068	483.88
426.291	472.88
426.513	481.88
426.735	477.88
426.958	474.88
427.18	498.88
427.402	589.88
427.625	611.88
427.847	536.88
428.069	496.88
428.292	477.88
428.514	432.88
428.736	441.88
428.958	459.88
429.181	432.88
429.403	408.88
429.625	421.88
429.847	444.88
430.069	467.88
430.292	473.88
430.514	426.88
430.736	421.88
430.958	427.88
431.18	424.88
431.402	427.88
431.624	409.88
431.846	417.88
432.068	415.88
432.29	416.88
432.512	428.88
432.734	417.88
432.956	415.88
433.178	413.88
433.4	417.88
433.622	410.88
433.844	426.88
434.066	421.88
434.287	394.88
434.509	425.88
434.731	427.88
434.953	456.88
435.175	461.88
435.397	484.88
435.618	452.88
435.84	475.88
436.062	545.88
436.284	545.88
436.505	475.88
436.727	437.88
436.949	433.88
437.17	434.88
437.392	429.88
437.614	437.88
437.835	427.88
438.057	493.88
438.278	536.88
438.5	529.88
438.721	568.88
438.943	581.88
439.165	468.88
439.386	459.88
439.608	459.88
439.829	429.88
440.05	467.88
440.272	488.88
440.493	476.88
440.715	441.88
440.936	455.88
441.158	437.88
441.379	447.88
441.6	458.88
441.822	457.88
442.043	489.88
442.264	544.88
442.486	533.88
442.707	509.88
442.928	470.88
443.149	484.88
443.371	469.88
443.592	492.88
443.813	565.88
444.034	612.88
444.255	510.88
444.476	515.88
444.698	519.88
444.919	520.88
445.14	632.88
445.361	541.88
445.582	527.88
445.803	515.88
446.024	566.88
446.245	549.88
446.466	507.88
446.687	471.88
446.908	464.88
447.129	443.88
447.35	421.88
447.571	410.88
447.792	400.88
448.013	425.88
448.234	420.88
448.455	446.88
448.675	515.88
448.896	550.88
449.117	485.88
449.338	476.88
449.559	546.88
449.779	579.88
450	474.88
450.221	411.88
450.442	419.88
450.662	405.88
450.883	391.88
451.104	418.88
451.324	404.88
451.545	391.88
451.766	395.88
451.986	395.88
452.207	371.88
452.428	380.88
452.648	384.88
452.869	380.88
453.089	383.88
453.31	383.88
453.53	362.88
453.751	381.88
453.971	367.88
454.192	379.88
454.412	378.88
454.633	374.88
454.853	377.88
455.073	371.88
455.294	386.88
455.514	404.88
455.734	398.88
455.955	353.88
456.175	359.88
456.395	349.88
456.616	354.88
456.836	364.88
457.056	366.88
457.276	343.88
457.497	342.88
457.717	374.88
457.937	377.88
458.157	359.88
458.377	350.88
458.598	380.88
458.818	413.88
459.038	440.88
459.258	445.88
459.478	444.88
459.698	444.88
459.918	419.88
460.138	413.88
460.358	460.88
460.578	414.88
460.798	442.88
461.018	461.88
461.238	462.88
461.458	465.88
461.678	456.88
461.898	463.88
462.118	467.88
462.338	469.88
462.558	465.88
462.777	482.88
462.997	523.88
463.217	543.88
463.437	551.88
463.657	516.88
463.876	503.88
464.096	496.88
464.316	481.88
464.536	501.88
464.755	476.88
464.975	489.88
465.195	487.88
465.414	475.88
465.634	466.88
465.854	455.88
466.073	433.88
466.293	411.88
466.512	397.88
466.732	369.88
466.951	411.88
467.171	397.88
467.391	390.88
467.61	408.88
467.829	412.88
468.049	384.88
468.268	377.88
468.488	371.88
468.707	380.88
468.927	394.88
469.146	397.88
469.365	380.88
469.585	363.88
469.804	391.88
470.023	412.88
470.243	421.88
470.462	421.88
470.681	415.88
470.901	413.88
471.12	404.88
471.339	408.88
471.558	376.88
471.777	399.88
471.997	392.88
472.216	397.88
472.435	401.88
472.654	397.88
472.873	384.88
473.092	381.88
473.311	390.88
473.53	373.88
473.749	410.88
473.968	394.88
474.187	461.88
474.406	453.88
474.625	395.88
474.844	399.88
475.063	398.88
475.282	382.88
475.501	407.88
475.72	391.88
475.939	396.88
476.158	420.88
476.377	400.88
476.596	408.88
476.814	391.88
477.033	392.88
477.252	413.88
477.471	400.88
477.69	433.88
477.908	415.88
478.127	447.88
478.346	448.88
478.564	448.88
478.783	458.88
479.002	453.88
479.22	455.88
479.439	435.88
479.658	466.88
479.876	469.88
480.095	467.88
480.313	490.88
480.532	490.88
480.751	475.88
480.969	487.88
481.188	499.88
481.406	477.88
481.624	465.88
481.843	455.88
482.061	456.88
482.28	470.88
482.498	438.88
482.717	444.88
482.935	445.88
483.153	446.88
483.372	442.88
483.59	453.88
483.808	436.88
484.027	460.88
484.245	435.88
484.463	441.88
484.681	444.88
484.9	454.88
485.118	465.88
485.336	458.88
485.554	450.88
485.772	448.88
485.99	455.88
486.209	449.88
486.427	448.88
486.645	470.88
486.863	466.88
487.081	480.88
487.299	480.88
487.517	484.88
487.735	467.88
487.953	457.88
488.171	459.88
488.389	488.88
488.607	480.88
488.825	461.88
489.043	469.88
489.261	457.88
489.479	473.88
489.696	466.88
489.914	476.88
490.132	464.88
490.35	484.88
490.568	477.88
490.786	480.88
491.003	489.88
491.221	499.88
491.439	510.88
491.657	491.88
491.874	481.88
492.092	479.88
492.31	484.88
492.527	520.88
492.745	508.88
492.963	527.88
493.18	515.88
493.398	533.88
493.615	514.88
493.833	530.88
494.05	533.88
494.268	534.88
494.485	537.88
494.703	525.88
494.92	502.88
495.138	543.88
495.355	518.88
495.573	524.88
495.79	535.88
496.008	541.88
496.225	579.88
496.442	540.88
496.66	542.88
496.877	537.88
497.094	563.88
497.312	547.88
497.529	565.88
497.746	587.88
497.963	587.88
498.181	585.88
498.398	632.88
498.615	644.88
498.832	679.88
499.049	693.88
499.267	708.88
499.484	775.88
499.701	835.88
499.918	873.88
500.135	934.88
500.352	1029.88
500.569	1056.88
500.786	1063.88
501.003	1032.88
501.22	950.88
501.437	901.88
501.654	831.88
501.871	777.88
502.088	745.88
502.305	688.88
502.522	681.88
502.739	661.88
502.956	651.88
503.172	620.88
503.389	585.88
503.606	593.88
503.823	575.88
504.04	567.88
504.256	570.88
504.473	560.88
504.69	581.88
504.907	581.88
505.123	552.88
505.34	522.88
505.557	519.88
505.773	521.88
505.99	526.88
506.207	509.88
506.423	498.88
506.64	491.88
506.856	474.88
507.073	516.88
507.289	506.88
507.506	481.88
507.722	479.88
507.939	480.88
508.155	472.88
508.372	485.88
508.588	463.88
508.805	472.88
509.021	452.88
509.238	478.88
509.454	464.88
509.67	469.88
509.887	471.88
510.103	478.88
510.319	474.88
510.536	509.88
510.752	715.88
510.968	602.88
511.184	455.88
511.401	471.88
511.617	455.88
511.833	441.88
512.049	434.88
512.265	450.88
512.481	445.88
512.698	423.88
512.914	456.88
513.13	442.88
513.346	440.88
513.562	449.88
513.778	424.88
513.994	447.88
514.21	447.88
514.426	467.88
514.642	450.88
514.858	471.88
515.074	473.88
515.29	531.88
515.506	705.88
515.721	597.88
515.937	468.88
516.153	472.88
516.369	476.88
516.585	490.88
516.801	500.88
517.016	507.88
517.232	515.88
517.448	531.88
517.664	567.88
517.879	535.88
518.095	534.88
518.311	544.88
518.527	507.88
518.742	499.88
518.958	505.88
519.173	471.88
519.389	477.88
519.605	484.88
519.82	487.88
520.036	469.88
520.251	469.88
520.467	466.88
520.682	464.88
520.898	443.88
521.113	457.88
521.329	474.88
521.544	521.88
521.76	570.88
521.975	754.88
522.19	777.88
522.406	518.88
522.621	468.88
522.836	423.88
523.052	415.88
523.267	401.88
523.482	408.88
523.698	393.88
523.913	418.88
524.128	425.88
524.343	430.88
524.559	409.88
524.774	398.88
524.989	401.88
525.204	408.88
525.419	385.88
525.634	376.88
525.849	388.88
526.064	401.88
526.28	380.88
526.495	395.88
526.71	388.88
526.925	374.88
527.14	379.88
527.355	405.88
527.57	396.88
527.785	383.88
527.999	378.88
528.214	372.88
528.429	384.88
528.644	385.88
528.859	380.88
529.074	370.88
529.289	391.88
529.503	395.88
529.718	429.88
529.933	397.88
530.148	393.88
530.363	379.88
530.577	380.88
530.792	403.88
531.007	377.88
531.221	381.88
531.436	373.88
531.651	375.88
531.865	370.88
532.08	378.88
532.295	381.88
532.509	381.88
532.724	376.88
532.938	362.88
533.153	370.88
533.367	381.88
533.582	382.88
533.796	380.88
534.011	376.88
534.225	375.88
534.44	376.88
534.654	355.88
534.868	354.88
535.083	367.88
535.297	381.88
535.511	387.88
535.726	373.88
535.94	361.88
536.154	369.88
536.369	356.88
536.583	348.88
536.797	348.88
537.011	349.88
537.225	376.88
537.44	363.88
537.654	344.88
537.868	361.88
538.082	360.88
538.296	372.88
538.51	347.88
538.724	372.88
538.938	369.88
539.153	357.88
539.367	371.88
539.581	369.88
539.795	353.88
540.009	343.88
540.222	353.88
540.436	353.88
540.65	358.88
540.864	352.88
541.078	347.88
541.292	358.88
541.506	369.88
541.72	355.88
541.934	371.88
542.147	379.88
542.361	356.88
542.575	339.88
542.789	362.88
543.002	353.88
543.216	373.88
543.43	348.88
543.644	352.88
543.857	352.88
544.071	343.88
544.285	378.88
544.498	346.88
544.712	361.88
544.925	346.88
545.139	341.88
545.352	371.88
545.566	376.88
545.779	375.88
545.993	352.88
546.206	379.88
546.42	369.88
546.633	348.88
546.847	358.88
547.06	362.88
547.274	355.88
547.487	348.88
547.7	359.88
547.914	364.88
548.127	371.88
548.34	348.88
548.554	342.88
548.767	352.88
548.98	364.88
549.193	362.88
549.407	342.88
549.62	366.88
549.833	363.88
550.046	362.88
550.259	375.88
550.473	358.88
550.686	375.88
550.899	361.88
551.112	336.88
551.325	335.88
551.538	329.88
551.751	372.88
551.964	354.88
552.177	353.88
552.39	369.88
552.603	369.88
552.816	354.88
553.029	371.88
553.242	364.88
553.455	379.88
553.667	375.88
553.88	369.88
554.093	370.88
554.306	354.88
554.519	368.88
554.732	347.88
554.944	351.88
555.157	368.88
555.37	347.88
555.583	347.88
555.795	348.88
556.008	329.88
556.221	328.88
556.433	346.88
556.646	337.88
556.859	331.88
557.071	314.88
557.284	320.88
557.496	334.88
557.709	325.88
557.921	316.88
558.134	315.88
558.346	322.88
558.559	309.88
558.771	308.88
558.984	305.88
559.196	306.88
559.409	328.88
559.621	311.88
559.833	309.88
560.046	320.88
560.258	338.88
560.47	298.88
560.683	317.88
560.895	324.88
561.107	297.88
561.32	291.88
561.532	317.88
561.744	323.88
561.956	327.88
562.168	315.88
562.381	314.88
562.593	307.88
562.805	312.88
563.017	337.88
563.229	323.88
563.441	322.88
563.653	305.88
563.865	336.88
564.077	322.88
564.289	332.88
564.501	340.88
564.713	313.88
564.925	360.88
565.137	335.88
565.349	339.88
565.561	357.88
565.773	372.88
565.985	371.88
566.197	375.88
566.408	405.88
566.62	411.88
566.832	449.88
567.044	455.88
567.255	460.88
567.467	456.88
567.679	444.88
567.891	513.88
568.102	489.88
568.314	499.88
568.526	454.88
568.737	444.88
568.949	406.88
569.161	373.88
569.372	365.88
569.584	352.88
569.795	347.88
570.007	344.88
570.218	359.88
570.43	346.88
570.641	297.88
570.853	344.88
571.064	327.88
571.276	340.88
571.487	327.88
571.698	324.88
571.91	319.88
572.121	293.88
572.333	311.88
572.544	301.88
572.755	305.88
572.966	289.88
573.178	289.88
573.389	293.88
573.6	291.88
573.811	303.88
574.023	277.88
574.234	278.88
574.445	270.88
574.656	290.88
574.867	273.88
575.078	288.88
575.289	286.88
575.501	259.88
575.712	257.88
575.923	260.88
576.134	280.88
576.345	284.88
576.556	286.88
576.767	266.88
576.978	282.88
577.188	267.88
577.399	265.88
577.61	247.88
577.821	275.88
578.032	262.88
578.243	279.88
578.454	355.88
578.665	291.88
578.875	278.88
579.086	248.88
579.297	252.88
579.508	270.88
579.718	252.88
579.929	249.88
580.14	263.88
580.35	243.88
580.561	256.88
580.772	259.88
580.982	251.88
581.193	240.88
581.403	232.88
581.614	241.88
581.825	242.88
582.035	253.88
582.246	253.88
582.456	258.88
582.667	259.88
582.877	264.88
583.087	250.88
583.298	239.88
583.508	246.88
583.719	263.88
583.929	221.88
584.139	243.88
584.35	257.88
584.56	259.88
584.77	259.88
584.981	241.88
585.191	242.88
585.401	230.88
585.611	244.88
585.821	235.88
586.032	250.88
586.242	239.88
586.452	251.88
586.662	229.88
586.872	235.88
587.082	231.88
587.292	256.88
587.502	235.88
587.713	243.88
587.923	244.88
588.133	258.88
588.343	245.88
588.553	237.88
588.762	237.88
588.972	254.88
589.182	279.88
589.392	293.88
589.602	252.88
589.812	267.88
590.022	251.88
590.232	246.88
590.441	239.88
590.651	243.88
590.861	223.88
591.071	236.88
591.281	255.88
591.49	253.88
591.7	249.88
591.91	254.88
592.119	263.88
592.329	261.88
592.539	260.88
592.748	257.88
592.958	267.88
593.167	277.88
593.377	293.88
593.587	292.88
593.796	285.88
594.006	276.88
594.215	289.88
594.424	284.88
594.634	283.88
594.843	264.88
595.053	271.88
595.262	263.88
595.472	248.88
595.681	259.88
595.89	244.88
596.1	240.88
596.309	249.88
596.518	242.88
596.727	233.88
596.937	215.88
597.146	243.88
597.355	234.88
597.564	239.88
597.774	222.88
597.983	218.88
598.192	241.88
598.401	219.88
598.61	200.88
598.819	211.88
599.028	209.88
599.237	216.88
599.446	217.88
599.655	218.88
599.864	220.88
600.073	220.88
600.282	218.88
600.491	216.88
600.7	203.88
600.909	199.88
601.118	227.88
601.327	218.88
601.536	204.88
601.745	206.88
601.953	213.88
602.162	211.88
602.371	212.88
602.58	206.88
602.789	227.88
602.997	232.88
603.206	217.88
603.415	207.88
603.623	205.88
603.832	204.88
604.041	211.88
604.249	201.88
604.458	202.88
604.666	192.88
604.875	201.88
605.084	185.88
605.292	196.88
605.501	206.88
605.709	194.88
605.918	198.88
606.126	206.88
606.334	210.88
606.543	207.88
606.751	194.88
606.96	203.88
607.168	207.88
607.376	209.88
607.585	191.88
607.793	200.88
608.001	204.88
608.21	173.88
608.418	204.88
608.626	210.88
608.834	197.88
609.043	190.88
609.251	204.88
609.459	197.88
609.667	199.88
609.875	191.88
610.083	203.88
610.291	205.88
610.499	193.88
610.707	204.88
610.916	186.88
611.124	195.88
611.332	220.88
611.54	205.88
611.748	192.88
611.955	202.88
612.163	196.88
612.371	209.88
612.579	203.88
612.787	195.88
612.995	187.88
613.203	210.88
613.411	200.88
613.618	198.88
613.826	188.88
614.034	198.88
614.242	189.88
614.449	200.88
614.657	207.88
614.865	209.88
615.072	204.88
615.28	190.88
615.488	204.88
615.695	179.88
615.903	197.88
616.111	194.88
616.318	184.88
616.526	194.88
616.733	213.88
616.941	193.88
617.148	193.88
617.356	186.88
617.563	195.88
617.771	194.88
617.978	191.88
618.185	194.88
618.393	213.88
618.6	217.88
618.807	179.88
619.015	197.88
619.222	171.88
619.429	189.88
619.637	190.88
619.844	203.88
620.051	205.88
620.258	194.88
620.466	199.88
620.673	179.88
620.88	178.88
621.087	161.88
621.294	187.88
621.501	182.88
621.708	189.88
621.915	202.88
622.122	186.88
622.329	177.88
622.536	193.88
622.743	187.88
622.95	181.88
623.157	181.88
623.364	189.88
623.571	197.88
623.778	184.88
623.985	189.88
624.192	177.88
624.399	181.88
624.606	169.88
624.812	175.88
625.019	178.88
625.226	184.88
625.433	183.88
625.639	179.88
625.846	189.88
626.053	183.88
626.259	183.88
626.466	195.88
626.673	179.88
626.879	160.88
627.086	167.88
627.293	179.88
627.499	149.88
627.706	176.88
627.912	197.88
628.119	186.88
628.325	186.88
628.532	168.88
628.738	172.88
628.945	171.88
629.151	163.88
629.357	167.88
629.564	159.88
629.77	153.88
629.976	159.88
630.183	163.88
630.389	169.88
630.595	160.88
630.802	150.88
631.008	165.88
631.214	166.88
631.42	161.88
631.627	165.88
631.833	153.88
632.039	161.88
632.245	166.88
632.451	173.88
632.657	152.88
632.863	147.88
633.069	164.88
633.275	159.88
633.481	158.88
633.688	150.88
633.893	158.88
634.099	155.88
634.305	156.88
634.511	157.88
634.717	155.88
634.923	163.88
635.129	159.88
635.335	146.88
635.541	160.88
635.747	167.88
635.952	166.88
636.158	151.88
636.364	159.88
636.57	152.88
636.775	149.88
636.981	155.88
637.187	154.88
637.392	154.88
637.598	139.88
637.804	149.88
638.009	147.88
638.215	154.88
638.421	163.88
638.626	155.88
638.832	165.88
639.037	155.88
639.243	149.88
639.448	152.88
639.654	147.88
639.859	161.88
640.065	153.88
640.27	155.88
640.475	144.88
640.681	159.88
640.886	159.88
641.091	152.88
641.297	149.88
641.502	143.88
641.707	137.88
641.913	148.88
642.118	145.88
642.323	139.88
642.528	125.88
642.733	136.88
642.939	139.88
643.144	135.88
643.349	149.88
643.554	149.88
643.759	138.88
643.964	159.88
644.169	137.88
644.374	148.88
644.579	138.88
644.784	133.88
644.989	149.88
645.194	150.88
645.399	129.88
645.604	135.88
645.809	143.88
646.014	139.88
646.219	135.88
646.423	146.88
646.628	145.88
646.833	141.88
647.038	149.88
647.243	137.88
647.447	152.88
647.652	138.88
647.857	131.88
648.062	138.88
648.266	159.88
648.471	149.88
648.676	149.88
648.88	149.88
649.085	140.88
649.289	163.88
649.494	141.88
649.698	163.88
649.903	145.88
650.107	153.88
650.312	148.88
650.516	159.88
650.721	147.88
650.925	147.88
651.13	136.88
651.334	139.88
651.539	137.88
651.743	133.88
651.947	116.88
652.152	128.88
652.356	135.88
652.56	133.88
652.764	123.88
652.969	137.88
653.173	118.88
653.377	126.88
653.581	112.88
653.785	127.88
653.99	128.88
654.194	121.88
654.398	120.88
654.602	137.88
654.806	133.88
655.01	132.88
655.214	131.88
655.418	130.88
655.622	124.88
655.826	120.88
656.03	128.88
656.234	126.88
656.438	136.88
656.642	118.88
656.846	123.88
657.049	123.88
657.253	126.88
657.457	107.88
657.661	116.88
657.865	117.88
658.068	111.88
658.272	92.88
658.476	104.88
658.68	100.88
658.883	105.88
659.087	100.88
659.291	99.88
659.494	105.88
659.698	86.88
659.901	81.88
660.105	83.88
660.309	93.88
660.512	82.88
660.716	81.88
660.919	96.88
661.123	99.88
661.326	110.88
661.53	85.88
661.733	83.88
661.936	92.88
662.14	86.88
662.343	73.88
662.546	68.88
662.75	78.88
662.953	80.88
663.156	81.88
663.36	81.88
663.563	82.88
663.766	86.88
663.969	69.88
664.173	83.88
664.376	87.88
664.579	87.88
664.782	61.88
664.985	75.88
665.188	78.88
665.391	67.88
665.594	73.88
665.797	67.88
666	75.88
666.203	69.88
666.406	73.88
666.609	83.88
666.812	76.88
667.015	71.88
667.218	88.88
667.421	81.88
667.624	72.88
667.827	86.88
668.03	87.88
668.232	86.88
668.435	73.88
668.638	88.88
668.841	88.88
669.043	71.88
669.246	86.88
669.449	81.88
669.651	96.88
669.854	80.88
670.057	74.88
670.259	69.88
670.462	75.88
670.665	78.88
670.867	84.88
671.07	86.88
671.272	82.88
671.475	94.88
671.677	77.88
671.88	79.88
672.082	93.88
672.284	76.88
672.487	88.88
672.689	80.88
672.892	72.88
