Data from 1984.PennyLincolnUp.Lamp.En5.5.200Scan.071819.P1_HRD10591_16-59-16-968.txt Node
Date: Thu Jul 18 16:59:16 EDT 2019
User: cochatt
Spectrometer: HR+D1059
Trigger mode: 1
Integration Time (sec): 1.000000E-1
Scans to average: 1
Electric dark correction enabled: true
Nonlinearity correction enabled: false
Boxcar width: 0
XAxis mode: Wavelengths
Number of Pixels in Spectrum: 2048
>>>>>Begin Spectral Data<<<<<
223.165	-16.12
223.4	-16.12
223.635	-16.12
223.869	-22.12
224.104	-16.12
224.338	-12.12
224.573	-21.12
224.808	-9.12
225.042	-12.12
225.277	-5.12
225.511	-15.12
225.746	-5.12
225.98	9.88
226.215	23.88
226.449	6.88
226.683	33.88
226.918	23.88
227.152	35.88
227.387	25.88
227.621	35.88
227.856	35.88
228.09	31.88
228.324	46.88
228.559	50.88
228.793	54.88
229.027	89.88
229.262	90.88
229.496	88.88
229.73	112.88
229.964	113.88
230.199	114.88
230.433	110.88
230.667	116.88
230.901	110.88
231.136	103.88
231.37	106.88
231.604	113.88
231.838	105.88
232.072	112.88
232.306	103.88
232.541	100.88
232.775	106.88
233.009	105.88
233.243	110.88
233.477	121.88
233.711	113.88
233.945	122.88
234.179	120.88
234.413	105.88
234.647	120.88
234.881	117.88
235.115	107.88
235.349	111.88
235.583	103.88
235.817	115.88
236.051	106.88
236.285	121.88
236.519	115.88
236.753	97.88
236.987	110.88
237.221	147.88
237.455	195.88
237.689	147.88
237.922	107.88
238.156	116.88
238.39	101.88
238.624	108.88
238.858	118.88
239.091	122.88
239.325	113.88
239.559	131.88
239.793	103.88
240.027	118.88
240.26	138.88
240.494	132.88
240.728	124.88
240.961	133.88
241.195	128.88
241.429	118.88
241.662	122.88
241.896	111.88
242.13	124.88
242.363	130.88
242.597	109.88
242.83	122.88
243.064	116.88
243.298	120.88
243.531	121.88
243.765	120.88
243.998	141.88
244.232	134.88
244.465	130.88
244.699	134.88
244.932	131.88
245.166	123.88
245.399	130.88
245.633	147.88
245.866	145.88
246.099	152.88
246.333	137.88
246.566	155.88
246.8	139.88
247.033	126.88
247.266	152.88
247.5	138.88
247.733	160.88
247.966	148.88
248.2	148.88
248.433	160.88
248.666	157.88
248.899	165.88
249.133	177.88
249.366	167.88
249.599	180.88
249.832	149.88
250.066	181.88
250.299	163.88
250.532	193.88
250.765	222.88
250.998	200.88
251.231	188.88
251.465	185.88
251.698	163.88
251.931	178.88
252.164	175.88
252.397	167.88
252.63	173.88
252.863	168.88
253.096	164.88
253.329	185.88
253.562	198.88
253.795	198.88
254.028	183.88
254.261	192.88
254.494	185.88
254.727	202.88
254.96	230.88
255.193	209.88
255.426	217.88
255.659	209.88
255.892	217.88
256.124	249.88
256.357	267.88
256.59	229.88
256.823	207.88
257.056	192.88
257.289	188.88
257.521	186.88
257.754	189.88
257.987	187.88
258.22	190.88
258.452	193.88
258.685	194.88
258.918	189.88
259.151	178.88
259.383	181.88
259.616	191.88
259.849	210.88
260.081	210.88
260.314	207.88
260.547	193.88
260.779	210.88
261.012	209.88
261.244	205.88
261.477	205.88
261.71	190.88
261.942	194.88
262.175	209.88
262.407	197.88
262.64	180.88
262.872	191.88
263.105	189.88
263.337	191.88
263.57	209.88
263.802	187.88
264.035	196.88
264.267	189.88
264.499	202.88
264.732	189.88
264.964	199.88
265.197	206.88
265.429	203.88
265.661	209.88
265.894	207.88
266.126	216.88
266.358	216.88
266.591	191.88
266.823	211.88
267.055	210.88
267.287	213.88
267.52	206.88
267.752	224.88
267.984	209.88
268.216	215.88
268.448	211.88
268.681	208.88
268.913	222.88
269.145	229.88
269.377	247.88
269.609	243.88
269.841	236.88
270.073	256.88
270.306	272.88
270.538	266.88
270.77	270.88
271.002	252.88
271.234	245.88
271.466	255.88
271.698	255.88
271.93	261.88
272.162	262.88
272.394	264.88
272.626	274.88
272.858	267.88
273.09	257.88
273.322	240.88
273.553	228.88
273.785	255.88
274.017	250.88
274.249	236.88
274.481	245.88
274.713	255.88
274.945	253.88
275.176	259.88
275.408	255.88
275.64	253.88
275.872	234.88
276.104	229.88
276.335	251.88
276.567	250.88
276.799	251.88
277.031	275.88
277.262	278.88
277.494	280.88
277.726	269.88
277.957	274.88
278.189	254.88
278.421	249.88
278.652	250.88
278.884	260.88
279.115	281.88
279.347	280.88
279.579	251.88
279.81	233.88
280.042	243.88
280.273	260.88
280.505	268.88
280.736	260.88
280.968	251.88
281.199	259.88
281.431	274.88
281.662	286.88
281.894	264.88
282.125	274.88
282.356	275.88
282.588	299.88
282.819	279.88
283.051	267.88
283.282	254.88
283.513	258.88
283.745	283.88
283.976	267.88
284.207	274.88
284.439	273.88
284.67	272.88
284.901	268.88
285.132	268.88
285.364	274.88
285.595	278.88
285.826	275.88
286.057	289.88
286.288	275.88
286.52	271.88
286.751	284.88
286.982	277.88
287.213	266.88
287.444	278.88
287.675	282.88
287.906	278.88
288.138	286.88
288.369	292.88
288.6	299.88
288.831	289.88
289.062	289.88
289.293	278.88
289.524	275.88
289.755	275.88
289.986	282.88
290.217	285.88
290.448	280.88
290.679	289.88
290.91	278.88
291.141	274.88
291.371	278.88
291.602	284.88
291.833	285.88
292.064	293.88
292.295	278.88
292.526	277.88
292.757	273.88
292.987	289.88
293.218	298.88
293.449	282.88
293.68	268.88
293.91	295.88
294.141	295.88
294.372	286.88
294.603	291.88
294.833	286.88
295.064	292.88
295.295	298.88
295.525	301.88
295.756	291.88
295.987	302.88
296.217	287.88
296.448	307.88
296.679	306.88
296.909	284.88
297.14	307.88
297.37	298.88
297.601	302.88
297.831	294.88
298.062	305.88
298.292	303.88
298.523	307.88
298.753	288.88
298.984	288.88
299.214	301.88
299.445	294.88
299.675	296.88
299.905	315.88
300.136	323.88
300.366	304.88
300.597	305.88
300.827	306.88
301.057	319.88
301.288	311.88
301.518	314.88
301.748	303.88
301.979	324.88
302.209	317.88
302.439	315.88
302.669	330.88
302.9	321.88
303.13	321.88
303.36	321.88
303.59	331.88
303.82	324.88
304.051	324.88
304.281	318.88
304.511	322.88
304.741	319.88
304.971	312.88
305.201	322.88
305.431	312.88
305.661	325.88
305.891	303.88
306.121	321.88
306.352	313.88
306.582	320.88
306.812	331.88
307.042	338.88
307.272	317.88
307.502	335.88
307.731	310.88
307.961	326.88
308.191	316.88
308.421	317.88
308.651	329.88
308.881	306.88
309.111	325.88
309.341	340.88
309.571	341.88
309.8	345.88
310.03	336.88
310.26	320.88
310.49	336.88
310.72	334.88
310.949	353.88
311.179	339.88
311.409	345.88
311.639	322.88
311.868	347.88
312.098	355.88
312.328	354.88
312.557	352.88
312.787	369.88
313.017	377.88
313.246	352.88
313.476	337.88
313.706	349.88
313.935	354.88
314.165	351.88
314.394	387.88
314.624	368.88
314.853	340.88
315.083	365.88
315.312	360.88
315.542	346.88
315.771	347.88
316.001	360.88
316.23	335.88
316.46	345.88
316.689	358.88
316.919	331.88
317.148	350.88
317.377	354.88
317.607	365.88
317.836	347.88
318.065	351.88
318.295	368.88
318.524	350.88
318.753	341.88
318.983	351.88
319.212	355.88
319.441	369.88
319.67	373.88
319.9	349.88
320.129	353.88
320.358	353.88
320.587	377.88
320.816	358.88
321.046	353.88
321.275	347.88
321.504	363.88
321.733	379.88
321.962	362.88
322.191	360.88
322.42	386.88
322.649	378.88
322.878	388.88
323.108	399.88
323.337	411.88
323.566	425.88
323.795	441.88
324.024	459.88
324.253	551.88
324.482	724.88
324.71	1029.88
324.939	1441.88
325.168	1246.88
325.397	712.88
325.626	511.88
325.855	465.88
326.084	436.88
326.313	433.88
326.542	449.88
326.77	476.88
326.999	528.88
327.228	681.88
327.457	974.88
327.686	1161.88
327.914	815.88
328.143	594.88
328.372	533.88
328.6	491.88
328.829	483.88
329.058	483.88
329.287	497.88
329.515	458.88
329.744	473.88
329.972	523.88
330.201	540.88
330.43	592.88
330.658	568.88
330.887	546.88
331.115	499.88
331.344	490.88
331.572	468.88
331.801	471.88
332.03	458.88
332.258	451.88
332.486	451.88
332.715	440.88
332.943	474.88
333.172	455.88
333.4	494.88
333.629	502.88
333.857	555.88
334.085	555.88
334.314	606.88
334.542	680.88
334.771	669.88
334.999	573.88
335.227	537.88
335.455	482.88
335.684	465.88
335.912	453.88
336.14	425.88
336.369	432.88
336.597	442.88
336.825	431.88
337.053	422.88
337.281	422.88
337.51	405.88
337.738	445.88
337.966	421.88
338.194	432.88
338.422	426.88
338.65	406.88
338.878	409.88
339.106	406.88
339.334	388.88
339.562	400.88
339.79	380.88
340.018	390.88
340.246	396.88
340.474	381.88
340.702	382.88
340.93	384.88
341.158	406.88
341.386	391.88
341.614	392.88
341.842	395.88
342.07	392.88
342.298	388.88
342.526	387.88
342.754	381.88
342.981	375.88
343.209	395.88
343.437	408.88
343.665	401.88
343.893	411.88
344.12	427.88
344.348	436.88
344.576	409.88
344.804	426.88
345.031	409.88
345.259	412.88
345.487	407.88
345.714	386.88
345.942	377.88
346.17	391.88
346.397	357.88
346.625	377.88
346.853	369.88
347.08	351.88
347.308	379.88
347.535	379.88
347.763	371.88
347.99	363.88
348.218	379.88
348.445	392.88
348.673	374.88
348.9	381.88
349.128	351.88
349.355	345.88
349.583	352.88
349.81	375.88
350.037	373.88
350.265	358.88
350.492	367.88
350.72	355.88
350.947	367.88
351.174	373.88
351.402	374.88
351.629	374.88
351.856	354.88
352.083	366.88
352.311	361.88
352.538	371.88
352.765	362.88
352.992	371.88
353.22	374.88
353.447	356.88
353.674	379.88
353.901	355.88
354.128	360.88
354.355	375.88
354.583	343.88
354.81	353.88
355.037	360.88
355.264	357.88
355.491	343.88
355.718	350.88
355.945	347.88
356.172	347.88
356.399	349.88
356.626	345.88
356.853	354.88
357.08	360.88
357.307	351.88
357.534	341.88
357.761	350.88
357.988	334.88
358.215	370.88
358.441	345.88
358.668	353.88
358.895	356.88
359.122	366.88
359.349	357.88
359.576	357.88
359.802	377.88
360.029	377.88
360.256	386.88
360.483	387.88
360.709	372.88
360.936	379.88
361.163	364.88
361.39	357.88
361.616	361.88
361.843	362.88
362.07	368.88
362.296	385.88
362.523	360.88
362.749	354.88
362.976	372.88
363.203	362.88
363.429	339.88
363.656	354.88
363.882	343.88
364.109	366.88
364.335	359.88
364.562	369.88
364.788	346.88
365.015	363.88
365.241	343.88
365.468	354.88
365.694	347.88
365.92	367.88
366.147	348.88
366.373	354.88
366.599	342.88
366.826	346.88
367.052	342.88
367.278	349.88
367.505	350.88
367.731	372.88
367.957	341.88
368.184	366.88
368.41	355.88
368.636	344.88
368.862	364.88
369.089	344.88
369.315	349.88
369.541	381.88
369.767	355.88
369.993	365.88
370.219	341.88
370.445	348.88
370.672	346.88
370.898	369.88
371.124	373.88
371.35	351.88
371.576	349.88
371.802	355.88
372.028	353.88
372.254	355.88
372.48	370.88
372.706	371.88
372.932	370.88
373.158	365.88
373.384	373.88
373.61	362.88
373.835	359.88
374.061	356.88
374.287	353.88
374.513	379.88
374.739	366.88
374.965	381.88
375.191	371.88
375.416	390.88
375.642	377.88
375.868	362.88
376.094	389.88
376.319	366.88
376.545	367.88
376.771	358.88
376.997	369.88
377.222	355.88
377.448	373.88
377.674	345.88
377.899	366.88
378.125	375.88
378.35	373.88
378.576	364.88
378.802	349.88
379.027	351.88
379.253	360.88
379.478	345.88
379.704	351.88
379.929	356.88
380.155	345.88
380.38	357.88
380.606	355.88
380.831	357.88
381.057	369.88
381.282	363.88
381.507	356.88
381.733	357.88
381.958	366.88
382.184	363.88
382.409	353.88
382.634	367.88
382.86	350.88
383.085	351.88
383.31	384.88
383.535	392.88
383.761	356.88
383.986	375.88
384.211	394.88
384.436	398.88
384.662	398.88
384.887	394.88
385.112	411.88
385.337	403.88
385.562	388.88
385.787	411.88
386.013	397.88
386.238	421.88
386.463	408.88
386.688	383.88
386.913	414.88
387.138	420.88
387.363	396.88
387.588	417.88
387.813	385.88
388.038	395.88
388.263	396.88
388.488	405.88
388.713	401.88
388.938	437.88
389.163	420.88
389.387	407.88
389.612	393.88
389.837	399.88
390.062	383.88
390.287	390.88
390.512	389.88
390.736	396.88
390.961	397.88
391.186	414.88
391.411	400.88
391.636	404.88
391.86	422.88
392.085	454.88
392.31	432.88
392.534	445.88
392.759	432.88
392.984	421.88
393.208	396.88
393.433	432.88
393.658	424.88
393.882	413.88
394.107	411.88
394.331	404.88
394.556	418.88
394.78	424.88
395.005	422.88
395.229	415.88
395.454	445.88
395.678	432.88
395.903	425.88
396.127	426.88
396.352	443.88
396.576	413.88
396.801	404.88
397.025	429.88
397.249	435.88
397.474	441.88
397.698	471.88
397.922	452.88
398.147	451.88
398.371	473.88
398.595	466.88
398.82	479.88
399.044	482.88
399.268	530.88
399.492	584.88
399.717	616.88
399.941	647.88
400.165	630.88
400.389	610.88
400.613	539.88
400.837	505.88
401.062	471.88
401.286	504.88
401.51	497.88
401.734	478.88
401.958	470.88
402.182	495.88
402.406	500.88
402.63	508.88
402.854	506.88
403.078	474.88
403.302	502.88
403.526	516.88
403.75	534.88
403.974	538.88
404.198	536.88
404.422	542.88
404.645	540.88
404.869	539.88
405.093	581.88
405.317	564.88
405.541	602.88
405.765	560.88
405.988	545.88
406.212	525.88
406.436	553.88
406.66	564.88
406.883	523.88
407.107	569.88
407.331	605.88
407.555	638.88
407.778	645.88
408.002	590.88
408.226	563.88
408.449	554.88
408.673	534.88
408.896	559.88
409.12	571.88
409.344	562.88
409.567	524.88
409.791	503.88
410.014	511.88
410.238	516.88
410.461	511.88
410.685	532.88
410.908	517.88
411.132	516.88
411.355	543.88
411.578	536.88
411.802	520.88
412.025	504.88
412.249	532.88
412.472	553.88
412.695	598.88
412.919	577.88
413.142	531.88
413.365	505.88
413.589	525.88
413.812	471.88
414.035	481.88
414.258	477.88
414.482	491.88
414.705	486.88
414.928	487.88
415.151	489.88
415.374	460.88
415.597	467.88
415.821	456.88
416.044	477.88
416.267	470.88
416.49	459.88
416.713	461.88
416.936	469.88
417.159	466.88
417.382	494.88
417.605	461.88
417.828	477.88
418.051	483.88
418.274	494.88
418.497	463.88
418.72	471.88
418.943	473.88
419.166	506.88
419.389	564.88
419.611	542.88
419.834	509.88
420.057	504.88
420.28	523.88
420.503	524.88
420.726	509.88
420.948	501.88
421.171	520.88
421.394	527.88
421.617	498.88
421.839	484.88
422.062	464.88
422.285	483.88
422.507	513.88
422.73	566.88
422.953	522.88
423.175	506.88
423.398	505.88
423.621	490.88
423.843	519.88
424.066	522.88
424.288	509.88
424.511	499.88
424.733	550.88
424.956	586.88
425.178	578.88
425.401	561.88
425.623	567.88
425.846	517.88
426.068	499.88
426.291	460.88
426.513	501.88
426.735	479.88
426.958	489.88
427.18	565.88
427.402	631.88
427.625	678.88
427.847	608.88
428.069	587.88
428.292	527.88
428.514	487.88
428.736	463.88
428.958	458.88
429.181	444.88
429.403	447.88
429.625	451.88
429.847	474.88
430.069	497.88
430.292	490.88
430.514	465.88
430.736	444.88
430.958	453.88
431.18	419.88
431.402	412.88
431.624	445.88
431.846	449.88
432.068	429.88
432.29	437.88
432.512	417.88
432.734	420.88
432.956	414.88
433.178	426.88
433.4	431.88
433.622	460.88
433.844	426.88
434.066	451.88
434.287	456.88
434.509	448.88
434.731	442.88
434.953	469.88
435.175	483.88
435.397	485.88
435.618	480.88
435.84	508.88
436.062	537.88
436.284	574.88
436.505	529.88
436.727	467.88
436.949	463.88
437.17	449.88
437.392	437.88
437.614	451.88
437.835	462.88
438.057	533.88
438.278	589.88
438.5	569.88
438.721	624.88
438.943	603.88
439.165	503.88
439.386	468.88
439.608	478.88
439.829	466.88
440.05	501.88
440.272	509.88
440.493	487.88
440.715	441.88
440.936	451.88
441.158	459.88
441.379	471.88
441.6	476.88
441.822	491.88
442.043	527.88
442.264	546.88
442.486	594.88
442.707	527.88
442.928	489.88
443.149	500.88
443.371	515.88
443.592	529.88
443.813	579.88
444.034	624.88
444.255	577.88
444.476	549.88
444.698	554.88
444.919	532.88
445.14	603.88
445.361	543.88
445.582	519.88
445.803	551.88
446.024	608.88
446.245	577.88
446.466	545.88
446.687	487.88
446.908	456.88
447.129	440.88
447.35	427.88
447.571	421.88
447.792	424.88
448.013	445.88
448.234	435.88
448.455	460.88
448.675	522.88
448.896	591.88
449.117	539.88
449.338	489.88
449.559	575.88
449.779	615.88
450	534.88
450.221	472.88
450.442	437.88
450.662	424.88
450.883	435.88
451.104	410.88
451.324	429.88
451.545	405.88
451.766	399.88
451.986	422.88
452.207	400.88
452.428	378.88
452.648	393.88
452.869	399.88
453.089	396.88
453.31	401.88
453.53	377.88
453.751	393.88
453.971	410.88
454.192	394.88
454.412	408.88
454.633	400.88
454.853	387.88
455.073	409.88
455.294	401.88
455.514	450.88
455.734	408.88
455.955	408.88
456.175	367.88
456.395	347.88
456.616	367.88
456.836	383.88
457.056	379.88
457.276	383.88
457.497	364.88
457.717	361.88
457.937	385.88
458.157	388.88
458.377	401.88
458.598	404.88
458.818	424.88
459.038	462.88
459.258	486.88
459.478	438.88
459.698	447.88
459.918	445.88
460.138	439.88
460.358	471.88
460.578	458.88
460.798	477.88
461.018	461.88
461.238	459.88
461.458	490.88
461.678	434.88
461.898	455.88
462.118	465.88
462.338	477.88
462.558	467.88
462.777	499.88
462.997	538.88
463.217	566.88
463.437	580.88
463.657	511.88
463.876	527.88
464.096	520.88
464.316	509.88
464.536	511.88
464.755	512.88
464.975	499.88
465.195	506.88
465.414	504.88
465.634	485.88
465.854	453.88
466.073	436.88
466.293	420.88
466.512	419.88
466.732	422.88
466.951	413.88
467.171	429.88
467.391	426.88
467.61	417.88
467.829	403.88
468.049	431.88
468.268	425.88
468.488	416.88
468.707	405.88
468.927	409.88
469.146	399.88
469.365	402.88
469.585	421.88
469.804	409.88
470.023	427.88
470.243	409.88
470.462	435.88
470.681	445.88
470.901	444.88
471.12	416.88
471.339	431.88
471.558	439.88
471.777	437.88
471.997	412.88
472.216	436.88
472.435	511.88
472.654	477.88
472.873	429.88
473.092	413.88
473.311	402.88
473.53	404.88
473.749	420.88
473.968	442.88
474.187	479.88
474.406	481.88
474.625	437.88
474.844	430.88
475.063	401.88
475.282	413.88
475.501	420.88
475.72	408.88
475.939	421.88
476.158	413.88
476.377	437.88
476.596	413.88
476.814	415.88
477.033	431.88
477.252	437.88
477.471	449.88
477.69	443.88
477.908	447.88
478.127	457.88
478.346	455.88
478.564	459.88
478.783	489.88
479.002	466.88
479.22	469.88
479.439	482.88
479.658	484.88
479.876	484.88
480.095	499.88
480.313	520.88
480.532	513.88
480.751	524.88
480.969	553.88
481.188	643.88
481.406	698.88
481.624	575.88
481.843	516.88
482.061	498.88
482.28	493.88
482.498	504.88
482.717	485.88
482.935	481.88
483.153	474.88
483.372	470.88
483.59	485.88
483.808	464.88
484.027	485.88
484.245	482.88
484.463	446.88
484.681	482.88
484.9	490.88
485.118	511.88
485.336	509.88
485.554	509.88
485.772	487.88
485.99	501.88
486.209	456.88
486.427	501.88
486.645	497.88
486.863	496.88
487.081	487.88
487.299	486.88
487.517	505.88
487.735	482.88
487.953	490.88
488.171	511.88
488.389	501.88
488.607	506.88
488.825	507.88
489.043	497.88
489.261	523.88
489.479	512.88
489.696	489.88
489.914	512.88
490.132	509.88
490.35	509.88
490.568	522.88
490.786	535.88
491.003	558.88
491.221	543.88
491.439	559.88
491.657	558.88
491.874	566.88
492.092	571.88
492.31	583.88
492.527	604.88
492.745	603.88
492.963	594.88
493.18	584.88
493.398	592.88
493.615	576.88
493.833	593.88
494.05	586.88
494.268	577.88
494.485	601.88
494.703	573.88
494.92	560.88
495.138	577.88
495.355	562.88
495.573	571.88
495.79	576.88
496.008	566.88
496.225	553.88
496.442	593.88
496.66	591.88
496.877	605.88
497.094	603.88
497.312	599.88
497.529	602.88
497.746	610.88
497.963	630.88
498.181	648.88
498.398	665.88
498.615	691.88
498.832	695.88
499.049	736.88
499.267	757.88
499.484	797.88
499.701	873.88
499.918	910.88
500.135	1027.88
500.352	1104.88
500.569	1109.88
500.786	1114.88
501.003	1077.88
501.22	999.88
501.437	913.88
501.654	881.88
501.871	822.88
502.088	754.88
502.305	734.88
502.522	708.88
502.739	703.88
502.956	663.88
503.172	636.88
503.389	630.88
503.606	614.88
503.823	611.88
504.04	606.88
504.256	624.88
504.473	614.88
504.69	600.88
504.907	645.88
505.123	581.88
505.34	542.88
505.557	543.88
505.773	542.88
505.99	552.88
506.207	537.88
506.423	543.88
506.64	547.88
506.856	523.88
507.073	524.88
507.289	487.88
507.506	503.88
507.722	511.88
507.939	521.88
508.155	505.88
508.372	486.88
508.588	490.88
508.805	503.88
509.021	495.88
509.238	493.88
509.454	492.88
509.67	517.88
509.887	493.88
510.103	492.88
510.319	479.88
510.536	531.88
510.752	834.88
510.968	675.88
511.184	511.88
511.401	486.88
511.617	486.88
511.833	493.88
512.049	502.88
512.265	485.88
512.481	494.88
512.698	480.88
512.914	485.88
513.13	469.88
513.346	474.88
513.562	453.88
513.778	474.88
513.994	477.88
514.21	464.88
514.426	477.88
514.642	519.88
514.858	530.88
515.074	532.88
515.29	629.88
515.506	797.88
515.721	676.88
515.937	563.88
516.153	520.88
516.369	519.88
516.585	510.88
516.801	519.88
517.016	537.88
517.232	523.88
517.448	552.88
517.664	545.88
517.879	553.88
518.095	561.88
518.311	551.88
518.527	557.88
518.742	524.88
518.958	502.88
519.173	513.88
519.389	489.88
519.605	496.88
519.82	488.88
520.036	487.88
520.251	482.88
520.467	505.88
520.682	513.88
520.898	497.88
521.113	493.88
521.329	505.88
521.544	559.88
521.76	665.88
521.975	969.88
522.19	942.88
522.406	614.88
522.621	482.88
522.836	466.88
523.052	459.88
523.267	416.88
523.482	442.88
523.698	421.88
523.913	433.88
524.128	434.88
524.343	427.88
524.559	409.88
524.774	400.88
524.989	400.88
525.204	422.88
525.419	426.88
525.634	416.88
525.849	417.88
526.064	419.88
526.28	425.88
526.495	402.88
526.71	415.88
526.925	378.88
527.14	407.88
527.355	416.88
527.57	398.88
527.785	379.88
527.999	400.88
528.214	385.88
528.429	398.88
528.644	405.88
528.859	401.88
529.074	398.88
529.289	401.88
529.503	456.88
529.718	423.88
529.933	427.88
530.148	422.88
530.363	399.88
530.577	398.88
530.792	381.88
531.007	387.88
531.221	393.88
531.436	398.88
531.651	401.88
531.865	403.88
532.08	377.88
532.295	417.88
532.509	418.88
532.724	395.88
532.938	396.88
533.153	385.88
533.367	393.88
533.582	403.88
533.796	386.88
534.011	386.88
534.225	385.88
534.44	375.88
534.654	389.88
534.868	384.88
535.083	390.88
535.297	377.88
535.511	396.88
535.726	375.88
535.94	389.88
536.154	388.88
536.369	373.88
536.583	376.88
536.797	371.88
537.011	375.88
537.225	371.88
537.44	355.88
537.654	372.88
537.868	383.88
538.082	374.88
538.296	361.88
538.51	365.88
538.724	362.88
538.938	362.88
539.153	373.88
539.367	375.88
539.581	384.88
539.795	378.88
540.009	355.88
540.222	362.88
540.436	360.88
540.65	367.88
540.864	375.88
541.078	390.88
541.292	387.88
541.506	367.88
541.72	385.88
541.934	378.88
542.147	349.88
542.361	354.88
542.575	377.88
542.789	368.88
543.002	359.88
543.216	389.88
543.43	373.88
543.644	366.88
543.857	370.88
544.071	384.88
544.285	375.88
544.498	366.88
544.712	365.88
544.925	365.88
545.139	363.88
545.352	387.88
545.566	368.88
545.779	360.88
545.993	379.88
546.206	389.88
546.42	366.88
546.633	382.88
546.847	367.88
547.06	374.88
547.274	378.88
547.487	366.88
547.7	378.88
547.914	386.88
548.127	361.88
548.34	361.88
548.554	359.88
548.767	377.88
548.98	357.88
549.193	365.88
549.407	361.88
549.62	390.88
549.833	383.88
550.046	369.88
550.259	348.88
550.473	354.88
550.686	369.88
550.899	377.88
551.112	334.88
551.325	351.88
551.538	340.88
551.751	339.88
551.964	358.88
552.177	364.88
552.39	360.88
552.603	375.88
552.816	390.88
553.029	390.88
553.242	377.88
553.455	400.88
553.667	381.88
553.88	395.88
554.093	383.88
554.306	386.88
554.519	371.88
554.732	355.88
554.944	375.88
555.157	373.88
555.37	367.88
555.583	340.88
555.795	346.88
556.008	338.88
556.221	345.88
556.433	346.88
556.646	352.88
556.859	307.88
557.071	337.88
557.284	346.88
557.496	356.88
557.709	309.88
557.921	327.88
558.134	331.88
558.346	321.88
558.559	322.88
558.771	327.88
558.984	345.88
559.196	315.88
559.409	326.88
559.621	334.88
559.833	328.88
560.046	319.88
560.258	318.88
560.47	333.88
560.683	314.88
560.895	322.88
561.107	328.88
561.32	319.88
561.532	314.88
561.744	330.88
561.956	330.88
562.168	320.88
562.381	322.88
562.593	315.88
562.805	327.88
563.017	322.88
563.229	318.88
563.441	323.88
563.653	334.88
563.865	324.88
564.077	327.88
564.289	353.88
564.501	318.88
564.713	349.88
564.925	349.88
565.137	354.88
565.349	355.88
565.561	338.88
565.773	383.88
565.985	389.88
566.197	387.88
566.408	421.88
566.62	453.88
566.832	453.88
567.044	465.88
567.255	468.88
567.467	464.88
567.679	478.88
567.891	521.88
568.102	527.88
568.314	477.88
568.526	467.88
568.737	429.88
568.949	431.88
569.161	394.88
569.372	353.88
569.584	363.88
569.795	350.88
570.007	362.88
570.218	358.88
570.43	370.88
570.641	335.88
570.853	337.88
571.064	347.88
571.276	335.88
571.487	320.88
571.698	313.88
571.91	314.88
572.121	323.88
572.333	298.88
572.544	318.88
572.755	283.88
572.966	280.88
573.178	286.88
573.389	291.88
573.6	304.88
573.811	298.88
574.023	301.88
574.234	281.88
574.445	287.88
574.656	283.88
574.867	285.88
575.078	288.88
575.289	274.88
575.501	271.88
575.712	271.88
575.923	288.88
576.134	287.88
576.345	282.88
576.556	281.88
576.767	260.88
576.978	274.88
577.188	278.88
577.399	258.88
577.61	260.88
577.821	262.88
578.032	273.88
578.243	296.88
578.454	403.88
578.665	315.88
578.875	279.88
579.086	262.88
579.297	264.88
579.508	273.88
579.718	241.88
579.929	246.88
580.14	249.88
580.35	248.88
580.561	259.88
580.772	247.88
580.982	250.88
581.193	264.88
581.403	275.88
581.614	258.88
581.825	241.88
582.035	258.88
582.246	247.88
582.456	253.88
582.667	256.88
582.877	250.88
583.087	263.88
583.298	260.88
583.508	261.88
583.719	261.88
583.929	263.88
584.139	263.88
584.35	231.88
584.56	250.88
584.77	261.88
584.981	250.88
585.191	225.88
585.401	249.88
585.611	257.88
585.821	246.88
586.032	258.88
586.242	235.88
586.452	260.88
586.662	246.88
586.872	246.88
587.082	251.88
587.292	254.88
587.502	257.88
587.713	261.88
587.923	255.88
588.133	247.88
588.343	258.88
588.553	246.88
588.762	230.88
588.972	259.88
589.182	241.88
589.392	249.88
589.602	244.88
589.812	246.88
590.022	265.88
590.232	238.88
590.441	253.88
590.651	253.88
590.861	230.88
591.071	256.88
591.281	250.88
591.49	245.88
591.7	257.88
591.91	266.88
592.119	262.88
592.329	248.88
592.539	275.88
592.748	273.88
592.958	282.88
593.167	277.88
593.377	285.88
593.587	296.88
593.796	293.88
594.006	291.88
594.215	278.88
594.424	298.88
594.634	286.88
594.843	284.88
595.053	275.88
595.262	262.88
595.472	277.88
595.681	274.88
595.89	244.88
596.1	244.88
596.309	254.88
596.518	267.88
596.727	243.88
596.937	262.88
597.146	246.88
597.355	239.88
597.564	242.88
597.774	224.88
597.983	226.88
598.192	225.88
598.401	227.88
598.61	223.88
598.819	207.88
599.028	225.88
599.237	225.88
599.446	236.88
599.655	229.88
599.864	217.88
600.073	220.88
600.282	222.88
600.491	221.88
600.7	216.88
600.909	222.88
601.118	211.88
601.327	223.88
601.536	209.88
601.745	219.88
601.953	226.88
602.162	210.88
602.371	226.88
602.58	206.88
602.789	199.88
602.997	229.88
603.206	204.88
603.415	208.88
603.623	208.88
603.832	222.88
604.041	216.88
604.249	206.88
604.458	208.88
604.666	213.88
604.875	197.88
605.084	219.88
605.292	201.88
605.501	218.88
605.709	209.88
605.918	198.88
606.126	211.88
606.334	216.88
606.543	208.88
606.751	203.88
606.96	193.88
607.168	200.88
607.376	209.88
607.585	217.88
607.793	228.88
608.001	215.88
608.21	210.88
608.418	207.88
608.626	210.88
608.834	190.88
609.043	223.88
609.251	205.88
609.459	211.88
609.667	201.88
609.875	223.88
610.083	212.88
610.291	201.88
610.499	199.88
610.707	209.88
610.916	194.88
611.124	201.88
611.332	218.88
611.54	208.88
611.748	203.88
611.955	203.88
612.163	208.88
612.371	220.88
612.579	201.88
612.787	208.88
612.995	213.88
613.203	208.88
613.411	185.88
613.618	195.88
613.826	189.88
614.034	191.88
614.242	202.88
614.449	197.88
614.657	202.88
614.865	194.88
615.072	193.88
615.28	211.88
615.488	202.88
615.695	187.88
615.903	202.88
616.111	195.88
616.318	206.88
616.526	205.88
616.733	204.88
616.941	202.88
617.148	194.88
617.356	199.88
617.563	208.88
617.771	189.88
617.978	187.88
618.185	188.88
618.393	191.88
618.6	185.88
618.807	181.88
619.015	198.88
619.222	205.88
619.429	189.88
619.637	202.88
619.844	183.88
620.051	191.88
620.258	183.88
620.466	177.88
620.673	186.88
620.88	182.88
621.087	190.88
621.294	189.88
621.501	182.88
621.708	175.88
621.915	193.88
622.122	190.88
622.329	185.88
622.536	194.88
622.743	197.88
622.95	177.88
623.157	183.88
623.364	177.88
623.571	184.88
623.778	168.88
623.985	181.88
624.192	190.88
624.399	186.88
624.606	184.88
624.812	181.88
625.019	171.88
625.226	191.88
625.433	180.88
625.639	186.88
625.846	189.88
626.053	192.88
626.259	184.88
626.466	178.88
626.673	185.88
626.879	167.88
627.086	170.88
627.293	175.88
627.499	179.88
627.706	168.88
627.912	185.88
628.119	178.88
628.325	174.88
628.532	169.88
628.738	175.88
628.945	164.88
629.151	174.88
629.357	169.88
629.564	167.88
629.77	174.88
629.976	151.88
630.183	174.88
630.389	159.88
630.595	179.88
630.802	166.88
631.008	181.88
631.214	158.88
631.42	170.88
631.627	165.88
631.833	154.88
632.039	139.88
632.245	171.88
632.451	176.88
632.657	177.88
632.863	170.88
633.069	147.88
633.275	167.88
633.481	157.88
633.688	162.88
633.893	157.88
634.099	166.88
634.305	168.88
634.511	155.88
634.717	159.88
634.923	161.88
635.129	169.88
635.335	158.88
635.541	151.88
635.747	154.88
635.952	152.88
636.158	147.88
636.364	173.88
636.57	172.88
636.775	154.88
636.981	146.88
637.187	161.88
637.392	179.88
637.598	157.88
637.804	155.88
638.009	164.88
638.215	145.88
638.421	163.88
638.626	151.88
638.832	153.88
639.037	141.88
639.243	161.88
639.448	158.88
639.654	153.88
639.859	148.88
640.065	141.88
640.27	168.88
640.475	153.88
640.681	161.88
640.886	176.88
641.091	164.88
641.297	153.88
641.502	147.88
641.707	145.88
641.913	134.88
642.118	149.88
642.323	144.88
642.528	157.88
642.733	158.88
642.939	148.88
643.144	151.88
643.349	137.88
643.554	138.88
643.759	142.88
643.964	138.88
644.169	150.88
644.374	149.88
644.579	144.88
644.784	145.88
644.989	137.88
645.194	139.88
645.399	142.88
645.604	135.88
645.809	148.88
646.014	148.88
646.219	144.88
646.423	142.88
646.628	153.88
646.833	146.88
647.038	161.88
647.243	147.88
647.447	163.88
647.652	149.88
647.857	150.88
648.062	153.88
648.266	139.88
648.471	155.88
648.676	154.88
648.88	158.88
649.085	151.88
649.289	148.88
649.494	157.88
649.698	162.88
649.903	146.88
650.107	160.88
650.312	160.88
650.516	138.88
650.721	149.88
650.925	134.88
651.13	138.88
651.334	138.88
651.539	142.88
651.743	142.88
651.947	125.88
652.152	141.88
652.356	149.88
652.56	129.88
652.764	123.88
652.969	117.88
653.173	133.88
653.377	133.88
653.581	123.88
653.785	122.88
653.99	125.88
654.194	133.88
654.398	107.88
654.602	109.88
654.806	122.88
655.01	114.88
655.214	127.88
655.418	105.88
655.622	114.88
655.826	136.88
656.03	119.88
656.234	121.88
656.438	135.88
656.642	127.88
656.846	118.88
657.049	120.88
657.253	116.88
657.457	96.88
657.661	98.88
657.865	104.88
658.068	92.88
658.272	96.88
658.476	99.88
658.68	95.88
658.883	81.88
659.087	108.88
659.291	96.88
659.494	97.88
659.698	87.88
659.901	89.88
660.105	86.88
660.309	90.88
660.512	83.88
660.716	88.88
660.919	87.88
661.123	103.88
661.326	72.88
661.53	91.88
661.733	84.88
661.936	88.88
662.14	83.88
662.343	83.88
662.546	86.88
662.75	88.88
662.953	91.88
663.156	89.88
663.36	80.88
663.563	93.88
663.766	74.88
663.969	77.88
664.173	81.88
664.376	80.88
664.579	74.88
664.782	82.88
664.985	63.88
665.188	71.88
665.391	76.88
665.594	82.88
665.797	68.88
666	65.88
666.203	90.88
666.406	81.88
666.609	95.88
666.812	76.88
667.015	81.88
667.218	82.88
667.421	85.88
667.624	79.88
667.827	95.88
668.03	83.88
668.232	80.88
668.435	86.88
668.638	77.88
668.841	77.88
669.043	81.88
669.246	76.88
669.449	77.88
669.651	82.88
669.854	74.88
670.057	94.88
670.259	79.88
670.462	93.88
670.665	69.88
670.867	79.88
671.07	85.88
671.272	91.88
671.475	85.88
671.677	74.88
671.88	84.88
672.082	83.88
672.284	72.88
672.487	81.88
672.689	86.88
672.892	77.88
