Data from 1984.PennyLincolnUp.Lamp.En5.5.200Scan.071819.P1_HRD10591_16-59-18-970.txt Node
Date: Thu Jul 18 16:59:18 EDT 2019
User: cochatt
Spectrometer: HR+D1059
Trigger mode: 1
Integration Time (sec): 1.000000E-1
Scans to average: 1
Electric dark correction enabled: true
Nonlinearity correction enabled: false
Boxcar width: 0
XAxis mode: Wavelengths
Number of Pixels in Spectrum: 2048
>>>>>Begin Spectral Data<<<<<
223.165	-28.12
223.4	-28.12
223.635	-28.12
223.869	-5.12
224.104	-17.12
224.338	-7.12
224.573	-21.12
224.808	-24.12
225.042	-6.12
225.277	-11.12
225.511	20.88
225.746	14.88
225.98	4.88
226.215	1.88
226.449	16.88
226.683	26.88
226.918	15.88
227.152	17.88
227.387	24.88
227.621	39.88
227.856	45.88
228.09	40.88
228.324	36.88
228.559	53.88
228.793	60.88
229.027	79.88
229.262	87.88
229.496	94.88
229.73	110.88
229.964	121.88
230.199	112.88
230.433	85.88
230.667	93.88
230.901	100.88
231.136	87.88
231.37	101.88
231.604	106.88
231.838	97.88
232.072	103.88
232.306	95.88
232.541	101.88
232.775	125.88
233.009	112.88
233.243	100.88
233.477	122.88
233.711	118.88
233.945	107.88
234.179	122.88
234.413	117.88
234.647	96.88
234.881	104.88
235.115	98.88
235.349	107.88
235.583	102.88
235.817	112.88
236.051	123.88
236.285	114.88
236.519	112.88
236.753	110.88
236.987	144.88
237.221	141.88
237.455	156.88
237.689	157.88
237.922	127.88
238.156	115.88
238.39	116.88
238.624	129.88
238.858	109.88
239.091	107.88
239.325	100.88
239.559	122.88
239.793	125.88
240.027	111.88
240.26	125.88
240.494	122.88
240.728	131.88
240.961	111.88
241.195	126.88
241.429	112.88
241.662	122.88
241.896	106.88
242.13	134.88
242.363	126.88
242.597	131.88
242.83	130.88
243.064	124.88
243.298	133.88
243.531	138.88
243.765	130.88
243.998	138.88
244.232	130.88
244.465	128.88
244.699	126.88
244.932	112.88
245.166	134.88
245.399	128.88
245.633	137.88
245.866	142.88
246.099	145.88
246.333	148.88
246.566	130.88
246.8	122.88
247.033	143.88
247.266	145.88
247.5	142.88
247.733	150.88
247.966	143.88
248.2	150.88
248.433	140.88
248.666	167.88
248.899	171.88
249.133	168.88
249.366	196.88
249.599	176.88
249.832	167.88
250.066	171.88
250.299	171.88
250.532	180.88
250.765	205.88
250.998	206.88
251.231	203.88
251.465	178.88
251.698	182.88
251.931	174.88
252.164	176.88
252.397	175.88
252.63	183.88
252.863	197.88
253.096	179.88
253.329	195.88
253.562	185.88
253.795	189.88
254.028	185.88
254.261	180.88
254.494	192.88
254.727	193.88
254.96	227.88
255.193	212.88
255.426	192.88
255.659	221.88
255.892	222.88
256.124	243.88
256.357	268.88
256.59	228.88
256.823	204.88
257.056	198.88
257.289	206.88
257.521	186.88
257.754	199.88
257.987	178.88
258.22	190.88
258.452	200.88
258.685	197.88
258.918	179.88
259.151	190.88
259.383	188.88
259.616	200.88
259.849	196.88
260.081	213.88
260.314	216.88
260.547	195.88
260.779	204.88
261.012	211.88
261.244	200.88
261.477	195.88
261.71	183.88
261.942	209.88
262.175	204.88
262.407	203.88
262.64	192.88
262.872	197.88
263.105	188.88
263.337	189.88
263.57	183.88
263.802	209.88
264.035	181.88
264.267	183.88
264.499	180.88
264.732	188.88
264.964	197.88
265.197	212.88
265.429	206.88
265.661	206.88
265.894	195.88
266.126	187.88
266.358	203.88
266.591	191.88
266.823	219.88
267.055	200.88
267.287	184.88
267.52	203.88
267.752	207.88
267.984	207.88
268.216	205.88
268.448	215.88
268.681	205.88
268.913	231.88
269.145	223.88
269.377	207.88
269.609	221.88
269.841	236.88
270.073	228.88
270.306	231.88
270.538	238.88
270.77	252.88
271.002	256.88
271.234	222.88
271.466	244.88
271.698	250.88
271.93	268.88
272.162	253.88
272.394	268.88
272.626	249.88
272.858	230.88
273.09	250.88
273.322	231.88
273.553	236.88
273.785	262.88
274.017	226.88
274.249	226.88
274.481	222.88
274.713	233.88
274.945	235.88
275.176	256.88
275.408	237.88
275.64	241.88
275.872	234.88
276.104	246.88
276.335	235.88
276.567	242.88
276.799	242.88
277.031	271.88
277.262	274.88
277.494	290.88
277.726	266.88
277.957	256.88
278.189	254.88
278.421	254.88
278.652	247.88
278.884	250.88
279.115	251.88
279.347	247.88
279.579	242.88
279.81	250.88
280.042	273.88
280.273	266.88
280.505	266.88
280.736	244.88
280.968	236.88
281.199	260.88
281.431	282.88
281.662	253.88
281.894	264.88
282.125	244.88
282.356	278.88
282.588	295.88
282.819	286.88
283.051	264.88
283.282	268.88
283.513	258.88
283.745	275.88
283.976	284.88
284.207	265.88
284.439	256.88
284.67	267.88
284.901	270.88
285.132	256.88
285.364	263.88
285.595	274.88
285.826	251.88
286.057	279.88
286.288	266.88
286.52	275.88
286.751	269.88
286.982	279.88
287.213	278.88
287.444	281.88
287.675	293.88
287.906	273.88
288.138	268.88
288.369	289.88
288.6	263.88
288.831	284.88
289.062	293.88
289.293	290.88
289.524	278.88
289.755	281.88
289.986	258.88
290.217	270.88
290.448	271.88
290.679	294.88
290.91	286.88
291.141	285.88
291.371	293.88
291.602	287.88
291.833	292.88
292.064	308.88
292.295	274.88
292.526	278.88
292.757	286.88
292.987	291.88
293.218	281.88
293.449	290.88
293.68	291.88
293.91	284.88
294.141	268.88
294.372	271.88
294.603	265.88
294.833	288.88
295.064	290.88
295.295	280.88
295.525	294.88
295.756	277.88
295.987	288.88
296.217	309.88
296.448	310.88
296.679	308.88
296.909	286.88
297.14	292.88
297.37	300.88
297.601	269.88
297.831	289.88
298.062	307.88
298.292	285.88
298.523	301.88
298.753	325.88
298.984	300.88
299.214	283.88
299.445	295.88
299.675	286.88
299.905	308.88
300.136	304.88
300.366	316.88
300.597	308.88
300.827	313.88
301.057	302.88
301.288	320.88
301.518	314.88
301.748	311.88
301.979	327.88
302.209	320.88
302.439	318.88
302.669	307.88
302.9	314.88
303.13	314.88
303.36	319.88
303.59	309.88
303.82	324.88
304.051	331.88
304.281	314.88
304.511	306.88
304.741	340.88
304.971	323.88
305.201	311.88
305.431	315.88
305.661	319.88
305.891	284.88
306.121	290.88
306.352	318.88
306.582	310.88
306.812	309.88
307.042	319.88
307.272	304.88
307.502	301.88
307.731	315.88
307.961	335.88
308.191	329.88
308.421	286.88
308.651	320.88
308.881	318.88
309.111	317.88
309.341	315.88
309.571	307.88
309.8	323.88
310.03	333.88
310.26	344.88
310.49	324.88
310.72	353.88
310.949	345.88
311.179	333.88
311.409	337.88
311.639	339.88
311.868	332.88
312.098	335.88
312.328	337.88
312.557	346.88
312.787	340.88
313.017	372.88
313.246	359.88
313.476	355.88
313.706	345.88
313.935	346.88
314.165	365.88
314.394	377.88
314.624	344.88
314.853	336.88
315.083	355.88
315.312	344.88
315.542	341.88
315.771	328.88
316.001	341.88
316.23	346.88
316.46	351.88
316.689	334.88
316.919	332.88
317.148	357.88
317.377	351.88
317.607	350.88
317.836	340.88
318.065	322.88
318.295	339.88
318.524	356.88
318.753	342.88
318.983	353.88
319.212	346.88
319.441	359.88
319.67	350.88
319.9	367.88
320.129	333.88
320.358	341.88
320.587	340.88
320.816	345.88
321.046	364.88
321.275	357.88
321.504	338.88
321.733	346.88
321.962	373.88
322.191	392.88
322.42	364.88
322.649	377.88
322.878	364.88
323.108	376.88
323.337	395.88
323.566	408.88
323.795	412.88
324.024	440.88
324.253	500.88
324.482	686.88
324.71	998.88
324.939	1404.88
325.168	1205.88
325.397	683.88
325.626	522.88
325.855	466.88
326.084	423.88
326.313	429.88
326.542	451.88
326.77	437.88
326.999	503.88
327.228	677.88
327.457	937.88
327.686	1058.88
327.914	759.88
328.143	558.88
328.372	526.88
328.6	488.88
328.829	487.88
329.058	468.88
329.287	459.88
329.515	443.88
329.744	456.88
329.972	480.88
330.201	520.88
330.43	559.88
330.658	530.88
330.887	526.88
331.115	478.88
331.344	461.88
331.572	440.88
331.801	426.88
332.03	447.88
332.258	449.88
332.486	448.88
332.715	442.88
332.943	452.88
333.172	450.88
333.4	466.88
333.629	480.88
333.857	527.88
334.085	518.88
334.314	581.88
334.542	617.88
334.771	623.88
334.999	557.88
335.227	476.88
335.455	474.88
335.684	461.88
335.912	436.88
336.14	435.88
336.369	443.88
336.597	434.88
336.825	448.88
337.053	438.88
337.281	410.88
337.51	375.88
337.738	423.88
337.966	400.88
338.194	400.88
338.422	418.88
338.65	383.88
338.878	375.88
339.106	400.88
339.334	374.88
339.562	404.88
339.79	371.88
340.018	380.88
340.246	388.88
340.474	390.88
340.702	375.88
340.93	386.88
341.158	385.88
341.386	380.88
341.614	396.88
341.842	375.88
342.07	377.88
342.298	372.88
342.526	374.88
342.754	362.88
342.981	369.88
343.209	370.88
343.437	392.88
343.665	381.88
343.893	402.88
344.12	424.88
344.348	419.88
344.576	413.88
344.804	398.88
345.031	412.88
345.259	382.88
345.487	384.88
345.714	376.88
345.942	378.88
346.17	367.88
346.397	348.88
346.625	345.88
346.853	377.88
347.08	360.88
347.308	364.88
347.535	363.88
347.763	380.88
347.99	362.88
348.218	388.88
348.445	376.88
348.673	382.88
348.9	360.88
349.128	347.88
349.355	351.88
349.583	366.88
349.81	376.88
350.037	354.88
350.265	354.88
350.492	350.88
350.72	370.88
350.947	346.88
351.174	376.88
351.402	370.88
351.629	345.88
351.856	358.88
352.083	360.88
352.311	345.88
352.538	363.88
352.765	391.88
352.992	365.88
353.22	374.88
353.447	354.88
353.674	356.88
353.901	340.88
354.128	340.88
354.355	333.88
354.583	378.88
354.81	352.88
355.037	372.88
355.264	375.88
355.491	344.88
355.718	339.88
355.945	348.88
356.172	347.88
356.399	339.88
356.626	335.88
356.853	356.88
357.08	355.88
357.307	323.88
357.534	331.88
357.761	327.88
357.988	362.88
358.215	361.88
358.441	343.88
358.668	327.88
358.895	332.88
359.122	345.88
359.349	354.88
359.576	346.88
359.802	376.88
360.029	377.88
360.256	374.88
360.483	366.88
360.709	373.88
360.936	370.88
361.163	366.88
361.39	349.88
361.616	368.88
361.843	342.88
362.07	357.88
362.296	345.88
362.523	348.88
362.749	367.88
362.976	361.88
363.203	351.88
363.429	352.88
363.656	344.88
363.882	342.88
364.109	366.88
364.335	350.88
364.562	351.88
364.788	338.88
365.015	359.88
365.241	342.88
365.468	329.88
365.694	358.88
365.92	351.88
366.147	344.88
366.373	328.88
366.599	342.88
366.826	332.88
367.052	323.88
367.278	343.88
367.505	365.88
367.731	347.88
367.957	327.88
368.184	343.88
368.41	361.88
368.636	340.88
368.862	374.88
369.089	365.88
369.315	357.88
369.541	342.88
369.767	347.88
369.993	371.88
370.219	341.88
370.445	348.88
370.672	346.88
370.898	343.88
371.124	358.88
371.35	348.88
371.576	364.88
371.802	349.88
372.028	342.88
372.254	373.88
372.48	354.88
372.706	354.88
372.932	359.88
373.158	368.88
373.384	376.88
373.61	371.88
373.835	345.88
374.061	347.88
374.287	352.88
374.513	364.88
374.739	382.88
374.965	381.88
375.191	384.88
375.416	375.88
375.642	361.88
375.868	362.88
376.094	348.88
376.319	363.88
376.545	360.88
376.771	380.88
376.997	340.88
377.222	356.88
377.448	373.88
377.674	356.88
377.899	350.88
378.125	347.88
378.35	371.88
378.576	321.88
378.802	343.88
379.027	359.88
379.253	355.88
379.478	345.88
379.704	348.88
379.929	362.88
380.155	347.88
380.38	350.88
380.606	356.88
380.831	350.88
381.057	373.88
381.282	350.88
381.507	349.88
381.733	354.88
381.958	349.88
382.184	359.88
382.409	363.88
382.634	367.88
382.86	373.88
383.085	366.88
383.31	363.88
383.535	355.88
383.761	381.88
383.986	367.88
384.211	378.88
384.436	384.88
384.662	379.88
384.887	415.88
385.112	398.88
385.337	379.88
385.562	386.88
385.787	397.88
386.013	405.88
386.238	394.88
386.463	396.88
386.688	393.88
386.913	390.88
387.138	407.88
387.363	390.88
387.588	394.88
387.813	406.88
388.038	374.88
388.263	379.88
388.488	393.88
388.713	380.88
388.938	382.88
389.163	414.88
389.387	392.88
389.612	393.88
389.837	390.88
390.062	373.88
390.287	393.88
390.512	398.88
390.736	391.88
390.961	394.88
391.186	385.88
391.411	398.88
391.636	412.88
391.86	410.88
392.085	419.88
392.31	430.88
392.534	416.88
392.759	414.88
392.984	399.88
393.208	412.88
393.433	420.88
393.658	407.88
393.882	401.88
394.107	404.88
394.331	404.88
394.556	386.88
394.78	405.88
395.005	402.88
395.229	420.88
395.454	416.88
395.678	413.88
395.903	430.88
396.127	434.88
396.352	442.88
396.576	441.88
396.801	418.88
397.025	409.88
397.249	416.88
397.474	438.88
397.698	428.88
397.922	422.88
398.147	467.88
398.371	454.88
398.595	458.88
398.82	455.88
399.044	505.88
399.268	543.88
399.492	587.88
399.717	622.88
399.941	596.88
400.165	600.88
400.389	595.88
400.613	555.88
400.837	498.88
401.062	480.88
401.286	486.88
401.51	472.88
401.734	468.88
401.958	469.88
402.182	490.88
402.406	468.88
402.63	490.88
402.854	492.88
403.078	488.88
403.302	490.88
403.526	509.88
403.75	498.88
403.974	502.88
404.198	510.88
404.422	520.88
404.645	517.88
404.869	527.88
405.093	534.88
405.317	568.88
405.541	604.88
405.765	553.88
405.988	512.88
406.212	525.88
406.436	527.88
406.66	530.88
406.883	528.88
407.107	570.88
407.331	554.88
407.555	581.88
407.778	626.88
408.002	597.88
408.226	555.88
408.449	560.88
408.673	529.88
408.896	559.88
409.12	568.88
409.344	555.88
409.567	499.88
409.791	514.88
410.014	504.88
410.238	525.88
410.461	483.88
410.685	494.88
410.908	479.88
411.132	505.88
411.355	536.88
411.578	520.88
411.802	500.88
412.025	500.88
412.249	527.88
412.472	508.88
412.695	570.88
412.919	551.88
413.142	535.88
413.365	502.88
413.589	521.88
413.812	485.88
414.035	485.88
414.258	462.88
414.482	479.88
414.705	476.88
414.928	464.88
415.151	466.88
415.374	461.88
415.597	454.88
415.821	450.88
416.044	475.88
416.267	466.88
416.49	459.88
416.713	457.88
416.936	445.88
417.159	462.88
417.382	472.88
417.605	473.88
417.828	479.88
418.051	485.88
418.274	481.88
418.497	449.88
418.72	464.88
418.943	464.88
419.166	467.88
419.389	526.88
419.611	507.88
419.834	519.88
420.057	499.88
420.28	495.88
420.503	503.88
420.726	504.88
420.948	505.88
421.171	495.88
421.394	530.88
421.617	494.88
421.839	471.88
422.062	479.88
422.285	499.88
422.507	527.88
422.73	547.88
422.953	546.88
423.175	491.88
423.398	461.88
423.621	482.88
423.843	504.88
424.066	491.88
424.288	502.88
424.511	491.88
424.733	546.88
424.956	555.88
425.178	553.88
425.401	536.88
425.623	551.88
425.846	519.88
426.068	467.88
426.291	468.88
426.513	468.88
426.735	474.88
426.958	507.88
427.18	533.88
427.402	609.88
427.625	654.88
427.847	574.88
428.069	554.88
428.292	526.88
428.514	460.88
428.736	463.88
428.958	448.88
429.181	442.88
429.403	448.88
429.625	439.88
429.847	451.88
430.069	498.88
430.292	487.88
430.514	442.88
430.736	426.88
430.958	437.88
431.18	412.88
431.402	408.88
431.624	401.88
431.846	424.88
432.068	430.88
432.29	414.88
432.512	416.88
432.734	421.88
432.956	407.88
433.178	427.88
433.4	428.88
433.622	434.88
433.844	419.88
434.066	420.88
434.287	414.88
434.509	446.88
434.731	424.88
434.953	454.88
435.175	455.88
435.397	485.88
435.618	461.88
435.84	478.88
436.062	519.88
436.284	571.88
436.505	498.88
436.727	446.88
436.949	440.88
437.17	450.88
437.392	448.88
437.614	438.88
437.835	425.88
438.057	474.88
438.278	538.88
438.5	532.88
438.721	605.88
438.943	588.88
439.165	492.88
439.386	454.88
439.608	439.88
439.829	451.88
440.05	477.88
440.272	486.88
440.493	466.88
440.715	463.88
440.936	453.88
441.158	459.88
441.379	425.88
441.6	460.88
441.822	469.88
442.043	488.88
442.264	547.88
442.486	556.88
442.707	494.88
442.928	471.88
443.149	473.88
443.371	501.88
443.592	502.88
443.813	567.88
444.034	614.88
444.255	543.88
444.476	502.88
444.698	514.88
444.919	512.88
445.14	593.88
445.361	541.88
445.582	502.88
445.803	528.88
446.024	563.88
446.245	577.88
446.466	555.88
446.687	473.88
446.908	451.88
447.129	459.88
447.35	424.88
447.571	426.88
447.792	419.88
448.013	433.88
448.234	418.88
448.455	463.88
448.675	528.88
448.896	581.88
449.117	507.88
449.338	488.88
449.559	548.88
449.779	591.88
450	489.88
450.221	448.88
450.442	420.88
450.662	422.88
450.883	416.88
451.104	424.88
451.324	424.88
451.545	397.88
451.766	398.88
451.986	379.88
452.207	400.88
452.428	379.88
452.648	380.88
452.869	391.88
453.089	388.88
453.31	388.88
453.53	386.88
453.751	376.88
453.971	383.88
454.192	406.88
454.412	395.88
454.633	382.88
454.853	382.88
455.073	400.88
455.294	377.88
455.514	419.88
455.734	424.88
455.955	367.88
456.175	375.88
456.395	357.88
456.616	396.88
456.836	378.88
457.056	380.88
457.276	383.88
457.497	382.88
457.717	383.88
457.937	362.88
458.157	393.88
458.377	396.88
458.598	394.88
458.818	425.88
459.038	462.88
459.258	468.88
459.478	462.88
459.698	426.88
459.918	431.88
460.138	442.88
460.358	444.88
460.578	462.88
460.798	473.88
461.018	457.88
461.238	483.88
461.458	457.88
461.678	451.88
461.898	462.88
462.118	444.88
462.338	477.88
462.558	484.88
462.777	505.88
462.997	512.88
463.217	567.88
463.437	533.88
463.657	516.88
463.876	516.88
464.096	498.88
464.316	501.88
464.536	515.88
464.755	514.88
464.975	515.88
465.195	503.88
465.414	495.88
465.634	454.88
465.854	434.88
466.073	427.88
466.293	414.88
466.512	425.88
466.732	396.88
466.951	416.88
467.171	404.88
467.391	397.88
467.61	390.88
467.829	410.88
468.049	422.88
468.268	405.88
468.488	418.88
468.707	408.88
468.927	411.88
469.146	388.88
469.365	423.88
469.585	406.88
469.804	384.88
470.023	406.88
470.243	436.88
470.462	414.88
470.681	416.88
470.901	414.88
471.12	401.88
471.339	412.88
471.558	428.88
471.777	408.88
471.997	409.88
472.216	434.88
472.435	479.88
472.654	460.88
472.873	426.88
473.092	409.88
473.311	409.88
473.53	407.88
473.749	395.88
473.968	428.88
474.187	474.88
474.406	486.88
474.625	400.88
474.844	385.88
475.063	400.88
475.282	386.88
475.501	410.88
475.72	412.88
475.939	405.88
476.158	409.88
476.377	414.88
476.596	408.88
476.814	414.88
477.033	428.88
477.252	416.88
477.471	430.88
477.69	439.88
477.908	432.88
478.127	451.88
478.346	460.88
478.564	437.88
478.783	451.88
479.002	485.88
479.22	467.88
479.439	467.88
479.658	483.88
479.876	488.88
480.095	502.88
480.313	516.88
480.532	546.88
480.751	508.88
480.969	542.88
481.188	616.88
481.406	654.88
481.624	573.88
481.843	534.88
482.061	493.88
482.28	490.88
482.498	480.88
482.717	470.88
482.935	473.88
483.153	468.88
483.372	463.88
483.59	466.88
483.808	469.88
484.027	468.88
484.245	460.88
484.463	469.88
484.681	451.88
484.9	461.88
485.118	471.88
485.336	457.88
485.554	476.88
485.772	477.88
485.99	476.88
486.209	455.88
486.427	481.88
486.645	500.88
486.863	490.88
487.081	484.88
487.299	488.88
487.517	488.88
487.735	480.88
487.953	487.88
488.171	478.88
488.389	484.88
488.607	472.88
488.825	468.88
489.043	471.88
489.261	494.88
489.479	473.88
489.696	470.88
489.914	485.88
490.132	486.88
490.35	504.88
490.568	502.88
490.786	518.88
491.003	528.88
491.221	514.88
491.439	514.88
491.657	535.88
491.874	550.88
492.092	564.88
492.31	548.88
492.527	560.88
492.745	570.88
492.963	581.88
493.18	568.88
493.398	560.88
493.615	557.88
493.833	568.88
494.05	566.88
494.268	571.88
494.485	567.88
494.703	553.88
494.92	542.88
495.138	558.88
495.355	551.88
495.573	555.88
495.79	558.88
496.008	554.88
496.225	564.88
496.442	589.88
496.66	582.88
496.877	562.88
497.094	579.88
497.312	565.88
497.529	572.88
497.746	582.88
497.963	623.88
498.181	632.88
498.398	644.88
498.615	656.88
498.832	686.88
499.049	722.88
499.267	740.88
499.484	802.88
499.701	848.88
499.918	883.88
500.135	961.88
500.352	1038.88
500.569	1085.88
500.786	1059.88
501.003	1040.88
501.22	985.88
501.437	913.88
501.654	855.88
501.871	815.88
502.088	735.88
502.305	727.88
502.522	714.88
502.739	670.88
502.956	639.88
503.172	638.88
503.389	602.88
503.606	578.88
503.823	570.88
504.04	601.88
504.256	589.88
504.473	578.88
504.69	587.88
504.907	588.88
505.123	532.88
505.34	539.88
505.557	522.88
505.773	507.88
505.99	538.88
506.207	512.88
506.423	516.88
506.64	503.88
506.856	494.88
507.073	475.88
507.289	493.88
507.506	499.88
507.722	501.88
507.939	505.88
508.155	499.88
508.372	472.88
508.588	480.88
508.805	488.88
509.021	485.88
509.238	475.88
509.454	485.88
509.67	474.88
509.887	458.88
510.103	448.88
510.319	474.88
510.536	545.88
510.752	806.88
510.968	641.88
511.184	483.88
511.401	466.88
511.617	458.88
511.833	463.88
512.049	492.88
512.265	480.88
512.481	489.88
512.698	466.88
512.914	460.88
513.13	463.88
513.346	449.88
513.562	456.88
513.778	446.88
513.994	459.88
514.21	468.88
514.426	484.88
514.642	500.88
514.858	490.88
515.074	522.88
515.29	579.88
515.506	761.88
515.721	655.88
515.937	534.88
516.153	505.88
516.369	498.88
516.585	499.88
516.801	505.88
517.016	540.88
517.232	549.88
517.448	532.88
517.664	555.88
517.879	560.88
518.095	536.88
518.311	522.88
518.527	518.88
518.742	516.88
518.958	511.88
519.173	500.88
519.389	503.88
519.605	465.88
519.82	462.88
520.036	472.88
520.251	479.88
520.467	510.88
520.682	502.88
520.898	502.88
521.113	473.88
521.329	513.88
521.544	523.88
521.76	623.88
521.975	917.88
522.19	874.88
522.406	565.88
522.621	470.88
522.836	453.88
523.052	446.88
523.267	409.88
523.482	412.88
523.698	424.88
523.913	425.88
524.128	405.88
524.343	416.88
524.559	397.88
524.774	418.88
524.989	414.88
525.204	399.88
525.419	403.88
525.634	429.88
525.849	413.88
526.064	388.88
526.28	402.88
526.495	382.88
526.71	395.88
526.925	396.88
527.14	380.88
527.355	381.88
527.57	400.88
527.785	383.88
527.999	385.88
528.214	387.88
528.429	385.88
528.644	420.88
528.859	392.88
529.074	384.88
529.289	412.88
529.503	418.88
529.718	409.88
529.933	394.88
530.148	391.88
530.363	382.88
530.577	404.88
530.792	390.88
531.007	407.88
531.221	377.88
531.436	391.88
531.651	372.88
531.865	389.88
532.08	378.88
532.295	401.88
532.509	388.88
532.724	386.88
532.938	393.88
533.153	398.88
533.367	383.88
533.582	388.88
533.796	381.88
534.011	389.88
534.225	395.88
534.44	380.88
534.654	363.88
534.868	359.88
535.083	363.88
535.297	378.88
535.511	372.88
535.726	375.88
535.94	369.88
536.154	376.88
536.369	368.88
536.583	370.88
536.797	380.88
537.011	374.88
537.225	360.88
537.44	359.88
537.654	364.88
537.868	344.88
538.082	361.88
538.296	367.88
538.51	353.88
538.724	378.88
538.938	354.88
539.153	364.88
539.367	387.88
539.581	374.88
539.795	352.88
540.009	362.88
540.222	349.88
540.436	357.88
540.65	354.88
540.864	376.88
541.078	376.88
541.292	360.88
541.506	352.88
541.72	356.88
541.934	363.88
542.147	371.88
542.361	350.88
542.575	342.88
542.789	358.88
543.002	377.88
543.216	382.88
543.43	365.88
543.644	346.88
543.857	363.88
544.071	367.88
544.285	379.88
544.498	363.88
544.712	360.88
544.925	360.88
545.139	380.88
545.352	374.88
545.566	344.88
545.779	372.88
545.993	376.88
546.206	374.88
546.42	376.88
546.633	382.88
546.847	361.88
547.06	368.88
547.274	375.88
547.487	356.88
547.7	375.88
547.914	352.88
548.127	342.88
548.34	351.88
548.554	357.88
548.767	352.88
548.98	369.88
549.193	356.88
549.407	367.88
549.62	370.88
549.833	378.88
550.046	353.88
550.259	346.88
550.473	350.88
550.686	368.88
550.899	360.88
551.112	358.88
551.325	333.88
551.538	352.88
551.751	333.88
551.964	356.88
552.177	378.88
552.39	380.88
552.603	368.88
552.816	374.88
553.029	373.88
553.242	393.88
553.455	380.88
553.667	381.88
553.88	386.88
554.093	382.88
554.306	381.88
554.519	363.88
554.732	372.88
554.944	353.88
555.157	355.88
555.37	361.88
555.583	354.88
555.795	337.88
556.008	330.88
556.221	325.88
556.433	327.88
556.646	323.88
556.859	344.88
557.071	328.88
557.284	335.88
557.496	318.88
557.709	311.88
557.921	322.88
558.134	323.88
558.346	335.88
558.559	323.88
558.771	331.88
558.984	314.88
559.196	323.88
559.409	301.88
559.621	302.88
559.833	331.88
560.046	319.88
560.258	306.88
560.47	323.88
560.683	319.88
560.895	303.88
561.107	314.88
561.32	309.88
561.532	294.88
561.744	315.88
561.956	294.88
562.168	295.88
562.381	333.88
562.593	310.88
562.805	361.88
563.017	310.88
563.229	325.88
563.441	322.88
563.653	321.88
563.865	343.88
564.077	330.88
564.289	317.88
564.501	338.88
564.713	320.88
564.925	327.88
565.137	348.88
565.349	352.88
565.561	370.88
565.773	359.88
565.985	384.88
566.197	381.88
566.408	415.88
566.62	436.88
566.832	461.88
567.044	460.88
567.255	454.88
567.467	455.88
567.679	467.88
567.891	503.88
568.102	493.88
568.314	486.88
568.526	469.88
568.737	436.88
568.949	411.88
569.161	358.88
569.372	367.88
569.584	353.88
569.795	362.88
570.007	333.88
570.218	363.88
570.43	332.88
570.641	341.88
570.853	337.88
571.064	325.88
571.276	318.88
571.487	327.88
571.698	321.88
571.91	317.88
572.121	301.88
572.333	302.88
572.544	288.88
572.755	272.88
572.966	275.88
573.178	286.88
573.389	279.88
573.6	260.88
573.811	271.88
574.023	294.88
574.234	286.88
574.445	286.88
574.656	271.88
574.867	272.88
575.078	290.88
575.289	314.88
575.501	281.88
575.712	279.88
575.923	270.88
576.134	255.88
576.345	260.88
576.556	264.88
576.767	249.88
576.978	257.88
577.188	278.88
577.399	256.88
577.61	281.88
577.821	266.88
578.032	270.88
578.243	282.88
578.454	365.88
578.665	319.88
578.875	255.88
579.086	246.88
579.297	252.88
579.508	267.88
579.718	266.88
579.929	265.88
580.14	242.88
580.35	251.88
580.561	284.88
580.772	268.88
580.982	256.88
581.193	255.88
581.403	256.88
581.614	252.88
581.825	252.88
582.035	236.88
582.246	250.88
582.456	247.88
582.667	255.88
582.877	269.88
583.087	246.88
583.298	270.88
583.508	261.88
583.719	242.88
583.929	253.88
584.139	257.88
584.35	253.88
584.56	236.88
584.77	238.88
584.981	235.88
585.191	245.88
585.401	254.88
585.611	230.88
585.821	248.88
586.032	232.88
586.242	237.88
586.452	251.88
586.662	246.88
586.872	239.88
587.082	235.88
587.292	237.88
587.502	230.88
587.713	250.88
587.923	222.88
588.133	234.88
588.343	238.88
588.553	236.88
588.762	231.88
588.972	249.88
589.182	252.88
589.392	254.88
589.602	262.88
589.812	267.88
590.022	246.88
590.232	243.88
590.441	248.88
590.651	264.88
590.861	249.88
591.071	248.88
591.281	264.88
591.49	253.88
591.7	258.88
591.91	255.88
592.119	245.88
592.329	250.88
592.539	278.88
592.748	285.88
592.958	278.88
593.167	297.88
593.377	292.88
593.587	287.88
593.796	286.88
594.006	291.88
594.215	299.88
594.424	297.88
594.634	283.88
594.843	287.88
595.053	279.88
595.262	268.88
595.472	258.88
595.681	250.88
595.89	254.88
596.1	232.88
596.309	237.88
596.518	246.88
596.727	219.88
596.937	237.88
597.146	233.88
597.355	216.88
597.564	235.88
597.774	232.88
597.983	216.88
598.192	220.88
598.401	204.88
598.61	224.88
598.819	218.88
599.028	208.88
599.237	231.88
599.446	226.88
599.655	216.88
599.864	237.88
600.073	224.88
600.282	219.88
600.491	214.88
600.7	235.88
600.909	216.88
601.118	214.88
601.327	224.88
601.536	216.88
601.745	215.88
601.953	233.88
602.162	203.88
602.371	206.88
602.58	211.88
602.789	211.88
602.997	209.88
603.206	219.88
603.415	238.88
603.623	207.88
603.832	208.88
604.041	220.88
604.249	189.88
604.458	206.88
604.666	212.88
604.875	220.88
605.084	215.88
605.292	203.88
605.501	220.88
605.709	207.88
605.918	222.88
606.126	199.88
606.334	207.88
606.543	187.88
606.751	211.88
606.96	187.88
607.168	206.88
607.376	212.88
607.585	213.88
607.793	198.88
608.001	198.88
608.21	205.88
608.418	212.88
608.626	205.88
608.834	223.88
609.043	205.88
609.251	202.88
609.459	205.88
609.667	205.88
609.875	191.88
610.083	203.88
610.291	207.88
610.499	201.88
610.707	210.88
610.916	203.88
611.124	206.88
611.332	211.88
611.54	221.88
611.748	204.88
611.955	208.88
612.163	187.88
612.371	199.88
612.579	200.88
612.787	205.88
612.995	201.88
613.203	208.88
613.411	198.88
613.618	212.88
613.826	190.88
614.034	189.88
614.242	199.88
614.449	199.88
614.657	206.88
614.865	197.88
615.072	192.88
615.28	201.88
615.488	182.88
615.695	198.88
615.903	202.88
616.111	194.88
616.318	190.88
616.526	208.88
616.733	199.88
616.941	195.88
617.148	188.88
617.356	193.88
617.563	191.88
617.771	196.88
617.978	182.88
618.185	206.88
618.393	197.88
618.6	192.88
618.807	195.88
619.015	194.88
619.222	185.88
619.429	190.88
619.637	198.88
619.844	174.88
620.051	182.88
620.258	175.88
620.466	186.88
620.673	186.88
620.88	186.88
621.087	189.88
621.294	200.88
621.501	205.88
621.708	195.88
621.915	194.88
622.122	199.88
622.329	191.88
622.536	187.88
622.743	197.88
622.95	186.88
623.157	195.88
623.364	180.88
623.571	184.88
623.778	191.88
623.985	176.88
624.192	176.88
624.399	187.88
624.606	189.88
624.812	186.88
625.019	180.88
625.226	157.88
625.433	170.88
625.639	183.88
625.846	169.88
626.053	179.88
626.259	192.88
626.466	187.88
626.673	174.88
626.879	166.88
627.086	173.88
627.293	178.88
627.499	188.88
627.706	181.88
627.912	176.88
628.119	157.88
628.325	162.88
628.532	173.88
628.738	162.88
628.945	167.88
629.151	178.88
629.357	169.88
629.564	185.88
629.77	163.88
629.976	158.88
630.183	169.88
630.389	166.88
630.595	166.88
630.802	153.88
631.008	184.88
631.214	175.88
631.42	175.88
631.627	166.88
631.833	160.88
632.039	156.88
632.245	159.88
632.451	155.88
632.657	172.88
632.863	178.88
633.069	153.88
633.275	166.88
633.481	172.88
633.688	162.88
633.893	166.88
634.099	163.88
634.305	171.88
634.511	147.88
634.717	149.88
634.923	165.88
635.129	148.88
635.335	160.88
635.541	154.88
635.747	158.88
635.952	160.88
636.158	157.88
636.364	165.88
636.57	165.88
636.775	177.88
636.981	161.88
637.187	157.88
637.392	170.88
637.598	148.88
637.804	157.88
638.009	149.88
638.215	161.88
638.421	164.88
638.626	156.88
638.832	167.88
639.037	167.88
639.243	166.88
639.448	151.88
639.654	134.88
639.859	163.88
640.065	157.88
640.27	164.88
640.475	164.88
640.681	163.88
640.886	162.88
641.091	145.88
641.297	148.88
641.502	142.88
641.707	151.88
641.913	141.88
642.118	139.88
642.323	142.88
642.528	165.88
642.733	145.88
642.939	131.88
643.144	142.88
643.349	140.88
643.554	142.88
643.759	148.88
643.964	138.88
644.169	137.88
644.374	140.88
644.579	149.88
644.784	142.88
644.989	141.88
645.194	138.88
645.399	158.88
645.604	149.88
645.809	143.88
646.014	134.88
646.219	136.88
646.423	150.88
646.628	146.88
646.833	154.88
647.038	150.88
647.243	152.88
647.447	148.88
647.652	156.88
647.857	145.88
648.062	158.88
648.266	154.88
648.471	143.88
648.676	143.88
648.88	149.88
649.085	159.88
649.289	144.88
649.494	162.88
649.698	166.88
649.903	152.88
650.107	151.88
650.312	160.88
650.516	135.88
650.721	134.88
650.925	135.88
651.13	134.88
651.334	139.88
651.539	134.88
651.743	132.88
651.947	130.88
652.152	129.88
652.356	131.88
652.56	126.88
652.764	138.88
652.969	142.88
653.173	139.88
653.377	134.88
653.581	140.88
653.785	132.88
653.99	145.88
654.194	127.88
654.398	129.88
654.602	118.88
654.806	122.88
655.01	121.88
655.214	129.88
655.418	121.88
655.622	130.88
655.826	135.88
656.03	135.88
656.234	138.88
656.438	128.88
656.642	111.88
656.846	130.88
657.049	126.88
657.253	106.88
657.457	95.88
657.661	112.88
657.865	121.88
658.068	101.88
658.272	106.88
658.476	103.88
658.68	105.88
658.883	91.88
659.087	96.88
659.291	91.88
659.494	83.88
659.698	94.88
659.901	102.88
660.105	108.88
660.309	94.88
660.512	94.88
660.716	99.88
660.919	101.88
661.123	93.88
661.326	84.88
661.53	100.88
661.733	95.88
661.936	93.88
662.14	75.88
662.343	90.88
662.546	98.88
662.75	92.88
662.953	87.88
663.156	89.88
663.36	83.88
663.563	87.88
663.766	80.88
663.969	90.88
664.173	74.88
664.376	95.88
664.579	77.88
664.782	68.88
664.985	75.88
665.188	91.88
665.391	90.88
665.594	73.88
665.797	83.88
666	73.88
666.203	63.88
666.406	72.88
666.609	71.88
666.812	85.88
667.015	85.88
667.218	82.88
667.421	90.88
667.624	86.88
667.827	98.88
668.03	96.88
668.232	82.88
668.435	78.88
668.638	72.88
668.841	90.88
669.043	83.88
669.246	80.88
669.449	88.88
669.651	86.88
669.854	81.88
670.057	85.88
670.259	91.88
670.462	88.88
670.665	86.88
670.867	91.88
671.07	84.88
671.272	86.88
671.475	91.88
671.677	81.88
671.88	66.88
672.082	78.88
672.284	92.88
672.487	72.88
672.689	94.88
672.892	93.88
