Data from 1984.PennyLincolnUp.Lamp.En5.5.200Scan.071819.P1_HRD10591_16-58-22-967.txt Node
Date: Thu Jul 18 16:58:22 EDT 2019
User: cochatt
Spectrometer: HR+D1059
Trigger mode: 1
Integration Time (sec): 1.000000E-1
Scans to average: 1
Electric dark correction enabled: true
Nonlinearity correction enabled: false
Boxcar width: 0
XAxis mode: Wavelengths
Number of Pixels in Spectrum: 2048
>>>>>Begin Spectral Data<<<<<
223.165	-22.12
223.4	-22.12
223.635	-22.12
223.869	-15.12
224.104	-19.12
224.338	-20.12
224.573	7.88
224.808	-9.12
225.042	4.88
225.277	-12.12
225.511	-12.12
225.746	10.88
225.98	4.88
226.215	11.88
226.449	15.88
226.683	18.88
226.918	17.88
227.152	16.88
227.387	33.88
227.621	30.88
227.856	51.88
228.09	33.88
228.324	50.88
228.559	49.88
228.793	71.88
229.027	86.88
229.262	82.88
229.496	92.88
229.73	97.88
229.964	113.88
230.199	96.88
230.433	93.88
230.667	95.88
230.901	86.88
231.136	84.88
231.37	93.88
231.604	110.88
231.838	106.88
232.072	106.88
232.306	107.88
232.541	108.88
232.775	99.88
233.009	110.88
233.243	108.88
233.477	104.88
233.711	96.88
233.945	111.88
234.179	115.88
234.413	103.88
234.647	90.88
234.881	83.88
235.115	107.88
235.349	115.88
235.583	114.88
235.817	104.88
236.051	120.88
236.285	115.88
236.519	117.88
236.753	103.88
236.987	116.88
237.221	146.88
237.455	150.88
237.689	122.88
237.922	119.88
238.156	113.88
238.39	124.88
238.624	122.88
238.858	126.88
239.091	111.88
239.325	110.88
239.559	112.88
239.793	134.88
240.027	128.88
240.26	113.88
240.494	126.88
240.728	124.88
240.961	136.88
241.195	121.88
241.429	127.88
241.662	134.88
241.896	123.88
242.13	122.88
242.363	123.88
242.597	132.88
242.83	129.88
243.064	131.88
243.298	127.88
243.531	122.88
243.765	127.88
243.998	122.88
244.232	127.88
244.465	131.88
244.699	130.88
244.932	143.88
245.166	135.88
245.399	149.88
245.633	147.88
245.866	134.88
246.099	131.88
246.333	151.88
246.566	130.88
246.8	128.88
247.033	136.88
247.266	134.88
247.5	146.88
247.733	155.88
247.966	150.88
248.2	164.88
248.433	156.88
248.666	160.88
248.899	151.88
249.133	166.88
249.366	180.88
249.599	164.88
249.832	147.88
250.066	156.88
250.299	167.88
250.532	181.88
250.765	174.88
250.998	186.88
251.231	191.88
251.465	187.88
251.698	168.88
251.931	170.88
252.164	162.88
252.397	166.88
252.63	182.88
252.863	179.88
253.096	196.88
253.329	207.88
253.562	188.88
253.795	182.88
254.028	188.88
254.261	174.88
254.494	180.88
254.727	206.88
254.96	211.88
255.193	209.88
255.426	208.88
255.659	197.88
255.892	217.88
256.124	231.88
256.357	242.88
256.59	214.88
256.823	202.88
257.056	196.88
257.289	212.88
257.521	194.88
257.754	186.88
257.987	178.88
258.22	191.88
258.452	188.88
258.685	190.88
258.918	197.88
259.151	198.88
259.383	202.88
259.616	199.88
259.849	205.88
260.081	191.88
260.314	214.88
260.547	204.88
260.779	208.88
261.012	203.88
261.244	187.88
261.477	185.88
261.71	191.88
261.942	201.88
262.175	185.88
262.407	212.88
262.64	187.88
262.872	179.88
263.105	203.88
263.337	190.88
263.57	200.88
263.802	203.88
264.035	189.88
264.267	200.88
264.499	194.88
264.732	185.88
264.964	202.88
265.197	196.88
265.429	190.88
265.661	198.88
265.894	215.88
266.126	221.88
266.358	205.88
266.591	203.88
266.823	199.88
267.055	198.88
267.287	218.88
267.52	196.88
267.752	200.88
267.984	218.88
268.216	197.88
268.448	215.88
268.681	201.88
268.913	212.88
269.145	222.88
269.377	264.88
269.609	236.88
269.841	239.88
270.073	218.88
270.306	234.88
270.538	247.88
270.77	262.88
271.002	240.88
271.234	247.88
271.466	255.88
271.698	260.88
271.93	277.88
272.162	253.88
272.394	241.88
272.626	248.88
272.858	264.88
273.09	252.88
273.322	254.88
273.553	214.88
273.785	238.88
274.017	239.88
274.249	235.88
274.481	215.88
274.713	235.88
274.945	224.88
275.176	239.88
275.408	230.88
275.64	223.88
275.872	245.88
276.104	229.88
276.335	222.88
276.567	242.88
276.799	257.88
277.031	272.88
277.262	256.88
277.494	269.88
277.726	239.88
277.957	275.88
278.189	255.88
278.421	252.88
278.652	241.88
278.884	257.88
279.115	245.88
279.347	265.88
279.579	232.88
279.81	254.88
280.042	252.88
280.273	257.88
280.505	242.88
280.736	242.88
280.968	249.88
281.199	264.88
281.431	256.88
281.662	268.88
281.894	257.88
282.125	243.88
282.356	281.88
282.588	288.88
282.819	271.88
283.051	258.88
283.282	258.88
283.513	253.88
283.745	247.88
283.976	266.88
284.207	253.88
284.439	261.88
284.67	271.88
284.901	256.88
285.132	270.88
285.364	272.88
285.595	271.88
285.826	268.88
286.057	292.88
286.288	266.88
286.52	268.88
286.751	275.88
286.982	267.88
287.213	271.88
287.444	270.88
287.675	279.88
287.906	293.88
288.138	300.88
288.369	297.88
288.6	282.88
288.831	286.88
289.062	297.88
289.293	270.88
289.524	287.88
289.755	286.88
289.986	286.88
290.217	275.88
290.448	275.88
290.679	279.88
290.91	277.88
291.141	287.88
291.371	260.88
291.602	283.88
291.833	278.88
292.064	271.88
292.295	287.88
292.526	277.88
292.757	279.88
292.987	278.88
293.218	269.88
293.449	285.88
293.68	290.88
293.91	275.88
294.141	278.88
294.372	280.88
294.603	293.88
294.833	274.88
295.064	290.88
295.295	294.88
295.525	292.88
295.756	287.88
295.987	293.88
296.217	299.88
296.448	305.88
296.679	304.88
296.909	295.88
297.14	288.88
297.37	284.88
297.601	294.88
297.831	286.88
298.062	299.88
298.292	295.88
298.523	294.88
298.753	302.88
298.984	280.88
299.214	298.88
299.445	281.88
299.675	294.88
299.905	292.88
300.136	278.88
300.366	314.88
300.597	310.88
300.827	306.88
301.057	328.88
301.288	307.88
301.518	313.88
301.748	304.88
301.979	298.88
302.209	311.88
302.439	312.88
302.669	321.88
302.9	304.88
303.13	308.88
303.36	308.88
303.59	306.88
303.82	299.88
304.051	322.88
304.281	315.88
304.511	304.88
304.741	312.88
304.971	315.88
305.201	295.88
305.431	303.88
305.661	312.88
305.891	308.88
306.121	325.88
306.352	325.88
306.582	299.88
306.812	321.88
307.042	319.88
307.272	308.88
307.502	307.88
307.731	310.88
307.961	299.88
308.191	313.88
308.421	319.88
308.651	318.88
308.881	302.88
309.111	328.88
309.341	318.88
309.571	317.88
309.8	338.88
310.03	343.88
310.26	350.88
310.49	354.88
310.72	334.88
310.949	332.88
311.179	362.88
311.409	329.88
311.639	322.88
311.868	345.88
312.098	315.88
312.328	324.88
312.557	356.88
312.787	354.88
313.017	359.88
313.246	354.88
313.476	322.88
313.706	358.88
313.935	345.88
314.165	362.88
314.394	367.88
314.624	348.88
314.853	350.88
315.083	326.88
315.312	345.88
315.542	347.88
315.771	359.88
316.001	356.88
316.23	355.88
316.46	347.88
316.689	323.88
316.919	331.88
317.148	347.88
317.377	337.88
317.607	351.88
317.836	344.88
318.065	354.88
318.295	329.88
318.524	340.88
318.753	336.88
318.983	351.88
319.212	316.88
319.441	347.88
319.67	352.88
319.9	354.88
320.129	338.88
320.358	343.88
320.587	358.88
320.816	357.88
321.046	372.88
321.275	345.88
321.504	344.88
321.733	356.88
321.962	356.88
322.191	375.88
322.42	366.88
322.649	380.88
322.878	380.88
323.108	379.88
323.337	410.88
323.566	412.88
323.795	439.88
324.024	455.88
324.253	523.88
324.482	707.88
324.71	1018.88
324.939	1394.88
325.168	1199.88
325.397	670.88
325.626	493.88
325.855	454.88
326.084	439.88
326.313	410.88
326.542	418.88
326.77	441.88
326.999	508.88
327.228	650.88
327.457	922.88
327.686	1082.88
327.914	732.88
328.143	553.88
328.372	504.88
328.6	500.88
328.829	469.88
329.058	438.88
329.287	452.88
329.515	464.88
329.744	439.88
329.972	475.88
330.201	489.88
330.43	518.88
330.658	499.88
330.887	500.88
331.115	504.88
331.344	451.88
331.572	426.88
331.801	422.88
332.03	447.88
332.258	421.88
332.486	423.88
332.715	424.88
332.943	435.88
333.172	443.88
333.4	435.88
333.629	477.88
333.857	481.88
334.085	490.88
334.314	526.88
334.542	574.88
334.771	572.88
334.999	508.88
335.227	468.88
335.455	437.88
335.684	441.88
335.912	431.88
336.14	435.88
336.369	427.88
336.597	416.88
336.825	414.88
337.053	436.88
337.281	399.88
337.51	388.88
337.738	392.88
337.966	408.88
338.194	410.88
338.422	406.88
338.65	384.88
338.878	417.88
339.106	390.88
339.334	391.88
339.562	404.88
339.79	383.88
340.018	394.88
340.246	380.88
340.474	398.88
340.702	402.88
340.93	393.88
341.158	394.88
341.386	380.88
341.614	379.88
341.842	384.88
342.07	375.88
342.298	377.88
342.526	384.88
342.754	374.88
342.981	387.88
343.209	377.88
343.437	394.88
343.665	396.88
343.893	417.88
344.12	418.88
344.348	412.88
344.576	408.88
344.804	396.88
345.031	391.88
345.259	397.88
345.487	378.88
345.714	380.88
345.942	371.88
346.17	364.88
346.397	367.88
346.625	361.88
346.853	364.88
347.08	355.88
347.308	360.88
347.535	376.88
347.763	367.88
347.99	370.88
348.218	352.88
348.445	374.88
348.673	384.88
348.9	383.88
349.128	348.88
349.355	352.88
349.583	358.88
349.81	361.88
350.037	359.88
350.265	359.88
350.492	357.88
350.72	365.88
350.947	350.88
351.174	371.88
351.402	371.88
351.629	377.88
351.856	368.88
352.083	364.88
352.311	376.88
352.538	368.88
352.765	374.88
352.992	371.88
353.22	344.88
353.447	358.88
353.674	340.88
353.901	349.88
354.128	346.88
354.355	341.88
354.583	337.88
354.81	360.88
355.037	356.88
355.264	333.88
355.491	318.88
355.718	329.88
355.945	337.88
356.172	369.88
356.399	338.88
356.626	349.88
356.853	326.88
357.08	338.88
357.307	338.88
357.534	340.88
357.761	347.88
357.988	351.88
358.215	353.88
358.441	340.88
358.668	334.88
358.895	350.88
359.122	356.88
359.349	344.88
359.576	339.88
359.802	369.88
360.029	387.88
360.256	401.88
360.483	368.88
360.709	359.88
360.936	364.88
361.163	350.88
361.39	370.88
361.616	354.88
361.843	339.88
362.07	372.88
362.296	349.88
362.523	347.88
362.749	364.88
362.976	337.88
363.203	358.88
363.429	346.88
363.656	343.88
363.882	346.88
364.109	369.88
364.335	334.88
364.562	337.88
364.788	346.88
365.015	351.88
365.241	348.88
365.468	339.88
365.694	344.88
365.92	352.88
366.147	346.88
366.373	352.88
366.599	345.88
366.826	348.88
367.052	320.88
367.278	332.88
367.505	362.88
367.731	368.88
367.957	338.88
368.184	351.88
368.41	344.88
368.636	340.88
368.862	376.88
369.089	370.88
369.315	343.88
369.541	348.88
369.767	343.88
369.993	351.88
370.219	342.88
370.445	348.88
370.672	362.88
370.898	354.88
371.124	365.88
371.35	353.88
371.576	359.88
371.802	356.88
372.028	354.88
372.254	356.88
372.48	360.88
372.706	354.88
372.932	368.88
373.158	347.88
373.384	353.88
373.61	354.88
373.835	355.88
374.061	354.88
374.287	360.88
374.513	356.88
374.739	348.88
374.965	355.88
375.191	376.88
375.416	358.88
375.642	366.88
375.868	372.88
376.094	354.88
376.319	352.88
376.545	350.88
376.771	348.88
376.997	354.88
377.222	347.88
377.448	334.88
377.674	339.88
377.899	338.88
378.125	355.88
378.35	357.88
378.576	374.88
378.802	342.88
379.027	345.88
379.253	320.88
379.478	376.88
379.704	364.88
379.929	344.88
380.155	328.88
380.38	360.88
380.606	360.88
380.831	352.88
381.057	362.88
381.282	355.88
381.507	357.88
381.733	356.88
381.958	335.88
382.184	356.88
382.409	355.88
382.634	378.88
382.86	355.88
383.085	365.88
383.31	369.88
383.535	374.88
383.761	382.88
383.986	370.88
384.211	372.88
384.436	397.88
384.662	382.88
384.887	396.88
385.112	384.88
385.337	385.88
385.562	395.88
385.787	404.88
386.013	403.88
386.238	402.88
386.463	401.88
386.688	401.88
386.913	397.88
387.138	416.88
387.363	403.88
387.588	394.88
387.813	392.88
388.038	378.88
388.263	396.88
388.488	395.88
388.713	399.88
388.938	412.88
389.163	385.88
389.387	392.88
389.612	378.88
389.837	391.88
390.062	396.88
390.287	382.88
390.512	400.88
390.736	406.88
390.961	400.88
391.186	390.88
391.411	434.88
391.636	414.88
391.86	444.88
392.085	423.88
392.31	427.88
392.534	414.88
392.759	412.88
392.984	402.88
393.208	412.88
393.433	400.88
393.658	400.88
393.882	395.88
394.107	388.88
394.331	408.88
394.556	392.88
394.78	403.88
395.005	416.88
395.229	404.88
395.454	432.88
395.678	437.88
395.903	446.88
396.127	442.88
396.352	454.88
396.576	407.88
396.801	404.88
397.025	417.88
397.249	421.88
397.474	431.88
397.698	430.88
397.922	421.88
398.147	434.88
398.371	462.88
398.595	464.88
398.82	457.88
399.044	496.88
399.268	491.88
399.492	550.88
399.717	596.88
399.941	619.88
400.165	602.88
400.389	594.88
400.613	558.88
400.837	491.88
401.062	476.88
401.286	453.88
401.51	472.88
401.734	461.88
401.958	463.88
402.182	438.88
402.406	476.88
402.63	494.88
402.854	481.88
403.078	513.88
403.302	479.88
403.526	511.88
403.75	511.88
403.974	499.88
404.198	530.88
404.422	504.88
404.645	521.88
404.869	495.88
405.093	551.88
405.317	543.88
405.541	570.88
405.765	548.88
405.988	538.88
406.212	537.88
406.436	528.88
406.66	541.88
406.883	537.88
407.107	558.88
407.331	567.88
407.555	622.88
407.778	644.88
408.002	591.88
408.226	534.88
408.449	541.88
408.673	543.88
408.896	555.88
409.12	564.88
409.344	533.88
409.567	498.88
409.791	488.88
410.014	492.88
410.238	504.88
410.461	509.88
410.685	501.88
410.908	480.88
411.132	516.88
411.355	547.88
411.578	538.88
411.802	483.88
412.025	498.88
412.249	498.88
412.472	524.88
412.695	530.88
412.919	547.88
413.142	502.88
413.365	502.88
413.589	486.88
413.812	466.88
414.035	449.88
414.258	465.88
414.482	455.88
414.705	467.88
414.928	460.88
415.151	466.88
415.374	455.88
415.597	460.88
415.821	444.88
416.044	450.88
416.267	453.88
416.49	462.88
416.713	456.88
416.936	450.88
417.159	449.88
417.382	466.88
417.605	463.88
417.828	458.88
418.051	465.88
418.274	488.88
418.497	478.88
418.72	465.88
418.943	457.88
419.166	483.88
419.389	510.88
419.611	504.88
419.834	479.88
420.057	499.88
420.28	506.88
420.503	478.88
420.726	482.88
420.948	477.88
421.171	497.88
421.394	527.88
421.617	470.88
421.839	477.88
422.062	473.88
422.285	483.88
422.507	513.88
422.73	544.88
422.953	532.88
423.175	488.88
423.398	490.88
423.621	485.88
423.843	482.88
424.066	528.88
424.288	497.88
424.511	526.88
424.733	518.88
424.956	571.88
425.178	563.88
425.401	567.88
425.623	566.88
425.846	508.88
426.068	462.88
426.291	468.88
426.513	478.88
426.735	481.88
426.958	504.88
427.18	551.88
427.402	600.88
427.625	655.88
427.847	603.88
428.069	562.88
428.292	486.88
428.514	482.88
428.736	464.88
428.958	457.88
429.181	455.88
429.403	437.88
429.625	436.88
429.847	474.88
430.069	500.88
430.292	451.88
430.514	453.88
430.736	431.88
430.958	430.88
431.18	447.88
431.402	449.88
431.624	410.88
431.846	423.88
432.068	415.88
432.29	418.88
432.512	423.88
432.734	436.88
432.956	416.88
433.178	422.88
433.4	436.88
433.622	447.88
433.844	432.88
434.066	423.88
434.287	426.88
434.509	427.88
434.731	441.88
434.953	445.88
435.175	448.88
435.397	479.88
435.618	480.88
435.84	499.88
436.062	520.88
436.284	596.88
436.505	506.88
436.727	476.88
436.949	445.88
437.17	448.88
437.392	427.88
437.614	432.88
437.835	447.88
438.057	511.88
438.278	547.88
438.5	560.88
438.721	600.88
438.943	590.88
439.165	487.88
439.386	448.88
439.608	456.88
439.829	446.88
440.05	478.88
440.272	483.88
440.493	486.88
440.715	454.88
440.936	444.88
441.158	441.88
441.379	442.88
441.6	456.88
441.822	477.88
442.043	516.88
442.264	528.88
442.486	574.88
442.707	509.88
442.928	476.88
443.149	490.88
443.371	494.88
443.592	536.88
443.813	570.88
444.034	628.88
444.255	550.88
444.476	529.88
444.698	516.88
444.919	508.88
445.14	611.88
445.361	548.88
445.582	509.88
445.803	546.88
446.024	581.88
446.245	564.88
446.466	566.88
446.687	460.88
446.908	456.88
447.129	452.88
447.35	430.88
447.571	423.88
447.792	418.88
448.013	430.88
448.234	426.88
448.455	442.88
448.675	511.88
448.896	597.88
449.117	524.88
449.338	491.88
449.559	554.88
449.779	624.88
450	526.88
450.221	438.88
450.442	423.88
450.662	402.88
450.883	416.88
451.104	428.88
451.324	403.88
451.545	392.88
451.766	410.88
451.986	390.88
452.207	380.88
452.428	368.88
452.648	371.88
452.869	389.88
453.089	377.88
453.31	407.88
453.53	389.88
453.751	405.88
453.971	383.88
454.192	401.88
454.412	362.88
454.633	378.88
454.853	378.88
455.073	385.88
455.294	394.88
455.514	423.88
455.734	403.88
455.955	376.88
456.175	386.88
456.395	358.88
456.616	374.88
456.836	382.88
457.056	352.88
457.276	357.88
457.497	368.88
457.717	375.88
457.937	378.88
458.157	389.88
458.377	358.88
458.598	375.88
458.818	430.88
459.038	459.88
459.258	500.88
459.478	446.88
459.698	425.88
459.918	420.88
460.138	450.88
460.358	446.88
460.578	444.88
460.798	463.88
461.018	459.88
461.238	454.88
461.458	452.88
461.678	440.88
461.898	444.88
462.118	449.88
462.338	468.88
462.558	486.88
462.777	489.88
462.997	510.88
463.217	544.88
463.437	548.88
463.657	521.88
463.876	499.88
464.096	504.88
464.316	494.88
464.536	507.88
464.755	494.88
464.975	514.88
465.195	507.88
465.414	528.88
465.634	470.88
465.854	436.88
466.073	447.88
466.293	421.88
466.512	410.88
466.732	400.88
466.951	403.88
467.171	406.88
467.391	417.88
467.61	414.88
467.829	417.88
468.049	394.88
468.268	439.88
468.488	396.88
468.707	388.88
468.927	401.88
469.146	373.88
469.365	402.88
469.585	406.88
469.804	412.88
470.023	426.88
470.243	410.88
470.462	410.88
470.681	446.88
470.901	416.88
471.12	411.88
471.339	422.88
471.558	413.88
471.777	393.88
471.997	400.88
472.216	421.88
472.435	452.88
472.654	448.88
472.873	415.88
473.092	390.88
473.311	389.88
473.53	384.88
473.749	411.88
473.968	430.88
474.187	461.88
474.406	505.88
474.625	402.88
474.844	403.88
475.063	400.88
475.282	404.88
475.501	394.88
475.72	412.88
475.939	403.88
476.158	390.88
476.377	406.88
476.596	400.88
476.814	418.88
477.033	435.88
477.252	405.88
477.471	420.88
477.69	439.88
477.908	442.88
478.127	444.88
478.346	447.88
478.564	446.88
478.783	455.88
479.002	479.88
479.22	496.88
479.439	475.88
479.658	466.88
479.876	476.88
480.095	500.88
480.313	516.88
480.532	517.88
480.751	504.88
480.969	490.88
481.188	568.88
481.406	569.88
481.624	542.88
481.843	475.88
482.061	482.88
482.28	457.88
482.498	476.88
482.717	446.88
482.935	460.88
483.153	469.88
483.372	442.88
483.59	458.88
483.808	441.88
484.027	466.88
484.245	465.88
484.463	456.88
484.681	475.88
484.9	464.88
485.118	464.88
485.336	461.88
485.554	466.88
485.772	460.88
485.99	455.88
486.209	463.88
486.427	472.88
486.645	476.88
486.863	486.88
487.081	471.88
487.299	478.88
487.517	479.88
487.735	479.88
487.953	485.88
488.171	480.88
488.389	492.88
488.607	473.88
488.825	499.88
489.043	487.88
489.261	496.88
489.479	502.88
489.696	489.88
489.914	504.88
490.132	493.88
490.35	478.88
490.568	503.88
490.786	521.88
491.003	508.88
491.221	513.88
491.439	524.88
491.657	523.88
491.874	556.88
492.092	547.88
492.31	549.88
492.527	535.88
492.745	557.88
492.963	567.88
493.18	554.88
493.398	549.88
493.615	575.88
493.833	550.88
494.05	583.88
494.268	569.88
494.485	574.88
494.703	570.88
494.92	560.88
495.138	543.88
495.355	548.88
495.573	554.88
495.79	550.88
496.008	533.88
496.225	549.88
496.442	559.88
496.66	546.88
496.877	581.88
497.094	593.88
497.312	581.88
497.529	585.88
497.746	586.88
497.963	606.88
498.181	628.88
498.398	643.88
498.615	676.88
498.832	687.88
499.049	722.88
499.267	750.88
499.484	801.88
499.701	832.88
499.918	871.88
500.135	982.88
500.352	1058.88
500.569	1093.88
500.786	1084.88
501.003	1035.88
501.22	956.88
501.437	907.88
501.654	861.88
501.871	809.88
502.088	766.88
502.305	733.88
502.522	683.88
502.739	673.88
502.956	642.88
503.172	627.88
503.389	643.88
503.606	605.88
503.823	562.88
504.04	572.88
504.256	593.88
504.473	610.88
504.69	591.88
504.907	598.88
505.123	587.88
505.34	542.88
505.557	553.88
505.773	529.88
505.99	527.88
506.207	524.88
506.423	519.88
506.64	522.88
506.856	518.88
507.073	503.88
507.289	490.88
507.506	508.88
507.722	491.88
507.939	490.88
508.155	495.88
508.372	461.88
508.588	472.88
508.805	479.88
509.021	471.88
509.238	475.88
509.454	486.88
509.67	487.88
509.887	466.88
510.103	478.88
510.319	482.88
510.536	560.88
510.752	809.88
510.968	667.88
511.184	481.88
511.401	451.88
511.617	462.88
511.833	460.88
512.049	485.88
512.265	470.88
512.481	470.88
512.698	458.88
512.914	458.88
513.13	459.88
513.346	463.88
513.562	467.88
513.778	464.88
513.994	455.88
514.21	481.88
514.426	465.88
514.642	508.88
514.858	514.88
515.074	557.88
515.29	582.88
515.506	786.88
515.721	674.88
515.937	520.88
516.153	511.88
516.369	499.88
516.585	489.88
516.801	516.88
517.016	504.88
517.232	528.88
517.448	514.88
517.664	548.88
517.879	535.88
518.095	541.88
518.311	534.88
518.527	515.88
518.742	485.88
518.958	508.88
519.173	489.88
519.389	484.88
519.605	485.88
519.82	481.88
520.036	473.88
520.251	457.88
520.467	483.88
520.682	489.88
520.898	473.88
521.113	502.88
521.329	502.88
521.544	571.88
521.76	636.88
521.975	954.88
522.19	896.88
522.406	578.88
522.621	454.88
522.836	466.88
523.052	439.88
523.267	427.88
523.482	397.88
523.698	405.88
523.913	438.88
524.128	415.88
524.343	405.88
524.559	406.88
524.774	397.88
524.989	408.88
525.204	403.88
525.419	402.88
525.634	405.88
525.849	409.88
526.064	400.88
526.28	394.88
526.495	390.88
526.71	392.88
526.925	378.88
527.14	378.88
527.355	395.88
527.57	395.88
527.785	389.88
527.999	399.88
528.214	382.88
528.429	423.88
528.644	394.88
528.859	387.88
529.074	382.88
529.289	396.88
529.503	435.88
529.718	416.88
529.933	378.88
530.148	401.88
530.363	415.88
530.577	387.88
530.792	376.88
531.007	401.88
531.221	393.88
531.436	383.88
531.651	387.88
531.865	372.88
532.08	392.88
532.295	365.88
532.509	392.88
532.724	398.88
532.938	407.88
533.153	378.88
533.367	386.88
533.582	376.88
533.796	389.88
534.011	374.88
534.225	369.88
534.44	384.88
534.654	375.88
534.868	376.88
535.083	375.88
535.297	384.88
535.511	382.88
535.726	388.88
535.94	383.88
536.154	389.88
536.369	372.88
536.583	383.88
536.797	370.88
537.011	362.88
537.225	352.88
537.44	381.88
537.654	382.88
537.868	378.88
538.082	346.88
538.296	351.88
538.51	360.88
538.724	352.88
538.938	372.88
539.153	350.88
539.367	372.88
539.581	361.88
539.795	358.88
540.009	340.88
540.222	354.88
540.436	374.88
540.65	360.88
540.864	359.88
541.078	361.88
541.292	374.88
541.506	370.88
541.72	353.88
541.934	365.88
542.147	362.88
542.361	364.88
542.575	359.88
542.789	358.88
543.002	377.88
543.216	352.88
543.43	346.88
543.644	370.88
543.857	354.88
544.071	353.88
544.285	381.88
544.498	350.88
544.712	374.88
544.925	361.88
545.139	370.88
545.352	342.88
545.566	376.88
545.779	374.88
545.993	383.88
546.206	368.88
546.42	344.88
546.633	378.88
546.847	363.88
547.06	345.88
547.274	362.88
547.487	345.88
547.7	344.88
547.914	346.88
548.127	349.88
548.34	367.88
548.554	352.88
548.767	374.88
548.98	364.88
549.193	374.88
549.407	378.88
549.62	363.88
549.833	356.88
550.046	370.88
550.259	370.88
550.473	361.88
550.686	352.88
550.899	342.88
551.112	371.88
551.325	340.88
551.538	357.88
551.751	357.88
551.964	373.88
552.177	352.88
552.39	383.88
552.603	357.88
552.816	367.88
553.029	388.88
553.242	364.88
553.455	383.88
553.667	390.88
553.88	389.88
554.093	377.88
554.306	371.88
554.519	377.88
554.732	374.88
554.944	350.88
555.157	354.88
555.37	343.88
555.583	345.88
555.795	317.88
556.008	338.88
556.221	324.88
556.433	325.88
556.646	331.88
556.859	324.88
557.071	318.88
557.284	323.88
557.496	342.88
557.709	316.88
557.921	330.88
558.134	321.88
558.346	323.88
558.559	325.88
558.771	333.88
558.984	320.88
559.196	323.88
559.409	316.88
559.621	312.88
559.833	306.88
560.046	318.88
560.258	307.88
560.47	321.88
560.683	314.88
560.895	305.88
561.107	307.88
561.32	305.88
561.532	313.88
561.744	330.88
561.956	324.88
562.168	309.88
562.381	308.88
562.593	304.88
562.805	312.88
563.017	313.88
563.229	316.88
563.441	321.88
563.653	320.88
563.865	326.88
564.077	330.88
564.289	338.88
564.501	334.88
564.713	332.88
564.925	336.88
565.137	356.88
565.349	350.88
565.561	338.88
565.773	363.88
565.985	385.88
566.197	400.88
566.408	408.88
566.62	430.88
566.832	443.88
567.044	456.88
567.255	452.88
567.467	464.88
567.679	461.88
567.891	489.88
568.102	495.88
568.314	490.88
568.526	458.88
568.737	409.88
568.949	410.88
569.161	379.88
569.372	365.88
569.584	375.88
569.795	345.88
570.007	354.88
570.218	361.88
570.43	355.88
570.641	327.88
570.853	345.88
571.064	322.88
571.276	331.88
571.487	327.88
571.698	306.88
571.91	299.88
572.121	305.88
572.333	292.88
572.544	294.88
572.755	302.88
572.966	296.88
573.178	289.88
573.389	280.88
573.6	274.88
573.811	281.88
574.023	280.88
574.234	276.88
574.445	275.88
574.656	277.88
574.867	281.88
575.078	289.88
575.289	283.88
575.501	261.88
575.712	267.88
575.923	276.88
576.134	266.88
576.345	264.88
576.556	273.88
576.767	274.88
576.978	273.88
577.188	252.88
577.399	270.88
577.61	278.88
577.821	264.88
578.032	275.88
578.243	278.88
578.454	397.88
578.665	331.88
578.875	275.88
579.086	260.88
579.297	262.88
579.508	262.88
579.718	273.88
579.929	258.88
580.14	241.88
580.35	257.88
580.561	253.88
580.772	257.88
580.982	252.88
581.193	239.88
581.403	252.88
581.614	254.88
581.825	252.88
582.035	247.88
582.246	232.88
582.456	266.88
582.667	266.88
582.877	247.88
583.087	243.88
583.298	252.88
583.508	258.88
583.719	251.88
583.929	266.88
584.139	248.88
584.35	219.88
584.56	254.88
584.77	246.88
584.981	233.88
585.191	257.88
585.401	231.88
585.611	242.88
585.821	246.88
586.032	246.88
586.242	250.88
586.452	236.88
586.662	236.88
586.872	239.88
587.082	266.88
587.292	242.88
587.502	240.88
587.713	249.88
587.923	240.88
588.133	241.88
588.343	250.88
588.553	250.88
588.762	246.88
588.972	247.88
589.182	263.88
589.392	250.88
589.602	247.88
589.812	256.88
590.022	243.88
590.232	236.88
590.441	250.88
590.651	250.88
590.861	258.88
591.071	250.88
591.281	262.88
591.49	245.88
591.7	255.88
591.91	244.88
592.119	254.88
592.329	276.88
592.539	281.88
592.748	284.88
592.958	271.88
593.167	284.88
593.377	292.88
593.587	287.88
593.796	280.88
594.006	284.88
594.215	306.88
594.424	302.88
594.634	279.88
594.843	287.88
595.053	282.88
595.262	264.88
595.472	274.88
595.681	262.88
595.89	251.88
596.1	247.88
596.309	239.88
596.518	229.88
596.727	234.88
596.937	222.88
597.146	233.88
597.355	229.88
597.564	235.88
597.774	231.88
597.983	238.88
598.192	226.88
598.401	232.88
598.61	217.88
598.819	217.88
599.028	224.88
599.237	212.88
599.446	218.88
599.655	219.88
599.864	199.88
600.073	209.88
600.282	224.88
600.491	208.88
600.7	200.88
600.909	218.88
601.118	208.88
601.327	212.88
601.536	195.88
601.745	223.88
601.953	211.88
602.162	211.88
602.371	196.88
602.58	214.88
602.789	223.88
602.997	224.88
603.206	194.88
603.415	209.88
603.623	207.88
603.832	199.88
604.041	211.88
604.249	220.88
604.458	216.88
604.666	211.88
604.875	200.88
605.084	210.88
605.292	206.88
605.501	197.88
605.709	200.88
605.918	209.88
606.126	208.88
606.334	204.88
606.543	212.88
606.751	195.88
606.96	205.88
607.168	187.88
607.376	222.88
607.585	214.88
607.793	228.88
608.001	218.88
608.21	208.88
608.418	208.88
608.626	199.88
608.834	207.88
609.043	204.88
609.251	200.88
609.459	196.88
609.667	192.88
609.875	199.88
610.083	199.88
610.291	187.88
610.499	217.88
610.707	202.88
610.916	220.88
611.124	195.88
611.332	207.88
611.54	203.88
611.748	211.88
611.955	215.88
612.163	195.88
612.371	218.88
612.579	188.88
612.787	202.88
612.995	204.88
613.203	191.88
613.411	206.88
613.618	204.88
613.826	194.88
614.034	177.88
614.242	208.88
614.449	199.88
614.657	213.88
614.865	196.88
615.072	212.88
615.28	190.88
615.488	190.88
615.695	206.88
615.903	219.88
616.111	202.88
616.318	210.88
616.526	211.88
616.733	188.88
616.941	203.88
617.148	196.88
617.356	197.88
617.563	198.88
617.771	196.88
617.978	204.88
618.185	204.88
618.393	200.88
618.6	209.88
618.807	194.88
619.015	201.88
619.222	188.88
619.429	194.88
619.637	198.88
619.844	206.88
620.051	204.88
620.258	206.88
620.466	196.88
620.673	186.88
620.88	186.88
621.087	185.88
621.294	208.88
621.501	186.88
621.708	187.88
621.915	184.88
622.122	186.88
622.329	196.88
622.536	183.88
622.743	188.88
622.95	188.88
623.157	188.88
623.364	165.88
623.571	186.88
623.778	182.88
623.985	181.88
624.192	188.88
624.399	183.88
624.606	186.88
624.812	184.88
625.019	189.88
625.226	185.88
625.433	182.88
625.639	174.88
625.846	172.88
626.053	170.88
626.259	160.88
626.466	186.88
626.673	170.88
626.879	172.88
627.086	164.88
627.293	160.88
627.499	176.88
627.706	170.88
627.912	181.88
628.119	181.88
628.325	182.88
628.532	193.88
628.738	166.88
628.945	178.88
629.151	150.88
629.357	162.88
629.564	162.88
629.77	164.88
629.976	171.88
630.183	183.88
630.389	166.88
630.595	175.88
630.802	160.88
631.008	169.88
631.214	154.88
631.42	166.88
631.627	165.88
631.833	168.88
632.039	148.88
632.245	154.88
632.451	144.88
632.657	174.88
632.863	160.88
633.069	169.88
633.275	162.88
633.481	163.88
633.688	156.88
633.893	163.88
634.099	165.88
634.305	161.88
634.511	154.88
634.717	148.88
634.923	141.88
635.129	149.88
635.335	151.88
635.541	153.88
635.747	164.88
635.952	156.88
636.158	161.88
636.364	169.88
636.57	165.88
636.775	152.88
636.981	159.88
637.187	162.88
637.392	167.88
637.598	162.88
637.804	172.88
638.009	151.88
638.215	157.88
638.421	152.88
638.626	164.88
638.832	156.88
639.037	156.88
639.243	146.88
639.448	163.88
639.654	151.88
639.859	144.88
640.065	155.88
640.27	160.88
640.475	161.88
640.681	146.88
640.886	148.88
641.091	149.88
641.297	166.88
641.502	143.88
641.707	122.88
641.913	150.88
642.118	145.88
642.323	160.88
642.528	135.88
642.733	147.88
642.939	140.88
643.144	148.88
643.349	151.88
643.554	140.88
643.759	155.88
643.964	152.88
644.169	139.88
644.374	139.88
644.579	154.88
644.784	152.88
644.989	140.88
645.194	150.88
645.399	154.88
645.604	135.88
645.809	154.88
646.014	146.88
646.219	160.88
646.423	128.88
646.628	159.88
646.833	154.88
647.038	149.88
647.243	149.88
647.447	163.88
647.652	151.88
647.857	146.88
648.062	143.88
648.266	142.88
648.471	151.88
648.676	154.88
648.88	153.88
649.085	145.88
649.289	168.88
649.494	160.88
649.698	160.88
649.903	149.88
650.107	138.88
650.312	146.88
650.516	140.88
650.721	155.88
650.925	153.88
651.13	138.88
651.334	132.88
651.539	133.88
651.743	139.88
651.947	134.88
652.152	140.88
652.356	127.88
652.56	132.88
652.764	130.88
652.969	122.88
653.173	126.88
653.377	127.88
653.581	124.88
653.785	130.88
653.99	128.88
654.194	132.88
654.398	128.88
654.602	132.88
654.806	120.88
655.01	127.88
655.214	122.88
655.418	134.88
655.622	131.88
655.826	114.88
656.03	124.88
656.234	129.88
656.438	121.88
656.642	138.88
656.846	119.88
657.049	121.88
657.253	107.88
657.457	109.88
657.661	119.88
657.865	108.88
658.068	112.88
658.272	92.88
658.476	100.88
658.68	96.88
658.883	110.88
659.087	112.88
659.291	103.88
659.494	102.88
659.698	91.88
659.901	105.88
660.105	90.88
660.309	98.88
660.512	87.88
660.716	91.88
660.919	88.88
661.123	94.88
661.326	85.88
661.53	68.88
661.733	83.88
661.936	89.88
662.14	83.88
662.343	81.88
662.546	83.88
662.75	75.88
662.953	93.88
663.156	93.88
663.36	89.88
663.563	86.88
663.766	72.88
663.969	63.88
664.173	84.88
664.376	70.88
664.579	73.88
664.782	73.88
664.985	84.88
665.188	90.88
665.391	89.88
665.594	93.88
665.797	98.88
666	98.88
666.203	88.88
666.406	70.88
666.609	82.88
666.812	90.88
667.015	100.88
667.218	80.88
667.421	78.88
667.624	77.88
667.827	75.88
668.03	76.88
668.232	87.88
668.435	82.88
668.638	85.88
668.841	92.88
669.043	88.88
669.246	75.88
669.449	82.88
669.651	80.88
669.854	70.88
670.057	72.88
670.259	87.88
670.462	85.88
670.665	96.88
670.867	72.88
671.07	92.88
671.272	86.88
671.475	93.88
671.677	90.88
671.88	69.88
672.082	88.88
672.284	83.88
672.487	68.88
672.689	82.88
672.892	103.88
