Data from 1984.PennyLincolnUp.Lamp.En5.5.200Scan.071819.P1_HRD10591_16-57-26-967.txt Node
Date: Thu Jul 18 16:57:26 EDT 2019
User: cochatt
Spectrometer: HR+D1059
Trigger mode: 1
Integration Time (sec): 1.000000E-1
Scans to average: 1
Electric dark correction enabled: true
Nonlinearity correction enabled: false
Boxcar width: 0
XAxis mode: Wavelengths
Number of Pixels in Spectrum: 2048
>>>>>Begin Spectral Data<<<<<
223.165	-12.12
223.4	-12.12
223.635	-12.12
223.869	-16.12
224.104	-20.12
224.338	-2.12
224.573	-11.12
224.808	-12.12
225.042	-2.12
225.277	-10.12
225.511	-8.12
225.746	-6.12
225.98	12.88
226.215	14.88
226.449	13.88
226.683	16.88
226.918	14.88
227.152	26.88
227.387	42.88
227.621	27.88
227.856	41.88
228.09	47.88
228.324	46.88
228.559	64.88
228.793	70.88
229.027	80.88
229.262	89.88
229.496	93.88
229.73	107.88
229.964	120.88
230.199	112.88
230.433	86.88
230.667	108.88
230.901	100.88
231.136	99.88
231.37	109.88
231.604	106.88
231.838	103.88
232.072	110.88
232.306	103.88
232.541	109.88
232.775	107.88
233.009	116.88
233.243	97.88
233.477	112.88
233.711	117.88
233.945	115.88
234.179	126.88
234.413	114.88
234.647	98.88
234.881	98.88
235.115	81.88
235.349	97.88
235.583	113.88
235.817	106.88
236.051	98.88
236.285	109.88
236.519	109.88
236.753	114.88
236.987	126.88
237.221	137.88
237.455	151.88
237.689	124.88
237.922	127.88
238.156	124.88
238.39	111.88
238.624	125.88
238.858	125.88
239.091	106.88
239.325	117.88
239.559	134.88
239.793	105.88
240.027	125.88
240.26	124.88
240.494	119.88
240.728	122.88
240.961	128.88
241.195	129.88
241.429	122.88
241.662	127.88
241.896	116.88
242.13	122.88
242.363	140.88
242.597	123.88
242.83	123.88
243.064	122.88
243.298	118.88
243.531	126.88
243.765	136.88
243.998	133.88
244.232	137.88
244.465	129.88
244.699	126.88
244.932	133.88
245.166	127.88
245.399	129.88
245.633	141.88
245.866	133.88
246.099	138.88
246.333	139.88
246.566	116.88
246.8	138.88
247.033	145.88
247.266	113.88
247.5	134.88
247.733	158.88
247.966	167.88
248.2	151.88
248.433	133.88
248.666	139.88
248.899	148.88
249.133	154.88
249.366	164.88
249.599	166.88
249.832	143.88
250.066	141.88
250.299	146.88
250.532	153.88
250.765	162.88
250.998	171.88
251.231	171.88
251.465	175.88
251.698	164.88
251.931	162.88
252.164	157.88
252.397	161.88
252.63	180.88
252.863	178.88
253.096	179.88
253.329	187.88
253.562	170.88
253.795	175.88
254.028	185.88
254.261	195.88
254.494	185.88
254.727	173.88
254.96	197.88
255.193	190.88
255.426	197.88
255.659	178.88
255.892	171.88
256.124	179.88
256.357	181.88
256.59	172.88
256.823	179.88
257.056	179.88
257.289	191.88
257.521	185.88
257.754	182.88
257.987	170.88
258.22	183.88
258.452	183.88
258.685	161.88
258.918	177.88
259.151	195.88
259.383	186.88
259.616	182.88
259.849	191.88
260.081	197.88
260.314	192.88
260.547	201.88
260.779	181.88
261.012	184.88
261.244	177.88
261.477	189.88
261.71	189.88
261.942	192.88
262.175	188.88
262.407	195.88
262.64	193.88
262.872	180.88
263.105	181.88
263.337	178.88
263.57	177.88
263.802	187.88
264.035	183.88
264.267	185.88
264.499	187.88
264.732	199.88
264.964	195.88
265.197	196.88
265.429	195.88
265.661	183.88
265.894	189.88
266.126	197.88
266.358	208.88
266.591	191.88
266.823	197.88
267.055	206.88
267.287	199.88
267.52	183.88
267.752	205.88
267.984	204.88
268.216	213.88
268.448	224.88
268.681	188.88
268.913	203.88
269.145	214.88
269.377	241.88
269.609	230.88
269.841	225.88
270.073	230.88
270.306	235.88
270.538	238.88
270.77	252.88
271.002	233.88
271.234	222.88
271.466	241.88
271.698	248.88
271.93	231.88
272.162	243.88
272.394	246.88
272.626	237.88
272.858	220.88
273.09	236.88
273.322	231.88
273.553	228.88
273.785	238.88
274.017	208.88
274.249	224.88
274.481	245.88
274.713	221.88
274.945	228.88
275.176	233.88
275.408	228.88
275.64	225.88
275.872	224.88
276.104	238.88
276.335	242.88
276.567	233.88
276.799	221.88
277.031	248.88
277.262	260.88
277.494	261.88
277.726	265.88
277.957	232.88
278.189	243.88
278.421	265.88
278.652	235.88
278.884	227.88
279.115	236.88
279.347	235.88
279.579	225.88
279.81	237.88
280.042	250.88
280.273	239.88
280.505	228.88
280.736	237.88
280.968	231.88
281.199	238.88
281.431	259.88
281.662	248.88
281.894	259.88
282.125	253.88
282.356	262.88
282.588	249.88
282.819	256.88
283.051	244.88
283.282	253.88
283.513	255.88
283.745	252.88
283.976	255.88
284.207	233.88
284.439	255.88
284.67	270.88
284.901	258.88
285.132	259.88
285.364	241.88
285.595	244.88
285.826	254.88
286.057	261.88
286.288	257.88
286.52	248.88
286.751	253.88
286.982	264.88
287.213	266.88
287.444	285.88
287.675	259.88
287.906	254.88
288.138	271.88
288.369	284.88
288.6	298.88
288.831	275.88
289.062	275.88
289.293	280.88
289.524	274.88
289.755	293.88
289.986	275.88
290.217	272.88
290.448	261.88
290.679	265.88
290.91	275.88
291.141	284.88
291.371	269.88
291.602	263.88
291.833	286.88
292.064	255.88
292.295	284.88
292.526	262.88
292.757	261.88
292.987	277.88
293.218	284.88
293.449	261.88
293.68	264.88
293.91	275.88
294.141	266.88
294.372	264.88
294.603	280.88
294.833	282.88
295.064	278.88
295.295	282.88
295.525	281.88
295.756	279.88
295.987	279.88
296.217	287.88
296.448	293.88
296.679	267.88
296.909	314.88
297.14	277.88
297.37	289.88
297.601	296.88
297.831	302.88
298.062	285.88
298.292	285.88
298.523	279.88
298.753	296.88
298.984	279.88
299.214	295.88
299.445	287.88
299.675	269.88
299.905	293.88
300.136	291.88
300.366	287.88
300.597	260.88
300.827	287.88
301.057	308.88
301.288	297.88
301.518	299.88
301.748	300.88
301.979	295.88
302.209	328.88
302.439	311.88
302.669	310.88
302.9	291.88
303.13	317.88
303.36	299.88
303.59	296.88
303.82	285.88
304.051	314.88
304.281	299.88
304.511	301.88
304.741	315.88
304.971	294.88
305.201	290.88
305.431	308.88
305.661	302.88
305.891	295.88
306.121	271.88
306.352	298.88
306.582	297.88
306.812	297.88
307.042	287.88
307.272	289.88
307.502	311.88
307.731	301.88
307.961	314.88
308.191	299.88
308.421	299.88
308.651	310.88
308.881	327.88
309.111	298.88
309.341	316.88
309.571	315.88
309.8	336.88
310.03	333.88
310.26	305.88
310.49	301.88
310.72	319.88
310.949	312.88
311.179	311.88
311.409	316.88
311.639	315.88
311.868	329.88
312.098	326.88
312.328	327.88
312.557	340.88
312.787	338.88
313.017	339.88
313.246	328.88
313.476	328.88
313.706	339.88
313.935	345.88
314.165	334.88
314.394	329.88
314.624	341.88
314.853	363.88
315.083	315.88
315.312	315.88
315.542	330.88
315.771	334.88
316.001	332.88
316.23	329.88
316.46	316.88
316.689	323.88
316.919	328.88
317.148	324.88
317.377	330.88
317.607	342.88
317.836	328.88
318.065	317.88
318.295	323.88
318.524	335.88
318.753	319.88
318.983	330.88
319.212	331.88
319.441	330.88
319.67	318.88
319.9	325.88
320.129	317.88
320.358	328.88
320.587	336.88
320.816	327.88
321.046	326.88
321.275	324.88
321.504	343.88
321.733	332.88
321.962	341.88
322.191	319.88
322.42	329.88
322.649	345.88
322.878	354.88
323.108	365.88
323.337	374.88
323.566	369.88
323.795	391.88
324.024	393.88
324.253	459.88
324.482	577.88
324.71	786.88
324.939	1065.88
325.168	919.88
325.397	540.88
325.626	435.88
325.855	383.88
326.084	366.88
326.313	380.88
326.542	365.88
326.77	404.88
326.999	429.88
327.228	540.88
327.457	739.88
327.686	821.88
327.914	593.88
328.143	458.88
328.372	411.88
328.6	409.88
328.829	375.88
329.058	391.88
329.287	405.88
329.515	387.88
329.744	383.88
329.972	372.88
330.201	384.88
330.43	366.88
330.658	398.88
330.887	405.88
331.115	412.88
331.344	400.88
331.572	400.88
331.801	404.88
332.03	393.88
332.258	399.88
332.486	375.88
332.715	390.88
332.943	404.88
333.172	414.88
333.4	419.88
333.629	427.88
333.857	445.88
334.085	425.88
334.314	426.88
334.542	435.88
334.771	399.88
334.999	420.88
335.227	404.88
335.455	408.88
335.684	419.88
335.912	434.88
336.14	412.88
336.369	415.88
336.597	391.88
336.825	390.88
337.053	418.88
337.281	395.88
337.51	402.88
337.738	403.88
337.966	382.88
338.194	397.88
338.422	399.88
338.65	375.88
338.878	376.88
339.106	374.88
339.334	381.88
339.562	375.88
339.79	373.88
340.018	379.88
340.246	365.88
340.474	369.88
340.702	364.88
340.93	364.88
341.158	383.88
341.386	361.88
341.614	383.88
341.842	366.88
342.07	372.88
342.298	351.88
342.526	354.88
342.754	369.88
342.981	362.88
343.209	365.88
343.437	377.88
343.665	387.88
343.893	420.88
344.12	415.88
344.348	411.88
344.576	364.88
344.804	384.88
345.031	395.88
345.259	381.88
345.487	367.88
345.714	339.88
345.942	355.88
346.17	357.88
346.397	341.88
346.625	341.88
346.853	331.88
347.08	358.88
347.308	350.88
347.535	331.88
347.763	348.88
347.99	356.88
348.218	358.88
348.445	345.88
348.673	350.88
348.9	365.88
349.128	345.88
349.355	355.88
349.583	350.88
349.81	343.88
350.037	335.88
350.265	343.88
350.492	345.88
350.72	348.88
350.947	349.88
351.174	338.88
351.402	350.88
351.629	329.88
351.856	353.88
352.083	362.88
352.311	348.88
352.538	358.88
352.765	341.88
352.992	329.88
353.22	331.88
353.447	334.88
353.674	338.88
353.901	358.88
354.128	358.88
354.355	325.88
354.583	322.88
354.81	351.88
355.037	338.88
355.264	340.88
355.491	348.88
355.718	335.88
355.945	327.88
356.172	318.88
356.399	332.88
356.626	328.88
356.853	346.88
357.08	343.88
357.307	344.88
357.534	337.88
357.761	347.88
357.988	353.88
358.215	335.88
358.441	338.88
358.668	324.88
358.895	327.88
359.122	332.88
359.349	351.88
359.576	343.88
359.802	362.88
360.029	370.88
360.256	333.88
360.483	363.88
360.709	345.88
360.936	342.88
361.163	365.88
361.39	358.88
361.616	330.88
361.843	331.88
362.07	331.88
362.296	350.88
362.523	348.88
362.749	330.88
362.976	355.88
363.203	348.88
363.429	329.88
363.656	328.88
363.882	338.88
364.109	346.88
364.335	331.88
364.562	335.88
364.788	345.88
365.015	334.88
365.241	343.88
365.468	333.88
365.694	332.88
365.92	333.88
366.147	341.88
366.373	333.88
366.599	334.88
366.826	327.88
367.052	335.88
367.278	330.88
367.505	346.88
367.731	332.88
367.957	327.88
368.184	349.88
368.41	353.88
368.636	342.88
368.862	334.88
369.089	338.88
369.315	342.88
369.541	339.88
369.767	334.88
369.993	329.88
370.219	333.88
370.445	354.88
370.672	327.88
370.898	341.88
371.124	350.88
371.35	337.88
371.576	343.88
371.802	354.88
372.028	342.88
372.254	340.88
372.48	363.88
372.706	338.88
372.932	352.88
373.158	346.88
373.384	354.88
373.61	337.88
373.835	341.88
374.061	337.88
374.287	345.88
374.513	330.88
374.739	357.88
374.965	365.88
375.191	370.88
375.416	357.88
375.642	359.88
375.868	382.88
376.094	372.88
376.319	342.88
376.545	353.88
376.771	342.88
376.997	351.88
377.222	344.88
377.448	374.88
377.674	342.88
377.899	323.88
378.125	329.88
378.35	354.88
378.576	365.88
378.802	343.88
379.027	340.88
379.253	343.88
379.478	348.88
379.704	342.88
379.929	340.88
380.155	335.88
380.38	339.88
380.606	329.88
380.831	327.88
381.057	349.88
381.282	353.88
381.507	335.88
381.733	334.88
381.958	335.88
382.184	349.88
382.409	348.88
382.634	359.88
382.86	365.88
383.085	349.88
383.31	377.88
383.535	374.88
383.761	382.88
383.986	366.88
384.211	393.88
384.436	379.88
384.662	389.88
384.887	374.88
385.112	366.88
385.337	391.88
385.562	393.88
385.787	396.88
386.013	401.88
386.238	382.88
386.463	398.88
386.688	385.88
386.913	389.88
387.138	397.88
387.363	379.88
387.588	397.88
387.813	376.88
388.038	394.88
388.263	393.88
388.488	396.88
388.713	383.88
388.938	386.88
389.163	410.88
389.387	391.88
389.612	375.88
389.837	365.88
390.062	369.88
390.287	385.88
390.512	381.88
390.736	380.88
390.961	406.88
391.186	378.88
391.411	396.88
391.636	417.88
391.86	417.88
392.085	432.88
392.31	435.88
392.534	407.88
392.759	401.88
392.984	394.88
393.208	393.88
393.433	417.88
393.658	398.88
393.882	401.88
394.107	391.88
394.331	398.88
394.556	421.88
394.78	393.88
395.005	418.88
395.229	394.88
395.454	417.88
395.678	415.88
395.903	424.88
396.127	441.88
396.352	436.88
396.576	423.88
396.801	414.88
397.025	415.88
397.249	400.88
397.474	403.88
397.698	418.88
397.922	409.88
398.147	420.88
398.371	431.88
398.595	481.88
398.82	438.88
399.044	465.88
399.268	515.88
399.492	546.88
399.717	611.88
399.941	610.88
400.165	583.88
400.389	545.88
400.613	522.88
400.837	499.88
401.062	481.88
401.286	460.88
401.51	474.88
401.734	460.88
401.958	456.88
402.182	472.88
402.406	489.88
402.63	462.88
402.854	494.88
403.078	482.88
403.302	463.88
403.526	479.88
403.75	506.88
403.974	482.88
404.198	485.88
404.422	488.88
404.645	501.88
404.869	511.88
405.093	501.88
405.317	501.88
405.541	518.88
405.765	505.88
405.988	493.88
406.212	486.88
406.436	499.88
406.66	540.88
406.883	505.88
407.107	549.88
407.331	565.88
407.555	590.88
407.778	596.88
408.002	561.88
408.226	537.88
408.449	521.88
408.673	518.88
408.896	537.88
409.12	543.88
409.344	534.88
409.567	477.88
409.791	492.88
410.014	479.88
410.238	475.88
410.461	468.88
410.685	481.88
410.908	480.88
411.132	499.88
411.355	510.88
411.578	489.88
411.802	454.88
412.025	481.88
412.249	483.88
412.472	464.88
412.695	473.88
412.919	479.88
413.142	442.88
413.365	444.88
413.589	448.88
413.812	460.88
414.035	462.88
414.258	444.88
414.482	456.88
414.705	458.88
414.928	446.88
415.151	460.88
415.374	459.88
415.597	453.88
415.821	442.88
416.044	448.88
416.267	449.88
416.49	427.88
416.713	428.88
416.936	430.88
417.159	436.88
417.382	423.88
417.605	442.88
417.828	442.88
418.051	441.88
418.274	447.88
418.497	457.88
418.72	453.88
418.943	440.88
419.166	469.88
419.389	495.88
419.611	485.88
419.834	471.88
420.057	444.88
420.28	469.88
420.503	478.88
420.726	446.88
420.948	444.88
421.171	473.88
421.394	478.88
421.617	461.88
421.839	444.88
422.062	445.88
422.285	473.88
422.507	498.88
422.73	525.88
422.953	507.88
423.175	481.88
423.398	480.88
423.621	467.88
423.843	482.88
424.066	477.88
424.288	483.88
424.511	474.88
424.733	491.88
424.956	534.88
425.178	528.88
425.401	526.88
425.623	547.88
425.846	474.88
426.068	449.88
426.291	447.88
426.513	478.88
426.735	459.88
426.958	469.88
427.18	505.88
427.402	583.88
427.625	602.88
427.847	526.88
428.069	471.88
428.292	450.88
428.514	436.88
428.736	421.88
428.958	428.88
429.181	430.88
429.403	409.88
429.625	415.88
429.847	443.88
430.069	463.88
430.292	457.88
430.514	441.88
430.736	426.88
430.958	408.88
431.18	410.88
431.402	391.88
431.624	400.88
431.846	421.88
432.068	434.88
432.29	414.88
432.512	422.88
432.734	400.88
432.956	417.88
433.178	412.88
433.4	421.88
433.622	431.88
433.844	415.88
434.066	399.88
434.287	398.88
434.509	440.88
434.731	449.88
434.953	463.88
435.175	447.88
435.397	458.88
435.618	439.88
435.84	468.88
436.062	496.88
436.284	530.88
436.505	487.88
436.727	451.88
436.949	426.88
437.17	437.88
437.392	403.88
437.614	433.88
437.835	426.88
438.057	471.88
438.278	528.88
438.5	526.88
438.721	565.88
438.943	553.88
439.165	466.88
439.386	449.88
439.608	435.88
439.829	443.88
440.05	451.88
440.272	464.88
440.493	465.88
440.715	421.88
440.936	411.88
441.158	414.88
441.379	432.88
441.6	460.88
441.822	451.88
442.043	461.88
442.264	509.88
442.486	506.88
442.707	490.88
442.928	455.88
443.149	454.88
443.371	481.88
443.592	496.88
443.813	529.88
444.034	559.88
444.255	512.88
444.476	513.88
444.698	501.88
444.919	514.88
445.14	642.88
445.361	545.88
445.582	487.88
445.803	504.88
446.024	551.88
446.245	528.88
446.466	509.88
446.687	451.88
446.908	411.88
447.129	435.88
447.35	425.88
447.571	420.88
447.792	380.88
448.013	422.88
448.234	404.88
448.455	430.88
448.675	481.88
448.896	548.88
449.117	476.88
449.338	442.88
449.559	502.88
449.779	565.88
450	492.88
450.221	422.88
450.442	420.88
450.662	381.88
450.883	386.88
451.104	399.88
451.324	401.88
451.545	385.88
451.766	391.88
451.986	360.88
452.207	375.88
452.428	376.88
452.648	384.88
452.869	382.88
453.089	386.88
453.31	365.88
453.53	377.88
453.751	357.88
453.971	371.88
454.192	383.88
454.412	372.88
454.633	356.88
454.853	349.88
455.073	381.88
455.294	374.88
455.514	381.88
455.734	404.88
455.955	384.88
456.175	366.88
456.395	363.88
456.616	364.88
456.836	370.88
457.056	343.88
457.276	373.88
457.497	383.88
457.717	371.88
457.937	355.88
458.157	361.88
458.377	372.88
458.598	370.88
458.818	399.88
459.038	441.88
459.258	455.88
459.478	433.88
459.698	425.88
459.918	416.88
460.138	415.88
460.358	411.88
460.578	445.88
460.798	436.88
461.018	443.88
461.238	445.88
461.458	443.88
461.678	439.88
461.898	463.88
462.118	439.88
462.338	481.88
462.558	487.88
462.777	494.88
462.997	495.88
463.217	539.88
463.437	535.88
463.657	510.88
463.876	521.88
464.096	513.88
464.316	504.88
464.536	482.88
464.755	488.88
464.975	463.88
465.195	468.88
465.414	472.88
465.634	459.88
465.854	423.88
466.073	414.88
466.293	411.88
466.512	397.88
466.732	367.88
466.951	379.88
467.171	401.88
467.391	379.88
467.61	408.88
467.829	411.88
468.049	376.88
468.268	388.88
468.488	386.88
468.707	370.88
468.927	376.88
469.146	382.88
469.365	393.88
469.585	382.88
469.804	395.88
470.023	414.88
470.243	393.88
470.462	370.88
470.681	400.88
470.901	388.88
471.12	410.88
471.339	406.88
471.558	381.88
471.777	389.88
471.997	373.88
472.216	375.88
472.435	371.88
472.654	371.88
472.873	374.88
473.092	385.88
473.311	356.88
473.53	375.88
473.749	379.88
473.968	422.88
474.187	441.88
474.406	445.88
474.625	389.88
474.844	373.88
475.063	391.88
475.282	391.88
475.501	387.88
475.72	413.88
475.939	385.88
476.158	380.88
476.377	393.88
476.596	402.88
476.814	399.88
477.033	406.88
477.252	399.88
477.471	408.88
477.69	397.88
477.908	407.88
478.127	423.88
478.346	421.88
478.564	451.88
478.783	440.88
479.002	453.88
479.22	457.88
479.439	453.88
479.658	455.88
479.876	451.88
480.095	466.88
480.313	503.88
480.532	500.88
480.751	481.88
480.969	476.88
481.188	471.88
481.406	467.88
481.624	450.88
481.843	437.88
482.061	446.88
482.28	441.88
482.498	447.88
482.717	431.88
482.935	441.88
483.153	452.88
483.372	446.88
483.59	408.88
483.808	443.88
484.027	421.88
484.245	438.88
484.463	421.88
484.681	453.88
484.9	435.88
485.118	439.88
485.336	445.88
485.554	466.88
485.772	467.88
485.99	466.88
486.209	449.88
486.427	430.88
486.645	464.88
486.863	446.88
487.081	476.88
487.299	458.88
487.517	466.88
487.735	454.88
487.953	445.88
488.171	461.88
488.389	461.88
488.607	453.88
488.825	467.88
489.043	451.88
489.261	474.88
489.479	462.88
489.696	460.88
489.914	461.88
490.132	471.88
490.35	454.88
490.568	465.88
490.786	490.88
491.003	483.88
491.221	470.88
491.439	494.88
491.657	479.88
491.874	508.88
492.092	494.88
492.31	485.88
492.527	509.88
492.745	492.88
492.963	503.88
493.18	494.88
493.398	502.88
493.615	527.88
493.833	504.88
494.05	513.88
494.268	498.88
494.485	511.88
494.703	530.88
494.92	516.88
495.138	531.88
495.355	539.88
495.573	520.88
495.79	529.88
496.008	519.88
496.225	499.88
496.442	515.88
496.66	525.88
496.877	540.88
497.094	525.88
497.312	552.88
497.529	561.88
497.746	581.88
497.963	579.88
498.181	595.88
498.398	606.88
498.615	630.88
498.832	641.88
499.049	683.88
499.267	713.88
499.484	762.88
499.701	837.88
499.918	861.88
500.135	951.88
500.352	1005.88
500.569	1051.88
500.786	1053.88
501.003	997.88
501.22	949.88
501.437	887.88
501.654	817.88
501.871	775.88
502.088	727.88
502.305	699.88
502.522	664.88
502.739	641.88
502.956	598.88
503.172	599.88
503.389	589.88
503.606	573.88
503.823	561.88
504.04	552.88
504.256	558.88
504.473	564.88
504.69	582.88
504.907	574.88
505.123	576.88
505.34	533.88
505.557	522.88
505.773	505.88
505.99	515.88
506.207	490.88
506.423	490.88
506.64	500.88
506.856	463.88
507.073	464.88
507.289	474.88
507.506	471.88
507.722	487.88
507.939	487.88
508.155	456.88
508.372	460.88
508.588	455.88
508.805	474.88
509.021	472.88
509.238	449.88
509.454	452.88
509.67	464.88
509.887	450.88
510.103	451.88
510.319	463.88
510.536	493.88
510.752	677.88
510.968	569.88
511.184	449.88
511.401	459.88
511.617	427.88
511.833	420.88
512.049	430.88
512.265	454.88
512.481	412.88
512.698	421.88
512.914	428.88
513.13	394.88
513.346	410.88
513.562	433.88
513.778	447.88
513.994	439.88
514.21	424.88
514.426	426.88
514.642	446.88
514.858	451.88
515.074	455.88
515.29	513.88
515.506	635.88
515.721	558.88
515.937	446.88
516.153	466.88
516.369	485.88
516.585	470.88
516.801	471.88
517.016	485.88
517.232	495.88
517.448	490.88
517.664	534.88
517.879	527.88
518.095	535.88
518.311	517.88
518.527	498.88
518.742	492.88
518.958	481.88
519.173	467.88
519.389	466.88
519.605	441.88
519.82	442.88
520.036	467.88
520.251	460.88
520.467	451.88
520.682	449.88
520.898	443.88
521.113	433.88
521.329	466.88
521.544	473.88
521.76	511.88
521.975	713.88
522.19	714.88
522.406	511.88
522.621	448.88
522.836	431.88
523.052	395.88
523.267	401.88
523.482	403.88
523.698	398.88
523.913	407.88
524.128	371.88
524.343	391.88
524.559	379.88
524.774	387.88
524.989	414.88
525.204	388.88
525.419	375.88
525.634	382.88
525.849	406.88
526.064	389.88
526.28	380.88
526.495	365.88
526.71	373.88
526.925	366.88
527.14	383.88
527.355	387.88
527.57	381.88
527.785	386.88
527.999	362.88
528.214	385.88
528.429	383.88
528.644	395.88
528.859	367.88
529.074	398.88
529.289	399.88
529.503	397.88
529.718	405.88
529.933	383.88
530.148	385.88
530.363	358.88
530.577	360.88
530.792	382.88
531.007	381.88
531.221	389.88
531.436	363.88
531.651	375.88
531.865	387.88
532.08	377.88
532.295	374.88
532.509	373.88
532.724	348.88
532.938	379.88
533.153	394.88
533.367	377.88
533.582	378.88
533.796	371.88
534.011	366.88
534.225	369.88
534.44	347.88
534.654	375.88
534.868	378.88
535.083	371.88
535.297	364.88
535.511	366.88
535.726	379.88
535.94	352.88
536.154	367.88
536.369	362.88
536.583	369.88
536.797	344.88
537.011	321.88
537.225	365.88
537.44	369.88
537.654	349.88
537.868	362.88
538.082	351.88
538.296	338.88
538.51	362.88
538.724	371.88
538.938	349.88
539.153	335.88
539.367	337.88
539.581	342.88
539.795	347.88
540.009	344.88
540.222	347.88
540.436	357.88
540.65	342.88
540.864	357.88
541.078	354.88
541.292	359.88
541.506	376.88
541.72	332.88
541.934	333.88
542.147	341.88
542.361	356.88
542.575	340.88
542.789	333.88
543.002	351.88
543.216	351.88
543.43	350.88
543.644	347.88
543.857	336.88
544.071	372.88
544.285	358.88
544.498	359.88
544.712	353.88
544.925	359.88
545.139	355.88
545.352	366.88
545.566	363.88
545.779	364.88
545.993	366.88
546.206	367.88
546.42	364.88
546.633	355.88
546.847	351.88
547.06	339.88
547.274	342.88
547.487	355.88
547.7	355.88
547.914	342.88
548.127	353.88
548.34	357.88
548.554	344.88
548.767	358.88
548.98	351.88
549.193	347.88
549.407	349.88
549.62	374.88
549.833	347.88
550.046	353.88
550.259	345.88
550.473	323.88
550.686	370.88
550.899	355.88
551.112	344.88
551.325	347.88
551.538	351.88
551.751	340.88
551.964	337.88
552.177	359.88
552.39	374.88
552.603	358.88
552.816	347.88
553.029	368.88
553.242	379.88
553.455	391.88
553.667	379.88
553.88	375.88
554.093	356.88
554.306	363.88
554.519	362.88
554.732	348.88
554.944	341.88
555.157	325.88
555.37	345.88
555.583	336.88
555.795	322.88
556.008	339.88
556.221	321.88
556.433	324.88
556.646	329.88
556.859	330.88
557.071	312.88
557.284	315.88
557.496	323.88
557.709	332.88
557.921	322.88
558.134	322.88
558.346	311.88
558.559	319.88
558.771	314.88
558.984	284.88
559.196	310.88
559.409	301.88
559.621	310.88
559.833	317.88
560.046	321.88
560.258	313.88
560.47	303.88
560.683	318.88
560.895	306.88
561.107	316.88
561.32	318.88
561.532	306.88
561.744	303.88
561.956	301.88
562.168	303.88
562.381	326.88
562.593	311.88
562.805	325.88
563.017	322.88
563.229	296.88
563.441	313.88
563.653	315.88
563.865	319.88
564.077	317.88
564.289	338.88
564.501	316.88
564.713	326.88
564.925	325.88
565.137	330.88
565.349	337.88
565.561	346.88
565.773	359.88
565.985	371.88
566.197	399.88
566.408	383.88
566.62	424.88
566.832	441.88
567.044	443.88
567.255	430.88
567.467	453.88
567.679	460.88
567.891	486.88
568.102	494.88
568.314	474.88
568.526	465.88
568.737	414.88
568.949	387.88
569.161	373.88
569.372	365.88
569.584	348.88
569.795	351.88
570.007	327.88
570.218	333.88
570.43	341.88
570.641	315.88
570.853	329.88
571.064	311.88
571.276	314.88
571.487	314.88
571.698	299.88
571.91	291.88
572.121	290.88
572.333	276.88
572.544	272.88
572.755	271.88
572.966	285.88
573.178	287.88
573.389	295.88
573.6	282.88
573.811	282.88
574.023	275.88
574.234	274.88
574.445	269.88
574.656	265.88
574.867	258.88
575.078	280.88
575.289	263.88
575.501	259.88
575.712	262.88
575.923	252.88
576.134	272.88
576.345	260.88
576.556	261.88
576.767	275.88
576.978	248.88
577.188	261.88
577.399	266.88
577.61	263.88
577.821	263.88
578.032	273.88
578.243	270.88
578.454	352.88
578.665	311.88
578.875	269.88
579.086	268.88
579.297	254.88
579.508	241.88
579.718	255.88
579.929	242.88
580.14	245.88
580.35	254.88
580.561	243.88
580.772	241.88
580.982	262.88
581.193	266.88
581.403	249.88
581.614	245.88
581.825	237.88
582.035	251.88
582.246	249.88
582.456	251.88
582.667	248.88
582.877	242.88
583.087	253.88
583.298	228.88
583.508	235.88
583.719	245.88
583.929	245.88
584.139	237.88
584.35	238.88
584.56	245.88
584.77	237.88
584.981	261.88
585.191	232.88
585.401	233.88
585.611	239.88
585.821	218.88
586.032	249.88
586.242	242.88
586.452	244.88
586.662	236.88
586.872	249.88
587.082	225.88
587.292	239.88
587.502	220.88
587.713	245.88
587.923	227.88
588.133	235.88
588.343	258.88
588.553	242.88
588.762	243.88
588.972	247.88
589.182	300.88
589.392	284.88
589.602	264.88
589.812	290.88
590.022	262.88
590.232	239.88
590.441	245.88
590.651	245.88
590.861	235.88
591.071	241.88
591.281	259.88
591.49	247.88
591.7	245.88
591.91	265.88
592.119	263.88
592.329	247.88
592.539	251.88
592.748	294.88
592.958	272.88
593.167	291.88
593.377	269.88
593.587	297.88
593.796	271.88
594.006	290.88
594.215	285.88
594.424	279.88
594.634	283.88
594.843	278.88
595.053	251.88
595.262	271.88
595.472	259.88
595.681	250.88
595.89	234.88
596.1	238.88
596.309	249.88
596.518	228.88
596.727	232.88
596.937	237.88
597.146	241.88
597.355	224.88
597.564	223.88
597.774	231.88
597.983	222.88
598.192	222.88
598.401	230.88
598.61	218.88
598.819	202.88
599.028	212.88
599.237	225.88
599.446	211.88
599.655	203.88
599.864	217.88
600.073	227.88
600.282	229.88
600.491	228.88
600.7	236.88
600.909	214.88
601.118	217.88
601.327	218.88
601.536	214.88
601.745	233.88
601.953	221.88
602.162	211.88
602.371	215.88
602.58	194.88
602.789	209.88
602.997	223.88
603.206	217.88
603.415	203.88
603.623	197.88
603.832	196.88
604.041	218.88
604.249	214.88
604.458	210.88
604.666	194.88
604.875	205.88
605.084	198.88
605.292	201.88
605.501	203.88
605.709	203.88
605.918	197.88
606.126	183.88
606.334	205.88
606.543	204.88
606.751	197.88
606.96	188.88
607.168	212.88
607.376	199.88
607.585	191.88
607.793	195.88
608.001	205.88
608.21	188.88
608.418	197.88
608.626	187.88
608.834	200.88
609.043	211.88
609.251	201.88
609.459	201.88
609.667	208.88
609.875	187.88
610.083	188.88
610.291	193.88
610.499	189.88
610.707	192.88
610.916	202.88
611.124	203.88
611.332	202.88
611.54	202.88
611.748	205.88
611.955	197.88
612.163	203.88
612.371	217.88
612.579	211.88
612.787	205.88
612.995	189.88
613.203	206.88
613.411	193.88
613.618	190.88
613.826	187.88
614.034	201.88
614.242	195.88
614.449	213.88
614.657	207.88
614.865	187.88
615.072	175.88
615.28	192.88
615.488	202.88
615.695	202.88
615.903	190.88
616.111	203.88
616.318	209.88
616.526	194.88
616.733	209.88
616.941	190.88
617.148	212.88
617.356	202.88
617.563	193.88
617.771	185.88
617.978	188.88
618.185	171.88
618.393	181.88
618.6	185.88
618.807	204.88
619.015	194.88
619.222	211.88
619.429	195.88
619.637	178.88
619.844	189.88
620.051	183.88
620.258	187.88
620.466	191.88
620.673	189.88
620.88	175.88
621.087	174.88
621.294	178.88
621.501	168.88
621.708	179.88
621.915	185.88
622.122	185.88
622.329	197.88
622.536	186.88
622.743	184.88
622.95	183.88
623.157	197.88
623.364	175.88
623.571	180.88
623.778	185.88
623.985	185.88
624.192	172.88
624.399	193.88
624.606	195.88
624.812	189.88
625.019	185.88
625.226	182.88
625.433	177.88
625.639	188.88
625.846	177.88
626.053	170.88
626.259	181.88
626.466	176.88
626.673	183.88
626.879	187.88
627.086	167.88
627.293	174.88
627.499	191.88
627.706	171.88
627.912	175.88
628.119	159.88
628.325	174.88
628.532	166.88
628.738	179.88
628.945	174.88
629.151	163.88
629.357	165.88
629.564	171.88
629.77	166.88
629.976	158.88
630.183	169.88
630.389	179.88
630.595	165.88
630.802	164.88
631.008	173.88
631.214	183.88
631.42	174.88
631.627	177.88
631.833	167.88
632.039	136.88
632.245	157.88
632.451	157.88
632.657	165.88
632.863	165.88
633.069	175.88
633.275	169.88
633.481	172.88
633.688	155.88
633.893	172.88
634.099	157.88
634.305	164.88
634.511	151.88
634.717	164.88
634.923	167.88
635.129	166.88
635.335	168.88
635.541	156.88
635.747	161.88
635.952	144.88
636.158	159.88
636.364	151.88
636.57	155.88
636.775	147.88
636.981	159.88
637.187	155.88
637.392	147.88
637.598	154.88
637.804	164.88
638.009	143.88
638.215	155.88
638.421	157.88
638.626	154.88
638.832	147.88
639.037	159.88
639.243	163.88
639.448	164.88
639.654	151.88
639.859	172.88
640.065	160.88
640.27	155.88
640.475	155.88
640.681	148.88
640.886	151.88
641.091	163.88
641.297	154.88
641.502	135.88
641.707	149.88
641.913	140.88
642.118	152.88
642.323	151.88
642.528	161.88
642.733	163.88
642.939	150.88
643.144	156.88
643.349	160.88
643.554	149.88
643.759	136.88
643.964	156.88
644.169	149.88
644.374	143.88
644.579	143.88
644.784	133.88
644.989	137.88
645.194	141.88
645.399	146.88
645.604	146.88
645.809	164.88
646.014	160.88
646.219	154.88
646.423	161.88
646.628	153.88
646.833	147.88
647.038	149.88
647.243	151.88
647.447	152.88
647.652	137.88
647.857	158.88
648.062	140.88
648.266	149.88
648.471	159.88
648.676	170.88
648.88	151.88
649.085	152.88
649.289	149.88
649.494	142.88
649.698	131.88
649.903	136.88
650.107	159.88
650.312	155.88
650.516	151.88
650.721	131.88
650.925	140.88
651.13	133.88
651.334	143.88
651.539	145.88
651.743	133.88
651.947	138.88
652.152	142.88
652.356	139.88
652.56	133.88
652.764	122.88
652.969	115.88
653.173	136.88
653.377	132.88
653.581	130.88
653.785	132.88
653.99	128.88
654.194	123.88
654.398	113.88
654.602	110.88
654.806	122.88
655.01	139.88
655.214	128.88
655.418	127.88
655.622	122.88
655.826	138.88
656.03	141.88
656.234	118.88
656.438	144.88
656.642	139.88
656.846	139.88
657.049	116.88
657.253	133.88
657.457	116.88
657.661	123.88
657.865	106.88
658.068	113.88
658.272	110.88
658.476	109.88
658.68	103.88
658.883	106.88
659.087	101.88
659.291	106.88
659.494	94.88
659.698	99.88
659.901	98.88
660.105	95.88
660.309	97.88
660.512	91.88
660.716	96.88
660.919	91.88
661.123	102.88
661.326	92.88
661.53	111.88
661.733	94.88
661.936	101.88
662.14	96.88
662.343	84.88
662.546	74.88
662.75	83.88
662.953	75.88
663.156	85.88
663.36	94.88
663.563	89.88
663.766	84.88
663.969	83.88
664.173	77.88
664.376	87.88
664.579	81.88
664.782	82.88
664.985	83.88
665.188	85.88
665.391	90.88
665.594	91.88
665.797	96.88
666	84.88
666.203	75.88
666.406	84.88
666.609	79.88
666.812	92.88
667.015	78.88
667.218	86.88
667.421	85.88
667.624	67.88
667.827	85.88
668.03	78.88
668.232	79.88
668.435	83.88
668.638	90.88
668.841	70.88
669.043	86.88
669.246	87.88
669.449	98.88
669.651	82.88
669.854	90.88
670.057	68.88
670.259	83.88
670.462	93.88
670.665	79.88
670.867	97.88
671.07	88.88
671.272	101.88
671.475	91.88
671.677	80.88
671.88	80.88
672.082	88.88
672.284	76.88
672.487	74.88
672.689	86.88
672.892	80.88
