Data from 1984.PennyLincolnUp.Lamp.En5.5.200Scan.071819.P1_HRD10591_16-59-12-970.txt Node
Date: Thu Jul 18 16:59:12 EDT 2019
User: cochatt
Spectrometer: HR+D1059
Trigger mode: 1
Integration Time (sec): 1.000000E-1
Scans to average: 1
Electric dark correction enabled: true
Nonlinearity correction enabled: false
Boxcar width: 0
XAxis mode: Wavelengths
Number of Pixels in Spectrum: 2048
>>>>>Begin Spectral Data<<<<<
223.165	-14.25
223.4	-14.25
223.635	-14.25
223.869	-20.25
224.104	-14.25
224.338	-24.25
224.573	-23.25
224.808	-5.25
225.042	-5.25
225.277	-1.25
225.511	-1.25
225.746	-6.25
225.98	3.75
226.215	11.75
226.449	4.75
226.683	28.75
226.918	31.75
227.152	34.75
227.387	57.75
227.621	40.75
227.856	42.75
228.09	39.75
228.324	47.75
228.559	55.75
228.793	84.75
229.027	87.75
229.262	92.75
229.496	111.75
229.73	119.75
229.964	126.75
230.199	109.75
230.433	101.75
230.667	97.75
230.901	103.75
231.136	116.75
231.37	107.75
231.604	103.75
231.838	106.75
232.072	99.75
232.306	123.75
232.541	99.75
232.775	130.75
233.009	99.75
233.243	102.75
233.477	104.75
233.711	103.75
233.945	101.75
234.179	117.75
234.413	115.75
234.647	114.75
234.881	125.75
235.115	90.75
235.349	108.75
235.583	131.75
235.817	130.75
236.051	116.75
236.285	112.75
236.519	117.75
236.753	111.75
236.987	131.75
237.221	147.75
237.455	188.75
237.689	148.75
237.922	127.75
238.156	122.75
238.39	110.75
238.624	121.75
238.858	120.75
239.091	111.75
239.325	126.75
239.559	128.75
239.793	128.75
240.027	130.75
240.26	133.75
240.494	122.75
240.728	142.75
240.961	146.75
241.195	134.75
241.429	125.75
241.662	135.75
241.896	124.75
242.13	123.75
242.363	118.75
242.597	120.75
242.83	142.75
243.064	128.75
243.298	126.75
243.531	126.75
243.765	128.75
243.998	142.75
244.232	147.75
244.465	127.75
244.699	152.75
244.932	151.75
245.166	138.75
245.399	141.75
245.633	143.75
245.866	139.75
246.099	149.75
246.333	138.75
246.566	148.75
246.8	149.75
247.033	148.75
247.266	141.75
247.5	156.75
247.733	150.75
247.966	166.75
248.2	143.75
248.433	152.75
248.666	170.75
248.899	174.75
249.133	173.75
249.366	167.75
249.599	172.75
249.832	151.75
250.066	172.75
250.299	180.75
250.532	193.75
250.765	214.75
250.998	199.75
251.231	200.75
251.465	187.75
251.698	188.75
251.931	175.75
252.164	172.75
252.397	174.75
252.63	173.75
252.863	173.75
253.096	192.75
253.329	196.75
253.562	191.75
253.795	183.75
254.028	197.75
254.261	189.75
254.494	186.75
254.727	192.75
254.96	229.75
255.193	223.75
255.426	216.75
255.659	223.75
255.892	231.75
256.124	261.75
256.357	274.75
256.59	240.75
256.823	231.75
257.056	195.75
257.289	207.75
257.521	199.75
257.754	192.75
257.987	172.75
258.22	188.75
258.452	192.75
258.685	168.75
258.918	196.75
259.151	191.75
259.383	181.75
259.616	198.75
259.849	202.75
260.081	213.75
260.314	218.75
260.547	222.75
260.779	220.75
261.012	206.75
261.244	223.75
261.477	188.75
261.71	215.75
261.942	204.75
262.175	202.75
262.407	205.75
262.64	194.75
262.872	198.75
263.105	200.75
263.337	210.75
263.57	207.75
263.802	200.75
264.035	191.75
264.267	196.75
264.499	202.75
264.732	218.75
264.964	198.75
265.197	203.75
265.429	206.75
265.661	212.75
265.894	198.75
266.126	209.75
266.358	196.75
266.591	208.75
266.823	207.75
267.055	208.75
267.287	215.75
267.52	203.75
267.752	212.75
267.984	210.75
268.216	212.75
268.448	224.75
268.681	218.75
268.913	224.75
269.145	229.75
269.377	251.75
269.609	244.75
269.841	227.75
270.073	219.75
270.306	270.75
270.538	252.75
270.77	276.75
271.002	270.75
271.234	262.75
271.466	232.75
271.698	268.75
271.93	266.75
272.162	266.75
272.394	272.75
272.626	256.75
272.858	249.75
273.09	250.75
273.322	249.75
273.553	231.75
273.785	246.75
274.017	248.75
274.249	247.75
274.481	226.75
274.713	252.75
274.945	251.75
275.176	235.75
275.408	233.75
275.64	251.75
275.872	247.75
276.104	232.75
276.335	258.75
276.567	245.75
276.799	253.75
277.031	292.75
277.262	284.75
277.494	271.75
277.726	295.75
277.957	282.75
278.189	259.75
278.421	266.75
278.652	265.75
278.884	269.75
279.115	258.75
279.347	272.75
279.579	251.75
279.81	264.75
280.042	259.75
280.273	274.75
280.505	268.75
280.736	252.75
280.968	253.75
281.199	250.75
281.431	256.75
281.662	258.75
281.894	264.75
282.125	279.75
282.356	272.75
282.588	278.75
282.819	283.75
283.051	278.75
283.282	270.75
283.513	274.75
283.745	280.75
283.976	294.75
284.207	294.75
284.439	274.75
284.67	270.75
284.901	277.75
285.132	277.75
285.364	285.75
285.595	287.75
285.826	268.75
286.057	266.75
286.288	276.75
286.52	278.75
286.751	279.75
286.982	268.75
287.213	280.75
287.444	268.75
287.675	285.75
287.906	291.75
288.138	285.75
288.369	273.75
288.6	296.75
288.831	282.75
289.062	281.75
289.293	279.75
289.524	281.75
289.755	278.75
289.986	302.75
290.217	268.75
290.448	278.75
290.679	281.75
290.91	321.75
291.141	294.75
291.371	278.75
291.602	280.75
291.833	289.75
292.064	273.75
292.295	268.75
292.526	285.75
292.757	300.75
292.987	293.75
293.218	284.75
293.449	294.75
293.68	282.75
293.91	294.75
294.141	290.75
294.372	295.75
294.603	279.75
294.833	280.75
295.064	302.75
295.295	287.75
295.525	306.75
295.756	294.75
295.987	312.75
296.217	314.75
296.448	301.75
296.679	296.75
296.909	291.75
297.14	304.75
297.37	311.75
297.601	301.75
297.831	299.75
298.062	293.75
298.292	300.75
298.523	318.75
298.753	304.75
298.984	315.75
299.214	295.75
299.445	318.75
299.675	312.75
299.905	310.75
300.136	319.75
300.366	315.75
300.597	308.75
300.827	314.75
301.057	324.75
301.288	328.75
301.518	318.75
301.748	312.75
301.979	325.75
302.209	327.75
302.439	325.75
302.669	316.75
302.9	322.75
303.13	330.75
303.36	290.75
303.59	310.75
303.82	327.75
304.051	347.75
304.281	327.75
304.511	336.75
304.741	321.75
304.971	308.75
305.201	318.75
305.431	319.75
305.661	331.75
305.891	314.75
306.121	320.75
306.352	314.75
306.582	315.75
306.812	320.75
307.042	331.75
307.272	319.75
307.502	327.75
307.731	337.75
307.961	314.75
308.191	327.75
308.421	331.75
308.651	332.75
308.881	328.75
309.111	312.75
309.341	329.75
309.571	334.75
309.8	342.75
310.03	336.75
310.26	337.75
310.49	367.75
310.72	350.75
310.949	356.75
311.179	366.75
311.409	347.75
311.639	339.75
311.868	346.75
312.098	375.75
312.328	364.75
312.557	359.75
312.787	370.75
313.017	353.75
313.246	360.75
313.476	353.75
313.706	338.75
313.935	349.75
314.165	383.75
314.394	361.75
314.624	359.75
314.853	345.75
315.083	355.75
315.312	335.75
315.542	360.75
315.771	332.75
316.001	354.75
316.23	347.75
316.46	347.75
316.689	350.75
316.919	364.75
317.148	356.75
317.377	363.75
317.607	358.75
317.836	355.75
318.065	353.75
318.295	346.75
318.524	333.75
318.753	363.75
318.983	330.75
319.212	345.75
319.441	361.75
319.67	369.75
319.9	371.75
320.129	359.75
320.358	365.75
320.587	358.75
320.816	367.75
321.046	358.75
321.275	344.75
321.504	356.75
321.733	363.75
321.962	363.75
322.191	377.75
322.42	388.75
322.649	386.75
322.878	390.75
323.108	412.75
323.337	426.75
323.566	422.75
323.795	445.75
324.024	466.75
324.253	546.75
324.482	746.75
324.71	1055.75
324.939	1473.75
325.168	1270.75
325.397	712.75
325.626	519.75
325.855	465.75
326.084	442.75
326.313	441.75
326.542	445.75
326.77	469.75
326.999	525.75
327.228	681.75
327.457	988.75
327.686	1165.75
327.914	814.75
328.143	593.75
328.372	556.75
328.6	523.75
328.829	487.75
329.058	498.75
329.287	494.75
329.515	461.75
329.744	502.75
329.972	529.75
330.201	543.75
330.43	631.75
330.658	578.75
330.887	549.75
331.115	499.75
331.344	472.75
331.572	458.75
331.801	448.75
332.03	446.75
332.258	434.75
332.486	439.75
332.715	451.75
332.943	468.75
333.172	474.75
333.4	486.75
333.629	507.75
333.857	518.75
334.085	542.75
334.314	607.75
334.542	704.75
334.771	704.75
334.999	593.75
335.227	511.75
335.455	490.75
335.684	463.75
335.912	456.75
336.14	440.75
336.369	458.75
336.597	428.75
336.825	423.75
337.053	463.75
337.281	439.75
337.51	421.75
337.738	431.75
337.966	392.75
338.194	426.75
338.422	415.75
338.65	418.75
338.878	410.75
339.106	408.75
339.334	416.75
339.562	406.75
339.79	407.75
340.018	395.75
340.246	407.75
340.474	402.75
340.702	409.75
340.93	400.75
341.158	394.75
341.386	390.75
341.614	400.75
341.842	392.75
342.07	411.75
342.298	382.75
342.526	395.75
342.754	402.75
342.981	373.75
343.209	413.75
343.437	410.75
343.665	431.75
343.893	419.75
344.12	439.75
344.348	443.75
344.576	401.75
344.804	430.75
345.031	424.75
345.259	403.75
345.487	410.75
345.714	383.75
345.942	394.75
346.17	389.75
346.397	372.75
346.625	373.75
346.853	366.75
347.08	382.75
347.308	383.75
347.535	387.75
347.763	388.75
347.99	369.75
348.218	392.75
348.445	370.75
348.673	379.75
348.9	379.75
349.128	365.75
349.355	364.75
349.583	386.75
349.81	376.75
350.037	378.75
350.265	379.75
350.492	380.75
350.72	379.75
350.947	367.75
351.174	376.75
351.402	392.75
351.629	365.75
351.856	378.75
352.083	380.75
352.311	374.75
352.538	387.75
352.765	401.75
352.992	386.75
353.22	370.75
353.447	375.75
353.674	371.75
353.901	361.75
354.128	364.75
354.355	370.75
354.583	359.75
354.81	370.75
355.037	365.75
355.264	340.75
355.491	346.75
355.718	344.75
355.945	352.75
356.172	357.75
356.399	344.75
356.626	362.75
356.853	353.75
357.08	343.75
357.307	335.75
357.534	363.75
357.761	351.75
357.988	350.75
358.215	355.75
358.441	354.75
358.668	361.75
358.895	366.75
359.122	357.75
359.349	377.75
359.576	365.75
359.802	359.75
360.029	390.75
360.256	388.75
360.483	384.75
360.709	370.75
360.936	362.75
361.163	362.75
361.39	374.75
361.616	370.75
361.843	371.75
362.07	351.75
362.296	352.75
362.523	391.75
362.749	345.75
362.976	377.75
363.203	371.75
363.429	359.75
363.656	356.75
363.882	348.75
364.109	347.75
364.335	368.75
364.562	358.75
364.788	355.75
365.015	361.75
365.241	360.75
365.468	360.75
365.694	365.75
365.92	370.75
366.147	354.75
366.373	364.75
366.599	348.75
366.826	371.75
367.052	340.75
367.278	358.75
367.505	357.75
367.731	370.75
367.957	338.75
368.184	356.75
368.41	350.75
368.636	378.75
368.862	371.75
369.089	362.75
369.315	356.75
369.541	371.75
369.767	352.75
369.993	386.75
370.219	364.75
370.445	390.75
370.672	357.75
370.898	354.75
371.124	360.75
371.35	371.75
371.576	354.75
371.802	354.75
372.028	368.75
372.254	380.75
372.48	368.75
372.706	371.75
372.932	384.75
373.158	390.75
373.384	362.75
373.61	365.75
373.835	352.75
374.061	363.75
374.287	383.75
374.513	384.75
374.739	388.75
374.965	390.75
375.191	373.75
375.416	378.75
375.642	364.75
375.868	379.75
376.094	358.75
376.319	380.75
376.545	370.75
376.771	368.75
376.997	375.75
377.222	370.75
377.448	363.75
377.674	371.75
377.899	361.75
378.125	358.75
378.35	340.75
378.576	364.75
378.802	363.75
379.027	355.75
379.253	355.75
379.478	353.75
379.704	360.75
379.929	355.75
380.155	342.75
380.38	336.75
380.606	371.75
380.831	341.75
381.057	358.75
381.282	359.75
381.507	352.75
381.733	367.75
381.958	379.75
382.184	380.75
382.409	354.75
382.634	358.75
382.86	357.75
383.085	381.75
383.31	384.75
383.535	401.75
383.761	389.75
383.986	384.75
384.211	390.75
384.436	386.75
384.662	384.75
384.887	406.75
385.112	404.75
385.337	412.75
385.562	411.75
385.787	407.75
386.013	420.75
386.238	426.75
386.463	405.75
386.688	397.75
386.913	412.75
387.138	424.75
387.363	389.75
387.588	397.75
387.813	389.75
388.038	411.75
388.263	420.75
388.488	409.75
388.713	399.75
388.938	399.75
389.163	418.75
389.387	406.75
389.612	405.75
389.837	392.75
390.062	387.75
390.287	409.75
390.512	408.75
390.736	407.75
390.961	390.75
391.186	394.75
391.411	425.75
391.636	421.75
391.86	441.75
392.085	450.75
392.31	430.75
392.534	410.75
392.759	419.75
392.984	421.75
393.208	396.75
393.433	424.75
393.658	409.75
393.882	427.75
394.107	422.75
394.331	426.75
394.556	405.75
394.78	408.75
395.005	411.75
395.229	411.75
395.454	425.75
395.678	452.75
395.903	446.75
396.127	445.75
396.352	453.75
396.576	446.75
396.801	421.75
397.025	426.75
397.249	429.75
397.474	428.75
397.698	425.75
397.922	456.75
398.147	424.75
398.371	456.75
398.595	476.75
398.82	487.75
399.044	503.75
399.268	524.75
399.492	586.75
399.717	619.75
399.941	654.75
400.165	630.75
400.389	614.75
400.613	557.75
400.837	523.75
401.062	491.75
401.286	501.75
401.51	472.75
401.734	485.75
401.958	484.75
402.182	487.75
402.406	486.75
402.63	493.75
402.854	502.75
403.078	506.75
403.302	516.75
403.526	545.75
403.75	498.75
403.974	529.75
404.198	528.75
404.422	544.75
404.645	525.75
404.869	558.75
405.093	569.75
405.317	587.75
405.541	627.75
405.765	543.75
405.988	562.75
406.212	546.75
406.436	534.75
406.66	563.75
406.883	544.75
407.107	594.75
407.331	594.75
407.555	659.75
407.778	654.75
408.002	608.75
408.226	576.75
408.449	569.75
408.673	572.75
408.896	562.75
409.12	566.75
409.344	564.75
409.567	534.75
409.791	520.75
410.014	520.75
410.238	516.75
410.461	503.75
410.685	494.75
410.908	502.75
411.132	522.75
411.355	537.75
411.578	540.75
411.802	479.75
412.025	493.75
412.249	522.75
412.472	555.75
412.695	569.75
412.919	581.75
413.142	512.75
413.365	532.75
413.589	535.75
413.812	479.75
414.035	482.75
414.258	479.75
414.482	470.75
414.705	492.75
414.928	483.75
415.151	463.75
415.374	505.75
415.597	491.75
415.821	450.75
416.044	471.75
416.267	473.75
416.49	469.75
416.713	468.75
416.936	446.75
417.159	475.75
417.382	475.75
417.605	467.75
417.828	489.75
418.051	480.75
418.274	473.75
418.497	470.75
418.72	486.75
418.943	482.75
419.166	499.75
419.389	506.75
419.611	537.75
419.834	533.75
420.057	515.75
420.28	534.75
420.503	502.75
420.726	501.75
420.948	500.75
421.171	516.75
421.394	535.75
421.617	495.75
421.839	494.75
422.062	475.75
422.285	494.75
422.507	530.75
422.73	563.75
422.953	558.75
423.175	516.75
423.398	505.75
423.621	534.75
423.843	508.75
424.066	508.75
424.288	501.75
424.511	543.75
424.733	545.75
424.956	580.75
425.178	581.75
425.401	566.75
425.623	573.75
425.846	551.75
426.068	493.75
426.291	494.75
426.513	498.75
426.735	468.75
426.958	506.75
427.18	554.75
427.402	655.75
427.625	694.75
427.847	610.75
428.069	559.75
428.292	534.75
428.514	462.75
428.736	487.75
428.958	472.75
429.181	466.75
429.403	458.75
429.625	462.75
429.847	449.75
430.069	509.75
430.292	503.75
430.514	446.75
430.736	440.75
430.958	439.75
431.18	431.75
431.402	450.75
431.624	430.75
431.846	420.75
432.068	452.75
432.29	443.75
432.512	442.75
432.734	444.75
432.956	440.75
433.178	441.75
433.4	436.75
433.622	454.75
433.844	466.75
434.066	453.75
434.287	442.75
434.509	447.75
434.731	461.75
434.953	452.75
435.175	484.75
435.397	492.75
435.618	478.75
435.84	489.75
436.062	568.75
436.284	577.75
436.505	506.75
436.727	490.75
436.949	454.75
437.17	455.75
437.392	444.75
437.614	449.75
437.835	473.75
438.057	518.75
438.278	578.75
438.5	578.75
438.721	646.75
438.943	618.75
439.165	485.75
439.386	449.75
439.608	471.75
439.829	478.75
440.05	478.75
440.272	517.75
440.493	490.75
440.715	471.75
440.936	474.75
441.158	449.75
441.379	458.75
441.6	479.75
441.822	499.75
442.043	501.75
442.264	589.75
442.486	579.75
442.707	500.75
442.928	489.75
443.149	495.75
443.371	515.75
443.592	551.75
443.813	611.75
444.034	627.75
444.255	552.75
444.476	511.75
444.698	521.75
444.919	527.75
445.14	613.75
445.361	563.75
445.582	547.75
445.803	558.75
446.024	596.75
446.245	607.75
446.466	568.75
446.687	498.75
446.908	487.75
447.129	470.75
447.35	454.75
447.571	451.75
447.792	442.75
448.013	429.75
448.234	437.75
448.455	469.75
448.675	555.75
448.896	589.75
449.117	541.75
449.338	488.75
449.559	566.75
449.779	621.75
450	519.75
450.221	453.75
450.442	414.75
450.662	420.75
450.883	421.75
451.104	428.75
451.324	416.75
451.545	406.75
451.766	424.75
451.986	387.75
452.207	411.75
452.428	377.75
452.648	393.75
452.869	413.75
453.089	400.75
453.31	408.75
453.53	410.75
453.751	399.75
453.971	399.75
454.192	393.75
454.412	404.75
454.633	388.75
454.853	394.75
455.073	382.75
455.294	423.75
455.514	444.75
455.734	429.75
455.955	402.75
456.175	390.75
456.395	388.75
456.616	376.75
456.836	381.75
457.056	376.75
457.276	370.75
457.497	360.75
457.717	380.75
457.937	382.75
458.157	388.75
458.377	392.75
458.598	403.75
458.818	434.75
459.038	467.75
459.258	490.75
459.478	440.75
459.698	452.75
459.918	422.75
460.138	456.75
460.358	478.75
460.578	471.75
460.798	475.75
461.018	476.75
461.238	472.75
461.458	479.75
461.678	458.75
461.898	475.75
462.118	484.75
462.338	493.75
462.558	510.75
462.777	522.75
462.997	542.75
463.217	566.75
463.437	545.75
463.657	546.75
463.876	516.75
464.096	515.75
464.316	516.75
464.536	518.75
464.755	501.75
464.975	514.75
465.195	488.75
465.414	546.75
465.634	478.75
465.854	445.75
466.073	415.75
466.293	451.75
466.512	420.75
466.732	432.75
466.951	410.75
467.171	424.75
467.391	414.75
467.61	421.75
467.829	439.75
468.049	438.75
468.268	428.75
468.488	417.75
468.707	416.75
468.927	412.75
469.146	392.75
469.365	397.75
469.585	414.75
469.804	401.75
470.023	428.75
470.243	450.75
470.462	423.75
470.681	454.75
470.901	424.75
471.12	440.75
471.339	412.75
471.558	436.75
471.777	446.75
471.997	434.75
472.216	446.75
472.435	536.75
472.654	494.75
472.873	432.75
473.092	444.75
473.311	406.75
473.53	407.75
473.749	426.75
473.968	444.75
474.187	486.75
474.406	504.75
474.625	455.75
474.844	429.75
475.063	415.75
475.282	418.75
475.501	408.75
475.72	432.75
475.939	406.75
476.158	439.75
476.377	442.75
476.596	421.75
476.814	406.75
477.033	423.75
477.252	444.75
477.471	449.75
477.69	439.75
477.908	453.75
478.127	466.75
478.346	464.75
478.564	474.75
478.783	486.75
479.002	492.75
479.22	491.75
479.439	490.75
479.658	495.75
479.876	510.75
480.095	500.75
480.313	535.75
480.532	547.75
480.751	550.75
480.969	564.75
481.188	658.75
481.406	734.75
481.624	577.75
481.843	543.75
482.061	517.75
482.28	519.75
482.498	483.75
482.717	482.75
482.935	471.75
483.153	478.75
483.372	482.75
483.59	492.75
483.808	483.75
484.027	473.75
484.245	487.75
484.463	473.75
484.681	488.75
484.9	492.75
485.118	502.75
485.336	490.75
485.554	471.75
485.772	511.75
485.99	502.75
486.209	492.75
486.427	507.75
486.645	495.75
486.863	507.75
487.081	493.75
487.299	499.75
487.517	506.75
487.735	506.75
487.953	493.75
488.171	497.75
488.389	514.75
488.607	494.75
488.825	497.75
489.043	498.75
489.261	520.75
489.479	504.75
489.696	512.75
489.914	533.75
490.132	535.75
490.35	538.75
490.568	524.75
490.786	530.75
491.003	534.75
491.221	549.75
491.439	573.75
491.657	584.75
491.874	568.75
492.092	570.75
492.31	574.75
492.527	587.75
492.745	621.75
492.963	597.75
493.18	566.75
493.398	595.75
493.615	611.75
493.833	579.75
494.05	581.75
494.268	593.75
494.485	608.75
494.703	597.75
494.92	580.75
495.138	582.75
495.355	572.75
495.573	576.75
495.79	583.75
496.008	585.75
496.225	567.75
496.442	586.75
496.66	582.75
496.877	602.75
497.094	597.75
497.312	595.75
497.529	606.75
497.746	606.75
497.963	623.75
498.181	641.75
498.398	692.75
498.615	690.75
498.832	715.75
499.049	748.75
499.267	788.75
499.484	796.75
499.701	871.75
499.918	923.75
500.135	978.75
500.352	1084.75
500.569	1139.75
500.786	1120.75
501.003	1078.75
501.22	980.75
501.437	946.75
501.654	854.75
501.871	845.75
502.088	802.75
502.305	736.75
502.522	698.75
502.739	724.75
502.956	669.75
503.172	651.75
503.389	628.75
503.606	621.75
503.823	606.75
504.04	595.75
504.256	618.75
504.473	605.75
504.69	603.75
504.907	607.75
505.123	582.75
505.34	546.75
505.557	553.75
505.773	558.75
505.99	536.75
506.207	535.75
506.423	560.75
506.64	518.75
506.856	511.75
507.073	514.75
507.289	519.75
507.506	517.75
507.722	526.75
507.939	521.75
508.155	510.75
508.372	501.75
508.588	486.75
508.805	493.75
509.021	496.75
509.238	522.75
509.454	516.75
509.67	523.75
509.887	507.75
510.103	483.75
510.319	473.75
510.536	568.75
510.752	868.75
510.968	693.75
511.184	478.75
511.401	521.75
511.617	486.75
511.833	503.75
512.049	502.75
512.265	490.75
512.481	486.75
512.698	487.75
512.914	467.75
513.13	463.75
513.346	476.75
513.562	470.75
513.778	470.75
513.994	468.75
514.21	464.75
514.426	515.75
514.642	521.75
514.858	521.75
515.074	549.75
515.29	600.75
515.506	833.75
515.721	687.75
515.937	556.75
516.153	521.75
516.369	524.75
516.585	545.75
516.801	528.75
517.016	526.75
517.232	528.75
517.448	555.75
517.664	557.75
517.879	538.75
518.095	559.75
518.311	557.75
518.527	534.75
518.742	567.75
518.958	518.75
519.173	511.75
519.389	498.75
519.605	484.75
519.82	483.75
520.036	476.75
520.251	489.75
520.467	493.75
520.682	488.75
520.898	500.75
521.113	534.75
521.329	530.75
521.544	567.75
521.76	650.75
521.975	1000.75
522.19	959.75
522.406	617.75
522.621	480.75
522.836	464.75
523.052	453.75
523.267	415.75
523.482	427.75
523.698	435.75
523.913	448.75
524.128	445.75
524.343	421.75
524.559	420.75
524.774	410.75
524.989	434.75
525.204	428.75
525.419	422.75
525.634	414.75
525.849	429.75
526.064	412.75
526.28	404.75
526.495	408.75
526.71	408.75
526.925	407.75
527.14	394.75
527.355	406.75
527.57	398.75
527.785	401.75
527.999	386.75
528.214	407.75
528.429	399.75
528.644	408.75
528.859	395.75
529.074	408.75
529.289	418.75
529.503	456.75
529.718	446.75
529.933	413.75
530.148	422.75
530.363	404.75
530.577	412.75
530.792	403.75
531.007	389.75
531.221	398.75
531.436	399.75
531.651	420.75
531.865	412.75
532.08	391.75
532.295	419.75
532.509	409.75
532.724	396.75
532.938	411.75
533.153	389.75
533.367	405.75
533.582	379.75
533.796	388.75
534.011	397.75
534.225	396.75
534.44	374.75
534.654	395.75
534.868	392.75
535.083	386.75
535.297	387.75
535.511	383.75
535.726	392.75
535.94	410.75
536.154	382.75
536.369	389.75
536.583	392.75
536.797	378.75
537.011	370.75
537.225	374.75
537.44	379.75
537.654	376.75
537.868	374.75
538.082	383.75
538.296	380.75
538.51	366.75
538.724	385.75
538.938	372.75
539.153	370.75
539.367	383.75
539.581	365.75
539.795	361.75
540.009	363.75
540.222	365.75
540.436	374.75
540.65	355.75
540.864	366.75
541.078	386.75
541.292	392.75
541.506	386.75
541.72	368.75
541.934	365.75
542.147	358.75
542.361	372.75
542.575	364.75
542.789	388.75
543.002	389.75
543.216	382.75
543.43	373.75
543.644	383.75
543.857	387.75
544.071	364.75
544.285	392.75
544.498	372.75
544.712	371.75
544.925	384.75
545.139	371.75
545.352	388.75
545.566	365.75
545.779	372.75
545.993	386.75
546.206	386.75
546.42	409.75
546.633	380.75
546.847	374.75
547.06	381.75
547.274	363.75
547.487	363.75
547.7	364.75
547.914	372.75
548.127	363.75
548.34	362.75
548.554	387.75
548.767	362.75
548.98	367.75
549.193	363.75
549.407	359.75
549.62	373.75
549.833	372.75
550.046	348.75
550.259	373.75
550.473	366.75
550.686	370.75
550.899	386.75
551.112	361.75
551.325	376.75
551.538	373.75
551.751	363.75
551.964	354.75
552.177	367.75
552.39	368.75
552.603	370.75
552.816	391.75
553.029	384.75
553.242	366.75
553.455	404.75
553.667	404.75
553.88	392.75
554.093	415.75
554.306	388.75
554.519	352.75
554.732	390.75
554.944	370.75
555.157	378.75
555.37	346.75
555.583	363.75
555.795	356.75
556.008	350.75
556.221	333.75
556.433	356.75
556.646	360.75
556.859	339.75
557.071	320.75
557.284	335.75
557.496	328.75
557.709	330.75
557.921	325.75
558.134	323.75
558.346	324.75
558.559	333.75
558.771	314.75
558.984	338.75
559.196	312.75
559.409	315.75
559.621	326.75
559.833	346.75
560.046	310.75
560.258	312.75
560.47	293.75
560.683	319.75
560.895	313.75
561.107	320.75
561.32	307.75
561.532	331.75
561.744	322.75
561.956	334.75
562.168	313.75
562.381	322.75
562.593	342.75
562.805	332.75
563.017	319.75
563.229	338.75
563.441	321.75
563.653	356.75
563.865	337.75
564.077	320.75
564.289	350.75
564.501	342.75
564.713	349.75
564.925	341.75
565.137	344.75
565.349	379.75
565.561	386.75
565.773	368.75
565.985	391.75
566.197	394.75
566.408	436.75
566.62	455.75
566.832	457.75
567.044	454.75
567.255	462.75
567.467	464.75
567.679	484.75
567.891	500.75
568.102	518.75
568.314	534.75
568.526	462.75
568.737	447.75
568.949	415.75
569.161	392.75
569.372	356.75
569.584	348.75
569.795	382.75
570.007	376.75
570.218	383.75
570.43	377.75
570.641	344.75
570.853	330.75
571.064	332.75
571.276	330.75
571.487	339.75
571.698	321.75
571.91	322.75
572.121	300.75
572.333	300.75
572.544	313.75
572.755	295.75
572.966	278.75
573.178	297.75
573.389	285.75
573.6	295.75
573.811	284.75
574.023	310.75
574.234	310.75
574.445	296.75
574.656	300.75
574.867	293.75
575.078	277.75
575.289	283.75
575.501	296.75
575.712	285.75
575.923	278.75
576.134	262.75
576.345	266.75
576.556	282.75
576.767	258.75
576.978	266.75
577.188	275.75
577.399	279.75
577.61	282.75
577.821	274.75
578.032	271.75
578.243	293.75
578.454	406.75
578.665	332.75
578.875	276.75
579.086	278.75
579.297	267.75
579.508	282.75
579.718	278.75
579.929	266.75
580.14	259.75
580.35	267.75
580.561	249.75
580.772	274.75
580.982	264.75
581.193	255.75
581.403	268.75
581.614	262.75
581.825	247.75
582.035	263.75
582.246	270.75
582.456	266.75
582.667	255.75
582.877	255.75
583.087	252.75
583.298	248.75
583.508	255.75
583.719	252.75
583.929	261.75
584.139	266.75
584.35	246.75
584.56	256.75
584.77	263.75
584.981	244.75
585.191	256.75
585.401	240.75
585.611	243.75
585.821	243.75
586.032	248.75
586.242	242.75
586.452	240.75
586.662	267.75
586.872	248.75
587.082	249.75
587.292	239.75
587.502	246.75
587.713	262.75
587.923	260.75
588.133	256.75
588.343	247.75
588.553	243.75
588.762	258.75
588.972	246.75
589.182	242.75
589.392	256.75
589.602	247.75
589.812	255.75
590.022	264.75
590.232	246.75
590.441	265.75
590.651	246.75
590.861	256.75
591.071	261.75
591.281	251.75
591.49	256.75
591.7	276.75
591.91	269.75
592.119	271.75
592.329	260.75
592.539	274.75
592.748	302.75
592.958	270.75
593.167	302.75
593.377	298.75
593.587	324.75
593.796	296.75
594.006	292.75
594.215	282.75
594.424	292.75
594.634	291.75
594.843	270.75
595.053	272.75
595.262	262.75
595.472	259.75
595.681	285.75
595.89	254.75
596.1	263.75
596.309	254.75
596.518	245.75
596.727	248.75
596.937	237.75
597.146	257.75
597.355	248.75
597.564	246.75
597.774	242.75
597.983	227.75
598.192	242.75
598.401	238.75
598.61	230.75
598.819	204.75
599.028	228.75
599.237	225.75
599.446	205.75
599.655	224.75
599.864	226.75
600.073	243.75
600.282	226.75
600.491	226.75
600.7	226.75
600.909	213.75
601.118	234.75
601.327	210.75
601.536	219.75
601.745	226.75
601.953	217.75
602.162	242.75
602.371	230.75
602.58	231.75
602.789	217.75
602.997	224.75
603.206	214.75
603.415	231.75
603.623	209.75
603.832	221.75
604.041	202.75
604.249	199.75
604.458	228.75
604.666	194.75
604.875	197.75
605.084	205.75
605.292	214.75
605.501	206.75
605.709	210.75
605.918	199.75
606.126	220.75
606.334	215.75
606.543	212.75
606.751	208.75
606.96	212.75
607.168	201.75
607.376	204.75
607.585	206.75
607.793	214.75
608.001	212.75
608.21	209.75
608.418	205.75
608.626	200.75
608.834	203.75
609.043	196.75
609.251	208.75
609.459	215.75
609.667	206.75
609.875	200.75
610.083	212.75
610.291	208.75
610.499	198.75
610.707	207.75
610.916	208.75
611.124	192.75
611.332	218.75
611.54	204.75
611.748	205.75
611.955	196.75
612.163	214.75
612.371	216.75
612.579	203.75
612.787	213.75
612.995	204.75
613.203	208.75
613.411	184.75
613.618	198.75
613.826	199.75
614.034	212.75
614.242	212.75
614.449	214.75
614.657	210.75
614.865	191.75
615.072	192.75
615.28	205.75
615.488	205.75
615.695	204.75
615.903	206.75
616.111	212.75
616.318	209.75
616.526	207.75
616.733	217.75
616.941	213.75
617.148	207.75
617.356	195.75
617.563	195.75
617.771	207.75
617.978	203.75
618.185	207.75
618.393	187.75
618.6	207.75
618.807	194.75
619.015	201.75
619.222	186.75
619.429	207.75
619.637	214.75
619.844	200.75
620.051	190.75
620.258	182.75
620.466	181.75
620.673	185.75
620.88	182.75
621.087	176.75
621.294	191.75
621.501	190.75
621.708	198.75
621.915	194.75
622.122	200.75
622.329	206.75
622.536	210.75
622.743	174.75
622.95	160.75
623.157	165.75
623.364	186.75
623.571	194.75
623.778	201.75
623.985	175.75
624.192	174.75
624.399	185.75
624.606	178.75
624.812	187.75
625.019	185.75
625.226	175.75
625.433	184.75
625.639	184.75
625.846	194.75
626.053	180.75
626.259	171.75
626.466	200.75
626.673	187.75
626.879	183.75
627.086	179.75
627.293	155.75
627.499	182.75
627.706	181.75
627.912	157.75
628.119	173.75
628.325	187.75
628.532	193.75
628.738	165.75
628.945	173.75
629.151	181.75
629.357	173.75
629.564	176.75
629.77	166.75
629.976	183.75
630.183	167.75
630.389	174.75
630.595	170.75
630.802	175.75
631.008	184.75
631.214	172.75
631.42	164.75
631.627	169.75
631.833	171.75
632.039	175.75
632.245	167.75
632.451	173.75
632.657	168.75
632.863	163.75
633.069	150.75
633.275	162.75
633.481	163.75
633.688	170.75
633.893	165.75
634.099	169.75
634.305	162.75
634.511	158.75
634.717	156.75
634.923	159.75
635.129	169.75
635.335	170.75
635.541	168.75
635.747	161.75
635.952	170.75
636.158	167.75
636.364	164.75
636.57	184.75
636.775	162.75
636.981	165.75
637.187	163.75
637.392	168.75
637.598	183.75
637.804	180.75
638.009	172.75
638.215	160.75
638.421	165.75
638.626	165.75
638.832	151.75
639.037	155.75
639.243	170.75
639.448	158.75
639.654	155.75
639.859	165.75
640.065	145.75
640.27	173.75
640.475	164.75
640.681	142.75
640.886	160.75
641.091	152.75
641.297	169.75
641.502	168.75
641.707	151.75
641.913	137.75
642.118	163.75
642.323	156.75
642.528	148.75
642.733	156.75
642.939	132.75
643.144	148.75
643.349	154.75
643.554	146.75
643.759	149.75
643.964	138.75
644.169	141.75
644.374	139.75
644.579	133.75
644.784	152.75
644.989	146.75
645.194	151.75
645.399	151.75
645.604	168.75
645.809	134.75
646.014	151.75
646.219	143.75
646.423	150.75
646.628	144.75
646.833	175.75
647.038	159.75
647.243	151.75
647.447	147.75
647.652	134.75
647.857	150.75
648.062	143.75
648.266	153.75
648.471	165.75
648.676	155.75
648.88	155.75
649.085	152.75
649.289	150.75
649.494	156.75
649.698	164.75
649.903	164.75
650.107	143.75
650.312	148.75
650.516	154.75
650.721	154.75
650.925	144.75
651.13	133.75
651.334	141.75
651.539	133.75
651.743	153.75
651.947	142.75
652.152	141.75
652.356	134.75
652.56	123.75
652.764	152.75
652.969	134.75
653.173	135.75
653.377	138.75
653.581	128.75
653.785	134.75
653.99	134.75
654.194	121.75
654.398	126.75
654.602	131.75
654.806	118.75
655.01	131.75
655.214	132.75
655.418	136.75
655.622	128.75
655.826	135.75
656.03	122.75
656.234	134.75
656.438	137.75
656.642	134.75
656.846	124.75
657.049	101.75
657.253	133.75
657.457	118.75
657.661	116.75
657.865	113.75
658.068	100.75
658.272	102.75
658.476	101.75
658.68	111.75
658.883	110.75
659.087	100.75
659.291	113.75
659.494	103.75
659.698	100.75
659.901	107.75
660.105	97.75
660.309	93.75
660.512	90.75
660.716	94.75
660.919	102.75
661.123	99.75
661.326	87.75
661.53	89.75
661.733	82.75
661.936	85.75
662.14	88.75
662.343	99.75
662.546	89.75
662.75	91.75
662.953	85.75
663.156	77.75
663.36	95.75
663.563	85.75
663.766	80.75
663.969	87.75
664.173	95.75
664.376	89.75
664.579	75.75
664.782	83.75
664.985	90.75
665.188	85.75
665.391	73.75
665.594	95.75
665.797	75.75
666	75.75
666.203	85.75
666.406	96.75
666.609	86.75
666.812	88.75
667.015	78.75
667.218	91.75
667.421	83.75
667.624	80.75
667.827	82.75
668.03	81.75
668.232	85.75
668.435	88.75
668.638	85.75
668.841	84.75
669.043	79.75
669.246	76.75
669.449	77.75
669.651	91.75
669.854	72.75
670.057	78.75
670.259	86.75
670.462	79.75
670.665	89.75
670.867	78.75
671.07	80.75
671.272	83.75
671.475	79.75
671.677	79.75
671.88	86.75
672.082	92.75
672.284	91.75
672.487	84.75
672.689	70.75
672.892	79.75
