Data from 1984.PennyLincolnUp.Lamp.En5.5.200Scan.071819.P1_HRD10591_16-59-02-975.txt Node
Date: Thu Jul 18 16:59:02 EDT 2019
User: cochatt
Spectrometer: HR+D1059
Trigger mode: 1
Integration Time (sec): 1.000000E-1
Scans to average: 1
Electric dark correction enabled: true
Nonlinearity correction enabled: false
Boxcar width: 0
XAxis mode: Wavelengths
Number of Pixels in Spectrum: 2048
>>>>>Begin Spectral Data<<<<<
223.165	-10.31
223.4	-10.31
223.635	-10.31
223.869	-13.31
224.104	-29.31
224.338	-11.31
224.573	-21.31
224.808	-5.31
225.042	-11.31
225.277	5.69
225.511	2.69
225.746	7.69
225.98	0.69
226.215	13.69
226.449	15.69
226.683	6.69
226.918	17.69
227.152	31.69
227.387	27.69
227.621	28.69
227.856	44.69
228.09	50.69
228.324	49.69
228.559	44.69
228.793	68.69
229.027	91.69
229.262	96.69
229.496	106.69
229.73	95.69
229.964	112.69
230.199	105.69
230.433	92.69
230.667	113.69
230.901	100.69
231.136	102.69
231.37	105.69
231.604	91.69
231.838	103.69
232.072	91.69
232.306	103.69
232.541	106.69
232.775	110.69
233.009	96.69
233.243	101.69
233.477	119.69
233.711	101.69
233.945	104.69
234.179	115.69
234.413	117.69
234.647	121.69
234.881	114.69
235.115	110.69
235.349	121.69
235.583	118.69
235.817	106.69
236.051	107.69
236.285	106.69
236.519	115.69
236.753	118.69
236.987	99.69
237.221	134.69
237.455	162.69
237.689	141.69
237.922	116.69
238.156	110.69
238.39	118.69
238.624	114.69
238.858	106.69
239.091	126.69
239.325	109.69
239.559	137.69
239.793	116.69
240.027	120.69
240.26	122.69
240.494	126.69
240.728	130.69
240.961	123.69
241.195	132.69
241.429	136.69
241.662	111.69
241.896	110.69
242.13	124.69
242.363	130.69
242.597	104.69
242.83	130.69
243.064	120.69
243.298	114.69
243.531	122.69
243.765	137.69
243.998	137.69
244.232	133.69
244.465	123.69
244.699	125.69
244.932	122.69
245.166	119.69
245.399	139.69
245.633	132.69
245.866	141.69
246.099	153.69
246.333	137.69
246.566	130.69
246.8	149.69
247.033	142.69
247.266	151.69
247.5	140.69
247.733	158.69
247.966	141.69
248.2	158.69
248.433	164.69
248.666	155.69
248.899	158.69
249.133	150.69
249.366	167.69
249.599	168.69
249.832	160.69
250.066	177.69
250.299	178.69
250.532	193.69
250.765	195.69
250.998	196.69
251.231	204.69
251.465	174.69
251.698	177.69
251.931	179.69
252.164	175.69
252.397	179.69
252.63	184.69
252.863	199.69
253.096	179.69
253.329	186.69
253.562	195.69
253.795	177.69
254.028	210.69
254.261	177.69
254.494	178.69
254.727	195.69
254.96	227.69
255.193	212.69
255.426	195.69
255.659	210.69
255.892	199.69
256.124	236.69
256.357	238.69
256.59	228.69
256.823	204.69
257.056	178.69
257.289	198.69
257.521	200.69
257.754	180.69
257.987	214.69
258.22	188.69
258.452	183.69
258.685	208.69
258.918	182.69
259.151	183.69
259.383	194.69
259.616	190.69
259.849	195.69
260.081	209.69
260.314	207.69
260.547	219.69
260.779	226.69
261.012	203.69
261.244	184.69
261.477	204.69
261.71	190.69
261.942	194.69
262.175	205.69
262.407	197.69
262.64	197.69
262.872	190.69
263.105	189.69
263.337	195.69
263.57	204.69
263.802	188.69
264.035	193.69
264.267	197.69
264.499	200.69
264.732	204.69
264.964	198.69
265.197	211.69
265.429	200.69
265.661	211.69
265.894	194.69
266.126	220.69
266.358	207.69
266.591	201.69
266.823	222.69
267.055	213.69
267.287	202.69
267.52	200.69
267.752	199.69
267.984	209.69
268.216	215.69
268.448	230.69
268.681	212.69
268.913	216.69
269.145	218.69
269.377	238.69
269.609	219.69
269.841	234.69
270.073	233.69
270.306	254.69
270.538	250.69
270.77	269.69
271.002	270.69
271.234	258.69
271.466	268.69
271.698	238.69
271.93	256.69
272.162	268.69
272.394	252.69
272.626	266.69
272.858	259.69
273.09	230.69
273.322	246.69
273.553	225.69
273.785	238.69
274.017	250.69
274.249	239.69
274.481	234.69
274.713	230.69
274.945	250.69
275.176	242.69
275.408	232.69
275.64	233.69
275.872	227.69
276.104	245.69
276.335	240.69
276.567	243.69
276.799	246.69
277.031	268.69
277.262	271.69
277.494	294.69
277.726	279.69
277.957	252.69
278.189	271.69
278.421	249.69
278.652	268.69
278.884	260.69
279.115	249.69
279.347	255.69
279.579	239.69
279.81	235.69
280.042	236.69
280.273	244.69
280.505	240.69
280.736	261.69
280.968	254.69
281.199	247.69
281.431	244.69
281.662	258.69
281.894	257.69
282.125	257.69
282.356	262.69
282.588	296.69
282.819	290.69
283.051	275.69
283.282	252.69
283.513	262.69
283.745	277.69
283.976	258.69
284.207	275.69
284.439	273.69
284.67	274.69
284.901	254.69
285.132	274.69
285.364	260.69
285.595	271.69
285.826	268.69
286.057	273.69
286.288	286.69
286.52	270.69
286.751	251.69
286.982	274.69
287.213	267.69
287.444	263.69
287.675	266.69
287.906	275.69
288.138	295.69
288.369	290.69
288.6	284.69
288.831	282.69
289.062	262.69
289.293	276.69
289.524	282.69
289.755	273.69
289.986	296.69
290.217	276.69
290.448	264.69
290.679	273.69
290.91	274.69
291.141	272.69
291.371	290.69
291.602	298.69
291.833	292.69
292.064	291.69
292.295	281.69
292.526	282.69
292.757	278.69
292.987	288.69
293.218	288.69
293.449	269.69
293.68	290.69
293.91	298.69
294.141	278.69
294.372	264.69
294.603	290.69
294.833	306.69
295.064	278.69
295.295	297.69
295.525	279.69
295.756	276.69
295.987	305.69
296.217	299.69
296.448	299.69
296.679	291.69
296.909	308.69
297.14	290.69
297.37	298.69
297.601	310.69
297.831	287.69
298.062	302.69
298.292	291.69
298.523	292.69
298.753	282.69
298.984	295.69
299.214	300.69
299.445	315.69
299.675	299.69
299.905	307.69
300.136	312.69
300.366	300.69
300.597	313.69
300.827	306.69
301.057	315.69
301.288	306.69
301.518	330.69
301.748	320.69
301.979	326.69
302.209	315.69
302.439	317.69
302.669	318.69
302.9	326.69
303.13	323.69
303.36	321.69
303.59	323.69
303.82	319.69
304.051	308.69
304.281	329.69
304.511	312.69
304.741	330.69
304.971	312.69
305.201	299.69
305.431	311.69
305.661	313.69
305.891	306.69
306.121	316.69
306.352	291.69
306.582	326.69
306.812	324.69
307.042	315.69
307.272	314.69
307.502	319.69
307.731	318.69
307.961	330.69
308.191	314.69
308.421	325.69
308.651	331.69
308.881	317.69
309.111	314.69
309.341	326.69
309.571	332.69
309.8	331.69
310.03	337.69
310.26	337.69
310.49	322.69
310.72	330.69
310.949	351.69
311.179	355.69
311.409	351.69
311.639	314.69
311.868	339.69
312.098	341.69
312.328	342.69
312.557	345.69
312.787	373.69
313.017	366.69
313.246	346.69
313.476	354.69
313.706	359.69
313.935	369.69
314.165	366.69
314.394	374.69
314.624	355.69
314.853	370.69
315.083	356.69
315.312	340.69
315.542	343.69
315.771	332.69
316.001	356.69
316.23	340.69
316.46	339.69
316.689	340.69
316.919	343.69
317.148	352.69
317.377	366.69
317.607	355.69
317.836	342.69
318.065	352.69
318.295	351.69
318.524	339.69
318.753	337.69
318.983	353.69
319.212	344.69
319.441	356.69
319.67	355.69
319.9	347.69
320.129	343.69
320.358	356.69
320.587	348.69
320.816	374.69
321.046	353.69
321.275	360.69
321.504	370.69
321.733	345.69
321.962	363.69
322.191	363.69
322.42	362.69
322.649	368.69
322.878	386.69
323.108	390.69
323.337	416.69
323.566	423.69
323.795	434.69
324.024	476.69
324.253	527.69
324.482	695.69
324.71	1042.69
324.939	1387.69
325.168	1206.69
325.397	682.69
325.626	534.69
325.855	455.69
326.084	447.69
326.313	434.69
326.542	450.69
326.77	454.69
326.999	528.69
327.228	686.69
327.457	938.69
327.686	1094.69
327.914	785.69
328.143	566.69
328.372	515.69
328.6	491.69
328.829	470.69
329.058	488.69
329.287	472.69
329.515	467.69
329.744	471.69
329.972	476.69
330.201	521.69
330.43	576.69
330.658	558.69
330.887	514.69
331.115	512.69
331.344	454.69
331.572	451.69
331.801	435.69
332.03	447.69
332.258	437.69
332.486	444.69
332.715	442.69
332.943	421.69
333.172	455.69
333.4	496.69
333.629	492.69
333.857	514.69
334.085	542.69
334.314	570.69
334.542	648.69
334.771	622.69
334.999	574.69
335.227	510.69
335.455	460.69
335.684	464.69
335.912	454.69
336.14	440.69
336.369	435.69
336.597	449.69
336.825	441.69
337.053	434.69
337.281	435.69
337.51	411.69
337.738	391.69
337.966	403.69
338.194	417.69
338.422	410.69
338.65	406.69
338.878	398.69
339.106	391.69
339.334	402.69
339.562	420.69
339.79	403.69
340.018	401.69
340.246	412.69
340.474	395.69
340.702	365.69
340.93	388.69
341.158	387.69
341.386	384.69
341.614	392.69
341.842	376.69
342.07	394.69
342.298	386.69
342.526	369.69
342.754	386.69
342.981	392.69
343.209	386.69
343.437	384.69
343.665	411.69
343.893	435.69
344.12	426.69
344.348	428.69
344.576	400.69
344.804	413.69
345.031	390.69
345.259	406.69
345.487	384.69
345.714	365.69
345.942	376.69
346.17	368.69
346.397	371.69
346.625	377.69
346.853	373.69
347.08	344.69
347.308	382.69
347.535	372.69
347.763	367.69
347.99	379.69
348.218	385.69
348.445	375.69
348.673	384.69
348.9	357.69
349.128	359.69
349.355	370.69
349.583	361.69
349.81	351.69
350.037	359.69
350.265	362.69
350.492	356.69
350.72	346.69
350.947	371.69
351.174	370.69
351.402	387.69
351.629	354.69
351.856	375.69
352.083	346.69
352.311	363.69
352.538	374.69
352.765	376.69
352.992	379.69
353.22	356.69
353.447	366.69
353.674	368.69
353.901	367.69
354.128	351.69
354.355	357.69
354.583	348.69
354.81	339.69
355.037	336.69
355.264	332.69
355.491	339.69
355.718	349.69
355.945	352.69
356.172	351.69
356.399	339.69
356.626	357.69
356.853	347.69
357.08	350.69
357.307	357.69
357.534	347.69
357.761	331.69
357.988	341.69
358.215	364.69
358.441	342.69
358.668	349.69
358.895	344.69
359.122	359.69
359.349	349.69
359.576	356.69
359.802	369.69
360.029	384.69
360.256	384.69
360.483	385.69
360.709	359.69
360.936	375.69
361.163	373.69
361.39	369.69
361.616	355.69
361.843	362.69
362.07	337.69
362.296	366.69
362.523	378.69
362.749	369.69
362.976	354.69
363.203	342.69
363.429	347.69
363.656	353.69
363.882	356.69
364.109	374.69
364.335	367.69
364.562	356.69
364.788	336.69
365.015	338.69
365.241	361.69
365.468	356.69
365.694	358.69
365.92	350.69
366.147	352.69
366.373	356.69
366.599	334.69
366.826	365.69
367.052	374.69
367.278	334.69
367.505	348.69
367.731	357.69
367.957	346.69
368.184	355.69
368.41	364.69
368.636	361.69
368.862	367.69
369.089	355.69
369.315	341.69
369.541	379.69
369.767	352.69
369.993	338.69
370.219	362.69
370.445	347.69
370.672	347.69
370.898	348.69
371.124	356.69
371.35	368.69
371.576	358.69
371.802	347.69
372.028	348.69
372.254	358.69
372.48	350.69
372.706	371.69
372.932	370.69
373.158	368.69
373.384	349.69
373.61	353.69
373.835	355.69
374.061	373.69
374.287	368.69
374.513	349.69
374.739	362.69
374.965	379.69
375.191	386.69
375.416	379.69
375.642	363.69
375.868	380.69
376.094	370.69
376.319	372.69
376.545	363.69
376.771	363.69
376.997	358.69
377.222	350.69
377.448	372.69
377.674	354.69
377.899	368.69
378.125	340.69
378.35	358.69
378.576	340.69
378.802	351.69
379.027	351.69
379.253	369.69
379.478	346.69
379.704	346.69
379.929	347.69
380.155	352.69
380.38	365.69
380.606	353.69
380.831	348.69
381.057	355.69
381.282	366.69
381.507	374.69
381.733	357.69
381.958	348.69
382.184	366.69
382.409	379.69
382.634	355.69
382.86	376.69
383.085	366.69
383.31	382.69
383.535	379.69
383.761	405.69
383.986	401.69
384.211	388.69
384.436	382.69
384.662	382.69
384.887	394.69
385.112	402.69
385.337	396.69
385.562	408.69
385.787	399.69
386.013	403.69
386.238	420.69
386.463	425.69
386.688	416.69
386.913	395.69
387.138	396.69
387.363	399.69
387.588	404.69
387.813	396.69
388.038	399.69
388.263	402.69
388.488	394.69
388.713	397.69
388.938	406.69
389.163	423.69
389.387	410.69
389.612	390.69
389.837	406.69
390.062	380.69
390.287	402.69
390.512	381.69
390.736	419.69
390.961	398.69
391.186	409.69
391.411	391.69
391.636	418.69
391.86	450.69
392.085	442.69
392.31	410.69
392.534	420.69
392.759	420.69
392.984	413.69
393.208	422.69
393.433	418.69
393.658	415.69
393.882	426.69
394.107	391.69
394.331	394.69
394.556	420.69
394.78	431.69
395.005	416.69
395.229	392.69
395.454	430.69
395.678	446.69
395.903	426.69
396.127	433.69
396.352	446.69
396.576	403.69
396.801	438.69
397.025	411.69
397.249	426.69
397.474	422.69
397.698	438.69
397.922	439.69
398.147	449.69
398.371	456.69
398.595	459.69
398.82	467.69
399.044	479.69
399.268	500.69
399.492	570.69
399.717	627.69
399.941	635.69
400.165	611.69
400.389	596.69
400.613	534.69
400.837	527.69
401.062	487.69
401.286	476.69
401.51	478.69
401.734	477.69
401.958	474.69
402.182	471.69
402.406	496.69
402.63	491.69
402.854	484.69
403.078	480.69
403.302	517.69
403.526	490.69
403.75	507.69
403.974	510.69
404.198	514.69
404.422	513.69
404.645	522.69
404.869	520.69
405.093	552.69
405.317	591.69
405.541	627.69
405.765	583.69
405.988	510.69
406.212	535.69
406.436	548.69
406.66	553.69
406.883	522.69
407.107	573.69
407.331	590.69
407.555	622.69
407.778	650.69
408.002	586.69
408.226	553.69
408.449	548.69
408.673	538.69
408.896	553.69
409.12	562.69
409.344	545.69
409.567	522.69
409.791	491.69
410.014	496.69
410.238	490.69
410.461	508.69
410.685	489.69
410.908	503.69
411.132	519.69
411.355	534.69
411.578	544.69
411.802	495.69
412.025	481.69
412.249	514.69
412.472	559.69
412.695	570.69
412.919	549.69
413.142	520.69
413.365	483.69
413.589	506.69
413.812	482.69
414.035	491.69
414.258	489.69
414.482	475.69
414.705	497.69
414.928	476.69
415.151	464.69
415.374	442.69
415.597	450.69
415.821	455.69
416.044	456.69
416.267	453.69
416.49	450.69
416.713	463.69
416.936	460.69
417.159	451.69
417.382	465.69
417.605	452.69
417.828	491.69
418.051	470.69
418.274	459.69
418.497	442.69
418.72	479.69
418.943	466.69
419.166	510.69
419.389	524.69
419.611	511.69
419.834	509.69
420.057	504.69
420.28	516.69
420.503	505.69
420.726	514.69
420.948	498.69
421.171	540.69
421.394	526.69
421.617	491.69
421.839	474.69
422.062	470.69
422.285	508.69
422.507	521.69
422.73	582.69
422.953	552.69
423.175	491.69
423.398	506.69
423.621	499.69
423.843	497.69
424.066	502.69
424.288	482.69
424.511	520.69
424.733	538.69
424.956	591.69
425.178	564.69
425.401	573.69
425.623	562.69
425.846	520.69
426.068	490.69
426.291	457.69
426.513	476.69
426.735	479.69
426.958	530.69
427.18	534.69
427.402	614.69
427.625	685.69
427.847	612.69
428.069	544.69
428.292	521.69
428.514	464.69
428.736	442.69
428.958	457.69
429.181	441.69
429.403	433.69
429.625	450.69
429.847	472.69
430.069	489.69
430.292	504.69
430.514	432.69
430.736	445.69
430.958	434.69
431.18	424.69
431.402	428.69
431.624	410.69
431.846	410.69
432.068	434.69
432.29	419.69
432.512	448.69
432.734	447.69
432.956	432.69
433.178	435.69
433.4	431.69
433.622	448.69
433.844	452.69
434.066	432.69
434.287	462.69
434.509	462.69
434.731	458.69
434.953	458.69
435.175	476.69
435.397	474.69
435.618	477.69
435.84	474.69
436.062	541.69
436.284	562.69
436.505	500.69
436.727	460.69
436.949	439.69
437.17	456.69
437.392	424.69
437.614	467.69
437.835	452.69
438.057	522.69
438.278	567.69
438.5	552.69
438.721	572.69
438.943	596.69
439.165	492.69
439.386	458.69
439.608	460.69
439.829	464.69
440.05	485.69
440.272	476.69
440.493	465.69
440.715	456.69
440.936	485.69
441.158	444.69
441.379	448.69
441.6	479.69
441.822	487.69
442.043	480.69
442.264	544.69
442.486	575.69
442.707	530.69
442.928	494.69
443.149	484.69
443.371	496.69
443.592	522.69
443.813	573.69
444.034	609.69
444.255	569.69
444.476	527.69
444.698	510.69
444.919	535.69
445.14	600.69
445.361	540.69
445.582	534.69
445.803	547.69
446.024	596.69
446.245	591.69
446.466	537.69
446.687	486.69
446.908	457.69
447.129	431.69
447.35	438.69
447.571	453.69
447.792	408.69
448.013	437.69
448.234	427.69
448.455	470.69
448.675	528.69
448.896	572.69
449.117	535.69
449.338	496.69
449.559	554.69
449.779	607.69
450	523.69
450.221	444.69
450.442	418.69
450.662	402.69
450.883	417.69
451.104	430.69
451.324	424.69
451.545	401.69
451.766	389.69
451.986	398.69
452.207	394.69
452.428	398.69
452.648	404.69
452.869	410.69
453.089	397.69
453.31	403.69
453.53	375.69
453.751	409.69
453.971	397.69
454.192	391.69
454.412	380.69
454.633	376.69
454.853	387.69
455.073	357.69
455.294	400.69
455.514	443.69
455.734	417.69
455.955	384.69
456.175	375.69
456.395	354.69
456.616	362.69
456.836	365.69
457.056	353.69
457.276	350.69
457.497	396.69
457.717	372.69
457.937	378.69
458.157	381.69
458.377	392.69
458.598	422.69
458.818	418.69
459.038	459.69
459.258	500.69
459.478	421.69
459.698	436.69
459.918	440.69
460.138	447.69
460.358	451.69
460.578	448.69
460.798	453.69
461.018	461.69
461.238	490.69
461.458	456.69
461.678	438.69
461.898	460.69
462.118	453.69
462.338	470.69
462.558	480.69
462.777	497.69
462.997	518.69
463.217	551.69
463.437	546.69
463.657	529.69
463.876	512.69
464.096	497.69
464.316	513.69
464.536	513.69
464.755	522.69
464.975	498.69
465.195	502.69
465.414	528.69
465.634	486.69
465.854	446.69
466.073	441.69
466.293	416.69
466.512	413.69
466.732	400.69
466.951	390.69
467.171	392.69
467.391	425.69
467.61	415.69
467.829	407.69
468.049	424.69
468.268	409.69
468.488	405.69
468.707	395.69
468.927	386.69
469.146	397.69
469.365	398.69
469.585	383.69
469.804	393.69
470.023	433.69
470.243	421.69
470.462	422.69
470.681	439.69
470.901	424.69
471.12	415.69
471.339	412.69
471.558	415.69
471.777	398.69
471.997	416.69
472.216	433.69
472.435	479.69
472.654	467.69
472.873	431.69
473.092	400.69
473.311	408.69
473.53	414.69
473.749	419.69
473.968	438.69
474.187	496.69
474.406	501.69
474.625	438.69
474.844	408.69
475.063	380.69
475.282	380.69
475.501	400.69
475.72	417.69
475.939	410.69
476.158	381.69
476.377	419.69
476.596	421.69
476.814	399.69
477.033	414.69
477.252	428.69
477.471	431.69
477.69	432.69
477.908	430.69
478.127	458.69
478.346	453.69
478.564	479.69
478.783	470.69
479.002	470.69
479.22	465.69
479.439	484.69
479.658	492.69
479.876	481.69
480.095	475.69
480.313	514.69
480.532	528.69
480.751	522.69
480.969	524.69
481.188	602.69
481.406	647.69
481.624	556.69
481.843	502.69
482.061	494.69
482.28	474.69
482.498	456.69
482.717	460.69
482.935	474.69
483.153	472.69
483.372	460.69
483.59	458.69
483.808	474.69
484.027	486.69
484.245	484.69
484.463	475.69
484.681	457.69
484.9	470.69
485.118	492.69
485.336	496.69
485.554	457.69
485.772	482.69
485.99	482.69
486.209	475.69
486.427	484.69
486.645	465.69
486.863	494.69
487.081	475.69
487.299	488.69
487.517	497.69
487.735	498.69
487.953	501.69
488.171	482.69
488.389	500.69
488.607	472.69
488.825	475.69
489.043	499.69
489.261	479.69
489.479	498.69
489.696	496.69
489.914	506.69
490.132	512.69
490.35	512.69
490.568	524.69
490.786	519.69
491.003	517.69
491.221	549.69
491.439	550.69
491.657	542.69
491.874	551.69
492.092	553.69
492.31	579.69
492.527	584.69
492.745	585.69
492.963	568.69
493.18	547.69
493.398	578.69
493.615	592.69
493.833	575.69
494.05	572.69
494.268	577.69
494.485	559.69
494.703	538.69
494.92	579.69
495.138	573.69
495.355	579.69
495.573	552.69
495.79	560.69
496.008	563.69
496.225	551.69
496.442	564.69
496.66	573.69
496.877	568.69
497.094	586.69
497.312	577.69
497.529	601.69
497.746	619.69
497.963	628.69
498.181	630.69
498.398	661.69
498.615	653.69
498.832	684.69
499.049	715.69
499.267	761.69
499.484	786.69
499.701	847.69
499.918	908.69
500.135	985.69
500.352	1043.69
500.569	1094.69
500.786	1106.69
501.003	1049.69
501.22	966.69
501.437	923.69
501.654	844.69
501.871	805.69
502.088	766.69
502.305	746.69
502.522	698.69
502.739	667.69
502.956	651.69
503.172	620.69
503.389	616.69
503.606	615.69
503.823	602.69
504.04	573.69
504.256	562.69
504.473	585.69
504.69	596.69
504.907	573.69
505.123	553.69
505.34	544.69
505.557	549.69
505.773	526.69
505.99	549.69
506.207	532.69
506.423	530.69
506.64	535.69
506.856	514.69
507.073	524.69
507.289	506.69
507.506	510.69
507.722	503.69
507.939	493.69
508.155	506.69
508.372	483.69
508.588	490.69
508.805	490.69
509.021	480.69
509.238	488.69
509.454	505.69
509.67	495.69
509.887	460.69
510.103	512.69
510.319	482.69
510.536	560.69
510.752	820.69
510.968	654.69
511.184	498.69
511.401	480.69
511.617	464.69
511.833	488.69
512.049	494.69
512.265	481.69
512.481	471.69
512.698	472.69
512.914	473.69
513.13	437.69
513.346	475.69
513.562	474.69
513.778	479.69
513.994	464.69
514.21	457.69
514.426	467.69
514.642	499.69
514.858	508.69
515.074	531.69
515.29	613.69
515.506	804.69
515.721	702.69
515.937	552.69
516.153	522.69
516.369	514.69
516.585	531.69
516.801	523.69
517.016	523.69
517.232	543.69
517.448	560.69
517.664	555.69
517.879	544.69
518.095	546.69
518.311	540.69
518.527	536.69
518.742	537.69
518.958	498.69
519.173	503.69
519.389	501.69
519.605	498.69
519.82	483.69
520.036	500.69
520.251	471.69
520.467	489.69
520.682	498.69
520.898	482.69
521.113	506.69
521.329	509.69
521.544	571.69
521.76	620.69
521.975	955.69
522.19	955.69
522.406	591.69
522.621	499.69
522.836	447.69
523.052	440.69
523.267	435.69
523.482	431.69
523.698	448.69
523.913	423.69
524.128	426.69
524.343	407.69
524.559	421.69
524.774	410.69
524.989	419.69
525.204	402.69
525.419	418.69
525.634	414.69
525.849	387.69
526.064	425.69
526.28	416.69
526.495	386.69
526.71	403.69
526.925	417.69
527.14	406.69
527.355	380.69
527.57	375.69
527.785	392.69
527.999	382.69
528.214	397.69
528.429	393.69
528.644	420.69
528.859	399.69
529.074	386.69
529.289	405.69
529.503	434.69
529.718	432.69
529.933	406.69
530.148	386.69
530.363	387.69
530.577	382.69
530.792	388.69
531.007	379.69
531.221	390.69
531.436	380.69
531.651	397.69
531.865	396.69
532.08	396.69
532.295	387.69
532.509	383.69
532.724	380.69
532.938	366.69
533.153	381.69
533.367	391.69
533.582	394.69
533.796	378.69
534.011	382.69
534.225	378.69
534.44	370.69
534.654	399.69
534.868	389.69
535.083	359.69
535.297	380.69
535.511	377.69
535.726	385.69
535.94	389.69
536.154	376.69
536.369	380.69
536.583	366.69
536.797	372.69
537.011	368.69
537.225	362.69
537.44	368.69
537.654	374.69
537.868	357.69
538.082	360.69
538.296	370.69
538.51	373.69
538.724	350.69
538.938	374.69
539.153	374.69
539.367	367.69
539.581	347.69
539.795	348.69
540.009	372.69
540.222	372.69
540.436	350.69
540.65	382.69
540.864	357.69
541.078	363.69
541.292	358.69
541.506	355.69
541.72	348.69
541.934	366.69
542.147	354.69
542.361	362.69
542.575	359.69
542.789	359.69
543.002	352.69
543.216	361.69
543.43	358.69
543.644	371.69
543.857	371.69
544.071	380.69
544.285	376.69
544.498	378.69
544.712	376.69
544.925	394.69
545.139	361.69
545.352	355.69
545.566	385.69
545.779	333.69
545.993	366.69
546.206	362.69
546.42	372.69
546.633	357.69
546.847	366.69
547.06	353.69
547.274	374.69
547.487	347.69
547.7	363.69
547.914	356.69
548.127	351.69
548.34	364.69
548.554	366.69
548.767	350.69
548.98	364.69
549.193	362.69
549.407	347.69
549.62	385.69
549.833	374.69
550.046	346.69
550.259	362.69
550.473	366.69
550.686	353.69
550.899	332.69
551.112	359.69
551.325	364.69
551.538	364.69
551.751	367.69
551.964	331.69
552.177	338.69
552.39	349.69
552.603	386.69
552.816	388.69
553.029	381.69
553.242	393.69
553.455	380.69
553.667	396.69
553.88	392.69
554.093	405.69
554.306	374.69
554.519	370.69
554.732	348.69
554.944	356.69
555.157	345.69
555.37	356.69
555.583	329.69
555.795	363.69
556.008	323.69
556.221	338.69
556.433	350.69
556.646	354.69
556.859	327.69
557.071	334.69
557.284	332.69
557.496	327.69
557.709	323.69
557.921	315.69
558.134	328.69
558.346	316.69
558.559	346.69
558.771	329.69
558.984	319.69
559.196	310.69
559.409	316.69
559.621	316.69
559.833	327.69
560.046	321.69
560.258	315.69
560.47	322.69
560.683	324.69
560.895	308.69
561.107	318.69
561.32	326.69
561.532	322.69
561.744	309.69
561.956	310.69
562.168	310.69
562.381	308.69
562.593	318.69
562.805	331.69
563.017	308.69
563.229	339.69
563.441	323.69
563.653	315.69
563.865	330.69
564.077	324.69
564.289	327.69
564.501	342.69
564.713	332.69
564.925	342.69
565.137	341.69
565.349	353.69
565.561	358.69
565.773	358.69
565.985	360.69
566.197	391.69
566.408	401.69
566.62	404.69
566.832	487.69
567.044	428.69
567.255	451.69
567.467	459.69
567.679	493.69
567.891	494.69
568.102	508.69
568.314	481.69
568.526	470.69
568.737	425.69
568.949	434.69
569.161	400.69
569.372	374.69
569.584	377.69
569.795	366.69
570.007	341.69
570.218	361.69
570.43	362.69
570.641	344.69
570.853	332.69
571.064	336.69
571.276	331.69
571.487	337.69
571.698	306.69
571.91	313.69
572.121	326.69
572.333	300.69
572.544	286.69
572.755	281.69
572.966	286.69
573.178	292.69
573.389	289.69
573.6	272.69
573.811	277.69
574.023	280.69
574.234	261.69
574.445	276.69
574.656	282.69
574.867	295.69
575.078	278.69
575.289	282.69
575.501	268.69
575.712	279.69
575.923	262.69
576.134	267.69
576.345	270.69
576.556	278.69
576.767	280.69
576.978	267.69
577.188	273.69
577.399	261.69
577.61	266.69
577.821	263.69
578.032	272.69
578.243	286.69
578.454	405.69
578.665	323.69
578.875	291.69
579.086	257.69
579.297	258.69
579.508	246.69
579.718	262.69
579.929	258.69
580.14	249.69
580.35	257.69
580.561	247.69
580.772	252.69
580.982	275.69
581.193	267.69
581.403	272.69
581.614	256.69
581.825	247.69
582.035	254.69
582.246	253.69
582.456	247.69
582.667	254.69
582.877	232.69
583.087	249.69
583.298	257.69
583.508	240.69
583.719	250.69
583.929	250.69
584.139	237.69
584.35	252.69
584.56	256.69
584.77	244.69
584.981	262.69
585.191	250.69
585.401	250.69
585.611	229.69
585.821	237.69
586.032	260.69
586.242	246.69
586.452	252.69
586.662	242.69
586.872	258.69
587.082	247.69
587.292	244.69
587.502	255.69
587.713	248.69
587.923	255.69
588.133	237.69
588.343	248.69
588.553	260.69
588.762	246.69
588.972	239.69
589.182	253.69
589.392	259.69
589.602	240.69
589.812	243.69
590.022	238.69
590.232	237.69
590.441	258.69
590.651	254.69
590.861	267.69
591.071	243.69
591.281	245.69
591.49	243.69
591.7	269.69
591.91	264.69
592.119	277.69
592.329	286.69
592.539	275.69
592.748	278.69
592.958	275.69
593.167	285.69
593.377	299.69
593.587	313.69
593.796	296.69
594.006	270.69
594.215	291.69
594.424	290.69
594.634	289.69
594.843	280.69
595.053	268.69
595.262	280.69
595.472	258.69
595.681	265.69
595.89	254.69
596.1	256.69
596.309	255.69
596.518	244.69
596.727	249.69
596.937	252.69
597.146	244.69
597.355	242.69
597.564	232.69
597.774	228.69
597.983	229.69
598.192	225.69
598.401	203.69
598.61	208.69
598.819	215.69
599.028	216.69
599.237	215.69
599.446	222.69
599.655	214.69
599.864	218.69
600.073	227.69
600.282	206.69
600.491	218.69
600.7	216.69
600.909	225.69
601.118	233.69
601.327	218.69
601.536	217.69
601.745	226.69
601.953	226.69
602.162	223.69
602.371	239.69
602.58	211.69
602.789	208.69
602.997	214.69
603.206	218.69
603.415	210.69
603.623	226.69
603.832	209.69
604.041	212.69
604.249	209.69
604.458	180.69
604.666	207.69
604.875	203.69
605.084	203.69
605.292	209.69
605.501	198.69
605.709	216.69
605.918	203.69
606.126	206.69
606.334	218.69
606.543	211.69
606.751	217.69
606.96	197.69
607.168	204.69
607.376	205.69
607.585	221.69
607.793	224.69
608.001	196.69
608.21	197.69
608.418	219.69
608.626	204.69
608.834	202.69
609.043	214.69
609.251	192.69
609.459	189.69
609.667	203.69
609.875	199.69
610.083	207.69
610.291	207.69
610.499	201.69
610.707	209.69
610.916	204.69
611.124	199.69
611.332	204.69
611.54	211.69
611.748	203.69
611.955	203.69
612.163	201.69
612.371	203.69
612.579	220.69
612.787	188.69
612.995	205.69
613.203	217.69
613.411	207.69
613.618	202.69
613.826	200.69
614.034	197.69
614.242	191.69
614.449	191.69
614.657	193.69
614.865	204.69
615.072	205.69
615.28	200.69
615.488	181.69
615.695	188.69
615.903	207.69
616.111	200.69
616.318	204.69
616.526	198.69
616.733	194.69
616.941	190.69
617.148	207.69
617.356	181.69
617.563	197.69
617.771	192.69
617.978	198.69
618.185	188.69
618.393	208.69
618.6	208.69
618.807	189.69
619.015	187.69
619.222	202.69
619.429	185.69
619.637	194.69
619.844	195.69
620.051	185.69
620.258	191.69
620.466	199.69
620.673	190.69
620.88	180.69
621.087	175.69
621.294	194.69
621.501	187.69
621.708	182.69
621.915	188.69
622.122	193.69
622.329	192.69
622.536	187.69
622.743	194.69
622.95	192.69
623.157	179.69
623.364	184.69
623.571	186.69
623.778	176.69
623.985	188.69
624.192	173.69
624.399	194.69
624.606	191.69
624.812	180.69
625.019	180.69
625.226	167.69
625.433	181.69
625.639	192.69
625.846	184.69
626.053	178.69
626.259	182.69
626.466	187.69
626.673	167.69
626.879	179.69
627.086	184.69
627.293	191.69
627.499	167.69
627.706	169.69
627.912	190.69
628.119	154.69
628.325	176.69
628.532	178.69
628.738	168.69
628.945	177.69
629.151	181.69
629.357	178.69
629.564	166.69
629.77	178.69
629.976	156.69
630.183	160.69
630.389	170.69
630.595	168.69
630.802	178.69
631.008	183.69
631.214	161.69
631.42	166.69
631.627	182.69
631.833	170.69
632.039	174.69
632.245	155.69
632.451	180.69
632.657	161.69
632.863	170.69
633.069	156.69
633.275	175.69
633.481	158.69
633.688	168.69
633.893	157.69
634.099	164.69
634.305	150.69
634.511	154.69
634.717	149.69
634.923	145.69
635.129	162.69
635.335	153.69
635.541	163.69
635.747	161.69
635.952	174.69
636.158	159.69
636.364	162.69
636.57	174.69
636.775	169.69
636.981	162.69
637.187	171.69
637.392	163.69
637.598	179.69
637.804	163.69
638.009	156.69
638.215	147.69
638.421	170.69
638.626	153.69
638.832	159.69
639.037	142.69
639.243	156.69
639.448	158.69
639.654	150.69
639.859	137.69
640.065	132.69
640.27	150.69
640.475	137.69
640.681	144.69
640.886	146.69
641.091	148.69
641.297	141.69
641.502	143.69
641.707	154.69
641.913	150.69
642.118	148.69
642.323	138.69
642.528	143.69
642.733	144.69
642.939	149.69
643.144	141.69
643.349	143.69
643.554	136.69
643.759	150.69
643.964	134.69
644.169	149.69
644.374	149.69
644.579	136.69
644.784	147.69
644.989	153.69
645.194	131.69
645.399	152.69
645.604	152.69
645.809	140.69
646.014	131.69
646.219	144.69
646.423	163.69
646.628	151.69
646.833	150.69
647.038	138.69
647.243	156.69
647.447	150.69
647.652	152.69
647.857	156.69
648.062	165.69
648.266	148.69
648.471	144.69
648.676	144.69
648.88	161.69
649.085	144.69
649.289	165.69
649.494	135.69
649.698	157.69
649.903	158.69
650.107	144.69
650.312	160.69
650.516	147.69
650.721	142.69
650.925	146.69
651.13	135.69
651.334	140.69
651.539	140.69
651.743	144.69
651.947	126.69
652.152	155.69
652.356	138.69
652.56	122.69
652.764	128.69
652.969	116.69
653.173	135.69
653.377	123.69
653.581	130.69
653.785	114.69
653.99	123.69
654.194	121.69
654.398	131.69
654.602	121.69
654.806	136.69
655.01	137.69
655.214	115.69
655.418	114.69
655.622	113.69
655.826	107.69
656.03	128.69
656.234	122.69
656.438	131.69
656.642	130.69
656.846	133.69
657.049	118.69
657.253	99.69
657.457	126.69
657.661	110.69
657.865	119.69
658.068	102.69
658.272	87.69
658.476	107.69
658.68	102.69
658.883	96.69
659.087	106.69
659.291	100.69
659.494	95.69
659.698	97.69
659.901	96.69
660.105	89.69
660.309	85.69
660.512	98.69
660.716	93.69
660.919	103.69
661.123	90.69
661.326	85.69
661.53	66.69
661.733	86.69
661.936	82.69
662.14	106.69
662.343	73.69
662.546	78.69
662.75	88.69
662.953	93.69
663.156	76.69
663.36	85.69
663.563	78.69
663.766	84.69
663.969	89.69
664.173	80.69
664.376	89.69
664.579	82.69
664.782	95.69
664.985	77.69
665.188	81.69
665.391	81.69
665.594	91.69
665.797	92.69
666	87.69
666.203	78.69
666.406	91.69
666.609	84.69
666.812	83.69
667.015	71.69
667.218	74.69
667.421	83.69
667.624	70.69
667.827	86.69
668.03	95.69
668.232	90.69
668.435	81.69
668.638	66.69
668.841	87.69
669.043	78.69
669.246	80.69
669.449	67.69
669.651	81.69
669.854	74.69
670.057	82.69
670.259	76.69
670.462	63.69
670.665	82.69
670.867	94.69
671.07	81.69
671.272	74.69
671.475	58.69
671.677	69.69
671.88	69.69
672.082	66.69
672.284	85.69
672.487	80.69
672.689	81.69
672.892	72.69
