Data from 1984.PennyLincolnUp.Lamp.En5.5.200Scan.071819.P1_HRD10591_17-00-11-969.txt Node
Date: Thu Jul 18 17:00:11 EDT 2019
User: cochatt
Spectrometer: HR+D1059
Trigger mode: 1
Integration Time (sec): 1.000000E-1
Scans to average: 1
Electric dark correction enabled: true
Nonlinearity correction enabled: false
Boxcar width: 0
XAxis mode: Wavelengths
Number of Pixels in Spectrum: 2048
>>>>>Begin Spectral Data<<<<<
223.165	-20.62
223.4	-20.62
223.635	-20.62
223.869	-24.62
224.104	-15.62
224.338	-13.62
224.573	-13.62
224.808	-8.62
225.042	-9.62
225.277	-0.62
225.511	-7.62
225.746	10.38
225.98	-1.62
226.215	9.38
226.449	19.38
226.683	19.38
226.918	20.38
227.152	37.38
227.387	34.38
227.621	38.38
227.856	54.38
228.09	37.38
228.324	36.38
228.559	49.38
228.793	57.38
229.027	94.38
229.262	91.38
229.496	87.38
229.73	99.38
229.964	122.38
230.199	102.38
230.433	102.38
230.667	116.38
230.901	110.38
231.136	96.38
231.37	101.38
231.604	97.38
231.838	108.38
232.072	102.38
232.306	106.38
232.541	108.38
232.775	110.38
233.009	100.38
233.243	114.38
233.477	102.38
233.711	106.38
233.945	102.38
234.179	114.38
234.413	99.38
234.647	103.38
234.881	108.38
235.115	126.38
235.349	110.38
235.583	126.38
235.817	122.38
236.051	117.38
236.285	113.38
236.519	102.38
236.753	113.38
236.987	130.38
237.221	148.38
237.455	155.38
237.689	150.38
237.922	129.38
238.156	137.38
238.39	128.38
238.624	120.38
238.858	106.38
239.091	120.38
239.325	124.38
239.559	119.38
239.793	125.38
240.027	132.38
240.26	122.38
240.494	134.38
240.728	137.38
240.961	123.38
241.195	140.38
241.429	124.38
241.662	106.38
241.896	136.38
242.13	122.38
242.363	130.38
242.597	126.38
242.83	129.38
243.064	132.38
243.298	131.38
243.531	143.38
243.765	132.38
243.998	137.38
244.232	128.38
244.465	136.38
244.699	125.38
244.932	136.38
245.166	150.38
245.399	139.38
245.633	135.38
245.866	151.38
246.099	138.38
246.333	132.38
246.566	132.38
246.8	149.38
247.033	140.38
247.266	141.38
247.5	150.38
247.733	142.38
247.966	159.38
248.2	149.38
248.433	158.38
248.666	147.38
248.899	154.38
249.133	161.38
249.366	177.38
249.599	178.38
249.832	168.38
250.066	189.38
250.299	194.38
250.532	206.38
250.765	211.38
250.998	209.38
251.231	200.38
251.465	202.38
251.698	182.38
251.931	180.38
252.164	191.38
252.397	178.38
252.63	171.38
252.863	178.38
253.096	192.38
253.329	208.38
253.562	183.38
253.795	205.38
254.028	183.38
254.261	190.38
254.494	200.38
254.727	199.38
254.96	226.38
255.193	229.38
255.426	225.38
255.659	219.38
255.892	242.38
256.124	278.38
256.357	304.38
256.59	266.38
256.823	225.38
257.056	206.38
257.289	206.38
257.521	192.38
257.754	194.38
257.987	184.38
258.22	192.38
258.452	188.38
258.685	180.38
258.918	198.38
259.151	187.38
259.383	212.38
259.616	223.38
259.849	198.38
260.081	209.38
260.314	216.38
260.547	221.38
260.779	222.38
261.012	214.38
261.244	205.38
261.477	198.38
261.71	203.38
261.942	224.38
262.175	214.38
262.407	214.38
262.64	211.38
262.872	204.38
263.105	197.38
263.337	198.38
263.57	197.38
263.802	222.38
264.035	207.38
264.267	198.38
264.499	217.38
264.732	207.38
264.964	211.38
265.197	209.38
265.429	206.38
265.661	195.38
265.894	215.38
266.126	226.38
266.358	212.38
266.591	223.38
266.823	218.38
267.055	206.38
267.287	206.38
267.52	227.38
267.752	212.38
267.984	213.38
268.216	222.38
268.448	214.38
268.681	233.38
268.913	235.38
269.145	238.38
269.377	234.38
269.609	223.38
269.841	227.38
270.073	225.38
270.306	248.38
270.538	264.38
270.77	268.38
271.002	263.38
271.234	248.38
271.466	259.38
271.698	258.38
271.93	274.38
272.162	259.38
272.394	258.38
272.626	271.38
272.858	258.38
273.09	270.38
273.322	250.38
273.553	247.38
273.785	272.38
274.017	241.38
274.249	228.38
274.481	238.38
274.713	235.38
274.945	227.38
275.176	244.38
275.408	250.38
275.64	238.38
275.872	228.38
276.104	262.38
276.335	238.38
276.567	259.38
276.799	272.38
277.031	274.38
277.262	304.38
277.494	287.38
277.726	287.38
277.957	279.38
278.189	267.38
278.421	258.38
278.652	257.38
278.884	242.38
279.115	254.38
279.347	265.38
279.579	260.38
279.81	255.38
280.042	260.38
280.273	262.38
280.505	274.38
280.736	259.38
280.968	267.38
281.199	266.38
281.431	257.38
281.662	242.38
281.894	255.38
282.125	276.38
282.356	276.38
282.588	284.38
282.819	285.38
283.051	267.38
283.282	280.38
283.513	290.38
283.745	264.38
283.976	275.38
284.207	282.38
284.439	259.38
284.67	271.38
284.901	287.38
285.132	282.38
285.364	280.38
285.595	285.38
285.826	281.38
286.057	283.38
286.288	268.38
286.52	272.38
286.751	266.38
286.982	286.38
287.213	285.38
287.444	287.38
287.675	299.38
287.906	283.38
288.138	272.38
288.369	290.38
288.6	282.38
288.831	286.38
289.062	292.38
289.293	311.38
289.524	279.38
289.755	289.38
289.986	289.38
290.217	287.38
290.448	296.38
290.679	293.38
290.91	317.38
291.141	294.38
291.371	289.38
291.602	289.38
291.833	279.38
292.064	287.38
292.295	266.38
292.526	289.38
292.757	282.38
292.987	300.38
293.218	293.38
293.449	277.38
293.68	286.38
293.91	282.38
294.141	274.38
294.372	290.38
294.603	288.38
294.833	297.38
295.064	292.38
295.295	297.38
295.525	295.38
295.756	287.38
295.987	280.38
296.217	309.38
296.448	323.38
296.679	322.38
296.909	309.38
297.14	296.38
297.37	295.38
297.601	302.38
297.831	296.38
298.062	302.38
298.292	307.38
298.523	319.38
298.753	295.38
298.984	320.38
299.214	295.38
299.445	305.38
299.675	292.38
299.905	317.38
300.136	302.38
300.366	312.38
300.597	304.38
300.827	304.38
301.057	315.38
301.288	320.38
301.518	306.38
301.748	335.38
301.979	306.38
302.209	317.38
302.439	331.38
302.669	321.38
302.9	317.38
303.13	319.38
303.36	318.38
303.59	326.38
303.82	355.38
304.051	330.38
304.281	339.38
304.511	306.38
304.741	319.38
304.971	321.38
305.201	329.38
305.431	321.38
305.661	316.38
305.891	326.38
306.121	331.38
306.352	344.38
306.582	317.38
306.812	324.38
307.042	323.38
307.272	322.38
307.502	315.38
307.731	329.38
307.961	339.38
308.191	315.38
308.421	328.38
308.651	310.38
308.881	329.38
309.111	343.38
309.341	339.38
309.571	335.38
309.8	342.38
310.03	331.38
310.26	354.38
310.49	352.38
310.72	337.38
310.949	364.38
311.179	371.38
311.409	344.38
311.639	352.38
311.868	340.38
312.098	320.38
312.328	344.38
312.557	364.38
312.787	371.38
313.017	373.38
313.246	367.38
313.476	350.38
313.706	334.38
313.935	356.38
314.165	371.38
314.394	368.38
314.624	353.38
314.853	374.38
315.083	358.38
315.312	359.38
315.542	362.38
315.771	350.38
316.001	332.38
316.23	348.38
316.46	369.38
316.689	353.38
316.919	359.38
317.148	362.38
317.377	373.38
317.607	364.38
317.836	343.38
318.065	347.38
318.295	363.38
318.524	353.38
318.753	341.38
318.983	367.38
319.212	342.38
319.441	340.38
319.67	376.38
319.9	367.38
320.129	346.38
320.358	354.38
320.587	367.38
320.816	366.38
321.046	371.38
321.275	377.38
321.504	357.38
321.733	375.38
321.962	385.38
322.191	378.38
322.42	396.38
322.649	406.38
322.878	412.38
323.108	414.38
323.337	437.38
323.566	419.38
323.795	454.38
324.024	471.38
324.253	583.38
324.482	746.38
324.71	1068.38
324.939	1511.38
325.168	1317.38
325.397	726.38
325.626	535.38
325.855	468.38
326.084	446.38
326.313	457.38
326.542	460.38
326.77	476.38
326.999	559.38
327.228	726.38
327.457	1018.38
327.686	1211.38
327.914	850.38
328.143	634.38
328.372	608.38
328.6	554.38
328.829	518.38
329.058	520.38
329.287	537.38
329.515	534.38
329.744	524.38
329.972	578.38
330.201	634.38
330.43	726.38
330.658	660.38
330.887	540.38
331.115	552.38
331.344	509.38
331.572	500.38
331.801	467.38
332.03	479.38
332.258	472.38
332.486	477.38
332.715	467.38
332.943	488.38
333.172	509.38
333.4	495.38
333.629	534.38
333.857	569.38
334.085	602.38
334.314	715.38
334.542	818.38
334.771	863.38
334.999	660.38
335.227	562.38
335.455	509.38
335.684	486.38
335.912	461.38
336.14	427.38
336.369	451.38
336.597	456.38
336.825	427.38
337.053	450.38
337.281	423.38
337.51	441.38
337.738	423.38
337.966	398.38
338.194	412.38
338.422	426.38
338.65	397.38
338.878	408.38
339.106	407.38
339.334	404.38
339.562	398.38
339.79	410.38
340.018	394.38
340.246	403.38
340.474	396.38
340.702	401.38
340.93	373.38
341.158	398.38
341.386	411.38
341.614	388.38
341.842	395.38
342.07	390.38
342.298	395.38
342.526	401.38
342.754	379.38
342.981	388.38
343.209	388.38
343.437	383.38
343.665	400.38
343.893	441.38
344.12	458.38
344.348	442.38
344.576	415.38
344.804	417.38
345.031	395.38
345.259	411.38
345.487	404.38
345.714	374.38
345.942	402.38
346.17	392.38
346.397	395.38
346.625	393.38
346.853	389.38
347.08	362.38
347.308	392.38
347.535	369.38
347.763	402.38
347.99	383.38
348.218	397.38
348.445	386.38
348.673	375.38
348.9	398.38
349.128	370.38
349.355	361.38
349.583	366.38
349.81	370.38
350.037	359.38
350.265	377.38
350.492	366.38
350.72	375.38
350.947	388.38
351.174	391.38
351.402	353.38
351.629	368.38
351.856	355.38
352.083	383.38
352.311	385.38
352.538	367.38
352.765	363.38
352.992	386.38
353.22	372.38
353.447	370.38
353.674	374.38
353.901	364.38
354.128	358.38
354.355	348.38
354.583	341.38
354.81	367.38
355.037	353.38
355.264	347.38
355.491	350.38
355.718	364.38
355.945	357.38
356.172	346.38
356.399	345.38
356.626	359.38
356.853	353.38
357.08	354.38
357.307	366.38
357.534	357.38
357.761	347.38
357.988	364.38
358.215	363.38
358.441	361.38
358.668	348.38
358.895	362.38
359.122	350.38
359.349	364.38
359.576	357.38
359.802	374.38
360.029	399.38
360.256	390.38
360.483	385.38
360.709	382.38
360.936	369.38
361.163	360.38
361.39	368.38
361.616	368.38
361.843	376.38
362.07	346.38
362.296	347.38
362.523	362.38
362.749	359.38
362.976	345.38
363.203	368.38
363.429	370.38
363.656	365.38
363.882	341.38
364.109	358.38
364.335	362.38
364.562	358.38
364.788	341.38
365.015	358.38
365.241	352.38
365.468	374.38
365.694	372.38
365.92	366.38
366.147	357.38
366.373	349.38
366.599	359.38
366.826	343.38
367.052	347.38
367.278	355.38
367.505	350.38
367.731	367.38
367.957	342.38
368.184	358.38
368.41	356.38
368.636	369.38
368.862	378.38
369.089	361.38
369.315	371.38
369.541	362.38
369.767	361.38
369.993	357.38
370.219	375.38
370.445	347.38
370.672	378.38
370.898	348.38
371.124	367.38
371.35	378.38
371.576	372.38
371.802	369.38
372.028	372.38
372.254	356.38
372.48	371.38
372.706	368.38
372.932	378.38
373.158	381.38
373.384	376.38
373.61	359.38
373.835	346.38
374.061	361.38
374.287	372.38
374.513	390.38
374.739	379.38
374.965	382.38
375.191	390.38
375.416	387.38
375.642	366.38
375.868	372.38
376.094	367.38
376.319	359.38
376.545	366.38
376.771	357.38
376.997	360.38
377.222	362.38
377.448	366.38
377.674	354.38
377.899	334.38
378.125	352.38
378.35	367.38
378.576	361.38
378.802	347.38
379.027	360.38
379.253	347.38
379.478	340.38
379.704	371.38
379.929	332.38
380.155	363.38
380.38	376.38
380.606	366.38
380.831	358.38
381.057	377.38
381.282	360.38
381.507	352.38
381.733	361.38
381.958	356.38
382.184	363.38
382.409	379.38
382.634	382.38
382.86	354.38
383.085	374.38
383.31	393.38
383.535	392.38
383.761	374.38
383.986	414.38
384.211	400.38
384.436	395.38
384.662	398.38
384.887	410.38
385.112	391.38
385.337	416.38
385.562	409.38
385.787	396.38
386.013	412.38
386.238	408.38
386.463	405.38
386.688	428.38
386.913	408.38
387.138	384.38
387.363	444.38
387.588	417.38
387.813	416.38
388.038	403.38
388.263	422.38
388.488	406.38
388.713	418.38
388.938	396.38
389.163	401.38
389.387	412.38
389.612	388.38
389.837	411.38
390.062	395.38
390.287	389.38
390.512	389.38
390.736	388.38
390.961	393.38
391.186	397.38
391.411	392.38
391.636	437.38
391.86	448.38
392.085	449.38
392.31	440.38
392.534	424.38
392.759	435.38
392.984	425.38
393.208	418.38
393.433	395.38
393.658	402.38
393.882	418.38
394.107	431.38
394.331	414.38
394.556	410.38
394.78	403.38
395.005	428.38
395.229	447.38
395.454	440.38
395.678	446.38
395.903	440.38
396.127	457.38
396.352	442.38
396.576	445.38
396.801	423.38
397.025	414.38
397.249	442.38
397.474	442.38
397.698	447.38
397.922	457.38
398.147	456.38
398.371	487.38
398.595	475.38
398.82	479.38
399.044	515.38
399.268	540.38
399.492	563.38
399.717	625.38
399.941	632.38
400.165	597.38
400.389	611.38
400.613	533.38
400.837	523.38
401.062	499.38
401.286	496.38
401.51	499.38
401.734	473.38
401.958	495.38
402.182	497.38
402.406	496.38
402.63	500.38
402.854	504.38
403.078	503.38
403.302	539.38
403.526	525.38
403.75	531.38
403.974	520.38
404.198	542.38
404.422	518.38
404.645	536.38
404.869	548.38
405.093	571.38
405.317	627.38
405.541	649.38
405.765	588.38
405.988	570.38
406.212	552.38
406.436	559.38
406.66	560.38
406.883	569.38
407.107	576.38
407.331	591.38
407.555	643.38
407.778	646.38
408.002	597.38
408.226	573.38
408.449	549.38
408.673	552.38
408.896	563.38
409.12	578.38
409.344	563.38
409.567	502.38
409.791	513.38
410.014	490.38
410.238	512.38
410.461	505.38
410.685	483.38
410.908	514.38
411.132	526.38
411.355	536.38
411.578	538.38
411.802	521.38
412.025	515.38
412.249	535.38
412.472	563.38
412.695	596.38
412.919	601.38
413.142	538.38
413.365	516.38
413.589	512.38
413.812	493.38
414.035	474.38
414.258	486.38
414.482	502.38
414.705	491.38
414.928	479.38
415.151	491.38
415.374	471.38
415.597	475.38
415.821	475.38
416.044	454.38
416.267	479.38
416.49	492.38
416.713	496.38
416.936	469.38
417.159	464.38
417.382	466.38
417.605	492.38
417.828	498.38
418.051	486.38
418.274	482.38
418.497	482.38
418.72	489.38
418.943	471.38
419.166	497.38
419.389	535.38
419.611	539.38
419.834	510.38
420.057	528.38
420.28	545.38
420.503	559.38
420.726	516.38
420.948	524.38
421.171	527.38
421.394	533.38
421.617	492.38
421.839	468.38
422.062	492.38
422.285	492.38
422.507	523.38
422.73	555.38
422.953	554.38
423.175	502.38
423.398	494.38
423.621	498.38
423.843	522.38
424.066	550.38
424.288	522.38
424.511	506.38
424.733	546.38
424.956	585.38
425.178	560.38
425.401	578.38
425.623	583.38
425.846	532.38
426.068	514.38
426.291	486.38
426.513	490.38
426.735	482.38
426.958	530.38
427.18	570.38
427.402	653.38
427.625	695.38
427.847	624.38
428.069	601.38
428.292	533.38
428.514	480.38
428.736	470.38
428.958	459.38
429.181	449.38
429.403	457.38
429.625	460.38
429.847	481.38
430.069	518.38
430.292	491.38
430.514	451.38
430.736	450.38
430.958	454.38
431.18	418.38
431.402	419.38
431.624	422.38
431.846	424.38
432.068	434.38
432.29	448.38
432.512	446.38
432.734	435.38
432.956	448.38
433.178	455.38
433.4	444.38
433.622	455.38
433.844	436.38
434.066	447.38
434.287	446.38
434.509	466.38
434.731	466.38
434.953	495.38
435.175	491.38
435.397	492.38
435.618	481.38
435.84	505.38
436.062	551.38
436.284	599.38
436.505	526.38
436.727	482.38
436.949	460.38
437.17	452.38
437.392	457.38
437.614	470.38
437.835	478.38
438.057	530.38
438.278	587.38
438.5	568.38
438.721	638.38
438.943	594.38
439.165	485.38
439.386	459.38
439.608	475.38
439.829	468.38
440.05	497.38
440.272	497.38
440.493	493.38
440.715	467.38
440.936	456.38
441.158	445.38
441.379	460.38
441.6	455.38
441.822	497.38
442.043	506.38
442.264	553.38
442.486	577.38
442.707	528.38
442.928	485.38
443.149	487.38
443.371	508.38
443.592	542.38
443.813	568.38
444.034	631.38
444.255	532.38
444.476	526.38
444.698	535.38
444.919	541.38
445.14	664.38
445.361	583.38
445.582	554.38
445.803	530.38
446.024	607.38
446.245	609.38
446.466	564.38
446.687	501.38
446.908	492.38
447.129	454.38
447.35	432.38
447.571	440.38
447.792	423.38
448.013	414.38
448.234	450.38
448.455	477.38
448.675	522.38
448.896	608.38
449.117	514.38
449.338	494.38
449.559	575.38
449.779	637.38
450	520.38
450.221	447.38
450.442	422.38
450.662	432.38
450.883	433.38
451.104	425.38
451.324	433.38
451.545	436.38
451.766	404.38
451.986	403.38
452.207	388.38
452.428	400.38
452.648	395.38
452.869	396.38
453.089	417.38
453.31	418.38
453.53	416.38
453.751	402.38
453.971	422.38
454.192	411.38
454.412	389.38
454.633	398.38
454.853	376.38
455.073	394.38
455.294	406.38
455.514	444.38
455.734	416.38
455.955	382.38
456.175	379.38
456.395	384.38
456.616	397.38
456.836	386.38
457.056	379.38
457.276	384.38
457.497	402.38
457.717	375.38
457.937	363.38
458.157	382.38
458.377	406.38
458.598	418.38
458.818	445.38
459.038	484.38
459.258	510.38
459.478	472.38
459.698	447.38
459.918	451.38
460.138	451.38
460.358	452.38
460.578	456.38
460.798	462.38
461.018	491.38
461.238	475.38
461.458	474.38
461.678	463.38
461.898	454.38
462.118	463.38
462.338	476.38
462.558	498.38
462.777	536.38
462.997	540.38
463.217	561.38
463.437	581.38
463.657	530.38
463.876	522.38
464.096	535.38
464.316	502.38
464.536	535.38
464.755	512.38
464.975	502.38
465.195	497.38
465.414	535.38
465.634	487.38
465.854	447.38
466.073	442.38
466.293	431.38
466.512	418.38
466.732	436.38
466.951	420.38
467.171	417.38
467.391	430.38
467.61	435.38
467.829	425.38
468.049	452.38
468.268	450.38
468.488	447.38
468.707	422.38
468.927	411.38
469.146	412.38
469.365	404.38
469.585	414.38
469.804	427.38
470.023	422.38
470.243	437.38
470.462	418.38
470.681	438.38
470.901	446.38
471.12	406.38
471.339	434.38
471.558	418.38
471.777	425.38
471.997	423.38
472.216	481.38
472.435	586.38
472.654	532.38
472.873	477.38
473.092	453.38
473.311	422.38
473.53	438.38
473.749	419.38
473.968	451.38
474.187	479.38
474.406	516.38
474.625	432.38
474.844	422.38
475.063	422.38
475.282	416.38
475.501	433.38
475.72	406.38
475.939	405.38
476.158	423.38
476.377	430.38
476.596	420.38
476.814	431.38
477.033	426.38
477.252	436.38
477.471	456.38
477.69	438.38
477.908	456.38
478.127	457.38
478.346	450.38
478.564	475.38
478.783	483.38
479.002	465.38
479.22	490.38
479.439	483.38
479.658	482.38
479.876	511.38
480.095	530.38
480.313	553.38
480.532	546.38
480.751	552.38
480.969	574.38
481.188	764.38
481.406	892.38
481.624	650.38
481.843	586.38
482.061	542.38
482.28	531.38
482.498	493.38
482.717	512.38
482.935	482.38
483.153	478.38
483.372	483.38
483.59	514.38
483.808	502.38
484.027	501.38
484.245	503.38
484.463	473.38
484.681	496.38
484.9	488.38
485.118	482.38
485.336	486.38
485.554	510.38
485.772	482.38
485.99	514.38
486.209	492.38
486.427	497.38
486.645	502.38
486.863	529.38
487.081	510.38
487.299	522.38
487.517	525.38
487.735	496.38
487.953	514.38
488.171	511.38
488.389	506.38
488.607	514.38
488.825	518.38
489.043	490.38
489.261	521.38
489.479	527.38
489.696	525.38
489.914	517.38
490.132	526.38
490.35	534.38
490.568	540.38
490.786	570.38
491.003	540.38
491.221	578.38
491.439	588.38
491.657	588.38
491.874	584.38
492.092	582.38
492.31	594.38
492.527	595.38
492.745	608.38
492.963	609.38
493.18	619.38
493.398	600.38
493.615	612.38
493.833	596.38
494.05	612.38
494.268	621.38
494.485	585.38
494.703	620.38
494.92	589.38
495.138	594.38
495.355	604.38
495.573	608.38
495.79	608.38
496.008	585.38
496.225	588.38
496.442	594.38
496.66	603.38
496.877	581.38
497.094	606.38
497.312	600.38
497.529	627.38
497.746	610.38
497.963	615.38
498.181	648.38
498.398	662.38
498.615	680.38
498.832	703.38
499.049	731.38
499.267	762.38
499.484	818.38
499.701	859.38
499.918	939.38
500.135	1020.38
500.352	1094.38
500.569	1095.38
500.786	1126.38
501.003	1097.38
501.22	1011.38
501.437	951.38
501.654	870.38
501.871	849.38
502.088	793.38
502.305	753.38
502.522	710.38
502.739	699.38
502.956	676.38
503.172	632.38
503.389	600.38
503.606	616.38
503.823	617.38
504.04	604.38
504.256	594.38
504.473	595.38
504.69	629.38
504.907	615.38
505.123	606.38
505.34	560.38
505.557	552.38
505.773	536.38
505.99	554.38
506.207	538.38
506.423	544.38
506.64	543.38
506.856	514.38
507.073	532.38
507.289	534.38
507.506	527.38
507.722	547.38
507.939	531.38
508.155	549.38
508.372	496.38
508.588	479.38
508.805	497.38
509.021	500.38
509.238	503.38
509.454	507.38
509.67	497.38
509.887	477.38
510.103	496.38
510.319	515.38
510.536	567.38
510.752	864.38
510.968	700.38
511.184	484.38
511.401	476.38
511.617	506.38
511.833	512.38
512.049	521.38
512.265	501.38
512.481	504.38
512.698	483.38
512.914	488.38
513.13	479.38
513.346	482.38
513.562	492.38
513.778	489.38
513.994	480.38
514.21	507.38
514.426	488.38
514.642	495.38
514.858	530.38
515.074	576.38
515.29	631.38
515.506	836.38
515.721	711.38
515.937	552.38
516.153	520.38
516.369	517.38
516.585	522.38
516.801	529.38
517.016	541.38
517.232	543.38
517.448	562.38
517.664	587.38
517.879	551.38
518.095	567.38
518.311	570.38
518.527	550.38
518.742	518.38
518.958	510.38
519.173	500.38
519.389	511.38
519.605	491.38
519.82	486.38
520.036	497.38
520.251	489.38
520.467	516.38
520.682	516.38
520.898	509.38
521.113	482.38
521.329	516.38
521.544	573.38
521.76	673.38
521.975	1031.38
522.19	1035.38
522.406	600.38
522.621	514.38
522.836	472.38
523.052	455.38
523.267	458.38
523.482	459.38
523.698	451.38
523.913	462.38
524.128	431.38
524.343	416.38
524.559	406.38
524.774	414.38
524.989	441.38
525.204	406.38
525.419	430.38
525.634	394.38
525.849	399.38
526.064	406.38
526.28	407.38
526.495	387.38
526.71	412.38
526.925	386.38
527.14	394.38
527.355	394.38
527.57	409.38
527.785	407.38
527.999	397.38
528.214	399.38
528.429	386.38
528.644	411.38
528.859	412.38
529.074	412.38
529.289	406.38
529.503	438.38
529.718	432.38
529.933	401.38
530.148	426.38
530.363	406.38
530.577	400.38
530.792	392.38
531.007	422.38
531.221	398.38
531.436	420.38
531.651	395.38
531.865	395.38
532.08	388.38
532.295	384.38
532.509	402.38
532.724	409.38
532.938	394.38
533.153	410.38
533.367	390.38
533.582	390.38
533.796	379.38
534.011	402.38
534.225	376.38
534.44	400.38
534.654	391.38
534.868	380.38
535.083	411.38
535.297	374.38
535.511	392.38
535.726	409.38
535.94	409.38
536.154	402.38
536.369	388.38
536.583	389.38
536.797	382.38
537.011	403.38
537.225	367.38
537.44	378.38
537.654	375.38
537.868	356.38
538.082	368.38
538.296	384.38
538.51	377.38
538.724	375.38
538.938	382.38
539.153	376.38
539.367	384.38
539.581	378.38
539.795	377.38
540.009	370.38
540.222	361.38
540.436	367.38
540.65	374.38
540.864	391.38
541.078	393.38
541.292	389.38
541.506	368.38
541.72	356.38
541.934	360.38
542.147	377.38
542.361	393.38
542.575	369.38
542.789	378.38
543.002	363.38
543.216	372.38
543.43	359.38
543.644	380.38
543.857	361.38
544.071	394.38
544.285	379.38
544.498	384.38
544.712	370.38
544.925	372.38
545.139	381.38
545.352	368.38
545.566	389.38
545.779	380.38
545.993	378.38
546.206	375.38
546.42	362.38
546.633	350.38
546.847	352.38
547.06	370.38
547.274	387.38
547.487	358.38
547.7	351.38
547.914	366.38
548.127	362.38
548.34	364.38
548.554	378.38
548.767	363.38
548.98	348.38
549.193	376.38
549.407	374.38
549.62	373.38
549.833	387.38
550.046	354.38
550.259	361.38
550.473	374.38
550.686	341.38
550.899	376.38
551.112	364.38
551.325	358.38
551.538	369.38
551.751	348.38
551.964	377.38
552.177	360.38
552.39	380.38
552.603	368.38
552.816	396.38
553.029	382.38
553.242	385.38
553.455	384.38
553.667	375.38
553.88	399.38
554.093	383.38
554.306	400.38
554.519	378.38
554.732	377.38
554.944	379.38
555.157	351.38
555.37	348.38
555.583	352.38
555.795	354.38
556.008	359.38
556.221	349.38
556.433	347.38
556.646	346.38
556.859	342.38
557.071	337.38
557.284	345.38
557.496	343.38
557.709	330.38
557.921	349.38
558.134	329.38
558.346	323.38
558.559	340.38
558.771	342.38
558.984	336.38
559.196	333.38
559.409	334.38
559.621	320.38
559.833	335.38
560.046	325.38
560.258	305.38
560.47	307.38
560.683	310.38
560.895	311.38
561.107	329.38
561.32	327.38
561.532	322.38
561.744	319.38
561.956	329.38
562.168	323.38
562.381	322.38
562.593	335.38
562.805	317.38
563.017	334.38
563.229	319.38
563.441	337.38
563.653	340.38
563.865	342.38
564.077	317.38
564.289	332.38
564.501	340.38
564.713	349.38
564.925	353.38
565.137	341.38
565.349	370.38
565.561	364.38
565.773	359.38
565.985	383.38
566.197	412.38
566.408	404.38
566.62	428.38
566.832	459.38
567.044	478.38
567.255	459.38
567.467	476.38
567.679	488.38
567.891	491.38
568.102	529.38
568.314	501.38
568.526	459.38
568.737	459.38
568.949	420.38
569.161	392.38
569.372	367.38
569.584	356.38
569.795	340.38
570.007	358.38
570.218	393.38
570.43	368.38
570.641	361.38
570.853	338.38
571.064	338.38
571.276	336.38
571.487	329.38
571.698	314.38
571.91	317.38
572.121	314.38
572.333	323.38
572.544	291.38
572.755	298.38
572.966	307.38
573.178	296.38
573.389	300.38
573.6	304.38
573.811	294.38
574.023	289.38
574.234	284.38
574.445	288.38
574.656	287.38
574.867	275.38
575.078	274.38
575.289	284.38
575.501	288.38
575.712	281.38
575.923	266.38
576.134	280.38
576.345	290.38
576.556	297.38
576.767	290.38
576.978	285.38
577.188	297.38
577.399	278.38
577.61	266.38
577.821	285.38
578.032	283.38
578.243	302.38
578.454	403.38
578.665	326.38
578.875	267.38
579.086	265.38
579.297	270.38
579.508	278.38
579.718	271.38
579.929	259.38
580.14	282.38
580.35	254.38
580.561	279.38
580.772	256.38
580.982	256.38
581.193	254.38
581.403	270.38
581.614	262.38
581.825	255.38
582.035	267.38
582.246	256.38
582.456	262.38
582.667	262.38
582.877	259.38
583.087	256.38
583.298	265.38
583.508	260.38
583.719	248.38
583.929	259.38
584.139	224.38
584.35	242.38
584.56	256.38
584.77	260.38
584.981	257.38
585.191	264.38
585.401	242.38
585.611	244.38
585.821	242.38
586.032	250.38
586.242	245.38
586.452	243.38
586.662	249.38
586.872	245.38
587.082	261.38
587.292	249.38
587.502	262.38
587.713	243.38
587.923	270.38
588.133	244.38
588.343	248.38
588.553	249.38
588.762	251.38
588.972	238.38
589.182	278.38
589.392	249.38
589.602	262.38
589.812	268.38
590.022	266.38
590.232	234.38
590.441	255.38
590.651	248.38
590.861	254.38
591.071	260.38
591.281	254.38
591.49	256.38
591.7	263.38
591.91	260.38
592.119	261.38
592.329	260.38
592.539	292.38
592.748	264.38
592.958	297.38
593.167	273.38
593.377	287.38
593.587	311.38
593.796	297.38
594.006	286.38
594.215	287.38
594.424	294.38
594.634	288.38
594.843	281.38
595.053	281.38
595.262	267.38
595.472	267.38
595.681	267.38
595.89	242.38
596.1	244.38
596.309	258.38
596.518	240.38
596.727	247.38
596.937	245.38
597.146	235.38
597.355	242.38
597.564	249.38
597.774	240.38
597.983	249.38
598.192	238.38
598.401	224.38
598.61	224.38
598.819	251.38
599.028	221.38
599.237	232.38
599.446	226.38
599.655	254.38
599.864	223.38
600.073	242.38
600.282	241.38
600.491	225.38
600.7	221.38
600.909	225.38
601.118	210.38
601.327	225.38
601.536	219.38
601.745	221.38
601.953	235.38
602.162	225.38
602.371	217.38
602.58	202.38
602.789	211.38
602.997	222.38
603.206	218.38
603.415	219.38
603.623	229.38
603.832	205.38
604.041	211.38
604.249	218.38
604.458	202.38
604.666	205.38
604.875	211.38
605.084	210.38
605.292	208.38
605.501	227.38
605.709	218.38
605.918	224.38
606.126	215.38
606.334	217.38
606.543	213.38
606.751	224.38
606.96	216.38
607.168	222.38
607.376	207.38
607.585	203.38
607.793	210.38
608.001	196.38
608.21	187.38
608.418	207.38
608.626	220.38
608.834	220.38
609.043	208.38
609.251	204.38
609.459	203.38
609.667	214.38
609.875	220.38
610.083	195.38
610.291	207.38
610.499	200.38
610.707	205.38
610.916	200.38
611.124	229.38
611.332	231.38
611.54	209.38
611.748	222.38
611.955	215.38
612.163	205.38
612.371	210.38
612.579	204.38
612.787	207.38
612.995	202.38
613.203	193.38
613.411	191.38
613.618	212.38
613.826	179.38
614.034	193.38
614.242	202.38
614.449	194.38
614.657	181.38
614.865	194.38
615.072	208.38
615.28	203.38
615.488	219.38
615.695	210.38
615.903	197.38
616.111	204.38
616.318	212.38
616.526	204.38
616.733	219.38
616.941	196.38
617.148	210.38
617.356	193.38
617.563	210.38
617.771	201.38
617.978	198.38
618.185	218.38
618.393	195.38
618.6	188.38
618.807	191.38
619.015	184.38
619.222	197.38
619.429	189.38
619.637	182.38
619.844	197.38
620.051	192.38
620.258	184.38
620.466	193.38
620.673	187.38
620.88	193.38
621.087	193.38
621.294	195.38
621.501	176.38
621.708	184.38
621.915	195.38
622.122	191.38
622.329	192.38
622.536	183.38
622.743	195.38
622.95	182.38
623.157	184.38
623.364	183.38
623.571	186.38
623.778	177.38
623.985	193.38
624.192	175.38
624.399	179.38
624.606	182.38
624.812	186.38
625.019	175.38
625.226	190.38
625.433	176.38
625.639	180.38
625.846	176.38
626.053	172.38
626.259	177.38
626.466	180.38
626.673	188.38
626.879	185.38
627.086	185.38
627.293	181.38
627.499	194.38
627.706	172.38
627.912	194.38
628.119	182.38
628.325	166.38
628.532	174.38
628.738	179.38
628.945	167.38
629.151	164.38
629.357	175.38
629.564	183.38
629.77	163.38
629.976	176.38
630.183	166.38
630.389	176.38
630.595	172.38
630.802	162.38
631.008	163.38
631.214	164.38
631.42	158.38
631.627	176.38
631.833	159.38
632.039	173.38
632.245	174.38
632.451	183.38
632.657	178.38
632.863	162.38
633.069	171.38
633.275	169.38
633.481	161.38
633.688	158.38
633.893	168.38
634.099	155.38
634.305	161.38
634.511	168.38
634.717	157.38
634.923	146.38
635.129	151.38
635.335	168.38
635.541	157.38
635.747	162.38
635.952	165.38
636.158	174.38
636.364	176.38
636.57	190.38
636.775	155.38
636.981	166.38
637.187	164.38
637.392	169.38
637.598	175.38
637.804	160.38
638.009	169.38
638.215	154.38
638.421	172.38
638.626	164.38
638.832	166.38
639.037	161.38
639.243	163.38
639.448	156.38
639.654	150.38
639.859	140.38
640.065	155.38
640.27	163.38
640.475	144.38
640.681	150.38
640.886	158.38
641.091	154.38
641.297	163.38
641.502	161.38
641.707	156.38
641.913	162.38
642.118	152.38
642.323	162.38
642.528	159.38
642.733	140.38
642.939	150.38
643.144	151.38
643.349	157.38
643.554	150.38
643.759	140.38
643.964	128.38
644.169	151.38
644.374	152.38
644.579	167.38
644.784	137.38
644.989	144.38
645.194	149.38
645.399	148.38
645.604	125.38
645.809	152.38
646.014	138.38
646.219	140.38
646.423	153.38
646.628	154.38
646.833	144.38
647.038	147.38
647.243	154.38
647.447	138.38
647.652	150.38
647.857	164.38
648.062	153.38
648.266	147.38
648.471	148.38
648.676	157.38
648.88	149.38
649.085	146.38
649.289	159.38
649.494	154.38
649.698	178.38
649.903	152.38
650.107	154.38
650.312	162.38
650.516	143.38
650.721	141.38
650.925	119.38
651.13	129.38
651.334	131.38
651.539	150.38
651.743	131.38
651.947	140.38
652.152	136.38
652.356	135.38
652.56	126.38
652.764	139.38
652.969	105.38
653.173	123.38
653.377	120.38
653.581	126.38
653.785	123.38
653.99	132.38
654.194	126.38
654.398	130.38
654.602	120.38
654.806	124.38
655.01	128.38
655.214	134.38
655.418	122.38
655.622	114.38
655.826	133.38
656.03	136.38
656.234	127.38
656.438	134.38
656.642	126.38
656.846	127.38
657.049	132.38
657.253	99.38
657.457	122.38
657.661	103.38
657.865	107.38
658.068	110.38
658.272	106.38
658.476	98.38
658.68	97.38
658.883	105.38
659.087	94.38
659.291	103.38
659.494	88.38
659.698	97.38
659.901	99.38
660.105	100.38
660.309	98.38
660.512	96.38
660.716	82.38
660.919	93.38
661.123	91.38
661.326	90.38
661.53	89.38
661.733	91.38
661.936	85.38
662.14	97.38
662.343	86.38
662.546	79.38
662.75	79.38
662.953	82.38
663.156	75.38
663.36	75.38
663.563	84.38
663.766	71.38
663.969	86.38
664.173	84.38
664.376	91.38
664.579	77.38
664.782	83.38
664.985	79.38
665.188	79.38
665.391	87.38
665.594	72.38
665.797	86.38
666	79.38
666.203	82.38
666.406	65.38
666.609	83.38
666.812	91.38
667.015	89.38
667.218	84.38
667.421	72.38
667.624	91.38
667.827	94.38
668.03	72.38
668.232	78.38
668.435	76.38
668.638	87.38
668.841	64.38
669.043	82.38
669.246	81.38
669.449	80.38
669.651	76.38
669.854	79.38
670.057	69.38
670.259	95.38
670.462	90.38
670.665	81.38
670.867	75.38
671.07	75.38
671.272	80.38
671.475	78.38
671.677	69.38
671.88	88.38
672.082	68.38
672.284	81.38
672.487	82.38
672.689	91.38
672.892	74.38
