Data from 1985.PennyLincolnUp.Lamp.En5.5.200Scan.071819.P1_HRD10591_17-02-17-970.txt Node
Date: Thu Jul 18 17:02:17 EDT 2019
User: cochatt
Spectrometer: HR+D1059
Trigger mode: 1
Integration Time (sec): 1.000000E-1
Scans to average: 1
Electric dark correction enabled: true
Nonlinearity correction enabled: false
Boxcar width: 0
XAxis mode: Wavelengths
Number of Pixels in Spectrum: 2048
>>>>>Begin Spectral Data<<<<<
223.165	-14.25
223.4	-14.25
223.635	-14.25
223.869	-26.25
224.104	-14.25
224.338	0.75
224.573	-0.25
224.808	-11.25
225.042	-25.25
225.277	0.75
225.511	-1.25
225.746	1.75
225.98	17.75
226.215	-1.25
226.449	13.75
226.683	18.75
226.918	15.75
227.152	24.75
227.387	28.75
227.621	29.75
227.856	32.75
228.09	40.75
228.324	45.75
228.559	65.75
228.793	64.75
229.027	90.75
229.262	96.75
229.496	109.75
229.73	115.75
229.964	131.75
230.199	95.75
230.433	108.75
230.667	110.75
230.901	111.75
231.136	101.75
231.37	103.75
231.604	105.75
231.838	116.75
232.072	104.75
232.306	102.75
232.541	111.75
232.775	110.75
233.009	110.75
233.243	100.75
233.477	109.75
233.711	106.75
233.945	123.75
234.179	122.75
234.413	110.75
234.647	104.75
234.881	110.75
235.115	128.75
235.349	105.75
235.583	109.75
235.817	99.75
236.051	124.75
236.285	119.75
236.519	116.75
236.753	131.75
236.987	122.75
237.221	153.75
237.455	188.75
237.689	160.75
237.922	135.75
238.156	129.75
238.39	121.75
238.624	125.75
238.858	126.75
239.091	118.75
239.325	100.75
239.559	120.75
239.793	115.75
240.027	142.75
240.26	128.75
240.494	137.75
240.728	149.75
240.961	127.75
241.195	125.75
241.429	132.75
241.662	123.75
241.896	122.75
242.13	129.75
242.363	127.75
242.597	143.75
242.83	134.75
243.064	123.75
243.298	149.75
243.531	148.75
243.765	129.75
243.998	121.75
244.232	132.75
244.465	144.75
244.699	162.75
244.932	138.75
245.166	131.75
245.399	131.75
245.633	131.75
245.866	138.75
246.099	133.75
246.333	134.75
246.566	145.75
246.8	139.75
247.033	143.75
247.266	160.75
247.5	140.75
247.733	138.75
247.966	149.75
248.2	166.75
248.433	164.75
248.666	168.75
248.899	164.75
249.133	174.75
249.366	186.75
249.599	173.75
249.832	165.75
250.066	150.75
250.299	181.75
250.532	174.75
250.765	174.75
250.998	206.75
251.231	213.75
251.465	194.75
251.698	181.75
251.931	181.75
252.164	205.75
252.397	197.75
252.63	184.75
252.863	186.75
253.096	199.75
253.329	196.75
253.562	195.75
253.795	205.75
254.028	197.75
254.261	188.75
254.494	213.75
254.727	218.75
254.96	277.75
255.193	260.75
255.426	231.75
255.659	216.75
255.892	210.75
256.124	208.75
256.357	209.75
256.59	188.75
256.823	205.75
257.056	196.75
257.289	190.75
257.521	212.75
257.754	204.75
257.987	190.75
258.22	202.75
258.452	186.75
258.685	186.75
258.918	188.75
259.151	201.75
259.383	198.75
259.616	214.75
259.849	202.75
260.081	222.75
260.314	240.75
260.547	249.75
260.779	228.75
261.012	226.75
261.244	200.75
261.477	213.75
261.71	225.75
261.942	215.75
262.175	221.75
262.407	199.75
262.64	208.75
262.872	214.75
263.105	207.75
263.337	202.75
263.57	202.75
263.802	210.75
264.035	207.75
264.267	210.75
264.499	215.75
264.732	218.75
264.964	216.75
265.197	199.75
265.429	199.75
265.661	196.75
265.894	211.75
266.126	209.75
266.358	208.75
266.591	202.75
266.823	212.75
267.055	226.75
267.287	237.75
267.52	240.75
267.752	215.75
267.984	243.75
268.216	224.75
268.448	225.75
268.681	245.75
268.913	233.75
269.145	265.75
269.377	246.75
269.609	266.75
269.841	249.75
270.073	254.75
270.306	285.75
270.538	314.75
270.77	313.75
271.002	297.75
271.234	281.75
271.466	298.75
271.698	300.75
271.93	322.75
272.162	308.75
272.394	307.75
272.626	288.75
272.858	280.75
273.09	268.75
273.322	272.75
273.553	265.75
273.785	268.75
274.017	266.75
274.249	252.75
274.481	268.75
274.713	245.75
274.945	276.75
275.176	276.75
275.408	270.75
275.64	269.75
275.872	264.75
276.104	259.75
276.335	263.75
276.567	266.75
276.799	287.75
277.031	286.75
277.262	319.75
277.494	314.75
277.726	300.75
277.957	306.75
278.189	292.75
278.421	274.75
278.652	279.75
278.884	280.75
279.115	280.75
279.347	257.75
279.579	276.75
279.81	273.75
280.042	268.75
280.273	269.75
280.505	282.75
280.736	270.75
280.968	264.75
281.199	269.75
281.431	289.75
281.662	269.75
281.894	270.75
282.125	296.75
282.356	288.75
282.588	316.75
282.819	318.75
283.051	293.75
283.282	276.75
283.513	274.75
283.745	307.75
283.976	291.75
284.207	296.75
284.439	282.75
284.67	283.75
284.901	285.75
285.132	297.75
285.364	284.75
285.595	302.75
285.826	312.75
286.057	287.75
286.288	269.75
286.52	287.75
286.751	287.75
286.982	302.75
287.213	294.75
287.444	311.75
287.675	308.75
287.906	297.75
288.138	318.75
288.369	311.75
288.6	318.75
288.831	319.75
289.062	307.75
289.293	305.75
289.524	309.75
289.755	314.75
289.986	305.75
290.217	284.75
290.448	312.75
290.679	304.75
290.91	308.75
291.141	293.75
291.371	290.75
291.602	330.75
291.833	313.75
292.064	296.75
292.295	308.75
292.526	303.75
292.757	313.75
292.987	313.75
293.218	296.75
293.449	306.75
293.68	323.75
293.91	325.75
294.141	317.75
294.372	311.75
294.603	296.75
294.833	309.75
295.064	320.75
295.295	329.75
295.525	317.75
295.756	318.75
295.987	322.75
296.217	340.75
296.448	343.75
296.679	330.75
296.909	321.75
297.14	304.75
297.37	335.75
297.601	315.75
297.831	324.75
298.062	341.75
298.292	334.75
298.523	321.75
298.753	325.75
298.984	339.75
299.214	324.75
299.445	344.75
299.675	331.75
299.905	337.75
300.136	330.75
300.366	344.75
300.597	349.75
300.827	316.75
301.057	336.75
301.288	338.75
301.518	329.75
301.748	351.75
301.979	357.75
302.209	365.75
302.439	341.75
302.669	356.75
302.9	342.75
303.13	346.75
303.36	368.75
303.59	361.75
303.82	357.75
304.051	362.75
304.281	342.75
304.511	336.75
304.741	326.75
304.971	339.75
305.201	349.75
305.431	364.75
305.661	348.75
305.891	349.75
306.121	360.75
306.352	362.75
306.582	338.75
306.812	344.75
307.042	374.75
307.272	359.75
307.502	342.75
307.731	342.75
307.961	352.75
308.191	340.75
308.421	357.75
308.651	387.75
308.881	343.75
309.111	355.75
309.341	389.75
309.571	376.75
309.8	360.75
310.03	376.75
310.26	398.75
310.49	406.75
310.72	399.75
310.949	404.75
311.179	424.75
311.409	390.75
311.639	392.75
311.868	401.75
312.098	394.75
312.328	414.75
312.557	412.75
312.787	403.75
313.017	424.75
313.246	408.75
313.476	397.75
313.706	401.75
313.935	393.75
314.165	402.75
314.394	411.75
314.624	415.75
314.853	403.75
315.083	409.75
315.312	404.75
315.542	384.75
315.771	384.75
316.001	388.75
316.23	385.75
316.46	401.75
316.689	380.75
316.919	406.75
317.148	413.75
317.377	400.75
317.607	413.75
317.836	407.75
318.065	375.75
318.295	390.75
318.524	399.75
318.753	380.75
318.983	398.75
319.212	397.75
319.441	407.75
319.67	410.75
319.9	394.75
320.129	394.75
320.358	389.75
320.587	403.75
320.816	390.75
321.046	416.75
321.275	407.75
321.504	409.75
321.733	413.75
321.962	406.75
322.191	449.75
322.42	466.75
322.649	447.75
322.878	458.75
323.108	463.75
323.337	479.75
323.566	485.75
323.795	530.75
324.024	548.75
324.253	648.75
324.482	876.75
324.71	1337.75
324.939	1889.75
325.168	1607.75
325.397	848.75
325.626	607.75
325.855	531.75
326.084	521.75
326.313	485.75
326.542	502.75
326.77	534.75
326.999	623.75
327.228	812.75
327.457	1177.75
327.686	1415.75
327.914	956.75
328.143	659.75
328.372	570.75
328.6	572.75
328.829	552.75
329.058	547.75
329.287	546.75
329.515	536.75
329.744	513.75
329.972	495.75
330.201	506.75
330.43	518.75
330.658	566.75
330.887	587.75
331.115	585.75
331.344	508.75
331.572	502.75
331.801	496.75
332.03	482.75
332.258	477.75
332.486	479.75
332.715	479.75
332.943	490.75
333.172	480.75
333.4	483.75
333.629	483.75
333.857	507.75
334.085	495.75
334.314	484.75
334.542	517.75
334.771	530.75
334.999	508.75
335.227	470.75
335.455	488.75
335.684	485.75
335.912	492.75
336.14	462.75
336.369	464.75
336.597	469.75
336.825	461.75
337.053	499.75
337.281	458.75
337.51	464.75
337.738	448.75
337.966	450.75
338.194	452.75
338.422	480.75
338.65	454.75
338.878	470.75
339.106	465.75
339.334	446.75
339.562	461.75
339.79	460.75
340.018	457.75
340.246	436.75
340.474	469.75
340.702	465.75
340.93	474.75
341.158	448.75
341.386	436.75
341.614	459.75
341.842	444.75
342.07	433.75
342.298	422.75
342.526	421.75
342.754	442.75
342.981	424.75
343.209	432.75
343.437	465.75
343.665	469.75
343.893	478.75
344.12	464.75
344.348	465.75
344.576	479.75
344.804	445.75
345.031	464.75
345.259	469.75
345.487	457.75
345.714	449.75
345.942	447.75
346.17	445.75
346.397	425.75
346.625	452.75
346.853	414.75
347.08	419.75
347.308	428.75
347.535	443.75
347.763	441.75
347.99	431.75
348.218	426.75
348.445	436.75
348.673	467.75
348.9	407.75
349.128	438.75
349.355	428.75
349.583	417.75
349.81	431.75
350.037	412.75
350.265	422.75
350.492	412.75
350.72	417.75
350.947	419.75
351.174	413.75
351.402	444.75
351.629	428.75
351.856	423.75
352.083	440.75
352.311	449.75
352.538	434.75
352.765	429.75
352.992	417.75
353.22	421.75
353.447	403.75
353.674	416.75
353.901	415.75
354.128	409.75
354.355	400.75
354.583	408.75
354.81	405.75
355.037	402.75
355.264	405.75
355.491	382.75
355.718	406.75
355.945	399.75
356.172	399.75
356.399	401.75
356.626	412.75
356.853	403.75
357.08	404.75
357.307	393.75
357.534	411.75
357.761	381.75
357.988	400.75
358.215	394.75
358.441	406.75
358.668	384.75
358.895	418.75
359.122	431.75
359.349	401.75
359.576	423.75
359.802	443.75
360.029	444.75
360.256	468.75
360.483	469.75
360.709	421.75
360.936	414.75
361.163	431.75
361.39	429.75
361.616	417.75
361.843	401.75
362.07	420.75
362.296	425.75
362.523	417.75
362.749	416.75
362.976	396.75
363.203	416.75
363.429	394.75
363.656	420.75
363.882	392.75
364.109	409.75
364.335	401.75
364.562	392.75
364.788	384.75
365.015	420.75
365.241	400.75
365.468	425.75
365.694	400.75
365.92	430.75
366.147	399.75
366.373	394.75
366.599	403.75
366.826	418.75
367.052	421.75
367.278	403.75
367.505	374.75
367.731	402.75
367.957	403.75
368.184	397.75
368.41	386.75
368.636	423.75
368.862	426.75
369.089	420.75
369.315	405.75
369.541	414.75
369.767	408.75
369.993	393.75
370.219	416.75
370.445	422.75
370.672	405.75
370.898	399.75
371.124	408.75
371.35	402.75
371.576	409.75
371.802	409.75
372.028	396.75
372.254	400.75
372.48	407.75
372.706	416.75
372.932	422.75
373.158	405.75
373.384	407.75
373.61	404.75
373.835	403.75
374.061	408.75
374.287	409.75
374.513	409.75
374.739	414.75
374.965	423.75
375.191	431.75
375.416	417.75
375.642	414.75
375.868	410.75
376.094	393.75
376.319	406.75
376.545	402.75
376.771	393.75
376.997	404.75
377.222	411.75
377.448	407.75
377.674	403.75
377.899	400.75
378.125	400.75
378.35	398.75
378.576	404.75
378.802	403.75
379.027	407.75
379.253	403.75
379.478	414.75
379.704	395.75
379.929	395.75
380.155	397.75
380.38	389.75
380.606	414.75
380.831	394.75
381.057	402.75
381.282	415.75
381.507	409.75
381.733	384.75
381.958	403.75
382.184	402.75
382.409	413.75
382.634	398.75
382.86	422.75
383.085	394.75
383.31	420.75
383.535	413.75
383.761	414.75
383.986	435.75
384.211	441.75
384.436	438.75
384.662	433.75
384.887	456.75
385.112	418.75
385.337	448.75
385.562	428.75
385.787	450.75
386.013	473.75
386.238	449.75
386.463	465.75
386.688	437.75
386.913	445.75
387.138	444.75
387.363	428.75
387.588	457.75
387.813	447.75
388.038	463.75
388.263	441.75
388.488	451.75
388.713	448.75
388.938	458.75
389.163	451.75
389.387	436.75
389.612	451.75
389.837	433.75
390.062	454.75
390.287	453.75
390.512	436.75
390.736	451.75
390.961	438.75
391.186	456.75
391.411	469.75
391.636	472.75
391.86	473.75
392.085	475.75
392.31	468.75
392.534	469.75
392.759	457.75
392.984	449.75
393.208	473.75
393.433	445.75
393.658	443.75
393.882	458.75
394.107	469.75
394.331	456.75
394.556	449.75
394.78	456.75
395.005	466.75
395.229	476.75
395.454	471.75
395.678	468.75
395.903	478.75
396.127	502.75
396.352	492.75
396.576	481.75
396.801	473.75
397.025	472.75
397.249	467.75
397.474	471.75
397.698	487.75
397.922	489.75
398.147	502.75
398.371	514.75
398.595	504.75
398.82	519.75
399.044	527.75
399.268	552.75
399.492	613.75
399.717	631.75
399.941	661.75
400.165	644.75
400.389	665.75
400.613	591.75
400.837	574.75
401.062	542.75
401.286	522.75
401.51	512.75
401.734	523.75
401.958	526.75
402.182	544.75
402.406	539.75
402.63	533.75
402.854	540.75
403.078	544.75
403.302	542.75
403.526	559.75
403.75	576.75
403.974	560.75
404.198	530.75
404.422	553.75
404.645	566.75
404.869	543.75
405.093	556.75
405.317	567.75
405.541	598.75
405.765	560.75
405.988	568.75
406.212	570.75
406.436	578.75
406.66	569.75
406.883	589.75
407.107	608.75
407.331	668.75
407.555	721.75
407.778	705.75
408.002	659.75
408.226	606.75
408.449	611.75
408.673	601.75
408.896	630.75
409.12	632.75
409.344	609.75
409.567	550.75
409.791	556.75
410.014	532.75
410.238	528.75
410.461	531.75
410.685	532.75
410.908	569.75
411.132	582.75
411.355	600.75
411.578	572.75
411.802	546.75
412.025	535.75
412.249	512.75
412.472	540.75
412.695	540.75
412.919	521.75
413.142	526.75
413.365	533.75
413.589	526.75
413.812	501.75
414.035	509.75
414.258	512.75
414.482	505.75
414.705	518.75
414.928	496.75
415.151	500.75
415.374	498.75
415.597	481.75
415.821	512.75
416.044	496.75
416.267	493.75
416.49	520.75
416.713	490.75
416.936	495.75
417.159	496.75
417.382	501.75
417.605	489.75
417.828	513.75
418.051	526.75
418.274	518.75
418.497	517.75
418.72	513.75
418.943	488.75
419.166	538.75
419.389	562.75
419.611	578.75
419.834	516.75
420.057	525.75
420.28	538.75
420.503	485.75
420.726	536.75
420.948	530.75
421.171	568.75
421.394	583.75
421.617	536.75
421.839	508.75
422.062	541.75
422.285	535.75
422.507	568.75
422.73	644.75
422.953	615.75
423.175	544.75
423.398	555.75
423.621	537.75
423.843	557.75
424.066	555.75
424.288	551.75
424.511	555.75
424.733	623.75
424.956	681.75
425.178	667.75
425.401	650.75
425.623	691.75
425.846	602.75
426.068	578.75
426.291	542.75
426.513	552.75
426.735	549.75
426.958	574.75
427.18	661.75
427.402	768.75
427.625	839.75
427.847	728.75
428.069	593.75
428.292	560.75
428.514	536.75
428.736	504.75
428.958	509.75
429.181	498.75
429.403	475.75
429.625	512.75
429.847	528.75
430.069	578.75
430.292	569.75
430.514	500.75
430.736	481.75
430.958	484.75
431.18	492.75
431.402	488.75
431.624	476.75
431.846	469.75
432.068	486.75
432.29	473.75
432.512	492.75
432.734	486.75
432.956	467.75
433.178	492.75
433.4	446.75
433.622	481.75
433.844	482.75
434.066	483.75
434.287	484.75
434.509	486.75
434.731	509.75
434.953	504.75
435.175	526.75
435.397	546.75
435.618	557.75
435.84	583.75
436.062	670.75
436.284	705.75
436.505	585.75
436.727	512.75
436.949	488.75
437.17	498.75
437.392	494.75
437.614	508.75
437.835	539.75
438.057	617.75
438.278	706.75
438.5	691.75
438.721	753.75
438.943	706.75
439.165	562.75
439.386	539.75
439.608	530.75
439.829	535.75
440.05	565.75
440.272	586.75
440.493	538.75
440.715	521.75
440.936	516.75
441.158	526.75
441.379	526.75
441.6	515.75
441.822	552.75
442.043	586.75
442.264	656.75
442.486	664.75
442.707	565.75
442.928	551.75
443.149	544.75
443.371	579.75
443.592	596.75
443.813	690.75
444.034	742.75
444.255	641.75
444.476	587.75
444.698	576.75
444.919	580.75
445.14	685.75
445.361	644.75
445.582	570.75
445.803	635.75
446.024	720.75
446.245	702.75
446.466	651.75
446.687	552.75
446.908	538.75
447.129	509.75
447.35	492.75
447.571	478.75
447.792	469.75
448.013	509.75
448.234	518.75
448.455	571.75
448.675	658.75
448.896	746.75
449.117	646.75
449.338	600.75
449.559	690.75
449.779	777.75
450	613.75
450.221	516.75
450.442	512.75
450.662	489.75
450.883	464.75
451.104	472.75
451.324	498.75
451.545	448.75
451.766	459.75
451.986	424.75
452.207	452.75
452.428	431.75
452.648	440.75
452.869	434.75
453.089	478.75
453.31	465.75
453.53	458.75
453.751	445.75
453.971	467.75
454.192	447.75
454.412	450.75
454.633	441.75
454.853	439.75
455.073	445.75
455.294	463.75
455.514	512.75
455.734	496.75
455.955	455.75
456.175	421.75
456.395	425.75
456.616	416.75
456.836	422.75
457.056	408.75
457.276	415.75
457.497	417.75
457.717	419.75
457.937	452.75
458.157	428.75
458.377	439.75
458.598	457.75
458.818	514.75
459.038	568.75
459.258	591.75
459.478	497.75
459.698	476.75
459.918	450.75
460.138	495.75
460.358	476.75
460.578	485.75
460.798	530.75
461.018	525.75
461.238	518.75
461.458	518.75
461.678	497.75
461.898	506.75
462.118	518.75
462.338	534.75
462.558	549.75
462.777	523.75
462.997	550.75
463.217	614.75
463.437	593.75
463.657	585.75
463.876	515.75
464.096	536.75
464.316	560.75
464.536	559.75
464.755	576.75
464.975	569.75
465.195	581.75
465.414	618.75
465.634	580.75
465.854	497.75
466.073	490.75
466.293	481.75
466.512	462.75
466.732	448.75
466.951	497.75
467.171	464.75
467.391	456.75
467.61	464.75
467.829	456.75
468.049	462.75
468.268	442.75
468.488	454.75
468.707	464.75
468.927	463.75
469.146	453.75
469.365	470.75
469.585	437.75
469.804	457.75
470.023	493.75
470.243	442.75
470.462	471.75
470.681	505.75
470.901	482.75
471.12	486.75
471.339	479.75
471.558	472.75
471.777	473.75
471.997	472.75
472.216	441.75
472.435	440.75
472.654	458.75
472.873	455.75
473.092	470.75
473.311	443.75
473.53	460.75
473.749	462.75
473.968	497.75
474.187	567.75
474.406	622.75
474.625	508.75
474.844	477.75
475.063	475.75
475.282	464.75
475.501	446.75
475.72	467.75
475.939	465.75
476.158	481.75
476.377	466.75
476.596	474.75
476.814	490.75
477.033	483.75
477.252	492.75
477.471	503.75
477.69	506.75
477.908	515.75
478.127	509.75
478.346	515.75
478.564	532.75
478.783	518.75
479.002	537.75
479.22	554.75
479.439	545.75
479.658	548.75
479.876	544.75
480.095	562.75
480.313	578.75
480.532	593.75
480.751	572.75
480.969	548.75
481.188	552.75
481.406	569.75
481.624	553.75
481.843	532.75
482.061	527.75
482.28	549.75
482.498	543.75
482.717	538.75
482.935	542.75
483.153	544.75
483.372	551.75
483.59	533.75
483.808	531.75
484.027	522.75
484.245	565.75
484.463	538.75
484.681	550.75
484.9	543.75
485.118	558.75
485.336	542.75
485.554	548.75
485.772	567.75
485.99	560.75
486.209	549.75
486.427	544.75
486.645	572.75
486.863	566.75
487.081	583.75
487.299	570.75
487.517	550.75
487.735	531.75
487.953	567.75
488.171	575.75
488.389	562.75
488.607	574.75
488.825	575.75
489.043	568.75
489.261	610.75
489.479	561.75
489.696	567.75
489.914	566.75
490.132	572.75
490.35	613.75
490.568	596.75
490.786	613.75
491.003	629.75
491.221	609.75
491.439	593.75
491.657	633.75
491.874	647.75
492.092	623.75
492.31	645.75
492.527	660.75
492.745	649.75
492.963	651.75
493.18	642.75
493.398	655.75
493.615	686.75
493.833	662.75
494.05	650.75
494.268	673.75
494.485	662.75
494.703	651.75
494.92	651.75
495.138	628.75
495.355	650.75
495.573	657.75
495.79	650.75
496.008	688.75
496.225	680.75
496.442	676.75
496.66	664.75
496.877	677.75
497.094	689.75
497.312	676.75
497.529	713.75
497.746	732.75
497.963	703.75
498.181	743.75
498.398	759.75
498.615	772.75
498.832	805.75
499.049	840.75
499.267	865.75
499.484	902.75
499.701	934.75
499.918	1010.75
500.135	1079.75
500.352	1132.75
500.569	1125.75
500.786	1141.75
501.003	1124.75
501.22	1082.75
501.437	1029.75
501.654	956.75
501.871	934.75
502.088	863.75
502.305	837.75
502.522	809.75
502.739	781.75
502.956	764.75
503.172	740.75
503.389	742.75
503.606	716.75
503.823	703.75
504.04	700.75
504.256	720.75
504.473	710.75
504.69	732.75
504.907	710.75
505.123	668.75
505.34	669.75
505.557	658.75
505.773	658.75
505.99	647.75
506.207	638.75
506.423	634.75
506.64	634.75
506.856	634.75
507.073	633.75
507.289	620.75
507.506	626.75
507.722	626.75
507.939	650.75
508.155	611.75
508.372	604.75
508.588	591.75
508.805	597.75
509.021	609.75
509.238	610.75
509.454	607.75
509.67	605.75
509.887	602.75
510.103	584.75
510.319	595.75
510.536	681.75
510.752	1111.75
510.968	913.75
511.184	614.75
511.401	592.75
511.617	560.75
511.833	557.75
512.049	568.75
512.265	568.75
512.481	538.75
512.698	566.75
512.914	565.75
513.13	570.75
513.346	544.75
513.562	567.75
513.778	572.75
513.994	565.75
514.21	557.75
514.426	616.75
514.642	638.75
514.858	642.75
515.074	690.75
515.29	797.75
515.506	1172.75
515.721	981.75
515.937	704.75
516.153	630.75
516.369	613.75
516.585	614.75
516.801	606.75
517.016	616.75
517.232	627.75
517.448	641.75
517.664	633.75
517.879	639.75
518.095	637.75
518.311	628.75
518.527	621.75
518.742	615.75
518.958	612.75
519.173	597.75
519.389	576.75
519.605	569.75
519.82	576.75
520.036	575.75
520.251	606.75
520.467	614.75
520.682	633.75
520.898	608.75
521.113	616.75
521.329	652.75
521.544	727.75
521.76	908.75
521.975	1482.75
522.19	1531.75
522.406	815.75
522.621	632.75
522.836	604.75
523.052	558.75
523.267	543.75
523.482	510.75
523.698	508.75
523.913	526.75
524.128	535.75
524.343	530.75
524.559	492.75
524.774	496.75
524.989	511.75
525.204	527.75
525.419	513.75
525.634	493.75
525.849	470.75
526.064	506.75
526.28	459.75
526.495	481.75
526.71	507.75
526.925	500.75
527.14	470.75
527.355	477.75
527.57	472.75
527.785	472.75
527.999	472.75
528.214	466.75
528.429	464.75
528.644	468.75
528.859	472.75
529.074	469.75
529.289	509.75
529.503	564.75
529.718	558.75
529.933	509.75
530.148	482.75
530.363	483.75
530.577	482.75
530.792	483.75
531.007	471.75
531.221	450.75
531.436	461.75
531.651	440.75
531.865	444.75
532.08	476.75
532.295	462.75
532.509	462.75
532.724	468.75
532.938	457.75
533.153	459.75
533.367	441.75
533.582	473.75
533.796	444.75
534.011	466.75
534.225	434.75
534.44	432.75
534.654	422.75
534.868	443.75
535.083	429.75
535.297	433.75
535.511	442.75
535.726	442.75
535.94	446.75
536.154	444.75
536.369	446.75
536.583	440.75
536.797	436.75
537.011	436.75
537.225	416.75
537.44	430.75
537.654	438.75
537.868	424.75
538.082	429.75
538.296	442.75
538.51	446.75
538.724	428.75
538.938	433.75
539.153	434.75
539.367	434.75
539.581	445.75
539.795	446.75
540.009	426.75
540.222	433.75
540.436	431.75
540.65	434.75
540.864	435.75
541.078	423.75
541.292	455.75
541.506	436.75
541.72	433.75
541.934	422.75
542.147	442.75
542.361	432.75
542.575	438.75
542.789	436.75
543.002	422.75
543.216	422.75
543.43	412.75
543.644	418.75
543.857	425.75
544.071	415.75
544.285	407.75
544.498	407.75
544.712	427.75
544.925	426.75
545.139	421.75
545.352	415.75
545.566	420.75
545.779	407.75
545.993	406.75
546.206	440.75
546.42	419.75
546.633	412.75
546.847	420.75
547.06	408.75
547.274	426.75
547.487	406.75
547.7	413.75
547.914	418.75
548.127	425.75
548.34	406.75
548.554	396.75
548.767	411.75
548.98	436.75
549.193	415.75
549.407	423.75
549.62	424.75
549.833	418.75
550.046	415.75
550.259	420.75
550.473	422.75
550.686	422.75
550.899	414.75
551.112	413.75
551.325	411.75
551.538	401.75
551.751	400.75
551.964	407.75
552.177	420.75
552.39	433.75
552.603	405.75
552.816	416.75
553.029	441.75
553.242	441.75
553.455	428.75
553.667	442.75
553.88	455.75
554.093	434.75
554.306	439.75
554.519	401.75
554.732	431.75
554.944	405.75
555.157	403.75
555.37	403.75
555.583	406.75
555.795	393.75
556.008	398.75
556.221	388.75
556.433	393.75
556.646	384.75
556.859	385.75
557.071	392.75
557.284	360.75
557.496	380.75
557.709	372.75
557.921	376.75
558.134	352.75
558.346	366.75
558.559	372.75
558.771	340.75
558.984	358.75
559.196	379.75
559.409	376.75
559.621	360.75
559.833	366.75
560.046	368.75
560.258	357.75
560.47	358.75
560.683	368.75
560.895	368.75
561.107	354.75
561.32	372.75
561.532	356.75
561.744	366.75
561.956	350.75
562.168	370.75
562.381	372.75
562.593	367.75
562.805	375.75
563.017	375.75
563.229	374.75
563.441	348.75
563.653	348.75
563.865	378.75
564.077	373.75
564.289	357.75
564.501	359.75
564.713	392.75
564.925	412.75
565.137	409.75
565.349	390.75
565.561	387.75
565.773	415.75
565.985	433.75
566.197	425.75
566.408	440.75
566.62	460.75
566.832	489.75
567.044	497.75
567.255	489.75
567.467	493.75
567.679	520.75
567.891	522.75
568.102	544.75
568.314	514.75
568.526	492.75
568.737	458.75
568.949	444.75
569.161	441.75
569.372	416.75
569.584	403.75
569.795	384.75
570.007	375.75
570.218	422.75
570.43	397.75
570.641	391.75
570.853	378.75
571.064	380.75
571.276	383.75
571.487	364.75
571.698	349.75
571.91	353.75
572.121	329.75
572.333	345.75
572.544	346.75
572.755	321.75
572.966	352.75
573.178	310.75
573.389	336.75
573.6	318.75
573.811	336.75
574.023	305.75
574.234	315.75
574.445	306.75
574.656	311.75
574.867	302.75
575.078	311.75
575.289	320.75
575.501	295.75
575.712	314.75
575.923	305.75
576.134	310.75
576.345	297.75
576.556	295.75
576.767	300.75
576.978	320.75
577.188	308.75
577.399	306.75
577.61	302.75
577.821	305.75
578.032	301.75
578.243	340.75
578.454	534.75
578.665	396.75
578.875	304.75
579.086	284.75
579.297	279.75
579.508	288.75
579.718	292.75
579.929	280.75
580.14	271.75
580.35	292.75
580.561	285.75
580.772	286.75
580.982	284.75
581.193	273.75
581.403	291.75
581.614	282.75
581.825	282.75
582.035	284.75
582.246	284.75
582.456	272.75
582.667	297.75
582.877	283.75
583.087	273.75
583.298	263.75
583.508	292.75
583.719	274.75
583.929	280.75
584.139	294.75
584.35	278.75
584.56	280.75
584.77	272.75
584.981	271.75
585.191	287.75
585.401	284.75
585.611	278.75
585.821	285.75
586.032	286.75
586.242	286.75
586.452	276.75
586.662	269.75
586.872	271.75
587.082	277.75
587.292	269.75
587.502	280.75
587.713	277.75
587.923	272.75
588.133	269.75
588.343	278.75
588.553	274.75
588.762	283.75
588.972	285.75
589.182	274.75
589.392	300.75
589.602	286.75
589.812	276.75
590.022	282.75
590.232	294.75
590.441	265.75
590.651	260.75
590.861	256.75
591.071	277.75
591.281	283.75
591.49	274.75
591.7	293.75
591.91	280.75
592.119	284.75
592.329	280.75
592.539	276.75
592.748	297.75
592.958	307.75
593.167	304.75
593.377	319.75
593.587	324.75
593.796	299.75
594.006	296.75
594.215	308.75
594.424	303.75
594.634	307.75
594.843	310.75
595.053	305.75
595.262	276.75
595.472	285.75
595.681	270.75
595.89	261.75
596.1	277.75
596.309	289.75
596.518	265.75
596.727	251.75
596.937	261.75
597.146	250.75
597.355	257.75
597.564	276.75
597.774	254.75
597.983	245.75
598.192	256.75
598.401	254.75
598.61	259.75
598.819	238.75
599.028	242.75
599.237	244.75
599.446	245.75
599.655	264.75
599.864	230.75
600.073	254.75
600.282	228.75
600.491	244.75
600.7	232.75
600.909	246.75
601.118	245.75
601.327	264.75
601.536	220.75
601.745	239.75
601.953	246.75
602.162	234.75
602.371	247.75
602.58	229.75
602.789	239.75
602.997	238.75
603.206	229.75
603.415	223.75
603.623	226.75
603.832	233.75
604.041	223.75
604.249	217.75
604.458	230.75
604.666	234.75
604.875	224.75
605.084	233.75
605.292	229.75
605.501	214.75
605.709	247.75
605.918	218.75
606.126	225.75
606.334	239.75
606.543	219.75
606.751	247.75
606.96	212.75
607.168	222.75
607.376	225.75
607.585	216.75
607.793	222.75
608.001	216.75
608.21	213.75
608.418	218.75
608.626	218.75
608.834	232.75
609.043	215.75
609.251	220.75
609.459	216.75
609.667	209.75
609.875	209.75
610.083	205.75
610.291	202.75
610.499	219.75
610.707	224.75
610.916	221.75
611.124	228.75
611.332	224.75
611.54	239.75
611.748	226.75
611.955	212.75
612.163	199.75
612.371	215.75
612.579	219.75
612.787	214.75
612.995	228.75
613.203	216.75
613.411	219.75
613.618	207.75
613.826	201.75
614.034	227.75
614.242	209.75
614.449	221.75
614.657	217.75
614.865	212.75
615.072	220.75
615.28	206.75
615.488	227.75
615.695	228.75
615.903	202.75
616.111	199.75
616.318	236.75
616.526	212.75
616.733	214.75
616.941	240.75
617.148	206.75
617.356	206.75
617.563	217.75
617.771	220.75
617.978	220.75
618.185	204.75
618.393	211.75
618.6	207.75
618.807	218.75
619.015	209.75
619.222	217.75
619.429	212.75
619.637	208.75
619.844	204.75
620.051	202.75
620.258	213.75
620.466	191.75
620.673	200.75
620.88	190.75
621.087	207.75
621.294	205.75
621.501	196.75
621.708	214.75
621.915	197.75
622.122	201.75
622.329	207.75
622.536	199.75
622.743	203.75
622.95	191.75
623.157	190.75
623.364	182.75
623.571	205.75
623.778	192.75
623.985	189.75
624.192	207.75
624.399	185.75
624.606	195.75
624.812	184.75
625.019	199.75
625.226	208.75
625.433	194.75
625.639	202.75
625.846	197.75
626.053	197.75
626.259	190.75
626.466	192.75
626.673	178.75
626.879	200.75
627.086	186.75
627.293	198.75
627.499	190.75
627.706	199.75
627.912	192.75
628.119	192.75
628.325	189.75
628.532	186.75
628.738	175.75
628.945	181.75
629.151	178.75
629.357	180.75
629.564	184.75
629.77	189.75
629.976	188.75
630.183	193.75
630.389	173.75
630.595	186.75
630.802	176.75
631.008	183.75
631.214	196.75
631.42	174.75
631.627	177.75
631.833	176.75
632.039	166.75
632.245	180.75
632.451	181.75
632.657	160.75
632.863	162.75
633.069	186.75
633.275	188.75
633.481	185.75
633.688	183.75
633.893	178.75
634.099	164.75
634.305	178.75
634.511	178.75
634.717	169.75
634.923	172.75
635.129	172.75
635.335	175.75
635.541	165.75
635.747	165.75
635.952	143.75
636.158	173.75
636.364	170.75
636.57	174.75
636.775	166.75
636.981	183.75
637.187	158.75
637.392	167.75
637.598	166.75
637.804	182.75
638.009	172.75
638.215	152.75
638.421	178.75
638.626	164.75
638.832	170.75
639.037	150.75
639.243	153.75
639.448	166.75
639.654	152.75
639.859	148.75
640.065	152.75
640.27	162.75
640.475	159.75
640.681	151.75
640.886	164.75
641.091	145.75
641.297	153.75
641.502	135.75
641.707	160.75
641.913	169.75
642.118	151.75
642.323	158.75
642.528	162.75
642.733	162.75
642.939	164.75
643.144	141.75
643.349	141.75
643.554	159.75
643.759	156.75
643.964	149.75
644.169	159.75
644.374	152.75
644.579	158.75
644.784	155.75
644.989	160.75
645.194	162.75
645.399	144.75
645.604	135.75
645.809	167.75
646.014	145.75
646.219	164.75
646.423	164.75
646.628	150.75
646.833	142.75
647.038	154.75
647.243	173.75
647.447	152.75
647.652	150.75
647.857	169.75
648.062	157.75
648.266	157.75
648.471	144.75
648.676	158.75
648.88	161.75
649.085	169.75
649.289	152.75
649.494	175.75
649.698	176.75
649.903	189.75
650.107	176.75
650.312	153.75
650.516	144.75
650.721	153.75
650.925	140.75
651.13	150.75
651.334	141.75
651.539	141.75
651.743	138.75
651.947	142.75
652.152	160.75
652.356	145.75
652.56	144.75
652.764	134.75
652.969	124.75
653.173	131.75
653.377	129.75
653.581	142.75
653.785	130.75
653.99	133.75
654.194	128.75
654.398	120.75
654.602	125.75
654.806	134.75
655.01	148.75
655.214	134.75
655.418	124.75
655.622	124.75
655.826	140.75
656.03	119.75
656.234	128.75
656.438	136.75
656.642	142.75
656.846	141.75
657.049	136.75
657.253	124.75
657.457	124.75
657.661	111.75
657.865	110.75
658.068	114.75
658.272	105.75
658.476	100.75
658.68	99.75
658.883	104.75
659.087	102.75
659.291	98.75
659.494	99.75
659.698	84.75
659.901	85.75
660.105	108.75
660.309	96.75
660.512	109.75
660.716	84.75
660.919	96.75
661.123	89.75
661.326	94.75
661.53	101.75
661.733	94.75
661.936	92.75
662.14	81.75
662.343	94.75
662.546	83.75
662.75	72.75
662.953	92.75
663.156	92.75
663.36	78.75
663.563	80.75
663.766	69.75
663.969	89.75
664.173	93.75
664.376	83.75
664.579	83.75
664.782	91.75
664.985	64.75
665.188	84.75
665.391	77.75
665.594	81.75
665.797	76.75
666	65.75
666.203	89.75
666.406	88.75
666.609	78.75
666.812	77.75
667.015	80.75
667.218	83.75
667.421	76.75
667.624	78.75
667.827	80.75
668.03	72.75
668.232	81.75
668.435	70.75
668.638	80.75
668.841	78.75
669.043	74.75
669.246	74.75
669.449	96.75
669.651	82.75
669.854	70.75
670.057	88.75
670.259	72.75
670.462	82.75
670.665	71.75
670.867	81.75
671.07	80.75
671.272	82.75
671.475	73.75
671.677	73.75
671.88	80.75
672.082	80.75
672.284	72.75
672.487	73.75
672.689	71.75
672.892	60.75
