Data from 1985.PennyLincolnUp.Lamp.En5.5.200Scan.071819.P1_HRD10591_17-03-34-970.txt Node
Date: Thu Jul 18 17:03:34 EDT 2019
User: cochatt
Spectrometer: HR+D1059
Trigger mode: 1
Integration Time (sec): 1.000000E-1
Scans to average: 1
Electric dark correction enabled: true
Nonlinearity correction enabled: false
Boxcar width: 0
XAxis mode: Wavelengths
Number of Pixels in Spectrum: 2048
>>>>>Begin Spectral Data<<<<<
223.165	-9.62
223.4	-9.62
223.635	-9.62
223.869	-11.62
224.104	-10.62
224.338	-14.62
224.573	-12.62
224.808	-13.62
225.042	5.38
225.277	-19.62
225.511	-9.62
225.746	2.38
225.98	4.38
226.215	4.38
226.449	9.38
226.683	17.38
226.918	28.38
227.152	30.38
227.387	27.38
227.621	39.38
227.856	52.38
228.09	42.38
228.324	48.38
228.559	53.38
228.793	53.38
229.027	91.38
229.262	96.38
229.496	107.38
229.73	128.38
229.964	141.38
230.199	121.38
230.433	109.38
230.667	109.38
230.901	109.38
231.136	118.38
231.37	125.38
231.604	110.38
231.838	116.38
232.072	111.38
232.306	96.38
232.541	109.38
232.775	103.38
233.009	116.38
233.243	121.38
233.477	98.38
233.711	108.38
233.945	106.38
234.179	124.38
234.413	102.38
234.647	119.38
234.881	120.38
235.115	127.38
235.349	96.38
235.583	131.38
235.817	128.38
236.051	117.38
236.285	119.38
236.519	134.38
236.753	104.38
236.987	138.38
237.221	156.38
237.455	211.38
237.689	165.38
237.922	151.38
238.156	118.38
238.39	120.38
238.624	128.38
238.858	113.38
239.091	110.38
239.325	105.38
239.559	141.38
239.793	108.38
240.027	139.38
240.26	134.38
240.494	156.38
240.728	151.38
240.961	146.38
241.195	163.38
241.429	135.38
241.662	122.38
241.896	147.38
242.13	137.38
242.363	131.38
242.597	136.38
242.83	155.38
243.064	131.38
243.298	129.38
243.531	143.38
243.765	149.38
243.998	153.38
244.232	142.38
244.465	130.38
244.699	151.38
244.932	138.38
245.166	151.38
245.399	149.38
245.633	151.38
245.866	150.38
246.099	148.38
246.333	153.38
246.566	157.38
246.8	138.38
247.033	161.38
247.266	159.38
247.5	147.38
247.733	162.38
247.966	169.38
248.2	166.38
248.433	176.38
248.666	188.38
248.899	181.38
249.133	194.38
249.366	200.38
249.599	197.38
249.832	174.38
250.066	175.38
250.299	191.38
250.532	196.38
250.765	201.38
250.998	206.38
251.231	227.38
251.465	189.38
251.698	199.38
251.931	204.38
252.164	193.38
252.397	181.38
252.63	206.38
252.863	186.38
253.096	208.38
253.329	229.38
253.562	218.38
253.795	208.38
254.028	212.38
254.261	204.38
254.494	245.38
254.727	258.38
254.96	265.38
255.193	250.38
255.426	244.38
255.659	221.38
255.892	216.38
256.124	249.38
256.357	231.38
256.59	236.38
256.823	228.38
257.056	218.38
257.289	202.38
257.521	211.38
257.754	215.38
257.987	218.38
258.22	215.38
258.452	193.38
258.685	186.38
258.918	201.38
259.151	220.38
259.383	221.38
259.616	215.38
259.849	239.38
260.081	216.38
260.314	251.38
260.547	253.38
260.779	245.38
261.012	232.38
261.244	223.38
261.477	226.38
261.71	219.38
261.942	216.38
262.175	225.38
262.407	237.38
262.64	211.38
262.872	211.38
263.105	208.38
263.337	226.38
263.57	215.38
263.802	228.38
264.035	239.38
264.267	218.38
264.499	223.38
264.732	227.38
264.964	228.38
265.197	232.38
265.429	221.38
265.661	233.38
265.894	229.38
266.126	228.38
266.358	227.38
266.591	233.38
266.823	256.38
267.055	232.38
267.287	240.38
267.52	235.38
267.752	238.38
267.984	235.38
268.216	259.38
268.448	229.38
268.681	245.38
268.913	236.38
269.145	265.38
269.377	283.38
269.609	266.38
269.841	265.38
270.073	277.38
270.306	309.38
270.538	318.38
270.77	328.38
271.002	301.38
271.234	284.38
271.466	282.38
271.698	307.38
271.93	324.38
272.162	311.38
272.394	311.38
272.626	321.38
272.858	279.38
273.09	289.38
273.322	300.38
273.553	284.38
273.785	287.38
274.017	275.38
274.249	282.38
274.481	287.38
274.713	284.38
274.945	269.38
275.176	261.38
275.408	278.38
275.64	245.38
275.872	274.38
276.104	269.38
276.335	293.38
276.567	274.38
276.799	297.38
277.031	330.38
277.262	330.38
277.494	340.38
277.726	311.38
277.957	290.38
278.189	287.38
278.421	284.38
278.652	286.38
278.884	283.38
279.115	289.38
279.347	301.38
279.579	267.38
279.81	273.38
280.042	280.38
280.273	289.38
280.505	289.38
280.736	272.38
280.968	289.38
281.199	308.38
281.431	317.38
281.662	297.38
281.894	303.38
282.125	290.38
282.356	313.38
282.588	326.38
282.819	322.38
283.051	324.38
283.282	301.38
283.513	295.38
283.745	301.38
283.976	304.38
284.207	303.38
284.439	299.38
284.67	317.38
284.901	297.38
285.132	299.38
285.364	304.38
285.595	316.38
285.826	305.38
286.057	287.38
286.288	299.38
286.52	300.38
286.751	305.38
286.982	315.38
287.213	308.38
287.444	287.38
287.675	316.38
287.906	341.38
288.138	309.38
288.369	310.38
288.6	331.38
288.831	332.38
289.062	328.38
289.293	331.38
289.524	321.38
289.755	316.38
289.986	303.38
290.217	323.38
290.448	316.38
290.679	324.38
290.91	324.38
291.141	312.38
291.371	319.38
291.602	313.38
291.833	339.38
292.064	316.38
292.295	314.38
292.526	318.38
292.757	317.38
292.987	333.38
293.218	319.38
293.449	343.38
293.68	314.38
293.91	316.38
294.141	330.38
294.372	300.38
294.603	329.38
294.833	321.38
295.064	343.38
295.295	339.38
295.525	320.38
295.756	328.38
295.987	350.38
296.217	372.38
296.448	367.38
296.679	360.38
296.909	306.38
297.14	331.38
297.37	339.38
297.601	347.38
297.831	314.38
298.062	314.38
298.292	331.38
298.523	360.38
298.753	374.38
298.984	341.38
299.214	348.38
299.445	344.38
299.675	339.38
299.905	365.38
300.136	346.38
300.366	361.38
300.597	349.38
300.827	344.38
301.057	349.38
301.288	373.38
301.518	357.38
301.748	363.38
301.979	351.38
302.209	376.38
302.439	377.38
302.669	369.38
302.9	377.38
303.13	371.38
303.36	357.38
303.59	355.38
303.82	368.38
304.051	358.38
304.281	378.38
304.511	376.38
304.741	364.38
304.971	349.38
305.201	343.38
305.431	367.38
305.661	363.38
305.891	342.38
306.121	383.38
306.352	378.38
306.582	374.38
306.812	372.38
307.042	369.38
307.272	376.38
307.502	369.38
307.731	362.38
307.961	379.38
308.191	387.38
308.421	376.38
308.651	369.38
308.881	377.38
309.111	350.38
309.341	376.38
309.571	407.38
309.8	383.38
310.03	393.38
310.26	387.38
310.49	412.38
310.72	393.38
310.949	418.38
311.179	431.38
311.409	418.38
311.639	410.38
311.868	415.38
312.098	393.38
312.328	420.38
312.557	439.38
312.787	437.38
313.017	429.38
313.246	421.38
313.476	408.38
313.706	393.38
313.935	390.38
314.165	423.38
314.394	441.38
314.624	438.38
314.853	438.38
315.083	412.38
315.312	399.38
315.542	405.38
315.771	397.38
316.001	426.38
316.23	409.38
316.46	413.38
316.689	412.38
316.919	391.38
317.148	419.38
317.377	434.38
317.607	417.38
317.836	404.38
318.065	407.38
318.295	423.38
318.524	423.38
318.753	419.38
318.983	409.38
319.212	401.38
319.441	420.38
319.67	438.38
319.9	423.38
320.129	427.38
320.358	445.38
320.587	421.38
320.816	442.38
321.046	431.38
321.275	444.38
321.504	433.38
321.733	433.38
321.962	453.38
322.191	478.38
322.42	453.38
322.649	448.38
322.878	452.38
323.108	492.38
323.337	496.38
323.566	513.38
323.795	535.38
324.024	575.38
324.253	686.38
324.482	939.38
324.71	1411.38
324.939	1976.38
325.168	1690.38
325.397	889.38
325.626	659.38
325.855	567.38
326.084	543.38
326.313	535.38
326.542	550.38
326.77	572.38
326.999	676.38
327.228	855.38
327.457	1246.38
327.686	1500.38
327.914	1020.38
328.143	729.38
328.372	640.38
328.6	588.38
328.829	577.38
329.058	593.38
329.287	582.38
329.515	567.38
329.744	524.38
329.972	541.38
330.201	552.38
330.43	603.38
330.658	606.38
330.887	607.38
331.115	601.38
331.344	540.38
331.572	517.38
331.801	540.38
332.03	523.38
332.258	503.38
332.486	486.38
332.715	520.38
332.943	515.38
333.172	506.38
333.4	508.38
333.629	544.38
333.857	533.38
334.085	570.38
334.314	588.38
334.542	587.38
334.771	601.38
334.999	576.38
335.227	559.38
335.455	509.38
335.684	511.38
335.912	519.38
336.14	502.38
336.369	486.38
336.597	529.38
336.825	496.38
337.053	491.38
337.281	481.38
337.51	468.38
337.738	480.38
337.966	503.38
338.194	511.38
338.422	488.38
338.65	481.38
338.878	505.38
339.106	479.38
339.334	486.38
339.562	465.38
339.79	461.38
340.018	465.38
340.246	452.38
340.474	461.38
340.702	463.38
340.93	465.38
341.158	468.38
341.386	447.38
341.614	451.38
341.842	461.38
342.07	443.38
342.298	455.38
342.526	453.38
342.754	441.38
342.981	460.38
343.209	468.38
343.437	475.38
343.665	469.38
343.893	501.38
344.12	509.38
344.348	504.38
344.576	496.38
344.804	477.38
345.031	487.38
345.259	487.38
345.487	486.38
345.714	458.38
345.942	466.38
346.17	440.38
346.397	443.38
346.625	444.38
346.853	433.38
347.08	434.38
347.308	455.38
347.535	466.38
347.763	469.38
347.99	453.38
348.218	443.38
348.445	467.38
348.673	482.38
348.9	429.38
349.128	449.38
349.355	453.38
349.583	408.38
349.81	438.38
350.037	443.38
350.265	439.38
350.492	432.38
350.72	429.38
350.947	456.38
351.174	429.38
351.402	460.38
351.629	457.38
351.856	451.38
352.083	441.38
352.311	455.38
352.538	447.38
352.765	461.38
352.992	439.38
353.22	426.38
353.447	453.38
353.674	444.38
353.901	410.38
354.128	427.38
354.355	436.38
354.583	416.38
354.81	437.38
355.037	403.38
355.264	435.38
355.491	409.38
355.718	420.38
355.945	417.38
356.172	437.38
356.399	421.38
356.626	404.38
356.853	421.38
357.08	410.38
357.307	419.38
357.534	407.38
357.761	440.38
357.988	428.38
358.215	404.38
358.441	421.38
358.668	415.38
358.895	423.38
359.122	419.38
359.349	445.38
359.576	429.38
359.802	459.38
360.029	481.38
360.256	490.38
360.483	476.38
360.709	444.38
360.936	454.38
361.163	429.38
361.39	439.38
361.616	447.38
361.843	435.38
362.07	428.38
362.296	428.38
362.523	435.38
362.749	426.38
362.976	436.38
363.203	431.38
363.429	415.38
363.656	407.38
363.882	397.38
364.109	421.38
364.335	423.38
364.562	420.38
364.788	431.38
365.015	429.38
365.241	420.38
365.468	429.38
365.694	404.38
365.92	432.38
366.147	431.38
366.373	414.38
366.599	418.38
366.826	421.38
367.052	411.38
367.278	432.38
367.505	432.38
367.731	404.38
367.957	434.38
368.184	423.38
368.41	427.38
368.636	437.38
368.862	439.38
369.089	432.38
369.315	442.38
369.541	439.38
369.767	432.38
369.993	403.38
370.219	421.38
370.445	411.38
370.672	432.38
370.898	414.38
371.124	437.38
371.35	411.38
371.576	416.38
371.802	413.38
372.028	433.38
372.254	418.38
372.48	425.38
372.706	415.38
372.932	425.38
373.158	429.38
373.384	424.38
373.61	425.38
373.835	424.38
374.061	442.38
374.287	434.38
374.513	415.38
374.739	425.38
374.965	447.38
375.191	456.38
375.416	452.38
375.642	417.38
375.868	433.38
376.094	420.38
376.319	419.38
376.545	415.38
376.771	426.38
376.997	425.38
377.222	404.38
377.448	418.38
377.674	394.38
377.899	411.38
378.125	415.38
378.35	423.38
378.576	417.38
378.802	416.38
379.027	412.38
379.253	411.38
379.478	412.38
379.704	424.38
379.929	414.38
380.155	405.38
380.38	419.38
380.606	427.38
380.831	433.38
381.057	433.38
381.282	405.38
381.507	414.38
381.733	411.38
381.958	417.38
382.184	408.38
382.409	424.38
382.634	416.38
382.86	425.38
383.085	438.38
383.31	432.38
383.535	432.38
383.761	452.38
383.986	448.38
384.211	436.38
384.436	449.38
384.662	447.38
384.887	467.38
385.112	467.38
385.337	477.38
385.562	455.38
385.787	452.38
386.013	481.38
386.238	469.38
386.463	466.38
386.688	470.38
386.913	478.38
387.138	468.38
387.363	454.38
387.588	496.38
387.813	476.38
388.038	465.38
388.263	456.38
388.488	460.38
388.713	460.38
388.938	454.38
389.163	465.38
389.387	470.38
389.612	452.38
389.837	479.38
390.062	462.38
390.287	461.38
390.512	461.38
390.736	453.38
390.961	468.38
391.186	484.38
391.411	472.38
391.636	467.38
391.86	471.38
392.085	469.38
392.31	478.38
392.534	471.38
392.759	496.38
392.984	485.38
393.208	471.38
393.433	465.38
393.658	461.38
393.882	481.38
394.107	460.38
394.331	477.38
394.556	477.38
394.78	464.38
395.005	499.38
395.229	495.38
395.454	466.38
395.678	498.38
395.903	514.38
396.127	510.38
396.352	512.38
396.576	492.38
396.801	494.38
397.025	466.38
397.249	469.38
397.474	487.38
397.698	497.38
397.922	497.38
398.147	515.38
398.371	525.38
398.595	526.38
398.82	542.38
399.044	564.38
399.268	587.38
399.492	619.38
399.717	667.38
399.941	693.38
400.165	674.38
400.389	665.38
400.613	608.38
400.837	578.38
401.062	551.38
401.286	551.38
401.51	560.38
401.734	543.38
401.958	541.38
402.182	571.38
402.406	561.38
402.63	561.38
402.854	544.38
403.078	577.38
403.302	568.38
403.526	572.38
403.75	579.38
403.974	584.38
404.198	553.38
404.422	590.38
404.645	578.38
404.869	593.38
405.093	630.38
405.317	628.38
405.541	667.38
405.765	639.38
405.988	605.38
406.212	595.38
406.436	630.38
406.66	625.38
406.883	604.38
407.107	637.38
407.331	692.38
407.555	727.38
407.778	737.38
408.002	677.38
408.226	621.38
408.449	631.38
408.673	623.38
408.896	632.38
409.12	670.38
409.344	628.38
409.567	578.38
409.791	588.38
410.014	567.38
410.238	552.38
410.461	568.38
410.685	581.38
410.908	581.38
411.132	619.38
411.355	630.38
411.578	601.38
411.802	559.38
412.025	561.38
412.249	572.38
412.472	593.38
412.695	623.38
412.919	614.38
413.142	555.38
413.365	559.38
413.589	546.38
413.812	533.38
414.035	519.38
414.258	554.38
414.482	524.38
414.705	535.38
414.928	535.38
415.151	515.38
415.374	522.38
415.597	533.38
415.821	513.38
416.044	527.38
416.267	525.38
416.49	531.38
416.713	510.38
416.936	539.38
417.159	533.38
417.382	524.38
417.605	523.38
417.828	523.38
418.051	536.38
418.274	540.38
418.497	546.38
418.72	554.38
418.943	522.38
419.166	535.38
419.389	581.38
419.611	566.38
419.834	551.38
420.057	556.38
420.28	543.38
420.503	551.38
420.726	555.38
420.948	559.38
421.171	584.38
421.394	609.38
421.617	563.38
421.839	529.38
422.062	542.38
422.285	545.38
422.507	605.38
422.73	655.38
422.953	631.38
423.175	579.38
423.398	550.38
423.621	562.38
423.843	607.38
424.066	576.38
424.288	588.38
424.511	614.38
424.733	642.38
424.956	688.38
425.178	655.38
425.401	665.38
425.623	700.38
425.846	601.38
426.068	591.38
426.291	583.38
426.513	552.38
426.735	568.38
426.958	609.38
427.18	691.38
427.402	802.38
427.625	879.38
427.847	787.38
428.069	657.38
428.292	576.38
428.514	556.38
428.736	528.38
428.958	531.38
429.181	525.38
429.403	501.38
429.625	554.38
429.847	555.38
430.069	603.38
430.292	610.38
430.514	532.38
430.736	493.38
430.958	515.38
431.18	515.38
431.402	492.38
431.624	507.38
431.846	487.38
432.068	501.38
432.29	499.38
432.512	505.38
432.734	499.38
432.956	501.38
433.178	485.38
433.4	517.38
433.622	517.38
433.844	504.38
434.066	506.38
434.287	509.38
434.509	509.38
434.731	523.38
434.953	529.38
435.175	535.38
435.397	550.38
435.618	555.38
435.84	596.38
436.062	692.38
436.284	720.38
436.505	620.38
436.727	571.38
436.949	524.38
437.17	531.38
437.392	522.38
437.614	533.38
437.835	554.38
438.057	657.38
438.278	717.38
438.5	752.38
438.721	791.38
438.943	741.38
439.165	593.38
439.386	586.38
439.608	565.38
439.829	569.38
440.05	576.38
440.272	617.38
440.493	576.38
440.715	543.38
440.936	542.38
441.158	539.38
441.379	525.38
441.6	528.38
441.822	573.38
442.043	611.38
442.264	668.38
442.486	693.38
442.707	608.38
442.928	594.38
443.149	606.38
443.371	609.38
443.592	649.38
443.813	724.38
444.034	793.38
444.255	674.38
444.476	581.38
444.698	597.38
444.919	604.38
445.14	737.38
445.361	647.38
445.582	601.38
445.803	657.38
446.024	753.38
446.245	763.38
446.466	679.38
446.687	584.38
446.908	563.38
447.129	517.38
447.35	509.38
447.571	535.38
447.792	505.38
448.013	525.38
448.234	533.38
448.455	567.38
448.675	683.38
448.896	791.38
449.117	649.38
449.338	597.38
449.559	737.38
449.779	795.38
450	653.38
450.221	543.38
450.442	505.38
450.662	517.38
450.883	506.38
451.104	505.38
451.324	487.38
451.545	474.38
451.766	472.38
451.986	459.38
452.207	473.38
452.428	463.38
452.648	457.38
452.869	480.38
453.089	472.38
453.31	490.38
453.53	467.38
453.751	474.38
453.971	461.38
454.192	476.38
454.412	478.38
454.633	470.38
454.853	464.38
455.073	443.38
455.294	482.38
455.514	547.38
455.734	502.38
455.955	450.38
456.175	426.38
456.395	429.38
456.616	423.38
456.836	451.38
457.056	455.38
457.276	442.38
457.497	452.38
457.717	425.38
457.937	443.38
458.157	440.38
458.377	455.38
458.598	457.38
458.818	525.38
459.038	600.38
459.258	594.38
459.478	561.38
459.698	515.38
459.918	494.38
460.138	536.38
460.358	527.38
460.578	515.38
460.798	532.38
461.018	541.38
461.238	544.38
461.458	546.38
461.678	520.38
461.898	540.38
462.118	545.38
462.338	558.38
462.558	575.38
462.777	567.38
462.997	589.38
463.217	612.38
463.437	634.38
463.657	582.38
463.876	544.38
464.096	565.38
464.316	588.38
464.536	573.38
464.755	556.38
464.975	581.38
465.195	593.38
465.414	635.38
465.634	562.38
465.854	534.38
466.073	496.38
466.293	482.38
466.512	511.38
466.732	505.38
466.951	473.38
467.171	466.38
467.391	488.38
467.61	483.38
467.829	519.38
468.049	479.38
468.268	498.38
468.488	476.38
468.707	458.38
468.927	463.38
469.146	474.38
469.365	454.38
469.585	462.38
469.804	487.38
470.023	476.38
470.243	520.38
470.462	495.38
470.681	511.38
470.901	512.38
471.12	482.38
471.339	490.38
471.558	474.38
471.777	490.38
471.997	484.38
472.216	492.38
472.435	529.38
472.654	519.38
472.873	474.38
473.092	496.38
473.311	485.38
473.53	488.38
473.749	489.38
473.968	518.38
474.187	625.38
474.406	627.38
474.625	519.38
474.844	509.38
475.063	464.38
475.282	492.38
475.501	475.38
475.72	492.38
475.939	522.38
476.158	491.38
476.377	487.38
476.596	485.38
476.814	498.38
477.033	498.38
477.252	514.38
477.471	505.38
477.69	525.38
477.908	535.38
478.127	557.38
478.346	519.38
478.564	564.38
478.783	535.38
479.002	554.38
479.22	548.38
479.439	568.38
479.658	581.38
479.876	597.38
480.095	602.38
480.313	624.38
480.532	618.38
480.751	610.38
480.969	617.38
481.188	662.38
481.406	693.38
481.624	615.38
481.843	577.38
482.061	571.38
482.28	587.38
482.498	552.38
482.717	542.38
482.935	563.38
483.153	551.38
483.372	560.38
483.59	548.38
483.808	541.38
484.027	557.38
484.245	578.38
484.463	563.38
484.681	571.38
484.9	581.38
485.118	579.38
485.336	562.38
485.554	578.38
485.772	575.38
485.99	583.38
486.209	555.38
486.427	574.38
486.645	595.38
486.863	620.38
487.081	594.38
487.299	581.38
487.517	595.38
487.735	593.38
487.953	591.38
488.171	570.38
488.389	620.38
488.607	612.38
488.825	597.38
489.043	588.38
489.261	577.38
489.479	603.38
489.696	594.38
489.914	608.38
490.132	620.38
490.35	627.38
490.568	652.38
490.786	643.38
491.003	659.38
491.221	651.38
491.439	691.38
491.657	666.38
491.874	657.38
492.092	684.38
492.31	708.38
492.527	697.38
492.745	697.38
492.963	704.38
493.18	723.38
493.398	689.38
493.615	716.38
493.833	705.38
494.05	693.38
494.268	717.38
494.485	730.38
494.703	696.38
494.92	714.38
495.138	680.38
495.355	696.38
495.573	708.38
495.79	709.38
496.008	711.38
496.225	721.38
496.442	706.38
496.66	732.38
496.877	725.38
497.094	739.38
497.312	714.38
497.529	721.38
497.746	751.38
497.963	769.38
498.181	777.38
498.398	778.38
498.615	800.38
498.832	849.38
499.049	865.38
499.267	930.38
499.484	927.38
499.701	983.38
499.918	1030.38
500.135	1105.38
500.352	1183.38
500.569	1198.38
500.786	1215.38
501.003	1180.38
501.22	1149.38
501.437	1046.38
501.654	1001.38
501.871	962.38
502.088	928.38
502.305	900.38
502.522	840.38
502.739	807.38
502.956	815.38
503.172	770.38
503.389	772.38
503.606	788.38
503.823	739.38
504.04	729.38
504.256	754.38
504.473	734.38
504.69	732.38
504.907	721.38
505.123	716.38
505.34	671.38
505.557	665.38
505.773	667.38
505.99	670.38
506.207	666.38
506.423	679.38
506.64	675.38
506.856	648.38
507.073	638.38
507.289	666.38
507.506	648.38
507.722	660.38
507.939	668.38
508.155	668.38
508.372	652.38
508.588	622.38
508.805	613.38
509.021	629.38
509.238	635.38
509.454	642.38
509.67	633.38
509.887	642.38
510.103	625.38
510.319	619.38
510.536	727.38
510.752	1131.38
510.968	935.38
511.184	647.38
511.401	615.38
511.617	624.38
511.833	602.38
512.049	583.38
512.265	612.38
512.481	609.38
512.698	583.38
512.914	563.38
513.13	576.38
513.346	584.38
513.562	590.38
513.778	598.38
513.994	608.38
514.21	614.38
514.426	639.38
514.642	632.38
514.858	685.38
515.074	682.38
515.29	861.38
515.506	1204.38
515.721	1037.38
515.937	708.38
516.153	643.38
516.369	651.38
516.585	635.38
516.801	652.38
517.016	651.38
517.232	630.38
517.448	632.38
517.664	670.38
517.879	652.38
518.095	659.38
518.311	637.38
518.527	650.38
518.742	636.38
518.958	620.38
519.173	609.38
519.389	591.38
519.605	614.38
519.82	600.38
520.036	647.38
520.251	628.38
520.467	663.38
520.682	640.38
520.898	619.38
521.113	657.38
521.329	679.38
521.544	757.38
521.76	963.38
521.975	1543.38
522.19	1532.38
522.406	882.38
522.621	685.38
522.836	609.38
523.052	573.38
523.267	578.38
523.482	547.38
523.698	568.38
523.913	552.38
524.128	524.38
524.343	524.38
524.559	529.38
524.774	511.38
524.989	515.38
525.204	519.38
525.419	535.38
525.634	509.38
525.849	524.38
526.064	492.38
526.28	505.38
526.495	493.38
526.71	521.38
526.925	499.38
527.14	469.38
527.355	489.38
527.57	474.38
527.785	491.38
527.999	474.38
528.214	489.38
528.429	488.38
528.644	484.38
528.859	494.38
529.074	477.38
529.289	499.38
529.503	575.38
529.718	553.38
529.933	505.38
530.148	503.38
530.363	516.38
530.577	498.38
530.792	465.38
531.007	477.38
531.221	486.38
531.436	506.38
531.651	497.38
531.865	479.38
532.08	485.38
532.295	482.38
532.509	468.38
532.724	496.38
532.938	499.38
533.153	483.38
533.367	487.38
533.582	465.38
533.796	460.38
534.011	454.38
534.225	453.38
534.44	444.38
534.654	465.38
534.868	479.38
535.083	458.38
535.297	463.38
535.511	472.38
535.726	465.38
535.94	481.38
536.154	465.38
536.369	476.38
536.583	449.38
536.797	459.38
537.011	490.38
537.225	450.38
537.44	461.38
537.654	460.38
537.868	468.38
538.082	466.38
538.296	458.38
538.51	455.38
538.724	472.38
538.938	467.38
539.153	466.38
539.367	455.38
539.581	465.38
539.795	447.38
540.009	442.38
540.222	464.38
540.436	442.38
540.65	433.38
540.864	465.38
541.078	455.38
541.292	459.38
541.506	444.38
541.72	432.38
541.934	437.38
542.147	431.38
542.361	434.38
542.575	448.38
542.789	441.38
543.002	426.38
543.216	450.38
543.43	465.38
543.644	455.38
543.857	449.38
544.071	454.38
544.285	473.38
544.498	449.38
544.712	448.38
544.925	432.38
545.139	434.38
545.352	458.38
545.566	435.38
545.779	436.38
545.993	441.38
546.206	445.38
546.42	463.38
546.633	426.38
546.847	439.38
547.06	422.38
547.274	435.38
547.487	426.38
547.7	448.38
547.914	426.38
548.127	422.38
548.34	448.38
548.554	437.38
548.767	438.38
548.98	447.38
549.193	444.38
549.407	429.38
549.62	443.38
549.833	433.38
550.046	441.38
550.259	436.38
550.473	426.38
550.686	420.38
550.899	428.38
551.112	431.38
551.325	408.38
551.538	437.38
551.751	422.38
551.964	427.38
552.177	418.38
552.39	419.38
552.603	432.38
552.816	433.38
553.029	457.38
553.242	458.38
553.455	455.38
553.667	456.38
553.88	485.38
554.093	443.38
554.306	456.38
554.519	440.38
554.732	431.38
554.944	414.38
555.157	404.38
555.37	403.38
555.583	417.38
555.795	400.38
556.008	401.38
556.221	398.38
556.433	382.38
556.646	390.38
556.859	385.38
557.071	383.38
557.284	394.38
557.496	387.38
557.709	401.38
557.921	395.38
558.134	364.38
558.346	379.38
558.559	385.38
558.771	364.38
558.984	371.38
559.196	379.38
559.409	359.38
559.621	397.38
559.833	383.38
560.046	369.38
560.258	374.38
560.47	372.38
560.683	364.38
560.895	379.38
561.107	385.38
561.32	370.38
561.532	366.38
561.744	391.38
561.956	380.38
562.168	381.38
562.381	362.38
562.593	393.38
562.805	388.38
563.017	394.38
563.229	382.38
563.441	374.38
563.653	392.38
563.865	386.38
564.077	393.38
564.289	387.38
564.501	385.38
564.713	407.38
564.925	407.38
565.137	419.38
565.349	428.38
565.561	445.38
565.773	435.38
565.985	440.38
566.197	447.38
566.408	460.38
566.62	483.38
566.832	517.38
567.044	521.38
567.255	510.38
567.467	513.38
567.679	532.38
567.891	548.38
568.102	549.38
568.314	536.38
568.526	493.38
568.737	475.38
568.949	453.38
569.161	459.38
569.372	430.38
569.584	407.38
569.795	396.38
570.007	404.38
570.218	432.38
570.43	427.38
570.641	397.38
570.853	388.38
571.064	372.38
571.276	382.38
571.487	390.38
571.698	363.38
571.91	380.38
572.121	344.38
572.333	331.38
572.544	359.38
572.755	352.38
572.966	346.38
573.178	355.38
573.389	347.38
573.6	346.38
573.811	338.38
574.023	307.38
574.234	327.38
574.445	332.38
574.656	335.38
574.867	344.38
575.078	338.38
575.289	340.38
575.501	334.38
575.712	336.38
575.923	323.38
576.134	327.38
576.345	321.38
576.556	321.38
576.767	317.38
576.978	328.38
577.188	322.38
577.399	321.38
577.61	317.38
577.821	306.38
578.032	315.38
578.243	344.38
578.454	544.38
578.665	412.38
578.875	335.38
579.086	287.38
579.297	312.38
579.508	313.38
579.718	298.38
579.929	297.38
580.14	297.38
580.35	298.38
580.561	320.38
580.772	299.38
580.982	309.38
581.193	297.38
581.403	295.38
581.614	291.38
581.825	290.38
582.035	296.38
582.246	298.38
582.456	287.38
582.667	283.38
582.877	301.38
583.087	289.38
583.298	290.38
583.508	303.38
583.719	295.38
583.929	301.38
584.139	287.38
584.35	287.38
584.56	292.38
584.77	293.38
584.981	289.38
585.191	295.38
585.401	303.38
585.611	275.38
585.821	283.38
586.032	293.38
586.242	270.38
586.452	287.38
586.662	279.38
586.872	290.38
587.082	284.38
587.292	284.38
587.502	304.38
587.713	281.38
587.923	289.38
588.133	275.38
588.343	289.38
588.553	279.38
588.762	297.38
588.972	288.38
589.182	272.38
589.392	287.38
589.602	289.38
589.812	279.38
590.022	309.38
590.232	295.38
590.441	278.38
590.651	281.38
590.861	282.38
591.071	288.38
591.281	291.38
591.49	303.38
591.7	304.38
591.91	295.38
592.119	301.38
592.329	306.38
592.539	315.38
592.748	298.38
592.958	333.38
593.167	308.38
593.377	325.38
593.587	340.38
593.796	317.38
594.006	323.38
594.215	304.38
594.424	322.38
594.634	305.38
594.843	314.38
595.053	304.38
595.262	326.38
595.472	294.38
595.681	308.38
595.89	284.38
596.1	306.38
596.309	280.38
596.518	263.38
596.727	269.38
596.937	271.38
597.146	276.38
597.355	268.38
597.564	276.38
597.774	271.38
597.983	277.38
598.192	272.38
598.401	283.38
598.61	266.38
598.819	256.38
599.028	259.38
599.237	272.38
599.446	263.38
599.655	269.38
599.864	255.38
600.073	259.38
600.282	265.38
600.491	223.38
600.7	236.38
600.909	241.38
601.118	241.38
601.327	247.38
601.536	229.38
601.745	261.38
601.953	243.38
602.162	233.38
602.371	253.38
602.58	231.38
602.789	256.38
602.997	242.38
603.206	247.38
603.415	261.38
603.623	239.38
603.832	246.38
604.041	241.38
604.249	236.38
604.458	241.38
604.666	238.38
604.875	233.38
605.084	241.38
605.292	223.38
605.501	251.38
605.709	239.38
605.918	224.38
606.126	235.38
606.334	234.38
606.543	242.38
606.751	231.38
606.96	221.38
607.168	221.38
607.376	225.38
607.585	234.38
607.793	229.38
608.001	232.38
608.21	237.38
608.418	237.38
608.626	243.38
608.834	232.38
609.043	213.38
609.251	225.38
609.459	229.38
609.667	236.38
609.875	226.38
610.083	225.38
610.291	216.38
610.499	210.38
610.707	216.38
610.916	226.38
611.124	236.38
611.332	224.38
611.54	228.38
611.748	228.38
611.955	225.38
612.163	234.38
612.371	228.38
612.579	220.38
612.787	208.38
612.995	228.38
613.203	248.38
613.411	226.38
613.618	203.38
613.826	226.38
614.034	228.38
614.242	240.38
614.449	221.38
614.657	226.38
614.865	219.38
615.072	220.38
615.28	225.38
615.488	234.38
615.695	218.38
615.903	209.38
616.111	220.38
616.318	227.38
616.526	222.38
616.733	240.38
616.941	217.38
617.148	223.38
617.356	219.38
617.563	241.38
617.771	232.38
617.978	220.38
618.185	213.38
618.393	218.38
618.6	213.38
618.807	209.38
619.015	215.38
619.222	220.38
619.429	211.38
619.637	233.38
619.844	216.38
620.051	223.38
620.258	219.38
620.466	214.38
620.673	206.38
620.88	204.38
621.087	211.38
621.294	210.38
621.501	210.38
621.708	203.38
621.915	220.38
622.122	214.38
622.329	235.38
622.536	215.38
622.743	221.38
622.95	213.38
623.157	210.38
623.364	211.38
623.571	187.38
623.778	221.38
623.985	203.38
624.192	197.38
624.399	206.38
624.606	205.38
624.812	203.38
625.019	203.38
625.226	206.38
625.433	219.38
625.639	190.38
625.846	195.38
626.053	205.38
626.259	188.38
626.466	198.38
626.673	201.38
626.879	189.38
627.086	212.38
627.293	205.38
627.499	191.38
627.706	186.38
627.912	172.38
628.119	179.38
628.325	203.38
628.532	183.38
628.738	187.38
628.945	198.38
629.151	192.38
629.357	192.38
629.564	203.38
629.77	196.38
629.976	184.38
630.183	189.38
630.389	186.38
630.595	189.38
630.802	196.38
631.008	181.38
631.214	183.38
631.42	187.38
631.627	202.38
631.833	184.38
632.039	191.38
632.245	175.38
632.451	187.38
632.657	189.38
632.863	178.38
633.069	180.38
633.275	187.38
633.481	191.38
633.688	185.38
633.893	185.38
634.099	176.38
634.305	180.38
634.511	173.38
634.717	173.38
634.923	182.38
635.129	173.38
635.335	179.38
635.541	175.38
635.747	194.38
635.952	168.38
636.158	174.38
636.364	190.38
636.57	195.38
636.775	180.38
636.981	191.38
637.187	182.38
637.392	173.38
637.598	164.38
637.804	171.38
638.009	177.38
638.215	182.38
638.421	172.38
638.626	172.38
638.832	162.38
639.037	171.38
639.243	187.38
639.448	166.38
639.654	172.38
639.859	161.38
640.065	168.38
640.27	173.38
640.475	156.38
640.681	165.38
640.886	161.38
641.091	156.38
641.297	179.38
641.502	167.38
641.707	161.38
641.913	164.38
642.118	169.38
642.323	155.38
642.528	157.38
642.733	169.38
642.939	175.38
643.144	161.38
643.349	173.38
643.554	168.38
643.759	149.38
643.964	151.38
644.169	171.38
644.374	169.38
644.579	177.38
644.784	149.38
644.989	156.38
645.194	157.38
645.399	182.38
645.604	151.38
645.809	154.38
646.014	148.38
646.219	161.38
646.423	166.38
646.628	162.38
646.833	172.38
647.038	155.38
647.243	155.38
647.447	158.38
647.652	153.38
647.857	162.38
648.062	163.38
648.266	168.38
648.471	172.38
648.676	157.38
648.88	161.38
649.085	150.38
649.289	167.38
649.494	175.38
649.698	183.38
649.903	187.38
650.107	167.38
650.312	159.38
650.516	143.38
650.721	149.38
650.925	151.38
651.13	154.38
651.334	134.38
651.539	149.38
651.743	142.38
651.947	147.38
652.152	135.38
652.356	140.38
652.56	147.38
652.764	141.38
652.969	134.38
653.173	145.38
653.377	136.38
653.581	153.38
653.785	125.38
653.99	123.38
654.194	145.38
654.398	126.38
654.602	134.38
654.806	147.38
655.01	134.38
655.214	131.38
655.418	120.38
655.622	154.38
655.826	132.38
656.03	141.38
656.234	124.38
656.438	137.38
656.642	124.38
656.846	131.38
657.049	133.38
657.253	129.38
657.457	107.38
657.661	116.38
657.865	115.38
658.068	101.38
658.272	117.38
658.476	115.38
658.68	108.38
658.883	108.38
659.087	109.38
659.291	104.38
659.494	111.38
659.698	86.38
659.901	99.38
660.105	95.38
660.309	94.38
660.512	87.38
660.716	89.38
660.919	86.38
661.123	96.38
661.326	86.38
661.53	89.38
661.733	85.38
661.936	82.38
662.14	82.38
662.343	87.38
662.546	78.38
662.75	74.38
662.953	91.38
663.156	101.38
663.36	90.38
663.563	93.38
663.766	84.38
663.969	89.38
664.173	76.38
664.376	84.38
664.579	81.38
664.782	87.38
664.985	83.38
665.188	79.38
665.391	81.38
665.594	74.38
665.797	79.38
666	69.38
666.203	83.38
666.406	74.38
666.609	81.38
666.812	84.38
667.015	92.38
667.218	85.38
667.421	72.38
667.624	92.38
667.827	88.38
668.03	90.38
668.232	84.38
668.435	74.38
668.638	83.38
668.841	91.38
669.043	84.38
669.246	82.38
669.449	95.38
669.651	65.38
669.854	88.38
670.057	84.38
670.259	77.38
670.462	72.38
670.665	69.38
670.867	93.38
671.07	80.38
671.272	72.38
671.475	85.38
671.677	79.38
671.88	84.38
672.082	79.38
672.284	70.38
672.487	88.38
672.689	77.38
672.892	81.38
