Data from 1985.PennyLincolnUp.Lamp.En5.5.200Scan.071819.P1_HRD10591_17-02-57-971.txt Node
Date: Thu Jul 18 17:02:57 EDT 2019
User: cochatt
Spectrometer: HR+D1059
Trigger mode: 1
Integration Time (sec): 1.000000E-1
Scans to average: 1
Electric dark correction enabled: true
Nonlinearity correction enabled: false
Boxcar width: 0
XAxis mode: Wavelengths
Number of Pixels in Spectrum: 2048
>>>>>Begin Spectral Data<<<<<
223.165	-19.19
223.4	-19.19
223.635	-19.19
223.869	-19.19
224.104	-34.19
224.338	-9.19
224.573	-5.19
224.808	-13.19
225.042	-14.19
225.277	-12.19
225.511	0.81
225.746	13.81
225.98	-0.19
226.215	13.81
226.449	2.81
226.683	27.81
226.918	26.81
227.152	40.81
227.387	27.81
227.621	30.81
227.856	34.81
228.09	43.81
228.324	65.81
228.559	58.81
228.793	73.81
229.027	99.81
229.262	99.81
229.496	111.81
229.73	120.81
229.964	134.81
230.199	141.81
230.433	119.81
230.667	118.81
230.901	108.81
231.136	128.81
231.37	120.81
231.604	111.81
231.838	102.81
232.072	108.81
232.306	115.81
232.541	116.81
232.775	123.81
233.009	123.81
233.243	112.81
233.477	104.81
233.711	131.81
233.945	112.81
234.179	122.81
234.413	114.81
234.647	121.81
234.881	130.81
235.115	123.81
235.349	128.81
235.583	106.81
235.817	119.81
236.051	136.81
236.285	136.81
236.519	116.81
236.753	141.81
236.987	139.81
237.221	184.81
237.455	221.81
237.689	181.81
237.922	134.81
238.156	124.81
238.39	127.81
238.624	111.81
238.858	120.81
239.091	124.81
239.325	124.81
239.559	127.81
239.793	137.81
240.027	137.81
240.26	130.81
240.494	150.81
240.728	150.81
240.961	142.81
241.195	142.81
241.429	135.81
241.662	124.81
241.896	133.81
242.13	130.81
242.363	132.81
242.597	130.81
242.83	143.81
243.064	138.81
243.298	141.81
243.531	137.81
243.765	143.81
243.998	133.81
244.232	147.81
244.465	149.81
244.699	136.81
244.932	148.81
245.166	137.81
245.399	145.81
245.633	145.81
245.866	131.81
246.099	139.81
246.333	161.81
246.566	154.81
246.8	147.81
247.033	134.81
247.266	161.81
247.5	168.81
247.733	186.81
247.966	178.81
248.2	175.81
248.433	186.81
248.666	184.81
248.899	183.81
249.133	190.81
249.366	199.81
249.599	202.81
249.832	183.81
250.066	175.81
250.299	175.81
250.532	184.81
250.765	193.81
250.998	207.81
251.231	207.81
251.465	215.81
251.698	213.81
251.931	199.81
252.164	183.81
252.397	191.81
252.63	196.81
252.863	195.81
253.096	199.81
253.329	217.81
253.562	215.81
253.795	206.81
254.028	227.81
254.261	219.81
254.494	219.81
254.727	247.81
254.96	272.81
255.193	255.81
255.426	220.81
255.659	231.81
255.892	233.81
256.124	225.81
256.357	229.81
256.59	222.81
256.823	190.81
257.056	210.81
257.289	197.81
257.521	207.81
257.754	204.81
257.987	214.81
258.22	203.81
258.452	212.81
258.685	207.81
258.918	210.81
259.151	211.81
259.383	219.81
259.616	223.81
259.849	227.81
260.081	221.81
260.314	264.81
260.547	229.81
260.779	250.81
261.012	246.81
261.244	216.81
261.477	228.81
261.71	218.81
261.942	234.81
262.175	247.81
262.407	224.81
262.64	232.81
262.872	221.81
263.105	215.81
263.337	222.81
263.57	218.81
263.802	229.81
264.035	220.81
264.267	225.81
264.499	216.81
264.732	214.81
264.964	226.81
265.197	223.81
265.429	229.81
265.661	210.81
265.894	230.81
266.126	232.81
266.358	227.81
266.591	223.81
266.823	228.81
267.055	222.81
267.287	229.81
267.52	239.81
267.752	226.81
267.984	242.81
268.216	234.81
268.448	235.81
268.681	233.81
268.913	264.81
269.145	252.81
269.377	284.81
269.609	261.81
269.841	278.81
270.073	283.81
270.306	300.81
270.538	336.81
270.77	307.81
271.002	306.81
271.234	298.81
271.466	309.81
271.698	314.81
271.93	303.81
272.162	310.81
272.394	310.81
272.626	301.81
272.858	285.81
273.09	285.81
273.322	276.81
273.553	274.81
273.785	269.81
274.017	271.81
274.249	281.81
274.481	268.81
274.713	289.81
274.945	279.81
275.176	281.81
275.408	282.81
275.64	252.81
275.872	263.81
276.104	272.81
276.335	276.81
276.567	293.81
276.799	295.81
277.031	314.81
277.262	328.81
277.494	319.81
277.726	311.81
277.957	318.81
278.189	288.81
278.421	274.81
278.652	276.81
278.884	265.81
279.115	287.81
279.347	298.81
279.579	288.81
279.81	290.81
280.042	291.81
280.273	280.81
280.505	282.81
280.736	297.81
280.968	282.81
281.199	295.81
281.431	290.81
281.662	287.81
281.894	298.81
282.125	303.81
282.356	306.81
282.588	313.81
282.819	309.81
283.051	299.81
283.282	302.81
283.513	303.81
283.745	302.81
283.976	301.81
284.207	310.81
284.439	299.81
284.67	294.81
284.901	319.81
285.132	301.81
285.364	308.81
285.595	306.81
285.826	314.81
286.057	310.81
286.288	318.81
286.52	309.81
286.751	310.81
286.982	306.81
287.213	307.81
287.444	323.81
287.675	329.81
287.906	325.81
288.138	323.81
288.369	330.81
288.6	326.81
288.831	334.81
289.062	344.81
289.293	317.81
289.524	310.81
289.755	300.81
289.986	318.81
290.217	323.81
290.448	296.81
290.679	313.81
290.91	323.81
291.141	307.81
291.371	306.81
291.602	315.81
291.833	318.81
292.064	329.81
292.295	315.81
292.526	326.81
292.757	311.81
292.987	333.81
293.218	310.81
293.449	324.81
293.68	324.81
293.91	320.81
294.141	334.81
294.372	323.81
294.603	325.81
294.833	317.81
295.064	355.81
295.295	326.81
295.525	328.81
295.756	319.81
295.987	357.81
296.217	358.81
296.448	351.81
296.679	327.81
296.909	355.81
297.14	354.81
297.37	344.81
297.601	346.81
297.831	325.81
298.062	348.81
298.292	330.81
298.523	353.81
298.753	356.81
298.984	348.81
299.214	366.81
299.445	344.81
299.675	329.81
299.905	342.81
300.136	348.81
300.366	345.81
300.597	345.81
300.827	374.81
301.057	364.81
301.288	388.81
301.518	370.81
301.748	353.81
301.979	368.81
302.209	373.81
302.439	351.81
302.669	351.81
302.9	373.81
303.13	360.81
303.36	353.81
303.59	377.81
303.82	382.81
304.051	370.81
304.281	362.81
304.511	359.81
304.741	374.81
304.971	350.81
305.201	347.81
305.431	371.81
305.661	357.81
305.891	354.81
306.121	370.81
306.352	362.81
306.582	372.81
306.812	355.81
307.042	352.81
307.272	357.81
307.502	352.81
307.731	372.81
307.961	371.81
308.191	378.81
308.421	370.81
308.651	391.81
308.881	362.81
309.111	370.81
309.341	381.81
309.571	382.81
309.8	385.81
310.03	404.81
310.26	425.81
310.49	399.81
310.72	404.81
310.949	420.81
311.179	433.81
311.409	418.81
311.639	406.81
311.868	408.81
312.098	388.81
312.328	409.81
312.557	431.81
312.787	438.81
313.017	423.81
313.246	407.81
313.476	407.81
313.706	403.81
313.935	397.81
314.165	408.81
314.394	437.81
314.624	427.81
314.853	404.81
315.083	407.81
315.312	426.81
315.542	418.81
315.771	417.81
316.001	391.81
316.23	414.81
316.46	414.81
316.689	426.81
316.919	409.81
317.148	412.81
317.377	436.81
317.607	420.81
317.836	423.81
318.065	414.81
318.295	415.81
318.524	423.81
318.753	403.81
318.983	436.81
319.212	430.81
319.441	416.81
319.67	422.81
319.9	411.81
320.129	408.81
320.358	427.81
320.587	425.81
320.816	435.81
321.046	414.81
321.275	440.81
321.504	444.81
321.733	447.81
321.962	437.81
322.191	442.81
322.42	452.81
322.649	466.81
322.878	478.81
323.108	496.81
323.337	490.81
323.566	506.81
323.795	543.81
324.024	598.81
324.253	680.81
324.482	975.81
324.71	1412.81
324.939	2050.81
325.168	1702.81
325.397	913.81
325.626	640.81
325.855	583.81
326.084	534.81
326.313	535.81
326.542	525.81
326.77	549.81
326.999	652.81
327.228	906.81
327.457	1282.81
327.686	1563.81
327.914	1034.81
328.143	709.81
328.372	630.81
328.6	591.81
328.829	578.81
329.058	600.81
329.287	579.81
329.515	559.81
329.744	535.81
329.972	527.81
330.201	490.81
330.43	567.81
330.658	580.81
330.887	622.81
331.115	606.81
331.344	539.81
331.572	490.81
331.801	530.81
332.03	546.81
332.258	516.81
332.486	528.81
332.715	498.81
332.943	524.81
333.172	495.81
333.4	518.81
333.629	540.81
333.857	548.81
334.085	540.81
334.314	542.81
334.542	548.81
334.771	547.81
334.999	536.81
335.227	516.81
335.455	499.81
335.684	511.81
335.912	499.81
336.14	498.81
336.369	498.81
336.597	505.81
336.825	510.81
337.053	484.81
337.281	498.81
337.51	488.81
337.738	488.81
337.966	464.81
338.194	471.81
338.422	478.81
338.65	482.81
338.878	478.81
339.106	456.81
339.334	480.81
339.562	480.81
339.79	453.81
340.018	458.81
340.246	458.81
340.474	501.81
340.702	487.81
340.93	463.81
341.158	442.81
341.386	479.81
341.614	473.81
341.842	483.81
342.07	463.81
342.298	464.81
342.526	454.81
342.754	461.81
342.981	455.81
343.209	443.81
343.437	452.81
343.665	481.81
343.893	495.81
344.12	493.81
344.348	485.81
344.576	480.81
344.804	475.81
345.031	480.81
345.259	493.81
345.487	469.81
345.714	470.81
345.942	440.81
346.17	467.81
346.397	442.81
346.625	440.81
346.853	445.81
347.08	442.81
347.308	451.81
347.535	468.81
347.763	447.81
347.99	443.81
348.218	458.81
348.445	442.81
348.673	454.81
348.9	454.81
349.128	446.81
349.355	429.81
349.583	431.81
349.81	435.81
350.037	400.81
350.265	421.81
350.492	412.81
350.72	430.81
350.947	445.81
351.174	441.81
351.402	431.81
351.629	450.81
351.856	447.81
352.083	458.81
352.311	455.81
352.538	460.81
352.765	456.81
352.992	448.81
353.22	446.81
353.447	444.81
353.674	447.81
353.901	442.81
354.128	448.81
354.355	434.81
354.583	419.81
354.81	412.81
355.037	413.81
355.264	418.81
355.491	412.81
355.718	425.81
355.945	406.81
356.172	416.81
356.399	406.81
356.626	421.81
356.853	412.81
357.08	407.81
357.307	407.81
357.534	418.81
357.761	401.81
357.988	434.81
358.215	418.81
358.441	416.81
358.668	406.81
358.895	410.81
359.122	426.81
359.349	430.81
359.576	431.81
359.802	465.81
360.029	490.81
360.256	485.81
360.483	463.81
360.709	439.81
360.936	422.81
361.163	411.81
361.39	429.81
361.616	442.81
361.843	423.81
362.07	436.81
362.296	442.81
362.523	441.81
362.749	425.81
362.976	426.81
363.203	432.81
363.429	425.81
363.656	419.81
363.882	408.81
364.109	433.81
364.335	404.81
364.562	397.81
364.788	400.81
365.015	407.81
365.241	428.81
365.468	404.81
365.694	412.81
365.92	399.81
366.147	421.81
366.373	411.81
366.599	424.81
366.826	409.81
367.052	395.81
367.278	401.81
367.505	402.81
367.731	420.81
367.957	416.81
368.184	412.81
368.41	430.81
368.636	448.81
368.862	441.81
369.089	446.81
369.315	429.81
369.541	404.81
369.767	423.81
369.993	414.81
370.219	401.81
370.445	442.81
370.672	411.81
370.898	414.81
371.124	428.81
371.35	416.81
371.576	435.81
371.802	423.81
372.028	413.81
372.254	416.81
372.48	430.81
372.706	422.81
372.932	418.81
373.158	444.81
373.384	436.81
373.61	426.81
373.835	432.81
374.061	408.81
374.287	446.81
374.513	422.81
374.739	444.81
374.965	452.81
375.191	469.81
375.416	431.81
375.642	442.81
375.868	440.81
376.094	420.81
376.319	416.81
376.545	420.81
376.771	429.81
376.997	410.81
377.222	427.81
377.448	418.81
377.674	408.81
377.899	409.81
378.125	396.81
378.35	413.81
378.576	410.81
378.802	411.81
379.027	403.81
379.253	410.81
379.478	412.81
379.704	390.81
379.929	400.81
380.155	414.81
380.38	399.81
380.606	425.81
380.831	423.81
381.057	429.81
381.282	423.81
381.507	424.81
381.733	426.81
381.958	450.81
382.184	407.81
382.409	406.81
382.634	429.81
382.86	434.81
383.085	438.81
383.31	450.81
383.535	444.81
383.761	430.81
383.986	436.81
384.211	440.81
384.436	450.81
384.662	445.81
384.887	444.81
385.112	455.81
385.337	447.81
385.562	440.81
385.787	453.81
386.013	456.81
386.238	462.81
386.463	478.81
386.688	464.81
386.913	460.81
387.138	424.81
387.363	462.81
387.588	467.81
387.813	469.81
388.038	454.81
388.263	459.81
388.488	461.81
388.713	446.81
388.938	470.81
389.163	471.81
389.387	465.81
389.612	477.81
389.837	460.81
390.062	454.81
390.287	440.81
390.512	445.81
390.736	462.81
390.961	446.81
391.186	489.81
391.411	470.81
391.636	476.81
391.86	488.81
392.085	513.81
392.31	503.81
392.534	482.81
392.759	478.81
392.984	489.81
393.208	456.81
393.433	472.81
393.658	465.81
393.882	471.81
394.107	472.81
394.331	484.81
394.556	475.81
394.78	482.81
395.005	488.81
395.229	474.81
395.454	495.81
395.678	508.81
395.903	470.81
396.127	506.81
396.352	498.81
396.576	486.81
396.801	474.81
397.025	472.81
397.249	494.81
397.474	487.81
397.698	517.81
397.922	518.81
398.147	532.81
398.371	508.81
398.595	536.81
398.82	516.81
399.044	537.81
399.268	589.81
399.492	640.81
399.717	671.81
399.941	692.81
400.165	683.81
400.389	668.81
400.613	618.81
400.837	568.81
401.062	560.81
401.286	564.81
401.51	528.81
401.734	517.81
401.958	544.81
402.182	537.81
402.406	538.81
402.63	576.81
402.854	570.81
403.078	574.81
403.302	569.81
403.526	586.81
403.75	572.81
403.974	583.81
404.198	584.81
404.422	585.81
404.645	587.81
404.869	572.81
405.093	599.81
405.317	635.81
405.541	646.81
405.765	610.81
405.988	576.81
406.212	574.81
406.436	613.81
406.66	627.81
406.883	606.81
407.107	624.81
407.331	666.81
407.555	740.81
407.778	735.81
408.002	684.81
408.226	623.81
408.449	618.81
408.673	614.81
408.896	638.81
409.12	664.81
409.344	655.81
409.567	574.81
409.791	586.81
410.014	562.81
410.238	564.81
410.461	559.81
410.685	548.81
410.908	574.81
411.132	604.81
411.355	618.81
411.578	607.81
411.802	563.81
412.025	554.81
412.249	555.81
412.472	573.81
412.695	590.81
412.919	565.81
413.142	566.81
413.365	535.81
413.589	536.81
413.812	516.81
414.035	519.81
414.258	533.81
414.482	518.81
414.705	528.81
414.928	528.81
415.151	526.81
415.374	513.81
415.597	513.81
415.821	516.81
416.044	495.81
416.267	510.81
416.49	510.81
416.713	506.81
416.936	528.81
417.159	522.81
417.382	546.81
417.605	538.81
417.828	530.81
418.051	535.81
418.274	530.81
418.497	541.81
418.72	521.81
418.943	487.81
419.166	562.81
419.389	557.81
419.611	566.81
419.834	558.81
420.057	537.81
420.28	533.81
420.503	549.81
420.726	549.81
420.948	546.81
421.171	589.81
421.394	624.81
421.617	532.81
421.839	546.81
422.062	553.81
422.285	551.81
422.507	613.81
422.73	676.81
422.953	668.81
423.175	601.81
423.398	565.81
423.621	570.81
423.843	604.81
424.066	579.81
424.288	572.81
424.511	591.81
424.733	654.81
424.956	704.81
425.178	674.81
425.401	657.81
425.623	687.81
425.846	601.81
426.068	559.81
426.291	560.81
426.513	572.81
426.735	558.81
426.958	605.81
427.18	682.81
427.402	774.81
427.625	868.81
427.847	771.81
428.069	632.81
428.292	582.81
428.514	569.81
428.736	527.81
428.958	532.81
429.181	522.81
429.403	506.81
429.625	500.81
429.847	566.81
430.069	601.81
430.292	598.81
430.514	518.81
430.736	507.81
430.958	521.81
431.18	496.81
431.402	484.81
431.624	489.81
431.846	467.81
432.068	488.81
432.29	503.81
432.512	486.81
432.734	488.81
432.956	511.81
433.178	479.81
433.4	520.81
433.622	506.81
433.844	499.81
434.066	500.81
434.287	509.81
434.509	503.81
434.731	510.81
434.953	516.81
435.175	520.81
435.397	550.81
435.618	579.81
435.84	586.81
436.062	684.81
436.284	717.81
436.505	620.81
436.727	563.81
436.949	542.81
437.17	516.81
437.392	499.81
437.614	516.81
437.835	569.81
438.057	645.81
438.278	716.81
438.5	741.81
438.721	815.81
438.943	755.81
439.165	625.81
439.386	572.81
439.608	543.81
439.829	568.81
440.05	590.81
440.272	628.81
440.493	583.81
440.715	536.81
440.936	527.81
441.158	518.81
441.379	535.81
441.6	555.81
441.822	548.81
442.043	592.81
442.264	678.81
442.486	715.81
442.707	620.81
442.928	563.81
443.149	584.81
443.371	615.81
443.592	663.81
443.813	715.81
444.034	765.81
444.255	682.81
444.476	592.81
444.698	594.81
444.919	600.81
445.14	730.81
445.361	643.81
445.582	628.81
445.803	645.81
446.024	730.81
446.245	744.81
446.466	675.81
446.687	596.81
446.908	559.81
447.129	532.81
447.35	512.81
447.571	506.81
447.792	477.81
448.013	507.81
448.234	512.81
448.455	571.81
448.675	665.81
448.896	774.81
449.117	662.81
449.338	632.81
449.559	719.81
449.779	829.81
450	646.81
450.221	527.81
450.442	494.81
450.662	502.81
450.883	488.81
451.104	503.81
451.324	506.81
451.545	507.81
451.766	472.81
451.986	468.81
452.207	472.81
452.428	443.81
452.648	426.81
452.869	471.81
453.089	472.81
453.31	490.81
453.53	477.81
453.751	461.81
453.971	453.81
454.192	485.81
454.412	469.81
454.633	439.81
454.853	442.81
455.073	466.81
455.294	471.81
455.514	543.81
455.734	512.81
455.955	463.81
456.175	440.81
456.395	410.81
456.616	420.81
456.836	429.81
457.056	425.81
457.276	434.81
457.497	446.81
457.717	438.81
457.937	438.81
458.157	442.81
458.377	442.81
458.598	489.81
458.818	527.81
459.038	578.81
459.258	596.81
459.478	524.81
459.698	522.81
459.918	519.81
460.138	522.81
460.358	535.81
460.578	526.81
460.798	538.81
461.018	521.81
461.238	522.81
461.458	521.81
461.678	504.81
461.898	532.81
462.118	550.81
462.338	576.81
462.558	564.81
462.777	562.81
462.997	616.81
463.217	615.81
463.437	615.81
463.657	595.81
463.876	580.81
464.096	570.81
464.316	571.81
464.536	598.81
464.755	578.81
464.975	570.81
465.195	622.81
465.414	653.81
465.634	590.81
465.854	518.81
466.073	492.81
466.293	504.81
466.512	487.81
466.732	472.81
466.951	486.81
467.171	482.81
467.391	480.81
467.61	490.81
467.829	482.81
468.049	488.81
468.268	518.81
468.488	464.81
468.707	475.81
468.927	443.81
469.146	476.81
469.365	476.81
469.585	485.81
469.804	476.81
470.023	485.81
470.243	491.81
470.462	501.81
470.681	519.81
470.901	516.81
471.12	472.81
471.339	518.81
471.558	478.81
471.777	488.81
471.997	458.81
472.216	475.81
472.435	485.81
472.654	472.81
472.873	467.81
473.092	463.81
473.311	465.81
473.53	464.81
473.749	492.81
473.968	490.81
474.187	609.81
474.406	614.81
474.625	498.81
474.844	491.81
475.063	462.81
475.282	474.81
475.501	462.81
475.72	496.81
475.939	467.81
476.158	526.81
476.377	495.81
476.596	503.81
476.814	507.81
477.033	510.81
477.252	505.81
477.471	523.81
477.69	515.81
477.908	543.81
478.127	516.81
478.346	545.81
478.564	538.81
478.783	552.81
479.002	546.81
479.22	560.81
479.439	560.81
479.658	581.81
479.876	598.81
480.095	590.81
480.313	616.81
480.532	599.81
480.751	586.81
480.969	595.81
481.188	614.81
481.406	608.81
481.624	568.81
481.843	576.81
482.061	558.81
482.28	557.81
482.498	548.81
482.717	556.81
482.935	532.81
483.153	535.81
483.372	548.81
483.59	553.81
483.808	525.81
484.027	551.81
484.245	533.81
484.463	549.81
484.681	584.81
484.9	564.81
485.118	597.81
485.336	570.81
485.554	586.81
485.772	577.81
485.99	580.81
486.209	588.81
486.427	576.81
486.645	598.81
486.863	607.81
487.081	593.81
487.299	595.81
487.517	612.81
487.735	590.81
487.953	602.81
488.171	597.81
488.389	574.81
488.607	595.81
488.825	608.81
489.043	586.81
489.261	594.81
489.479	570.81
489.696	594.81
489.914	603.81
490.132	604.81
490.35	626.81
490.568	609.81
490.786	618.81
491.003	642.81
491.221	645.81
491.439	657.81
491.657	660.81
491.874	662.81
492.092	676.81
492.31	672.81
492.527	686.81
492.745	693.81
492.963	657.81
493.18	685.81
493.398	675.81
493.615	690.81
493.833	664.81
494.05	685.81
494.268	682.81
494.485	673.81
494.703	670.81
494.92	713.81
495.138	690.81
495.355	695.81
495.573	669.81
495.79	686.81
496.008	698.81
496.225	692.81
496.442	707.81
496.66	685.81
496.877	683.81
497.094	719.81
497.312	725.81
497.529	733.81
497.746	743.81
497.963	723.81
498.181	783.81
498.398	794.81
498.615	806.81
498.832	864.81
499.049	874.81
499.267	869.81
499.484	930.81
499.701	1000.81
499.918	1013.81
500.135	1101.81
500.352	1183.81
500.569	1202.81
500.786	1202.81
501.003	1140.81
501.22	1116.81
501.437	1065.81
501.654	995.81
501.871	975.81
502.088	921.81
502.305	891.81
502.522	830.81
502.739	828.81
502.956	826.81
503.172	768.81
503.389	760.81
503.606	742.81
503.823	750.81
504.04	736.81
504.256	726.81
504.473	739.81
504.69	706.81
504.907	725.81
505.123	701.81
505.34	670.81
505.557	683.81
505.773	680.81
505.99	707.81
506.207	675.81
506.423	673.81
506.64	643.81
506.856	681.81
507.073	636.81
507.289	644.81
507.506	642.81
507.722	661.81
507.939	651.81
508.155	646.81
508.372	630.81
508.588	622.81
508.805	611.81
509.021	621.81
509.238	628.81
509.454	628.81
509.67	626.81
509.887	633.81
510.103	631.81
510.319	616.81
510.536	720.81
510.752	1166.81
510.968	939.81
511.184	655.81
511.401	608.81
511.617	594.81
511.833	585.81
512.049	588.81
512.265	566.81
512.481	587.81
512.698	579.81
512.914	555.81
513.13	587.81
513.346	578.81
513.562	590.81
513.778	583.81
513.994	603.81
514.21	601.81
514.426	640.81
514.642	631.81
514.858	682.81
515.074	710.81
515.29	844.81
515.506	1261.81
515.721	1068.81
515.937	729.81
516.153	674.81
516.369	655.81
516.585	662.81
516.801	646.81
517.016	648.81
517.232	664.81
517.448	672.81
517.664	650.81
517.879	649.81
518.095	663.81
518.311	674.81
518.527	650.81
518.742	639.81
518.958	631.81
519.173	618.81
519.389	606.81
519.605	583.81
519.82	583.81
520.036	608.81
520.251	619.81
520.467	631.81
520.682	640.81
520.898	643.81
521.113	681.81
521.329	701.81
521.544	770.81
521.76	937.81
521.975	1609.81
522.19	1661.81
522.406	892.81
522.621	656.81
522.836	613.81
523.052	598.81
523.267	573.81
523.482	534.81
523.698	542.81
523.913	558.81
524.128	563.81
524.343	516.81
524.559	539.81
524.774	514.81
524.989	524.81
525.204	546.81
525.419	500.81
525.634	516.81
525.849	517.81
526.064	500.81
526.28	512.81
526.495	487.81
526.71	521.81
526.925	488.81
527.14	509.81
527.355	495.81
527.57	488.81
527.785	484.81
527.999	475.81
528.214	487.81
528.429	494.81
528.644	491.81
528.859	488.81
529.074	494.81
529.289	515.81
529.503	588.81
529.718	569.81
529.933	506.81
530.148	483.81
530.363	489.81
530.577	471.81
530.792	476.81
531.007	459.81
531.221	458.81
531.436	463.81
531.651	498.81
531.865	466.81
532.08	467.81
532.295	476.81
532.509	487.81
532.724	487.81
532.938	474.81
533.153	471.81
533.367	465.81
533.582	467.81
533.796	463.81
534.011	450.81
534.225	460.81
534.44	457.81
534.654	456.81
534.868	464.81
535.083	483.81
535.297	473.81
535.511	474.81
535.726	487.81
535.94	486.81
536.154	455.81
536.369	435.81
536.583	460.81
536.797	448.81
537.011	469.81
537.225	427.81
537.44	445.81
537.654	455.81
537.868	438.81
538.082	457.81
538.296	461.81
538.51	459.81
538.724	443.81
538.938	440.81
539.153	446.81
539.367	471.81
539.581	466.81
539.795	432.81
540.009	445.81
540.222	437.81
540.436	449.81
540.65	454.81
540.864	449.81
541.078	438.81
541.292	464.81
541.506	439.81
541.72	442.81
541.934	431.81
542.147	439.81
542.361	443.81
542.575	427.81
542.789	458.81
543.002	450.81
543.216	444.81
543.43	438.81
543.644	435.81
543.857	439.81
544.071	448.81
544.285	451.81
544.498	426.81
544.712	431.81
544.925	431.81
545.139	441.81
545.352	422.81
545.566	424.81
545.779	444.81
545.993	442.81
546.206	459.81
546.42	429.81
546.633	428.81
546.847	411.81
547.06	428.81
547.274	440.81
547.487	438.81
547.7	437.81
547.914	428.81
548.127	421.81
548.34	446.81
548.554	424.81
548.767	431.81
548.98	430.81
549.193	419.81
549.407	445.81
549.62	436.81
549.833	431.81
550.046	435.81
550.259	442.81
550.473	403.81
550.686	435.81
550.899	427.81
551.112	399.81
551.325	406.81
551.538	407.81
551.751	438.81
551.964	433.81
552.177	436.81
552.39	418.81
552.603	431.81
552.816	442.81
553.029	437.81
553.242	443.81
553.455	474.81
553.667	464.81
553.88	436.81
554.093	450.81
554.306	453.81
554.519	423.81
554.732	423.81
554.944	404.81
555.157	412.81
555.37	423.81
555.583	401.81
555.795	408.81
556.008	398.81
556.221	396.81
556.433	404.81
556.646	382.81
556.859	380.81
557.071	407.81
557.284	386.81
557.496	412.81
557.709	370.81
557.921	380.81
558.134	388.81
558.346	386.81
558.559	363.81
558.771	358.81
558.984	408.81
559.196	390.81
559.409	395.81
559.621	375.81
559.833	368.81
560.046	374.81
560.258	370.81
560.47	380.81
560.683	399.81
560.895	376.81
561.107	365.81
561.32	356.81
561.532	392.81
561.744	382.81
561.956	379.81
562.168	372.81
562.381	400.81
562.593	389.81
562.805	389.81
563.017	382.81
563.229	350.81
563.441	361.81
563.653	380.81
563.865	382.81
564.077	397.81
564.289	373.81
564.501	395.81
564.713	406.81
564.925	391.81
565.137	420.81
565.349	410.81
565.561	427.81
565.773	411.81
565.985	439.81
566.197	463.81
566.408	468.81
566.62	484.81
566.832	524.81
567.044	514.81
567.255	528.81
567.467	529.81
567.679	532.81
567.891	544.81
568.102	543.81
568.314	521.81
568.526	498.81
568.737	483.81
568.949	457.81
569.161	447.81
569.372	423.81
569.584	419.81
569.795	384.81
570.007	406.81
570.218	443.81
570.43	428.81
570.641	372.81
570.853	379.81
571.064	395.81
571.276	378.81
571.487	388.81
571.698	354.81
571.91	358.81
572.121	360.81
572.333	350.81
572.544	360.81
572.755	366.81
572.966	351.81
573.178	347.81
573.389	315.81
573.6	350.81
573.811	340.81
574.023	327.81
574.234	305.81
574.445	324.81
574.656	320.81
574.867	324.81
575.078	326.81
575.289	325.81
575.501	338.81
575.712	340.81
575.923	320.81
576.134	310.81
576.345	311.81
576.556	313.81
576.767	319.81
576.978	315.81
577.188	324.81
577.399	326.81
577.61	323.81
577.821	306.81
578.032	316.81
578.243	370.81
578.454	572.81
578.665	402.81
578.875	318.81
579.086	310.81
579.297	312.81
579.508	312.81
579.718	311.81
579.929	297.81
580.14	300.81
580.35	303.81
580.561	286.81
580.772	295.81
580.982	297.81
581.193	296.81
581.403	302.81
581.614	298.81
581.825	304.81
582.035	302.81
582.246	283.81
582.456	299.81
582.667	301.81
582.877	283.81
583.087	299.81
583.298	278.81
583.508	290.81
583.719	300.81
583.929	311.81
584.139	296.81
584.35	298.81
584.56	287.81
584.77	289.81
584.981	309.81
585.191	280.81
585.401	284.81
585.611	281.81
585.821	286.81
586.032	269.81
586.242	276.81
586.452	294.81
586.662	291.81
586.872	290.81
587.082	299.81
587.292	283.81
587.502	274.81
587.713	281.81
587.923	272.81
588.133	290.81
588.343	287.81
588.553	279.81
588.762	282.81
588.972	269.81
589.182	284.81
589.392	290.81
589.602	272.81
589.812	276.81
590.022	276.81
590.232	302.81
590.441	291.81
590.651	278.81
590.861	300.81
591.071	292.81
591.281	298.81
591.49	302.81
591.7	294.81
591.91	299.81
592.119	300.81
592.329	298.81
592.539	279.81
592.748	312.81
592.958	322.81
593.167	307.81
593.377	300.81
593.587	329.81
593.796	330.81
594.006	318.81
594.215	316.81
594.424	320.81
594.634	309.81
594.843	310.81
595.053	322.81
595.262	309.81
595.472	291.81
595.681	304.81
595.89	297.81
596.1	283.81
596.309	282.81
596.518	261.81
596.727	264.81
596.937	265.81
597.146	258.81
597.355	248.81
597.564	280.81
597.774	250.81
597.983	263.81
598.192	249.81
598.401	275.81
598.61	254.81
598.819	251.81
599.028	249.81
599.237	263.81
599.446	247.81
599.655	249.81
599.864	270.81
600.073	270.81
600.282	265.81
600.491	256.81
600.7	237.81
600.909	270.81
601.118	262.81
601.327	245.81
601.536	262.81
601.745	259.81
601.953	246.81
602.162	230.81
602.371	250.81
602.58	245.81
602.789	246.81
602.997	230.81
603.206	250.81
603.415	251.81
603.623	245.81
603.832	232.81
604.041	251.81
604.249	234.81
604.458	245.81
604.666	233.81
604.875	242.81
605.084	214.81
605.292	216.81
605.501	223.81
605.709	235.81
605.918	235.81
606.126	232.81
606.334	252.81
606.543	235.81
606.751	240.81
606.96	230.81
607.168	234.81
607.376	222.81
607.585	230.81
607.793	244.81
608.001	226.81
608.21	252.81
608.418	219.81
608.626	239.81
608.834	233.81
609.043	224.81
609.251	226.81
609.459	228.81
609.667	228.81
609.875	231.81
610.083	228.81
610.291	215.81
610.499	228.81
610.707	230.81
610.916	228.81
611.124	230.81
611.332	244.81
611.54	237.81
611.748	236.81
611.955	226.81
612.163	232.81
612.371	223.81
612.579	223.81
612.787	222.81
612.995	228.81
613.203	237.81
613.411	214.81
613.618	242.81
613.826	218.81
614.034	221.81
614.242	242.81
614.449	214.81
614.657	223.81
614.865	229.81
615.072	242.81
615.28	214.81
615.488	228.81
615.695	239.81
615.903	211.81
616.111	209.81
616.318	227.81
616.526	220.81
616.733	226.81
616.941	219.81
617.148	216.81
617.356	230.81
617.563	215.81
617.771	220.81
617.978	222.81
618.185	208.81
618.393	224.81
618.6	216.81
618.807	213.81
619.015	215.81
619.222	223.81
619.429	213.81
619.637	219.81
619.844	231.81
620.051	221.81
620.258	200.81
620.466	215.81
620.673	233.81
620.88	204.81
621.087	205.81
621.294	228.81
621.501	205.81
621.708	192.81
621.915	206.81
622.122	214.81
622.329	237.81
622.536	235.81
622.743	216.81
622.95	214.81
623.157	216.81
623.364	212.81
623.571	206.81
623.778	226.81
623.985	221.81
624.192	186.81
624.399	187.81
624.606	194.81
624.812	204.81
625.019	203.81
625.226	192.81
625.433	191.81
625.639	193.81
625.846	196.81
626.053	195.81
626.259	216.81
626.466	198.81
626.673	202.81
626.879	186.81
627.086	216.81
627.293	200.81
627.499	202.81
627.706	196.81
627.912	208.81
628.119	191.81
628.325	190.81
628.532	203.81
628.738	175.81
628.945	197.81
629.151	188.81
629.357	207.81
629.564	187.81
629.77	186.81
629.976	174.81
630.183	185.81
630.389	194.81
630.595	185.81
630.802	184.81
631.008	194.81
631.214	183.81
631.42	198.81
631.627	191.81
631.833	174.81
632.039	160.81
632.245	158.81
632.451	195.81
632.657	166.81
632.863	184.81
633.069	171.81
633.275	180.81
633.481	194.81
633.688	181.81
633.893	184.81
634.099	185.81
634.305	175.81
634.511	194.81
634.717	175.81
634.923	166.81
635.129	180.81
635.335	179.81
635.541	178.81
635.747	171.81
635.952	169.81
636.158	181.81
636.364	180.81
636.57	166.81
636.775	194.81
636.981	191.81
637.187	181.81
637.392	177.81
637.598	184.81
637.804	185.81
638.009	171.81
638.215	171.81
638.421	183.81
638.626	167.81
638.832	166.81
639.037	161.81
639.243	172.81
639.448	170.81
639.654	167.81
639.859	183.81
640.065	166.81
640.27	161.81
640.475	168.81
640.681	182.81
640.886	178.81
641.091	181.81
641.297	175.81
641.502	184.81
641.707	175.81
641.913	167.81
642.118	172.81
642.323	161.81
642.528	171.81
642.733	167.81
642.939	170.81
643.144	164.81
643.349	155.81
643.554	171.81
643.759	163.81
643.964	161.81
644.169	169.81
644.374	147.81
644.579	159.81
644.784	162.81
644.989	145.81
645.194	168.81
645.399	157.81
645.604	162.81
645.809	152.81
646.014	154.81
646.219	168.81
646.423	154.81
646.628	158.81
646.833	155.81
647.038	183.81
647.243	163.81
647.447	169.81
647.652	152.81
647.857	146.81
648.062	165.81
648.266	173.81
648.471	182.81
648.676	175.81
648.88	165.81
649.085	170.81
649.289	151.81
649.494	166.81
649.698	181.81
649.903	171.81
650.107	152.81
650.312	156.81
650.516	155.81
650.721	154.81
650.925	137.81
651.13	159.81
651.334	136.81
651.539	147.81
651.743	151.81
651.947	135.81
652.152	148.81
652.356	144.81
652.56	146.81
652.764	131.81
652.969	142.81
653.173	133.81
653.377	123.81
653.581	142.81
653.785	129.81
653.99	132.81
654.194	126.81
654.398	131.81
654.602	147.81
654.806	134.81
655.01	139.81
655.214	135.81
655.418	126.81
655.622	138.81
655.826	144.81
656.03	153.81
656.234	146.81
656.438	145.81
656.642	135.81
656.846	140.81
657.049	133.81
657.253	114.81
657.457	121.81
657.661	119.81
657.865	126.81
658.068	115.81
658.272	121.81
658.476	107.81
658.68	111.81
658.883	100.81
659.087	103.81
659.291	105.81
659.494	99.81
659.698	94.81
659.901	88.81
660.105	101.81
660.309	100.81
660.512	96.81
660.716	99.81
660.919	89.81
661.123	111.81
661.326	95.81
661.53	105.81
661.733	86.81
661.936	80.81
662.14	101.81
662.343	84.81
662.546	87.81
662.75	103.81
662.953	99.81
663.156	78.81
663.36	78.81
663.563	79.81
663.766	90.81
663.969	84.81
664.173	93.81
664.376	75.81
664.579	99.81
664.782	91.81
664.985	89.81
665.188	79.81
665.391	91.81
665.594	79.81
665.797	91.81
666	78.81
666.203	85.81
666.406	98.81
666.609	100.81
666.812	82.81
667.015	86.81
667.218	70.81
667.421	77.81
667.624	91.81
667.827	90.81
668.03	100.81
668.232	84.81
668.435	91.81
668.638	73.81
668.841	63.81
669.043	74.81
669.246	89.81
669.449	74.81
669.651	84.81
669.854	80.81
670.057	75.81
670.259	82.81
670.462	93.81
670.665	71.81
670.867	91.81
671.07	87.81
671.272	74.81
671.475	86.81
671.677	69.81
671.88	74.81
672.082	83.81
672.284	86.81
672.487	86.81
672.689	93.81
672.892	88.81
