Data from 1985.PennyLincolnUp.Lamp.En5.5.200Scan.071819.P1_HRD10591_17-02-18-970.txt Node
Date: Thu Jul 18 17:02:18 EDT 2019
User: cochatt
Spectrometer: HR+D1059
Trigger mode: 1
Integration Time (sec): 1.000000E-1
Scans to average: 1
Electric dark correction enabled: true
Nonlinearity correction enabled: false
Boxcar width: 0
XAxis mode: Wavelengths
Number of Pixels in Spectrum: 2048
>>>>>Begin Spectral Data<<<<<
223.165	-14.12
223.4	-14.12
223.635	-14.12
223.869	-8.12
224.104	-19.12
224.338	-21.12
224.573	-17.12
224.808	-11.12
225.042	-1.12
225.277	1.88
225.511	1.88
225.746	1.88
225.98	0.88
226.215	2.88
226.449	14.88
226.683	23.88
226.918	11.88
227.152	31.88
227.387	41.88
227.621	46.88
227.856	39.88
228.09	45.88
228.324	57.88
228.559	69.88
228.793	65.88
229.027	87.88
229.262	95.88
229.496	109.88
229.73	134.88
229.964	155.88
230.199	124.88
230.433	106.88
230.667	117.88
230.901	113.88
231.136	109.88
231.37	97.88
231.604	120.88
231.838	101.88
232.072	121.88
232.306	120.88
232.541	121.88
232.775	100.88
233.009	118.88
233.243	120.88
233.477	99.88
233.711	126.88
233.945	126.88
234.179	124.88
234.413	131.88
234.647	114.88
234.881	113.88
235.115	119.88
235.349	130.88
235.583	122.88
235.817	128.88
236.051	120.88
236.285	133.88
236.519	120.88
236.753	130.88
236.987	146.88
237.221	168.88
237.455	223.88
237.689	172.88
237.922	140.88
238.156	137.88
238.39	126.88
238.624	121.88
238.858	121.88
239.091	126.88
239.325	123.88
239.559	130.88
239.793	139.88
240.027	148.88
240.26	147.88
240.494	150.88
240.728	146.88
240.961	162.88
241.195	144.88
241.429	146.88
241.662	135.88
241.896	147.88
242.13	137.88
242.363	143.88
242.597	137.88
242.83	140.88
243.064	140.88
243.298	144.88
243.531	133.88
243.765	143.88
243.998	141.88
244.232	139.88
244.465	161.88
244.699	143.88
244.932	150.88
245.166	140.88
245.399	146.88
245.633	163.88
245.866	135.88
246.099	133.88
246.333	151.88
246.566	166.88
246.8	153.88
247.033	165.88
247.266	166.88
247.5	162.88
247.733	170.88
247.966	173.88
248.2	164.88
248.433	180.88
248.666	168.88
248.899	196.88
249.133	203.88
249.366	197.88
249.599	183.88
249.832	167.88
250.066	181.88
250.299	181.88
250.532	178.88
250.765	185.88
250.998	210.88
251.231	219.88
251.465	208.88
251.698	200.88
251.931	197.88
252.164	189.88
252.397	197.88
252.63	200.88
252.863	218.88
253.096	211.88
253.329	213.88
253.562	219.88
253.795	201.88
254.028	196.88
254.261	209.88
254.494	228.88
254.727	259.88
254.96	280.88
255.193	257.88
255.426	241.88
255.659	214.88
255.892	217.88
256.124	195.88
256.357	213.88
256.59	212.88
256.823	205.88
257.056	211.88
257.289	199.88
257.521	214.88
257.754	207.88
257.987	206.88
258.22	214.88
258.452	207.88
258.685	206.88
258.918	225.88
259.151	217.88
259.383	225.88
259.616	219.88
259.849	228.88
260.081	231.88
260.314	242.88
260.547	261.88
260.779	257.88
261.012	215.88
261.244	228.88
261.477	226.88
261.71	213.88
261.942	230.88
262.175	233.88
262.407	234.88
262.64	210.88
262.872	225.88
263.105	219.88
263.337	222.88
263.57	207.88
263.802	213.88
264.035	224.88
264.267	222.88
264.499	225.88
264.732	223.88
264.964	227.88
265.197	214.88
265.429	222.88
265.661	225.88
265.894	221.88
266.126	241.88
266.358	243.88
266.591	237.88
266.823	232.88
267.055	223.88
267.287	226.88
267.52	224.88
267.752	244.88
267.984	230.88
268.216	250.88
268.448	245.88
268.681	258.88
268.913	275.88
269.145	281.88
269.377	277.88
269.609	298.88
269.841	275.88
270.073	278.88
270.306	294.88
270.538	318.88
270.77	316.88
271.002	327.88
271.234	306.88
271.466	293.88
271.698	318.88
271.93	338.88
272.162	331.88
272.394	334.88
272.626	311.88
272.858	301.88
273.09	291.88
273.322	285.88
273.553	291.88
273.785	261.88
274.017	266.88
274.249	271.88
274.481	266.88
274.713	280.88
274.945	298.88
275.176	259.88
275.408	277.88
275.64	263.88
275.872	269.88
276.104	258.88
276.335	269.88
276.567	277.88
276.799	321.88
277.031	325.88
277.262	342.88
277.494	321.88
277.726	331.88
277.957	306.88
278.189	299.88
278.421	282.88
278.652	275.88
278.884	292.88
279.115	294.88
279.347	277.88
279.579	296.88
279.81	283.88
280.042	287.88
280.273	280.88
280.505	282.88
280.736	296.88
280.968	269.88
281.199	287.88
281.431	274.88
281.662	286.88
281.894	294.88
282.125	290.88
282.356	321.88
282.588	334.88
282.819	324.88
283.051	303.88
283.282	291.88
283.513	299.88
283.745	295.88
283.976	304.88
284.207	311.88
284.439	312.88
284.67	321.88
284.901	320.88
285.132	297.88
285.364	302.88
285.595	310.88
285.826	312.88
286.057	313.88
286.288	299.88
286.52	306.88
286.751	310.88
286.982	302.88
287.213	300.88
287.444	309.88
287.675	317.88
287.906	332.88
288.138	336.88
288.369	327.88
288.6	335.88
288.831	330.88
289.062	310.88
289.293	326.88
289.524	323.88
289.755	321.88
289.986	314.88
290.217	319.88
290.448	326.88
290.679	293.88
290.91	333.88
291.141	310.88
291.371	314.88
291.602	317.88
291.833	315.88
292.064	326.88
292.295	309.88
292.526	327.88
292.757	315.88
292.987	317.88
293.218	302.88
293.449	309.88
293.68	328.88
293.91	315.88
294.141	308.88
294.372	319.88
294.603	334.88
294.833	327.88
295.064	340.88
295.295	347.88
295.525	329.88
295.756	324.88
295.987	317.88
296.217	349.88
296.448	359.88
296.679	336.88
296.909	336.88
297.14	334.88
297.37	342.88
297.601	359.88
297.831	346.88
298.062	339.88
298.292	339.88
298.523	350.88
298.753	349.88
298.984	359.88
299.214	350.88
299.445	333.88
299.675	349.88
299.905	365.88
300.136	353.88
300.366	358.88
300.597	347.88
300.827	365.88
301.057	360.88
301.288	369.88
301.518	351.88
301.748	377.88
301.979	375.88
302.209	372.88
302.439	369.88
302.669	363.88
302.9	358.88
303.13	363.88
303.36	351.88
303.59	362.88
303.82	358.88
304.051	384.88
304.281	379.88
304.511	378.88
304.741	353.88
304.971	355.88
305.201	365.88
305.431	379.88
305.661	379.88
305.891	357.88
306.121	365.88
306.352	381.88
306.582	382.88
306.812	384.88
307.042	375.88
307.272	373.88
307.502	379.88
307.731	361.88
307.961	379.88
308.191	356.88
308.421	364.88
308.651	370.88
308.881	395.88
309.111	382.88
309.341	394.88
309.571	385.88
309.8	391.88
310.03	396.88
310.26	409.88
310.49	414.88
310.72	400.88
310.949	419.88
311.179	439.88
311.409	413.88
311.639	416.88
311.868	413.88
312.098	399.88
312.328	400.88
312.557	439.88
312.787	443.88
313.017	440.88
313.246	426.88
313.476	411.88
313.706	413.88
313.935	425.88
314.165	437.88
314.394	442.88
314.624	439.88
314.853	446.88
315.083	421.88
315.312	424.88
315.542	414.88
315.771	411.88
316.001	408.88
316.23	397.88
316.46	411.88
316.689	419.88
316.919	416.88
317.148	404.88
317.377	418.88
317.607	424.88
317.836	420.88
318.065	417.88
318.295	415.88
318.524	396.88
318.753	405.88
318.983	423.88
319.212	405.88
319.441	401.88
319.67	405.88
319.9	413.88
320.129	383.88
320.358	405.88
320.587	421.88
320.816	423.88
321.046	419.88
321.275	422.88
321.504	436.88
321.733	439.88
321.962	461.88
322.191	452.88
322.42	435.88
322.649	468.88
322.878	474.88
323.108	479.88
323.337	514.88
323.566	515.88
323.795	526.88
324.024	581.88
324.253	692.88
324.482	959.88
324.71	1404.88
324.939	2022.88
325.168	1661.88
325.397	906.88
325.626	638.88
325.855	579.88
326.084	528.88
326.313	511.88
326.542	506.88
326.77	579.88
326.999	651.88
327.228	859.88
327.457	1260.88
327.686	1441.88
327.914	999.88
328.143	691.88
328.372	630.88
328.6	597.88
328.829	556.88
329.058	571.88
329.287	608.88
329.515	585.88
329.744	524.88
329.972	513.88
330.201	520.88
330.43	562.88
330.658	567.88
330.887	623.88
331.115	607.88
331.344	534.88
331.572	536.88
331.801	528.88
332.03	538.88
332.258	504.88
332.486	503.88
332.715	517.88
332.943	503.88
333.172	503.88
333.4	523.88
333.629	533.88
333.857	525.88
334.085	527.88
334.314	519.88
334.542	548.88
334.771	521.88
334.999	543.88
335.227	521.88
335.455	502.88
335.684	484.88
335.912	493.88
336.14	504.88
336.369	499.88
336.597	510.88
336.825	493.88
337.053	507.88
337.281	489.88
337.51	475.88
337.738	497.88
337.966	491.88
338.194	495.88
338.422	490.88
338.65	473.88
338.878	469.88
339.106	473.88
339.334	457.88
339.562	477.88
339.79	483.88
340.018	471.88
340.246	461.88
340.474	474.88
340.702	485.88
340.93	464.88
341.158	486.88
341.386	463.88
341.614	478.88
341.842	468.88
342.07	472.88
342.298	467.88
342.526	464.88
342.754	471.88
342.981	444.88
343.209	440.88
343.437	471.88
343.665	478.88
343.893	477.88
344.12	487.88
344.348	513.88
344.576	518.88
344.804	501.88
345.031	491.88
345.259	483.88
345.487	478.88
345.714	471.88
345.942	453.88
346.17	440.88
346.397	453.88
346.625	445.88
346.853	450.88
347.08	441.88
347.308	449.88
347.535	458.88
347.763	464.88
347.99	462.88
348.218	447.88
348.445	426.88
348.673	447.88
348.9	446.88
349.128	426.88
349.355	433.88
349.583	445.88
349.81	438.88
350.037	442.88
350.265	431.88
350.492	430.88
350.72	428.88
350.947	434.88
351.174	453.88
351.402	454.88
351.629	454.88
351.856	471.88
352.083	455.88
352.311	442.88
352.538	448.88
352.765	456.88
352.992	453.88
353.22	435.88
353.447	426.88
353.674	434.88
353.901	433.88
354.128	410.88
354.355	409.88
354.583	417.88
354.81	428.88
355.037	435.88
355.264	413.88
355.491	428.88
355.718	424.88
355.945	407.88
356.172	399.88
356.399	425.88
356.626	407.88
356.853	396.88
357.08	417.88
357.307	419.88
357.534	433.88
357.761	424.88
357.988	414.88
358.215	412.88
358.441	433.88
358.668	411.88
358.895	439.88
359.122	422.88
359.349	449.88
359.576	451.88
359.802	446.88
360.029	461.88
360.256	481.88
360.483	458.88
360.709	437.88
360.936	438.88
361.163	436.88
361.39	446.88
361.616	434.88
361.843	450.88
362.07	438.88
362.296	446.88
362.523	419.88
362.749	444.88
362.976	423.88
363.203	424.88
363.429	435.88
363.656	432.88
363.882	430.88
364.109	423.88
364.335	411.88
364.562	421.88
364.788	414.88
365.015	400.88
365.241	418.88
365.468	429.88
365.694	412.88
365.92	427.88
366.147	419.88
366.373	424.88
366.599	405.88
366.826	386.88
367.052	409.88
367.278	397.88
367.505	413.88
367.731	426.88
367.957	430.88
368.184	436.88
368.41	425.88
368.636	439.88
368.862	429.88
369.089	421.88
369.315	439.88
369.541	420.88
369.767	446.88
369.993	420.88
370.219	406.88
370.445	436.88
370.672	418.88
370.898	419.88
371.124	435.88
371.35	435.88
371.576	456.88
371.802	441.88
372.028	428.88
372.254	412.88
372.48	419.88
372.706	421.88
372.932	451.88
373.158	453.88
373.384	423.88
373.61	427.88
373.835	423.88
374.061	443.88
374.287	444.88
374.513	427.88
374.739	439.88
374.965	435.88
375.191	428.88
375.416	435.88
375.642	426.88
375.868	451.88
376.094	441.88
376.319	411.88
376.545	408.88
376.771	414.88
376.997	408.88
377.222	425.88
377.448	433.88
377.674	410.88
377.899	412.88
378.125	424.88
378.35	420.88
378.576	407.88
378.802	413.88
379.027	413.88
379.253	411.88
379.478	423.88
379.704	413.88
379.929	408.88
380.155	403.88
380.38	422.88
380.606	411.88
380.831	429.88
381.057	428.88
381.282	413.88
381.507	412.88
381.733	425.88
381.958	444.88
382.184	430.88
382.409	439.88
382.634	427.88
382.86	429.88
383.085	430.88
383.31	447.88
383.535	442.88
383.761	439.88
383.986	463.88
384.211	446.88
384.436	454.88
384.662	460.88
384.887	468.88
385.112	451.88
385.337	456.88
385.562	471.88
385.787	455.88
386.013	460.88
386.238	467.88
386.463	492.88
386.688	475.88
386.913	491.88
387.138	470.88
387.363	469.88
387.588	467.88
387.813	452.88
388.038	475.88
388.263	476.88
388.488	473.88
388.713	466.88
388.938	430.88
389.163	484.88
389.387	465.88
389.612	480.88
389.837	474.88
390.062	463.88
390.287	465.88
390.512	478.88
390.736	477.88
390.961	475.88
391.186	468.88
391.411	468.88
391.636	477.88
391.86	500.88
392.085	482.88
392.31	513.88
392.534	511.88
392.759	495.88
392.984	475.88
393.208	479.88
393.433	494.88
393.658	471.88
393.882	482.88
394.107	451.88
394.331	467.88
394.556	481.88
394.78	486.88
395.005	465.88
395.229	470.88
395.454	490.88
395.678	491.88
395.903	502.88
396.127	524.88
396.352	524.88
396.576	483.88
396.801	511.88
397.025	497.88
397.249	517.88
397.474	499.88
397.698	499.88
397.922	515.88
398.147	548.88
398.371	546.88
398.595	528.88
398.82	539.88
399.044	579.88
399.268	580.88
399.492	665.88
399.717	675.88
399.941	699.88
400.165	705.88
400.389	697.88
400.613	610.88
400.837	593.88
401.062	573.88
401.286	559.88
401.51	560.88
401.734	528.88
401.958	578.88
402.182	566.88
402.406	575.88
402.63	609.88
402.854	568.88
403.078	579.88
403.302	595.88
403.526	587.88
403.75	592.88
403.974	595.88
404.198	583.88
404.422	574.88
404.645	571.88
404.869	583.88
405.093	573.88
405.317	625.88
405.541	631.88
405.765	607.88
405.988	591.88
406.212	590.88
406.436	620.88
406.66	633.88
406.883	627.88
407.107	663.88
407.331	687.88
407.555	749.88
407.778	781.88
408.002	676.88
408.226	637.88
408.449	624.88
408.673	631.88
408.896	629.88
409.12	666.88
409.344	644.88
409.567	591.88
409.791	578.88
410.014	590.88
410.238	560.88
410.461	569.88
410.685	587.88
410.908	587.88
411.132	621.88
411.355	645.88
411.578	610.88
411.802	581.88
412.025	571.88
412.249	565.88
412.472	566.88
412.695	583.88
412.919	578.88
413.142	543.88
413.365	549.88
413.589	542.88
413.812	526.88
414.035	535.88
414.258	526.88
414.482	538.88
414.705	535.88
414.928	540.88
415.151	531.88
415.374	535.88
415.597	520.88
415.821	508.88
416.044	526.88
416.267	538.88
416.49	529.88
416.713	533.88
416.936	531.88
417.159	513.88
417.382	534.88
417.605	533.88
417.828	537.88
418.051	535.88
418.274	550.88
418.497	527.88
418.72	537.88
418.943	538.88
419.166	522.88
419.389	581.88
419.611	557.88
419.834	540.88
420.057	561.88
420.28	537.88
420.503	525.88
420.726	534.88
420.948	563.88
421.171	586.88
421.394	613.88
421.617	546.88
421.839	527.88
422.062	555.88
422.285	547.88
422.507	586.88
422.73	693.88
422.953	650.88
423.175	574.88
423.398	565.88
423.621	566.88
423.843	582.88
424.066	584.88
424.288	567.88
424.511	594.88
424.733	662.88
424.956	728.88
425.178	685.88
425.401	689.88
425.623	700.88
425.846	607.88
426.068	586.88
426.291	565.88
426.513	561.88
426.735	561.88
426.958	589.88
427.18	691.88
427.402	803.88
427.625	870.88
427.847	755.88
428.069	629.88
428.292	610.88
428.514	542.88
428.736	522.88
428.958	524.88
429.181	518.88
429.403	529.88
429.625	542.88
429.847	555.88
430.069	598.88
430.292	611.88
430.514	536.88
430.736	517.88
430.958	488.88
431.18	492.88
431.402	523.88
431.624	511.88
431.846	510.88
432.068	481.88
432.29	503.88
432.512	500.88
432.734	530.88
432.956	506.88
433.178	520.88
433.4	518.88
433.622	502.88
433.844	511.88
434.066	516.88
434.287	502.88
434.509	533.88
434.731	551.88
434.953	546.88
435.175	569.88
435.397	585.88
435.618	570.88
435.84	613.88
436.062	692.88
436.284	719.88
436.505	601.88
436.727	595.88
436.949	578.88
437.17	514.88
437.392	511.88
437.614	536.88
437.835	563.88
438.057	638.88
438.278	733.88
438.5	760.88
438.721	835.88
438.943	755.88
439.165	602.88
439.386	565.88
439.608	539.88
439.829	579.88
440.05	591.88
440.272	618.88
440.493	609.88
440.715	568.88
440.936	535.88
441.158	525.88
441.379	538.88
441.6	562.88
441.822	594.88
442.043	626.88
442.264	715.88
442.486	703.88
442.707	602.88
442.928	605.88
443.149	626.88
443.371	610.88
443.592	641.88
443.813	730.88
444.034	793.88
444.255	658.88
444.476	614.88
444.698	597.88
444.919	609.88
445.14	726.88
445.361	659.88
445.582	610.88
445.803	684.88
446.024	752.88
446.245	749.88
446.466	693.88
446.687	613.88
446.908	577.88
447.129	546.88
447.35	517.88
447.571	521.88
447.792	512.88
448.013	524.88
448.234	535.88
448.455	559.88
448.675	692.88
448.896	780.88
449.117	669.88
449.338	626.88
449.559	719.88
449.779	827.88
450	663.88
450.221	550.88
450.442	533.88
450.662	509.88
450.883	505.88
451.104	505.88
451.324	510.88
451.545	506.88
451.766	487.88
451.986	441.88
452.207	462.88
452.428	476.88
452.648	477.88
452.869	465.88
453.089	478.88
453.31	479.88
453.53	475.88
453.751	471.88
453.971	454.88
454.192	465.88
454.412	480.88
454.633	492.88
454.853	474.88
455.073	461.88
455.294	470.88
455.514	545.88
455.734	539.88
455.955	455.88
456.175	452.88
456.395	426.88
456.616	439.88
456.836	457.88
457.056	453.88
457.276	435.88
457.497	445.88
457.717	448.88
457.937	451.88
458.157	451.88
458.377	462.88
458.598	475.88
458.818	536.88
459.038	627.88
459.258	615.88
459.478	545.88
459.698	541.88
459.918	532.88
460.138	526.88
460.358	522.88
460.578	535.88
460.798	539.88
461.018	542.88
461.238	551.88
461.458	532.88
461.678	519.88
461.898	547.88
462.118	531.88
462.338	572.88
462.558	587.88
462.777	563.88
462.997	606.88
463.217	610.88
463.437	622.88
463.657	590.88
463.876	581.88
464.096	559.88
464.316	595.88
464.536	603.88
464.755	601.88
464.975	586.88
465.195	609.88
465.414	642.88
465.634	581.88
465.854	543.88
466.073	538.88
466.293	507.88
466.512	485.88
466.732	515.88
466.951	499.88
467.171	486.88
467.391	519.88
467.61	503.88
467.829	531.88
468.049	489.88
468.268	463.88
468.488	448.88
468.707	467.88
468.927	457.88
469.146	467.88
469.365	471.88
469.585	470.88
469.804	479.88
470.023	502.88
470.243	507.88
470.462	500.88
470.681	509.88
470.901	509.88
471.12	499.88
471.339	517.88
471.558	497.88
471.777	473.88
471.997	479.88
472.216	457.88
472.435	481.88
472.654	482.88
472.873	489.88
473.092	470.88
473.311	486.88
473.53	495.88
473.749	486.88
473.968	541.88
474.187	609.88
474.406	623.88
474.625	542.88
474.844	492.88
475.063	492.88
475.282	501.88
475.501	486.88
475.72	483.88
475.939	500.88
476.158	501.88
476.377	479.88
476.596	480.88
476.814	515.88
477.033	519.88
477.252	519.88
477.471	522.88
477.69	527.88
477.908	546.88
478.127	538.88
478.346	537.88
478.564	530.88
478.783	554.88
479.002	546.88
479.22	545.88
479.439	578.88
479.658	585.88
479.876	590.88
480.095	578.88
480.313	629.88
480.532	609.88
480.751	599.88
480.969	583.88
481.188	597.88
481.406	625.88
481.624	584.88
481.843	584.88
482.061	545.88
482.28	545.88
482.498	556.88
482.717	578.88
482.935	555.88
483.153	544.88
483.372	534.88
483.59	532.88
483.808	539.88
484.027	545.88
484.245	550.88
484.463	566.88
484.681	558.88
484.9	584.88
485.118	571.88
485.336	565.88
485.554	579.88
485.772	565.88
485.99	560.88
486.209	589.88
486.427	589.88
486.645	575.88
486.863	610.88
487.081	628.88
487.299	602.88
487.517	604.88
487.735	598.88
487.953	596.88
488.171	615.88
488.389	575.88
488.607	600.88
488.825	597.88
489.043	599.88
489.261	612.88
489.479	598.88
489.696	592.88
489.914	621.88
490.132	613.88
490.35	608.88
490.568	626.88
490.786	633.88
491.003	647.88
491.221	636.88
491.439	668.88
491.657	659.88
491.874	669.88
492.092	660.88
492.31	681.88
492.527	689.88
492.745	660.88
492.963	676.88
493.18	679.88
493.398	686.88
493.615	707.88
493.833	701.88
494.05	697.88
494.268	675.88
494.485	689.88
494.703	701.88
494.92	703.88
495.138	685.88
495.355	699.88
495.573	716.88
495.79	717.88
496.008	714.88
496.225	709.88
496.442	695.88
496.66	717.88
496.877	706.88
497.094	733.88
497.312	726.88
497.529	749.88
497.746	750.88
497.963	762.88
498.181	804.88
498.398	777.88
498.615	818.88
498.832	862.88
499.049	888.88
499.267	924.88
499.484	954.88
499.701	994.88
499.918	1046.88
500.135	1125.88
500.352	1183.88
500.569	1218.88
500.786	1225.88
501.003	1170.88
501.22	1100.88
501.437	1045.88
501.654	972.88
501.871	986.88
502.088	929.88
502.305	873.88
502.522	851.88
502.739	853.88
502.956	797.88
503.172	772.88
503.389	766.88
503.606	792.88
503.823	757.88
504.04	748.88
504.256	745.88
504.473	723.88
504.69	748.88
504.907	739.88
505.123	697.88
505.34	691.88
505.557	675.88
505.773	712.88
505.99	691.88
506.207	692.88
506.423	664.88
506.64	677.88
506.856	665.88
507.073	660.88
507.289	659.88
507.506	671.88
507.722	680.88
507.939	673.88
508.155	659.88
508.372	649.88
508.588	623.88
508.805	668.88
509.021	639.88
509.238	652.88
509.454	643.88
509.67	629.88
509.887	619.88
510.103	621.88
510.319	646.88
510.536	737.88
510.752	1155.88
510.968	993.88
511.184	642.88
511.401	626.88
511.617	596.88
511.833	595.88
512.049	613.88
512.265	589.88
512.481	583.88
512.698	571.88
512.914	584.88
513.13	573.88
513.346	596.88
513.562	586.88
513.778	627.88
513.994	595.88
514.21	620.88
514.426	623.88
514.642	654.88
514.858	702.88
515.074	713.88
515.29	807.88
515.506	1241.88
515.721	1050.88
515.937	721.88
516.153	681.88
516.369	637.88
516.585	637.88
516.801	631.88
517.016	642.88
517.232	631.88
517.448	651.88
517.664	673.88
517.879	669.88
518.095	675.88
518.311	663.88
518.527	654.88
518.742	669.88
518.958	634.88
519.173	635.88
519.389	590.88
519.605	612.88
519.82	598.88
520.036	611.88
520.251	650.88
520.467	650.88
520.682	644.88
520.898	669.88
521.113	649.88
521.329	670.88
521.544	769.88
521.76	953.88
521.975	1543.88
522.19	1612.88
522.406	889.88
522.621	653.88
522.836	606.88
523.052	598.88
523.267	579.88
523.482	557.88
523.698	575.88
523.913	547.88
524.128	540.88
524.343	518.88
524.559	542.88
524.774	516.88
524.989	537.88
525.204	523.88
525.419	547.88
525.634	519.88
525.849	514.88
526.064	510.88
526.28	485.88
526.495	480.88
526.71	491.88
526.925	503.88
527.14	513.88
527.355	485.88
527.57	499.88
527.785	514.88
527.999	513.88
528.214	489.88
528.429	503.88
528.644	503.88
528.859	503.88
529.074	512.88
529.289	523.88
529.503	594.88
529.718	573.88
529.933	552.88
530.148	525.88
530.363	509.88
530.577	484.88
530.792	490.88
531.007	476.88
531.221	506.88
531.436	484.88
531.651	484.88
531.865	490.88
532.08	502.88
532.295	467.88
532.509	475.88
532.724	462.88
532.938	458.88
533.153	440.88
533.367	480.88
533.582	488.88
533.796	471.88
534.011	485.88
534.225	478.88
534.44	491.88
534.654	462.88
534.868	470.88
535.083	462.88
535.297	457.88
535.511	499.88
535.726	469.88
535.94	481.88
536.154	459.88
536.369	461.88
536.583	463.88
536.797	484.88
537.011	459.88
537.225	444.88
537.44	451.88
537.654	442.88
537.868	457.88
538.082	462.88
538.296	482.88
538.51	454.88
538.724	461.88
538.938	438.88
539.153	466.88
539.367	456.88
539.581	474.88
539.795	454.88
540.009	442.88
540.222	440.88
540.436	444.88
540.65	473.88
540.864	454.88
541.078	473.88
541.292	453.88
541.506	448.88
541.72	429.88
541.934	456.88
542.147	430.88
542.361	450.88
542.575	455.88
542.789	428.88
543.002	451.88
543.216	454.88
543.43	445.88
543.644	445.88
543.857	442.88
544.071	443.88
544.285	468.88
544.498	466.88
544.712	469.88
544.925	448.88
545.139	458.88
545.352	456.88
545.566	450.88
545.779	435.88
545.993	453.88
546.206	459.88
546.42	446.88
546.633	439.88
546.847	426.88
547.06	438.88
547.274	431.88
547.487	414.88
547.7	450.88
547.914	428.88
548.127	445.88
548.34	432.88
548.554	433.88
548.767	441.88
548.98	444.88
549.193	443.88
549.407	452.88
549.62	437.88
549.833	436.88
550.046	437.88
550.259	444.88
550.473	440.88
550.686	446.88
550.899	404.88
551.112	421.88
551.325	425.88
551.538	411.88
551.751	421.88
551.964	444.88
552.177	435.88
552.39	437.88
552.603	452.88
552.816	432.88
553.029	451.88
553.242	450.88
553.455	469.88
553.667	458.88
553.88	487.88
554.093	451.88
554.306	459.88
554.519	433.88
554.732	446.88
554.944	421.88
555.157	417.88
555.37	405.88
555.583	408.88
555.795	411.88
556.008	396.88
556.221	421.88
556.433	397.88
556.646	414.88
556.859	387.88
557.071	402.88
557.284	415.88
557.496	389.88
557.709	389.88
557.921	379.88
558.134	393.88
558.346	387.88
558.559	371.88
558.771	395.88
558.984	378.88
559.196	388.88
559.409	368.88
559.621	370.88
559.833	388.88
560.046	379.88
560.258	377.88
560.47	370.88
560.683	377.88
560.895	382.88
561.107	383.88
561.32	390.88
561.532	379.88
561.744	381.88
561.956	393.88
562.168	383.88
562.381	407.88
562.593	388.88
562.805	381.88
563.017	397.88
563.229	401.88
563.441	394.88
563.653	391.88
563.865	398.88
564.077	387.88
564.289	391.88
564.501	383.88
564.713	397.88
564.925	403.88
565.137	421.88
565.349	419.88
565.561	431.88
565.773	434.88
565.985	446.88
566.197	445.88
566.408	462.88
566.62	503.88
566.832	504.88
567.044	525.88
567.255	514.88
567.467	538.88
567.679	532.88
567.891	596.88
568.102	570.88
568.314	542.88
568.526	522.88
568.737	481.88
568.949	465.88
569.161	433.88
569.372	440.88
569.584	449.88
569.795	424.88
570.007	405.88
570.218	426.88
570.43	425.88
570.641	399.88
570.853	383.88
571.064	392.88
571.276	394.88
571.487	383.88
571.698	397.88
571.91	352.88
572.121	377.88
572.333	345.88
572.544	358.88
572.755	359.88
572.966	334.88
573.178	345.88
573.389	331.88
573.6	359.88
573.811	336.88
574.023	341.88
574.234	337.88
574.445	354.88
574.656	350.88
574.867	307.88
575.078	356.88
575.289	332.88
575.501	318.88
575.712	343.88
575.923	332.88
576.134	333.88
576.345	323.88
576.556	310.88
576.767	324.88
576.978	323.88
577.188	325.88
577.399	344.88
577.61	326.88
577.821	317.88
578.032	317.88
578.243	357.88
578.454	521.88
578.665	417.88
578.875	326.88
579.086	316.88
579.297	305.88
579.508	294.88
579.718	305.88
579.929	303.88
580.14	307.88
580.35	275.88
580.561	312.88
580.772	297.88
580.982	286.88
581.193	312.88
581.403	295.88
581.614	307.88
581.825	297.88
582.035	297.88
582.246	302.88
582.456	311.88
582.667	284.88
582.877	293.88
583.087	296.88
583.298	298.88
583.508	305.88
583.719	294.88
583.929	286.88
584.139	309.88
584.35	309.88
584.56	311.88
584.77	303.88
584.981	297.88
585.191	290.88
585.401	292.88
585.611	289.88
585.821	290.88
586.032	308.88
586.242	291.88
586.452	283.88
586.662	273.88
586.872	298.88
587.082	296.88
587.292	298.88
587.502	305.88
587.713	286.88
587.923	286.88
588.133	296.88
588.343	294.88
588.553	285.88
588.762	294.88
588.972	303.88
589.182	296.88
589.392	306.88
589.602	293.88
589.812	293.88
590.022	300.88
590.232	284.88
590.441	279.88
590.651	301.88
590.861	291.88
591.071	286.88
591.281	291.88
591.49	299.88
591.7	317.88
591.91	305.88
592.119	294.88
592.329	321.88
592.539	313.88
592.748	315.88
592.958	332.88
593.167	310.88
593.377	316.88
593.587	333.88
593.796	323.88
594.006	321.88
594.215	327.88
594.424	325.88
594.634	338.88
594.843	323.88
595.053	316.88
595.262	303.88
595.472	311.88
595.681	299.88
595.89	286.88
596.1	282.88
596.309	279.88
596.518	291.88
596.727	273.88
596.937	270.88
597.146	268.88
597.355	264.88
597.564	253.88
597.774	249.88
597.983	274.88
598.192	267.88
598.401	247.88
598.61	236.88
598.819	271.88
599.028	269.88
599.237	253.88
599.446	246.88
599.655	249.88
599.864	242.88
600.073	251.88
600.282	268.88
600.491	234.88
600.7	259.88
600.909	237.88
601.118	249.88
601.327	234.88
601.536	248.88
601.745	243.88
601.953	249.88
602.162	241.88
602.371	235.88
602.58	237.88
602.789	234.88
602.997	243.88
603.206	241.88
603.415	258.88
603.623	242.88
603.832	261.88
604.041	254.88
604.249	257.88
604.458	244.88
604.666	227.88
604.875	237.88
605.084	235.88
605.292	253.88
605.501	228.88
605.709	229.88
605.918	236.88
606.126	250.88
606.334	229.88
606.543	250.88
606.751	237.88
606.96	237.88
607.168	226.88
607.376	223.88
607.585	230.88
607.793	229.88
608.001	227.88
608.21	234.88
608.418	238.88
608.626	231.88
608.834	224.88
609.043	248.88
609.251	224.88
609.459	228.88
609.667	230.88
609.875	225.88
610.083	230.88
610.291	220.88
610.499	237.88
610.707	231.88
610.916	236.88
611.124	234.88
611.332	235.88
611.54	242.88
611.748	244.88
611.955	248.88
612.163	232.88
612.371	221.88
612.579	235.88
612.787	219.88
612.995	229.88
613.203	225.88
613.411	231.88
613.618	227.88
613.826	230.88
614.034	225.88
614.242	218.88
614.449	234.88
614.657	225.88
614.865	241.88
615.072	214.88
615.28	234.88
615.488	236.88
615.695	220.88
615.903	219.88
616.111	235.88
616.318	210.88
616.526	216.88
616.733	236.88
616.941	250.88
617.148	222.88
617.356	221.88
617.563	234.88
617.771	241.88
617.978	212.88
618.185	224.88
618.393	216.88
618.6	221.88
618.807	225.88
619.015	204.88
619.222	243.88
619.429	226.88
619.637	214.88
619.844	217.88
620.051	231.88
620.258	213.88
620.466	203.88
620.673	217.88
620.88	207.88
621.087	217.88
621.294	222.88
621.501	212.88
621.708	215.88
621.915	211.88
622.122	213.88
622.329	227.88
622.536	235.88
622.743	212.88
622.95	218.88
623.157	194.88
623.364	223.88
623.571	217.88
623.778	198.88
623.985	213.88
624.192	199.88
624.399	218.88
624.606	227.88
624.812	202.88
625.019	200.88
625.226	218.88
625.433	213.88
625.639	209.88
625.846	204.88
626.053	201.88
626.259	225.88
626.466	194.88
626.673	197.88
626.879	183.88
627.086	205.88
627.293	208.88
627.499	206.88
627.706	211.88
627.912	193.88
628.119	201.88
628.325	198.88
628.532	196.88
628.738	194.88
628.945	193.88
629.151	203.88
629.357	191.88
629.564	195.88
629.77	199.88
629.976	207.88
630.183	185.88
630.389	179.88
630.595	191.88
630.802	170.88
631.008	177.88
631.214	185.88
631.42	190.88
631.627	202.88
631.833	189.88
632.039	186.88
632.245	179.88
632.451	171.88
632.657	194.88
632.863	171.88
633.069	198.88
633.275	177.88
633.481	173.88
633.688	180.88
633.893	187.88
634.099	189.88
634.305	179.88
634.511	175.88
634.717	181.88
634.923	194.88
635.129	170.88
635.335	172.88
635.541	178.88
635.747	193.88
635.952	188.88
636.158	190.88
636.364	194.88
636.57	171.88
636.775	177.88
636.981	177.88
637.187	171.88
637.392	181.88
637.598	159.88
637.804	166.88
638.009	167.88
638.215	178.88
638.421	167.88
638.626	173.88
638.832	171.88
639.037	174.88
639.243	168.88
639.448	169.88
639.654	173.88
639.859	156.88
640.065	172.88
640.27	183.88
640.475	175.88
640.681	178.88
640.886	171.88
641.091	158.88
641.297	173.88
641.502	165.88
641.707	171.88
641.913	164.88
642.118	172.88
642.323	163.88
642.528	150.88
642.733	160.88
642.939	157.88
643.144	165.88
643.349	167.88
643.554	172.88
643.759	177.88
643.964	173.88
644.169	167.88
644.374	179.88
644.579	149.88
644.784	149.88
644.989	159.88
645.194	171.88
645.399	166.88
645.604	147.88
645.809	169.88
646.014	155.88
646.219	165.88
646.423	154.88
646.628	161.88
646.833	138.88
647.038	147.88
647.243	169.88
647.447	169.88
647.652	164.88
647.857	157.88
648.062	155.88
648.266	162.88
648.471	161.88
648.676	185.88
648.88	172.88
649.085	183.88
649.289	166.88
649.494	159.88
649.698	171.88
649.903	177.88
650.107	171.88
650.312	167.88
650.516	152.88
650.721	161.88
650.925	158.88
651.13	147.88
651.334	142.88
651.539	169.88
651.743	158.88
651.947	147.88
652.152	157.88
652.356	162.88
652.56	145.88
652.764	134.88
652.969	133.88
653.173	135.88
653.377	147.88
653.581	143.88
653.785	134.88
653.99	147.88
654.194	137.88
654.398	135.88
654.602	152.88
654.806	151.88
655.01	140.88
655.214	141.88
655.418	123.88
655.622	125.88
655.826	134.88
656.03	137.88
656.234	137.88
656.438	135.88
656.642	143.88
656.846	152.88
657.049	125.88
657.253	126.88
657.457	135.88
657.661	109.88
657.865	115.88
658.068	113.88
658.272	109.88
658.476	117.88
658.68	109.88
658.883	95.88
659.087	94.88
659.291	96.88
659.494	108.88
659.698	105.88
659.901	101.88
660.105	101.88
660.309	99.88
660.512	81.88
660.716	103.88
660.919	83.88
661.123	89.88
661.326	88.88
661.53	91.88
661.733	103.88
661.936	84.88
662.14	87.88
662.343	94.88
662.546	82.88
662.75	86.88
662.953	92.88
663.156	84.88
663.36	89.88
663.563	86.88
663.766	88.88
663.969	77.88
664.173	83.88
664.376	89.88
664.579	82.88
664.782	91.88
664.985	74.88
665.188	85.88
665.391	77.88
665.594	87.88
665.797	89.88
666	85.88
666.203	94.88
666.406	89.88
666.609	78.88
666.812	84.88
667.015	81.88
667.218	87.88
667.421	90.88
667.624	79.88
667.827	89.88
668.03	76.88
668.232	63.88
668.435	97.88
668.638	94.88
668.841	101.88
669.043	91.88
669.246	81.88
669.449	85.88
669.651	78.88
669.854	90.88
670.057	85.88
670.259	79.88
670.462	87.88
670.665	95.88
670.867	91.88
671.07	87.88
671.272	90.88
671.475	92.88
671.677	90.88
671.88	86.88
672.082	73.88
672.284	84.88
672.487	93.88
672.689	88.88
672.892	83.88
