Data from 1985.PennyLincolnUp.Lamp.En5.5.200Scan.071819.P1_HRD10591_17-02-33-970.txt Node
Date: Thu Jul 18 17:02:33 EDT 2019
User: cochatt
Spectrometer: HR+D1059
Trigger mode: 1
Integration Time (sec): 1.000000E-1
Scans to average: 1
Electric dark correction enabled: true
Nonlinearity correction enabled: false
Boxcar width: 0
XAxis mode: Wavelengths
Number of Pixels in Spectrum: 2048
>>>>>Begin Spectral Data<<<<<
223.165	-16.94
223.4	-16.94
223.635	-16.94
223.869	-24.94
224.104	-17.94
224.338	-1.94
224.573	-5.94
224.808	-17.94
225.042	-3.94
225.277	-8.94
225.511	-5.94
225.746	4.06
225.98	16.06
226.215	-2.94
226.449	14.06
226.683	11.06
226.918	24.06
227.152	38.06
227.387	30.06
227.621	40.06
227.856	37.06
228.09	50.06
228.324	41.06
228.559	53.06
228.793	70.06
229.027	87.06
229.262	93.06
229.496	112.06
229.73	130.06
229.964	137.06
230.199	131.06
230.433	111.06
230.667	106.06
230.901	109.06
231.136	117.06
231.37	110.06
231.604	116.06
231.838	109.06
232.072	106.06
232.306	123.06
232.541	126.06
232.775	126.06
233.009	116.06
233.243	117.06
233.477	126.06
233.711	122.06
233.945	124.06
234.179	126.06
234.413	124.06
234.647	119.06
234.881	104.06
235.115	116.06
235.349	120.06
235.583	122.06
235.817	121.06
236.051	126.06
236.285	127.06
236.519	112.06
236.753	128.06
236.987	154.06
237.221	180.06
237.455	220.06
237.689	167.06
237.922	130.06
238.156	122.06
238.39	114.06
238.624	124.06
238.858	128.06
239.091	118.06
239.325	108.06
239.559	124.06
239.793	126.06
240.027	138.06
240.26	139.06
240.494	151.06
240.728	148.06
240.961	150.06
241.195	147.06
241.429	135.06
241.662	131.06
241.896	126.06
242.13	130.06
242.363	130.06
242.597	136.06
242.83	155.06
243.064	150.06
243.298	151.06
243.531	143.06
243.765	130.06
243.998	141.06
244.232	143.06
244.465	150.06
244.699	141.06
244.932	154.06
245.166	128.06
245.399	159.06
245.633	145.06
245.866	134.06
246.099	150.06
246.333	144.06
246.566	148.06
246.8	146.06
247.033	155.06
247.266	151.06
247.5	158.06
247.733	170.06
247.966	166.06
248.2	164.06
248.433	166.06
248.666	183.06
248.899	183.06
249.133	206.06
249.366	188.06
249.599	199.06
249.832	170.06
250.066	168.06
250.299	172.06
250.532	185.06
250.765	193.06
250.998	207.06
251.231	229.06
251.465	206.06
251.698	186.06
251.931	192.06
252.164	184.06
252.397	171.06
252.63	214.06
252.863	207.06
253.096	203.06
253.329	198.06
253.562	212.06
253.795	191.06
254.028	201.06
254.261	212.06
254.494	213.06
254.727	247.06
254.96	263.06
255.193	251.06
255.426	250.06
255.659	223.06
255.892	226.06
256.124	206.06
256.357	212.06
256.59	216.06
256.823	220.06
257.056	198.06
257.289	212.06
257.521	208.06
257.754	211.06
257.987	195.06
258.22	201.06
258.452	203.06
258.685	185.06
258.918	202.06
259.151	205.06
259.383	240.06
259.616	214.06
259.849	225.06
260.081	229.06
260.314	237.06
260.547	242.06
260.779	242.06
261.012	246.06
261.244	229.06
261.477	220.06
261.71	232.06
261.942	242.06
262.175	246.06
262.407	213.06
262.64	220.06
262.872	224.06
263.105	211.06
263.337	216.06
263.57	219.06
263.802	216.06
264.035	215.06
264.267	213.06
264.499	220.06
264.732	239.06
264.964	225.06
265.197	217.06
265.429	214.06
265.661	223.06
265.894	204.06
266.126	224.06
266.358	233.06
266.591	215.06
266.823	234.06
267.055	243.06
267.287	232.06
267.52	235.06
267.752	235.06
267.984	245.06
268.216	244.06
268.448	248.06
268.681	241.06
268.913	258.06
269.145	275.06
269.377	306.06
269.609	286.06
269.841	278.06
270.073	271.06
270.306	302.06
270.538	320.06
270.77	320.06
271.002	286.06
271.234	291.06
271.466	293.06
271.698	315.06
271.93	318.06
272.162	343.06
272.394	342.06
272.626	287.06
272.858	275.06
273.09	292.06
273.322	275.06
273.553	274.06
273.785	276.06
274.017	266.06
274.249	262.06
274.481	283.06
274.713	271.06
274.945	288.06
275.176	280.06
275.408	275.06
275.64	269.06
275.872	288.06
276.104	301.06
276.335	293.06
276.567	292.06
276.799	293.06
277.031	302.06
277.262	335.06
277.494	319.06
277.726	292.06
277.957	290.06
278.189	280.06
278.421	286.06
278.652	269.06
278.884	272.06
279.115	288.06
279.347	292.06
279.579	290.06
279.81	292.06
280.042	280.06
280.273	301.06
280.505	289.06
280.736	292.06
280.968	294.06
281.199	288.06
281.431	283.06
281.662	290.06
281.894	291.06
282.125	291.06
282.356	308.06
282.588	320.06
282.819	325.06
283.051	308.06
283.282	279.06
283.513	292.06
283.745	300.06
283.976	300.06
284.207	298.06
284.439	284.06
284.67	311.06
284.901	291.06
285.132	288.06
285.364	283.06
285.595	292.06
285.826	301.06
286.057	299.06
286.288	315.06
286.52	305.06
286.751	322.06
286.982	292.06
287.213	310.06
287.444	301.06
287.675	330.06
287.906	315.06
288.138	332.06
288.369	334.06
288.6	313.06
288.831	342.06
289.062	319.06
289.293	311.06
289.524	308.06
289.755	328.06
289.986	326.06
290.217	320.06
290.448	319.06
290.679	310.06
290.91	322.06
291.141	328.06
291.371	322.06
291.602	318.06
291.833	301.06
292.064	310.06
292.295	321.06
292.526	319.06
292.757	326.06
292.987	328.06
293.218	327.06
293.449	318.06
293.68	320.06
293.91	320.06
294.141	319.06
294.372	324.06
294.603	328.06
294.833	338.06
295.064	329.06
295.295	340.06
295.525	346.06
295.756	316.06
295.987	343.06
296.217	326.06
296.448	367.06
296.679	334.06
296.909	333.06
297.14	334.06
297.37	358.06
297.601	363.06
297.831	326.06
298.062	335.06
298.292	341.06
298.523	335.06
298.753	346.06
298.984	342.06
299.214	328.06
299.445	349.06
299.675	344.06
299.905	354.06
300.136	362.06
300.366	341.06
300.597	359.06
300.827	347.06
301.057	350.06
301.288	358.06
301.518	364.06
301.748	372.06
301.979	362.06
302.209	378.06
302.439	386.06
302.669	357.06
302.9	372.06
303.13	370.06
303.36	358.06
303.59	372.06
303.82	365.06
304.051	380.06
304.281	356.06
304.511	364.06
304.741	361.06
304.971	355.06
305.201	376.06
305.431	370.06
305.661	376.06
305.891	375.06
306.121	357.06
306.352	382.06
306.582	351.06
306.812	353.06
307.042	363.06
307.272	373.06
307.502	372.06
307.731	374.06
307.961	380.06
308.191	368.06
308.421	365.06
308.651	382.06
308.881	369.06
309.111	367.06
309.341	376.06
309.571	381.06
309.8	387.06
310.03	415.06
310.26	395.06
310.49	384.06
310.72	392.06
310.949	420.06
311.179	428.06
311.409	419.06
311.639	394.06
311.868	396.06
312.098	405.06
312.328	401.06
312.557	434.06
312.787	438.06
313.017	453.06
313.246	424.06
313.476	411.06
313.706	408.06
313.935	406.06
314.165	410.06
314.394	431.06
314.624	439.06
314.853	415.06
315.083	437.06
315.312	414.06
315.542	422.06
315.771	428.06
316.001	403.06
316.23	401.06
316.46	408.06
316.689	405.06
316.919	405.06
317.148	425.06
317.377	418.06
317.607	442.06
317.836	408.06
318.065	401.06
318.295	412.06
318.524	412.06
318.753	406.06
318.983	429.06
319.212	432.06
319.441	423.06
319.67	438.06
319.9	419.06
320.129	427.06
320.358	428.06
320.587	395.06
320.816	415.06
321.046	432.06
321.275	426.06
321.504	440.06
321.733	440.06
321.962	444.06
322.191	442.06
322.42	471.06
322.649	470.06
322.878	444.06
323.108	485.06
323.337	496.06
323.566	526.06
323.795	547.06
324.024	582.06
324.253	682.06
324.482	948.06
324.71	1421.06
324.939	1973.06
325.168	1683.06
325.397	942.06
325.626	633.06
325.855	542.06
326.084	542.06
326.313	510.06
326.542	525.06
326.77	587.06
326.999	645.06
327.228	845.06
327.457	1250.06
327.686	1520.06
327.914	1024.06
328.143	694.06
328.372	620.06
328.6	595.06
328.829	558.06
329.058	562.06
329.287	587.06
329.515	557.06
329.744	523.06
329.972	536.06
330.201	511.06
330.43	521.06
330.658	575.06
330.887	618.06
331.115	608.06
331.344	540.06
331.572	534.06
331.801	523.06
332.03	498.06
332.258	518.06
332.486	517.06
332.715	504.06
332.943	493.06
333.172	520.06
333.4	529.06
333.629	534.06
333.857	538.06
334.085	550.06
334.314	534.06
334.542	557.06
334.771	528.06
334.999	524.06
335.227	525.06
335.455	496.06
335.684	483.06
335.912	485.06
336.14	489.06
336.369	509.06
336.597	510.06
336.825	488.06
337.053	497.06
337.281	490.06
337.51	464.06
337.738	484.06
337.966	486.06
338.194	483.06
338.422	475.06
338.65	490.06
338.878	475.06
339.106	469.06
339.334	462.06
339.562	476.06
339.79	462.06
340.018	492.06
340.246	466.06
340.474	464.06
340.702	475.06
340.93	477.06
341.158	463.06
341.386	465.06
341.614	466.06
341.842	452.06
342.07	459.06
342.298	470.06
342.526	460.06
342.754	442.06
342.981	472.06
343.209	445.06
343.437	466.06
343.665	476.06
343.893	493.06
344.12	526.06
344.348	473.06
344.576	466.06
344.804	479.06
345.031	482.06
345.259	485.06
345.487	474.06
345.714	453.06
345.942	459.06
346.17	447.06
346.397	451.06
346.625	440.06
346.853	438.06
347.08	454.06
347.308	447.06
347.535	454.06
347.763	490.06
347.99	457.06
348.218	465.06
348.445	452.06
348.673	473.06
348.9	460.06
349.128	445.06
349.355	451.06
349.583	430.06
349.81	412.06
350.037	428.06
350.265	424.06
350.492	429.06
350.72	429.06
350.947	442.06
351.174	464.06
351.402	453.06
351.629	444.06
351.856	439.06
352.083	455.06
352.311	459.06
352.538	442.06
352.765	446.06
352.992	448.06
353.22	454.06
353.447	443.06
353.674	448.06
353.901	424.06
354.128	409.06
354.355	413.06
354.583	439.06
354.81	435.06
355.037	413.06
355.264	407.06
355.491	399.06
355.718	422.06
355.945	415.06
356.172	427.06
356.399	391.06
356.626	416.06
356.853	418.06
357.08	403.06
357.307	424.06
357.534	423.06
357.761	431.06
357.988	422.06
358.215	400.06
358.441	417.06
358.668	427.06
358.895	418.06
359.122	414.06
359.349	409.06
359.576	434.06
359.802	457.06
360.029	482.06
360.256	503.06
360.483	480.06
360.709	438.06
360.936	451.06
361.163	444.06
361.39	441.06
361.616	455.06
361.843	435.06
362.07	443.06
362.296	435.06
362.523	425.06
362.749	434.06
362.976	436.06
363.203	430.06
363.429	434.06
363.656	418.06
363.882	414.06
364.109	432.06
364.335	424.06
364.562	402.06
364.788	403.06
365.015	423.06
365.241	426.06
365.468	419.06
365.694	429.06
365.92	413.06
366.147	420.06
366.373	437.06
366.599	420.06
366.826	423.06
367.052	406.06
367.278	434.06
367.505	417.06
367.731	417.06
367.957	432.06
368.184	431.06
368.41	425.06
368.636	419.06
368.862	442.06
369.089	443.06
369.315	411.06
369.541	435.06
369.767	394.06
369.993	416.06
370.219	428.06
370.445	430.06
370.672	421.06
370.898	415.06
371.124	436.06
371.35	402.06
371.576	418.06
371.802	434.06
372.028	439.06
372.254	431.06
372.48	447.06
372.706	427.06
372.932	420.06
373.158	413.06
373.384	434.06
373.61	422.06
373.835	407.06
374.061	423.06
374.287	431.06
374.513	432.06
374.739	440.06
374.965	447.06
375.191	448.06
375.416	431.06
375.642	426.06
375.868	442.06
376.094	430.06
376.319	422.06
376.545	420.06
376.771	412.06
376.997	418.06
377.222	413.06
377.448	426.06
377.674	434.06
377.899	400.06
378.125	410.06
378.35	426.06
378.576	412.06
378.802	429.06
379.027	427.06
379.253	416.06
379.478	425.06
379.704	431.06
379.929	427.06
380.155	415.06
380.38	424.06
380.606	432.06
380.831	420.06
381.057	421.06
381.282	438.06
381.507	438.06
381.733	430.06
381.958	409.06
382.184	433.06
382.409	405.06
382.634	432.06
382.86	425.06
383.085	415.06
383.31	422.06
383.535	440.06
383.761	440.06
383.986	439.06
384.211	435.06
384.436	450.06
384.662	475.06
384.887	450.06
385.112	460.06
385.337	482.06
385.562	451.06
385.787	484.06
386.013	468.06
386.238	468.06
386.463	486.06
386.688	472.06
386.913	457.06
387.138	469.06
387.363	484.06
387.588	456.06
387.813	477.06
388.038	471.06
388.263	465.06
388.488	448.06
388.713	476.06
388.938	473.06
389.163	467.06
389.387	444.06
389.612	447.06
389.837	450.06
390.062	453.06
390.287	449.06
390.512	435.06
390.736	438.06
390.961	487.06
391.186	463.06
391.411	467.06
391.636	463.06
391.86	489.06
392.085	510.06
392.31	501.06
392.534	519.06
392.759	479.06
392.984	472.06
393.208	485.06
393.433	467.06
393.658	487.06
393.882	470.06
394.107	459.06
394.331	482.06
394.556	471.06
394.78	483.06
395.005	485.06
395.229	474.06
395.454	500.06
395.678	495.06
395.903	513.06
396.127	527.06
396.352	516.06
396.576	496.06
396.801	482.06
397.025	486.06
397.249	500.06
397.474	490.06
397.698	499.06
397.922	516.06
398.147	546.06
398.371	540.06
398.595	547.06
398.82	557.06
399.044	559.06
399.268	587.06
399.492	638.06
399.717	665.06
399.941	708.06
400.165	701.06
400.389	696.06
400.613	646.06
400.837	571.06
401.062	558.06
401.286	555.06
401.51	543.06
401.734	564.06
401.958	545.06
402.182	547.06
402.406	556.06
402.63	558.06
402.854	581.06
403.078	574.06
403.302	564.06
403.526	598.06
403.75	574.06
403.974	595.06
404.198	574.06
404.422	571.06
404.645	596.06
404.869	581.06
405.093	599.06
405.317	615.06
405.541	629.06
405.765	602.06
405.988	568.06
406.212	589.06
406.436	635.06
406.66	604.06
406.883	613.06
407.107	632.06
407.331	674.06
407.555	744.06
407.778	740.06
408.002	658.06
408.226	642.06
408.449	626.06
408.673	624.06
408.896	609.06
409.12	643.06
409.344	628.06
409.567	570.06
409.791	580.06
410.014	580.06
410.238	574.06
410.461	584.06
410.685	571.06
410.908	589.06
411.132	598.06
411.355	613.06
411.578	592.06
411.802	562.06
412.025	536.06
412.249	540.06
412.472	562.06
412.695	578.06
412.919	571.06
413.142	541.06
413.365	530.06
413.589	547.06
413.812	541.06
414.035	535.06
414.258	525.06
414.482	528.06
414.705	539.06
414.928	531.06
415.151	508.06
415.374	524.06
415.597	514.06
415.821	510.06
416.044	525.06
416.267	550.06
416.49	524.06
416.713	508.06
416.936	501.06
417.159	521.06
417.382	548.06
417.605	521.06
417.828	537.06
418.051	528.06
418.274	536.06
418.497	519.06
418.72	524.06
418.943	521.06
419.166	556.06
419.389	591.06
419.611	534.06
419.834	570.06
420.057	543.06
420.28	558.06
420.503	566.06
420.726	524.06
420.948	538.06
421.171	602.06
421.394	608.06
421.617	568.06
421.839	558.06
422.062	564.06
422.285	558.06
422.507	619.06
422.73	690.06
422.953	666.06
423.175	601.06
423.398	538.06
423.621	569.06
423.843	585.06
424.066	579.06
424.288	562.06
424.511	592.06
424.733	636.06
424.956	734.06
425.178	682.06
425.401	680.06
425.623	709.06
425.846	590.06
426.068	543.06
426.291	568.06
426.513	562.06
426.735	557.06
426.958	606.06
427.18	696.06
427.402	809.06
427.625	871.06
427.847	749.06
428.069	626.06
428.292	564.06
428.514	549.06
428.736	536.06
428.958	533.06
429.181	523.06
429.403	523.06
429.625	508.06
429.847	546.06
430.069	574.06
430.292	607.06
430.514	529.06
430.736	501.06
430.958	517.06
431.18	504.06
431.402	500.06
431.624	500.06
431.846	480.06
432.068	482.06
432.29	502.06
432.512	502.06
432.734	487.06
432.956	513.06
433.178	502.06
433.4	516.06
433.622	473.06
433.844	480.06
434.066	511.06
434.287	482.06
434.509	499.06
434.731	535.06
434.953	535.06
435.175	560.06
435.397	551.06
435.618	570.06
435.84	603.06
436.062	681.06
436.284	746.06
436.505	619.06
436.727	566.06
436.949	542.06
437.17	540.06
437.392	524.06
437.614	518.06
437.835	571.06
438.057	672.06
438.278	747.06
438.5	734.06
438.721	813.06
438.943	750.06
439.165	602.06
439.386	551.06
439.608	577.06
439.829	568.06
440.05	555.06
440.272	618.06
440.493	599.06
440.715	545.06
440.936	542.06
441.158	546.06
441.379	510.06
441.6	567.06
441.822	594.06
442.043	610.06
442.264	694.06
442.486	705.06
442.707	597.06
442.928	557.06
443.149	590.06
443.371	626.06
443.592	632.06
443.813	701.06
444.034	743.06
444.255	659.06
444.476	618.06
444.698	591.06
444.919	600.06
445.14	704.06
445.361	641.06
445.582	608.06
445.803	658.06
446.024	760.06
446.245	722.06
446.466	675.06
446.687	590.06
446.908	543.06
447.129	527.06
447.35	517.06
447.571	510.06
447.792	501.06
448.013	517.06
448.234	543.06
448.455	582.06
448.675	663.06
448.896	780.06
449.117	654.06
449.338	623.06
449.559	726.06
449.779	795.06
450	667.06
450.221	554.06
450.442	527.06
450.662	512.06
450.883	486.06
451.104	533.06
451.324	524.06
451.545	472.06
451.766	477.06
451.986	472.06
452.207	465.06
452.428	475.06
452.648	474.06
452.869	470.06
453.089	482.06
453.31	499.06
453.53	450.06
453.751	469.06
453.971	467.06
454.192	493.06
454.412	482.06
454.633	476.06
454.853	485.06
455.073	464.06
455.294	480.06
455.514	557.06
455.734	515.06
455.955	458.06
456.175	431.06
456.395	424.06
456.616	431.06
456.836	434.06
457.056	442.06
457.276	420.06
457.497	447.06
457.717	453.06
457.937	429.06
458.157	450.06
458.377	446.06
458.598	467.06
458.818	535.06
459.038	599.06
459.258	619.06
459.478	570.06
459.698	527.06
459.918	502.06
460.138	518.06
460.358	517.06
460.578	548.06
460.798	532.06
461.018	555.06
461.238	554.06
461.458	538.06
461.678	535.06
461.898	527.06
462.118	536.06
462.338	542.06
462.558	554.06
462.777	586.06
462.997	610.06
463.217	601.06
463.437	602.06
463.657	576.06
463.876	600.06
464.096	577.06
464.316	596.06
464.536	615.06
464.755	564.06
464.975	558.06
465.195	602.06
465.414	645.06
465.634	600.06
465.854	530.06
466.073	522.06
466.293	512.06
466.512	493.06
466.732	483.06
466.951	491.06
467.171	465.06
467.391	483.06
467.61	509.06
467.829	485.06
468.049	486.06
468.268	469.06
468.488	474.06
468.707	471.06
468.927	448.06
469.146	442.06
469.365	446.06
469.585	467.06
469.804	494.06
470.023	507.06
470.243	486.06
470.462	500.06
470.681	540.06
470.901	507.06
471.12	461.06
471.339	513.06
471.558	483.06
471.777	467.06
471.997	485.06
472.216	483.06
472.435	468.06
472.654	483.06
472.873	478.06
473.092	473.06
473.311	485.06
473.53	478.06
473.749	477.06
473.968	519.06
474.187	580.06
474.406	624.06
474.625	518.06
474.844	498.06
475.063	491.06
475.282	472.06
475.501	476.06
475.72	503.06
475.939	495.06
476.158	489.06
476.377	480.06
476.596	499.06
476.814	514.06
477.033	513.06
477.252	523.06
477.471	508.06
477.69	540.06
477.908	527.06
478.127	549.06
478.346	544.06
478.564	562.06
478.783	537.06
479.002	559.06
479.22	582.06
479.439	584.06
479.658	603.06
479.876	578.06
480.095	584.06
480.313	636.06
480.532	620.06
480.751	604.06
480.969	620.06
481.188	599.06
481.406	596.06
481.624	576.06
481.843	574.06
482.061	558.06
482.28	539.06
482.498	535.06
482.717	536.06
482.935	535.06
483.153	544.06
483.372	550.06
483.59	546.06
483.808	544.06
484.027	534.06
484.245	553.06
484.463	554.06
484.681	578.06
484.9	547.06
485.118	557.06
485.336	584.06
485.554	575.06
485.772	565.06
485.99	549.06
486.209	584.06
486.427	583.06
486.645	598.06
486.863	608.06
487.081	620.06
487.299	576.06
487.517	596.06
487.735	577.06
487.953	602.06
488.171	604.06
488.389	575.06
488.607	602.06
488.825	606.06
489.043	597.06
489.261	567.06
489.479	612.06
489.696	631.06
489.914	620.06
490.132	642.06
490.35	602.06
490.568	634.06
490.786	630.06
491.003	610.06
491.221	650.06
491.439	678.06
491.657	656.06
491.874	649.06
492.092	661.06
492.31	682.06
492.527	650.06
492.745	647.06
492.963	678.06
493.18	677.06
493.398	697.06
493.615	686.06
493.833	666.06
494.05	695.06
494.268	690.06
494.485	710.06
494.703	686.06
494.92	694.06
495.138	687.06
495.355	698.06
495.573	690.06
495.79	719.06
496.008	710.06
496.225	706.06
496.442	702.06
496.66	719.06
496.877	713.06
497.094	745.06
497.312	711.06
497.529	725.06
497.746	738.06
497.963	761.06
498.181	771.06
498.398	792.06
498.615	829.06
498.832	854.06
499.049	873.06
499.267	884.06
499.484	952.06
499.701	995.06
499.918	1047.06
500.135	1090.06
500.352	1170.06
500.569	1222.06
500.786	1214.06
501.003	1166.06
501.22	1093.06
501.437	1079.06
501.654	1014.06
501.871	995.06
502.088	906.06
502.305	867.06
502.522	854.06
502.739	824.06
502.956	799.06
503.172	796.06
503.389	781.06
503.606	719.06
503.823	733.06
504.04	741.06
504.256	745.06
504.473	747.06
504.69	763.06
504.907	712.06
505.123	694.06
505.34	701.06
505.557	684.06
505.773	698.06
505.99	694.06
506.207	679.06
506.423	678.06
506.64	668.06
506.856	685.06
507.073	670.06
507.289	643.06
507.506	664.06
507.722	655.06
507.939	676.06
508.155	662.06
508.372	620.06
508.588	605.06
508.805	617.06
509.021	624.06
509.238	630.06
509.454	650.06
509.67	644.06
509.887	619.06
510.103	631.06
510.319	620.06
510.536	715.06
510.752	1156.06
510.968	954.06
511.184	630.06
511.401	622.06
511.617	601.06
511.833	600.06
512.049	599.06
512.265	597.06
512.481	608.06
512.698	592.06
512.914	574.06
513.13	569.06
513.346	592.06
513.562	600.06
513.778	601.06
513.994	592.06
514.21	611.06
514.426	637.06
514.642	654.06
514.858	671.06
515.074	734.06
515.29	849.06
515.506	1228.06
515.721	1058.06
515.937	750.06
516.153	668.06
516.369	663.06
516.585	629.06
516.801	633.06
517.016	656.06
517.232	638.06
517.448	638.06
517.664	657.06
517.879	675.06
518.095	660.06
518.311	643.06
518.527	640.06
518.742	639.06
518.958	628.06
519.173	602.06
519.389	642.06
519.605	604.06
519.82	608.06
520.036	613.06
520.251	619.06
520.467	644.06
520.682	639.06
520.898	652.06
521.113	647.06
521.329	722.06
521.544	766.06
521.76	958.06
521.975	1578.06
522.19	1633.06
522.406	861.06
522.621	696.06
522.836	607.06
523.052	586.06
523.267	590.06
523.482	551.06
523.698	544.06
523.913	546.06
524.128	548.06
524.343	529.06
524.559	542.06
524.774	534.06
524.989	524.06
525.204	541.06
525.419	524.06
525.634	541.06
525.849	499.06
526.064	515.06
526.28	510.06
526.495	492.06
526.71	490.06
526.925	494.06
527.14	485.06
527.355	494.06
527.57	480.06
527.785	490.06
527.999	485.06
528.214	489.06
528.429	493.06
528.644	511.06
528.859	479.06
529.074	497.06
529.289	498.06
529.503	580.06
529.718	571.06
529.933	518.06
530.148	484.06
530.363	484.06
530.577	487.06
530.792	466.06
531.007	489.06
531.221	492.06
531.436	502.06
531.651	483.06
531.865	479.06
532.08	492.06
532.295	483.06
532.509	469.06
532.724	474.06
532.938	476.06
533.153	493.06
533.367	482.06
533.582	466.06
533.796	483.06
534.011	478.06
534.225	476.06
534.44	463.06
534.654	476.06
534.868	465.06
535.083	451.06
535.297	468.06
535.511	473.06
535.726	476.06
535.94	474.06
536.154	479.06
536.369	464.06
536.583	458.06
536.797	471.06
537.011	452.06
537.225	448.06
537.44	457.06
537.654	430.06
537.868	465.06
538.082	451.06
538.296	441.06
538.51	446.06
538.724	460.06
538.938	455.06
539.153	470.06
539.367	460.06
539.581	451.06
539.795	446.06
540.009	458.06
540.222	436.06
540.436	463.06
540.65	448.06
540.864	448.06
541.078	469.06
541.292	463.06
541.506	468.06
541.72	460.06
541.934	438.06
542.147	459.06
542.361	436.06
542.575	442.06
542.789	442.06
543.002	446.06
543.216	448.06
543.43	441.06
543.644	476.06
543.857	461.06
544.071	437.06
544.285	461.06
544.498	426.06
544.712	438.06
544.925	438.06
545.139	443.06
545.352	446.06
545.566	468.06
545.779	439.06
545.993	444.06
546.206	448.06
546.42	446.06
546.633	430.06
546.847	432.06
547.06	440.06
547.274	441.06
547.487	434.06
547.7	435.06
547.914	430.06
548.127	421.06
548.34	419.06
548.554	439.06
548.767	423.06
548.98	432.06
549.193	449.06
549.407	437.06
549.62	444.06
549.833	438.06
550.046	429.06
550.259	424.06
550.473	426.06
550.686	420.06
550.899	443.06
551.112	436.06
551.325	423.06
551.538	442.06
551.751	430.06
551.964	427.06
552.177	432.06
552.39	424.06
552.603	443.06
552.816	444.06
553.029	459.06
553.242	454.06
553.455	463.06
553.667	471.06
553.88	492.06
554.093	459.06
554.306	446.06
554.519	452.06
554.732	426.06
554.944	421.06
555.157	436.06
555.37	438.06
555.583	426.06
555.795	419.06
556.008	418.06
556.221	410.06
556.433	412.06
556.646	396.06
556.859	392.06
557.071	404.06
557.284	406.06
557.496	391.06
557.709	395.06
557.921	375.06
558.134	385.06
558.346	376.06
558.559	386.06
558.771	396.06
558.984	373.06
559.196	375.06
559.409	380.06
559.621	382.06
559.833	391.06
560.046	382.06
560.258	390.06
560.47	379.06
560.683	391.06
560.895	365.06
561.107	397.06
561.32	382.06
561.532	355.06
561.744	373.06
561.956	382.06
562.168	375.06
562.381	392.06
562.593	359.06
562.805	370.06
563.017	392.06
563.229	365.06
563.441	388.06
563.653	384.06
563.865	389.06
564.077	384.06
564.289	399.06
564.501	387.06
564.713	405.06
564.925	406.06
565.137	422.06
565.349	417.06
565.561	446.06
565.773	442.06
565.985	429.06
566.197	459.06
566.408	486.06
566.62	488.06
566.832	526.06
567.044	520.06
567.255	532.06
567.467	539.06
567.679	532.06
567.891	537.06
568.102	572.06
568.314	542.06
568.526	502.06
568.737	494.06
568.949	446.06
569.161	432.06
569.372	440.06
569.584	404.06
569.795	418.06
570.007	410.06
570.218	439.06
570.43	440.06
570.641	387.06
570.853	396.06
571.064	399.06
571.276	375.06
571.487	373.06
571.698	384.06
571.91	379.06
572.121	360.06
572.333	360.06
572.544	358.06
572.755	346.06
572.966	351.06
573.178	340.06
573.389	330.06
573.6	337.06
573.811	331.06
574.023	334.06
574.234	312.06
574.445	345.06
574.656	354.06
574.867	335.06
575.078	325.06
575.289	324.06
575.501	336.06
575.712	322.06
575.923	316.06
576.134	330.06
576.345	326.06
576.556	309.06
576.767	324.06
576.978	331.06
577.188	313.06
577.399	311.06
577.61	325.06
577.821	315.06
578.032	331.06
578.243	341.06
578.454	538.06
578.665	440.06
578.875	335.06
579.086	304.06
579.297	303.06
579.508	327.06
579.718	304.06
579.929	290.06
580.14	297.06
580.35	316.06
580.561	308.06
580.772	302.06
580.982	306.06
581.193	299.06
581.403	298.06
581.614	296.06
581.825	288.06
582.035	287.06
582.246	308.06
582.456	306.06
582.667	285.06
582.877	298.06
583.087	309.06
583.298	306.06
583.508	283.06
583.719	294.06
583.929	283.06
584.139	286.06
584.35	293.06
584.56	313.06
584.77	298.06
584.981	296.06
585.191	288.06
585.401	288.06
585.611	302.06
585.821	276.06
586.032	302.06
586.242	284.06
586.452	292.06
586.662	306.06
586.872	280.06
587.082	293.06
587.292	299.06
587.502	281.06
587.713	302.06
587.923	272.06
588.133	296.06
588.343	286.06
588.553	282.06
588.762	284.06
588.972	290.06
589.182	290.06
589.392	280.06
589.602	277.06
589.812	302.06
590.022	293.06
590.232	279.06
590.441	293.06
590.651	279.06
590.861	272.06
591.071	276.06
591.281	296.06
591.49	314.06
591.7	298.06
591.91	304.06
592.119	311.06
592.329	288.06
592.539	316.06
592.748	313.06
592.958	308.06
593.167	318.06
593.377	331.06
593.587	327.06
593.796	325.06
594.006	316.06
594.215	335.06
594.424	319.06
594.634	334.06
594.843	315.06
595.053	308.06
595.262	305.06
595.472	317.06
595.681	293.06
595.89	278.06
596.1	301.06
596.309	285.06
596.518	282.06
596.727	271.06
596.937	280.06
597.146	269.06
597.355	260.06
597.564	279.06
597.774	280.06
597.983	268.06
598.192	263.06
598.401	274.06
598.61	251.06
598.819	244.06
599.028	269.06
599.237	259.06
599.446	251.06
599.655	254.06
599.864	247.06
600.073	239.06
600.282	249.06
600.491	242.06
600.7	270.06
600.909	246.06
601.118	254.06
601.327	243.06
601.536	258.06
601.745	242.06
601.953	237.06
602.162	242.06
602.371	236.06
602.58	231.06
602.789	255.06
602.997	254.06
603.206	234.06
603.415	228.06
603.623	245.06
603.832	256.06
604.041	256.06
604.249	233.06
604.458	205.06
604.666	238.06
604.875	239.06
605.084	249.06
605.292	237.06
605.501	243.06
605.709	242.06
605.918	223.06
606.126	244.06
606.334	220.06
606.543	239.06
606.751	228.06
606.96	222.06
607.168	246.06
607.376	227.06
607.585	226.06
607.793	238.06
608.001	229.06
608.21	232.06
608.418	230.06
608.626	229.06
608.834	227.06
609.043	223.06
609.251	234.06
609.459	251.06
609.667	234.06
609.875	217.06
610.083	237.06
610.291	237.06
610.499	223.06
610.707	236.06
610.916	238.06
611.124	218.06
611.332	232.06
611.54	242.06
611.748	245.06
611.955	254.06
612.163	227.06
612.371	229.06
612.579	250.06
612.787	203.06
612.995	219.06
613.203	226.06
613.411	231.06
613.618	216.06
613.826	211.06
614.034	228.06
614.242	226.06
614.449	214.06
614.657	243.06
614.865	226.06
615.072	210.06
615.28	218.06
615.488	224.06
615.695	221.06
615.903	224.06
616.111	226.06
616.318	222.06
616.526	205.06
616.733	224.06
616.941	215.06
617.148	237.06
617.356	231.06
617.563	225.06
617.771	231.06
617.978	229.06
618.185	239.06
618.393	227.06
618.6	224.06
618.807	220.06
619.015	225.06
619.222	229.06
619.429	217.06
619.637	231.06
619.844	238.06
620.051	201.06
620.258	210.06
620.466	220.06
620.673	206.06
620.88	213.06
621.087	222.06
621.294	214.06
621.501	213.06
621.708	225.06
621.915	208.06
622.122	213.06
622.329	226.06
622.536	209.06
622.743	200.06
622.95	209.06
623.157	202.06
623.364	224.06
623.571	200.06
623.778	222.06
623.985	216.06
624.192	225.06
624.399	200.06
624.606	212.06
624.812	208.06
625.019	201.06
625.226	216.06
625.433	223.06
625.639	209.06
625.846	209.06
626.053	203.06
626.259	214.06
626.466	196.06
626.673	203.06
626.879	182.06
627.086	198.06
627.293	193.06
627.499	206.06
627.706	194.06
627.912	192.06
628.119	205.06
628.325	188.06
628.532	205.06
628.738	195.06
628.945	201.06
629.151	195.06
629.357	175.06
629.564	170.06
629.77	212.06
629.976	191.06
630.183	175.06
630.389	182.06
630.595	192.06
630.802	188.06
631.008	178.06
631.214	186.06
631.42	171.06
631.627	195.06
631.833	188.06
632.039	178.06
632.245	186.06
632.451	185.06
632.657	203.06
632.863	184.06
633.069	191.06
633.275	184.06
633.481	182.06
633.688	182.06
633.893	180.06
634.099	182.06
634.305	181.06
634.511	168.06
634.717	181.06
634.923	171.06
635.129	164.06
635.335	170.06
635.541	182.06
635.747	180.06
635.952	173.06
636.158	156.06
636.364	174.06
636.57	191.06
636.775	182.06
636.981	174.06
637.187	173.06
637.392	186.06
637.598	165.06
637.804	170.06
638.009	190.06
638.215	178.06
638.421	160.06
638.626	170.06
638.832	168.06
639.037	174.06
639.243	166.06
639.448	162.06
639.654	178.06
639.859	171.06
640.065	176.06
640.27	162.06
640.475	171.06
640.681	157.06
640.886	172.06
641.091	175.06
641.297	163.06
641.502	164.06
641.707	171.06
641.913	170.06
642.118	157.06
642.323	157.06
642.528	172.06
642.733	152.06
642.939	181.06
643.144	158.06
643.349	189.06
643.554	164.06
643.759	164.06
643.964	158.06
644.169	171.06
644.374	170.06
644.579	171.06
644.784	158.06
644.989	167.06
645.194	170.06
645.399	163.06
645.604	158.06
645.809	166.06
646.014	160.06
646.219	171.06
646.423	154.06
646.628	153.06
646.833	164.06
647.038	162.06
647.243	165.06
647.447	158.06
647.652	159.06
647.857	169.06
648.062	169.06
648.266	145.06
648.471	172.06
648.676	171.06
648.88	159.06
649.085	164.06
649.289	170.06
649.494	163.06
649.698	183.06
649.903	174.06
650.107	174.06
650.312	166.06
650.516	167.06
650.721	161.06
650.925	155.06
651.13	171.06
651.334	146.06
651.539	147.06
651.743	147.06
651.947	137.06
652.152	144.06
652.356	142.06
652.56	148.06
652.764	139.06
652.969	143.06
653.173	147.06
653.377	134.06
653.581	138.06
653.785	134.06
653.99	123.06
654.194	138.06
654.398	134.06
654.602	130.06
654.806	140.06
655.01	152.06
655.214	146.06
655.418	126.06
655.622	145.06
655.826	127.06
656.03	136.06
656.234	139.06
656.438	141.06
656.642	146.06
656.846	128.06
657.049	135.06
657.253	133.06
657.457	125.06
657.661	131.06
657.865	114.06
658.068	118.06
658.272	123.06
658.476	109.06
658.68	97.06
658.883	95.06
659.087	104.06
659.291	110.06
659.494	99.06
659.698	100.06
659.901	105.06
660.105	100.06
660.309	98.06
660.512	99.06
660.716	105.06
660.919	94.06
661.123	96.06
661.326	79.06
661.53	93.06
661.733	93.06
661.936	82.06
662.14	84.06
662.343	84.06
662.546	91.06
662.75	90.06
662.953	85.06
663.156	76.06
663.36	81.06
663.563	84.06
663.766	73.06
663.969	97.06
664.173	99.06
664.376	77.06
664.579	92.06
664.782	78.06
664.985	87.06
665.188	78.06
665.391	90.06
665.594	92.06
665.797	89.06
666	79.06
666.203	91.06
666.406	86.06
666.609	84.06
666.812	80.06
667.015	82.06
667.218	92.06
667.421	85.06
667.624	91.06
667.827	84.06
668.03	76.06
668.232	74.06
668.435	86.06
668.638	88.06
668.841	73.06
669.043	77.06
669.246	85.06
669.449	91.06
669.651	84.06
669.854	81.06
670.057	87.06
670.259	86.06
670.462	89.06
670.665	91.06
670.867	77.06
671.07	102.06
671.272	91.06
671.475	72.06
671.677	94.06
671.88	89.06
672.082	68.06
672.284	80.06
672.487	95.06
672.689	94.06
672.892	79.06
