Data from 1985.PennyLincolnUp.Lamp.En5.5.200Scan.071819.P1_HRD10591_17-03-12-970.txt Node
Date: Thu Jul 18 17:03:12 EDT 2019
User: cochatt
Spectrometer: HR+D1059
Trigger mode: 1
Integration Time (sec): 1.000000E-1
Scans to average: 1
Electric dark correction enabled: true
Nonlinearity correction enabled: false
Boxcar width: 0
XAxis mode: Wavelengths
Number of Pixels in Spectrum: 2048
>>>>>Begin Spectral Data<<<<<
223.165	-17.75
223.4	-17.75
223.635	-17.75
223.869	-6.75
224.104	-12.75
224.338	-21.75
224.573	-14.75
224.808	-14.75
225.042	-11.75
225.277	-7.75
225.511	-8.75
225.746	12.25
225.98	15.25
226.215	14.25
226.449	15.25
226.683	8.25
226.918	18.25
227.152	33.25
227.387	38.25
227.621	40.25
227.856	41.25
228.09	39.25
228.324	53.25
228.559	53.25
228.793	68.25
229.027	105.25
229.262	104.25
229.496	123.25
229.73	133.25
229.964	168.25
230.199	131.25
230.433	116.25
230.667	117.25
230.901	94.25
231.136	100.25
231.37	115.25
231.604	113.25
231.838	121.25
232.072	110.25
232.306	114.25
232.541	110.25
232.775	119.25
233.009	95.25
233.243	102.25
233.477	121.25
233.711	117.25
233.945	120.25
234.179	99.25
234.413	131.25
234.647	116.25
234.881	97.25
235.115	121.25
235.349	110.25
235.583	108.25
235.817	122.25
236.051	121.25
236.285	117.25
236.519	119.25
236.753	141.25
236.987	153.25
237.221	179.25
237.455	207.25
237.689	173.25
237.922	134.25
238.156	126.25
238.39	125.25
238.624	111.25
238.858	129.25
239.091	130.25
239.325	106.25
239.559	118.25
239.793	127.25
240.027	130.25
240.26	143.25
240.494	150.25
240.728	153.25
240.961	131.25
241.195	148.25
241.429	129.25
241.662	138.25
241.896	129.25
242.13	120.25
242.363	133.25
242.597	145.25
242.83	135.25
243.064	138.25
243.298	142.25
243.531	134.25
243.765	144.25
243.998	149.25
244.232	156.25
244.465	156.25
244.699	158.25
244.932	144.25
245.166	135.25
245.399	155.25
245.633	138.25
245.866	149.25
246.099	140.25
246.333	160.25
246.566	165.25
246.8	146.25
247.033	138.25
247.266	147.25
247.5	157.25
247.733	165.25
247.966	178.25
248.2	168.25
248.433	160.25
248.666	174.25
248.899	187.25
249.133	183.25
249.366	199.25
249.599	193.25
249.832	182.25
250.066	176.25
250.299	178.25
250.532	187.25
250.765	201.25
250.998	233.25
251.231	215.25
251.465	203.25
251.698	194.25
251.931	201.25
252.164	191.25
252.397	188.25
252.63	197.25
252.863	212.25
253.096	215.25
253.329	222.25
253.562	216.25
253.795	214.25
254.028	215.25
254.261	216.25
254.494	242.25
254.727	248.25
254.96	267.25
255.193	254.25
255.426	234.25
255.659	247.25
255.892	219.25
256.124	221.25
256.357	220.25
256.59	219.25
256.823	207.25
257.056	213.25
257.289	209.25
257.521	223.25
257.754	202.25
257.987	207.25
258.22	197.25
258.452	209.25
258.685	205.25
258.918	219.25
259.151	221.25
259.383	223.25
259.616	215.25
259.849	227.25
260.081	245.25
260.314	254.25
260.547	259.25
260.779	239.25
261.012	228.25
261.244	226.25
261.477	238.25
261.71	235.25
261.942	228.25
262.175	250.25
262.407	240.25
262.64	220.25
262.872	234.25
263.105	197.25
263.337	206.25
263.57	215.25
263.802	219.25
264.035	219.25
264.267	212.25
264.499	207.25
264.732	216.25
264.964	229.25
265.197	213.25
265.429	225.25
265.661	210.25
265.894	237.25
266.126	225.25
266.358	237.25
266.591	219.25
266.823	246.25
267.055	228.25
267.287	238.25
267.52	245.25
267.752	261.25
267.984	241.25
268.216	228.25
268.448	233.25
268.681	243.25
268.913	249.25
269.145	274.25
269.377	287.25
269.609	278.25
269.841	283.25
270.073	295.25
270.306	298.25
270.538	322.25
270.77	330.25
271.002	291.25
271.234	311.25
271.466	305.25
271.698	316.25
271.93	325.25
272.162	321.25
272.394	322.25
272.626	317.25
272.858	289.25
273.09	299.25
273.322	283.25
273.553	262.25
273.785	262.25
274.017	277.25
274.249	268.25
274.481	278.25
274.713	283.25
274.945	262.25
275.176	283.25
275.408	268.25
275.64	271.25
275.872	278.25
276.104	287.25
276.335	287.25
276.567	303.25
276.799	313.25
277.031	311.25
277.262	340.25
277.494	331.25
277.726	320.25
277.957	300.25
278.189	300.25
278.421	276.25
278.652	297.25
278.884	289.25
279.115	289.25
279.347	278.25
279.579	289.25
279.81	281.25
280.042	295.25
280.273	294.25
280.505	288.25
280.736	296.25
280.968	283.25
281.199	293.25
281.431	277.25
281.662	293.25
281.894	281.25
282.125	287.25
282.356	314.25
282.588	334.25
282.819	314.25
283.051	289.25
283.282	311.25
283.513	311.25
283.745	301.25
283.976	321.25
284.207	319.25
284.439	302.25
284.67	309.25
284.901	295.25
285.132	298.25
285.364	309.25
285.595	315.25
285.826	305.25
286.057	302.25
286.288	311.25
286.52	310.25
286.751	321.25
286.982	305.25
287.213	326.25
287.444	329.25
287.675	293.25
287.906	308.25
288.138	329.25
288.369	324.25
288.6	331.25
288.831	314.25
289.062	306.25
289.293	303.25
289.524	331.25
289.755	300.25
289.986	314.25
290.217	328.25
290.448	325.25
290.679	324.25
290.91	310.25
291.141	327.25
291.371	331.25
291.602	319.25
291.833	313.25
292.064	326.25
292.295	320.25
292.526	312.25
292.757	329.25
292.987	313.25
293.218	301.25
293.449	321.25
293.68	338.25
293.91	320.25
294.141	333.25
294.372	321.25
294.603	316.25
294.833	334.25
295.064	330.25
295.295	322.25
295.525	348.25
295.756	327.25
295.987	331.25
296.217	359.25
296.448	359.25
296.679	333.25
296.909	325.25
297.14	326.25
297.37	338.25
297.601	334.25
297.831	337.25
298.062	347.25
298.292	326.25
298.523	334.25
298.753	349.25
298.984	330.25
299.214	352.25
299.445	341.25
299.675	350.25
299.905	336.25
300.136	355.25
300.366	344.25
300.597	350.25
300.827	360.25
301.057	365.25
301.288	374.25
301.518	365.25
301.748	363.25
301.979	354.25
302.209	371.25
302.439	383.25
302.669	369.25
302.9	364.25
303.13	373.25
303.36	373.25
303.59	356.25
303.82	359.25
304.051	387.25
304.281	361.25
304.511	360.25
304.741	379.25
304.971	355.25
305.201	383.25
305.431	370.25
305.661	371.25
305.891	363.25
306.121	387.25
306.352	372.25
306.582	376.25
306.812	359.25
307.042	352.25
307.272	379.25
307.502	373.25
307.731	357.25
307.961	368.25
308.191	373.25
308.421	358.25
308.651	354.25
308.881	372.25
309.111	405.25
309.341	380.25
309.571	390.25
309.8	405.25
310.03	404.25
310.26	390.25
310.49	389.25
310.72	391.25
310.949	411.25
311.179	429.25
311.409	414.25
311.639	420.25
311.868	413.25
312.098	416.25
312.328	425.25
312.557	429.25
312.787	444.25
313.017	434.25
313.246	421.25
313.476	391.25
313.706	409.25
313.935	425.25
314.165	425.25
314.394	423.25
314.624	426.25
314.853	431.25
315.083	407.25
315.312	423.25
315.542	413.25
315.771	415.25
316.001	420.25
316.23	407.25
316.46	415.25
316.689	418.25
316.919	422.25
317.148	419.25
317.377	449.25
317.607	437.25
317.836	417.25
318.065	427.25
318.295	419.25
318.524	403.25
318.753	405.25
318.983	406.25
319.212	430.25
319.441	426.25
319.67	447.25
319.9	421.25
320.129	413.25
320.358	413.25
320.587	398.25
320.816	424.25
321.046	441.25
321.275	429.25
321.504	453.25
321.733	457.25
321.962	448.25
322.191	461.25
322.42	469.25
322.649	466.25
322.878	462.25
323.108	483.25
323.337	507.25
323.566	543.25
323.795	566.25
324.024	587.25
324.253	679.25
324.482	942.25
324.71	1408.25
324.939	2025.25
325.168	1709.25
325.397	903.25
325.626	661.25
325.855	560.25
326.084	564.25
326.313	528.25
326.542	559.25
326.77	568.25
326.999	658.25
327.228	854.25
327.457	1251.25
327.686	1513.25
327.914	1002.25
328.143	686.25
328.372	638.25
328.6	597.25
328.829	571.25
329.058	592.25
329.287	595.25
329.515	569.25
329.744	537.25
329.972	535.25
330.201	567.25
330.43	564.25
330.658	587.25
330.887	633.25
331.115	619.25
331.344	548.25
331.572	517.25
331.801	531.25
332.03	526.25
332.258	530.25
332.486	503.25
332.715	521.25
332.943	515.25
333.172	535.25
333.4	528.25
333.629	535.25
333.857	555.25
334.085	549.25
334.314	529.25
334.542	550.25
334.771	568.25
334.999	553.25
335.227	546.25
335.455	509.25
335.684	492.25
335.912	480.25
336.14	499.25
336.369	519.25
336.597	506.25
336.825	499.25
337.053	481.25
337.281	482.25
337.51	492.25
337.738	503.25
337.966	484.25
338.194	524.25
338.422	470.25
338.65	481.25
338.878	481.25
339.106	466.25
339.334	479.25
339.562	482.25
339.79	476.25
340.018	452.25
340.246	452.25
340.474	477.25
340.702	469.25
340.93	470.25
341.158	456.25
341.386	463.25
341.614	458.25
341.842	484.25
342.07	470.25
342.298	469.25
342.526	453.25
342.754	472.25
342.981	462.25
343.209	449.25
343.437	470.25
343.665	490.25
343.893	494.25
344.12	517.25
344.348	514.25
344.576	494.25
344.804	483.25
345.031	477.25
345.259	488.25
345.487	476.25
345.714	478.25
345.942	457.25
346.17	446.25
346.397	458.25
346.625	436.25
346.853	421.25
347.08	452.25
347.308	454.25
347.535	431.25
347.763	436.25
347.99	469.25
348.218	487.25
348.445	459.25
348.673	471.25
348.9	457.25
349.128	445.25
349.355	419.25
349.583	423.25
349.81	433.25
350.037	445.25
350.265	422.25
350.492	438.25
350.72	427.25
350.947	465.25
351.174	460.25
351.402	456.25
351.629	463.25
351.856	454.25
352.083	447.25
352.311	450.25
352.538	458.25
352.765	455.25
352.992	455.25
353.22	441.25
353.447	450.25
353.674	437.25
353.901	429.25
354.128	412.25
354.355	434.25
354.583	407.25
354.81	436.25
355.037	439.25
355.264	430.25
355.491	421.25
355.718	426.25
355.945	429.25
356.172	434.25
356.399	413.25
356.626	409.25
356.853	433.25
357.08	437.25
357.307	413.25
357.534	409.25
357.761	418.25
357.988	430.25
358.215	416.25
358.441	414.25
358.668	429.25
358.895	436.25
359.122	429.25
359.349	436.25
359.576	453.25
359.802	485.25
360.029	487.25
360.256	496.25
360.483	478.25
360.709	439.25
360.936	456.25
361.163	454.25
361.39	459.25
361.616	428.25
361.843	435.25
362.07	436.25
362.296	447.25
362.523	428.25
362.749	430.25
362.976	427.25
363.203	414.25
363.429	411.25
363.656	413.25
363.882	434.25
364.109	444.25
364.335	412.25
364.562	430.25
364.788	416.25
365.015	421.25
365.241	436.25
365.468	419.25
365.694	403.25
365.92	423.25
366.147	430.25
366.373	434.25
366.599	428.25
366.826	432.25
367.052	433.25
367.278	417.25
367.505	421.25
367.731	421.25
367.957	422.25
368.184	421.25
368.41	421.25
368.636	424.25
368.862	443.25
369.089	427.25
369.315	429.25
369.541	411.25
369.767	420.25
369.993	415.25
370.219	435.25
370.445	436.25
370.672	413.25
370.898	431.25
371.124	424.25
371.35	427.25
371.576	434.25
371.802	412.25
372.028	421.25
372.254	417.25
372.48	425.25
372.706	439.25
372.932	449.25
373.158	443.25
373.384	428.25
373.61	405.25
373.835	415.25
374.061	420.25
374.287	436.25
374.513	436.25
374.739	447.25
374.965	439.25
375.191	434.25
375.416	436.25
375.642	428.25
375.868	445.25
376.094	438.25
376.319	398.25
376.545	435.25
376.771	430.25
376.997	413.25
377.222	415.25
377.448	422.25
377.674	440.25
377.899	425.25
378.125	411.25
378.35	428.25
378.576	430.25
378.802	399.25
379.027	410.25
379.253	417.25
379.478	423.25
379.704	426.25
379.929	424.25
380.155	426.25
380.38	446.25
380.606	420.25
380.831	422.25
381.057	434.25
381.282	412.25
381.507	424.25
381.733	437.25
381.958	425.25
382.184	425.25
382.409	423.25
382.634	437.25
382.86	418.25
383.085	414.25
383.31	422.25
383.535	430.25
383.761	453.25
383.986	438.25
384.211	446.25
384.436	457.25
384.662	446.25
384.887	450.25
385.112	482.25
385.337	468.25
385.562	466.25
385.787	479.25
386.013	476.25
386.238	474.25
386.463	476.25
386.688	475.25
386.913	458.25
387.138	483.25
387.363	461.25
387.588	465.25
387.813	460.25
388.038	468.25
388.263	451.25
388.488	457.25
388.713	451.25
388.938	455.25
389.163	466.25
389.387	464.25
389.612	459.25
389.837	461.25
390.062	481.25
390.287	452.25
390.512	473.25
390.736	470.25
390.961	465.25
391.186	481.25
391.411	491.25
391.636	483.25
391.86	474.25
392.085	486.25
392.31	473.25
392.534	487.25
392.759	503.25
392.984	478.25
393.208	493.25
393.433	471.25
393.658	481.25
393.882	471.25
394.107	492.25
394.331	486.25
394.556	480.25
394.78	476.25
395.005	486.25
395.229	497.25
395.454	489.25
395.678	499.25
395.903	494.25
396.127	526.25
396.352	515.25
396.576	492.25
396.801	493.25
397.025	485.25
397.249	480.25
397.474	511.25
397.698	517.25
397.922	516.25
398.147	535.25
398.371	537.25
398.595	535.25
398.82	527.25
399.044	559.25
399.268	579.25
399.492	636.25
399.717	684.25
399.941	691.25
400.165	695.25
400.389	671.25
400.613	622.25
400.837	561.25
401.062	559.25
401.286	538.25
401.51	540.25
401.734	531.25
401.958	528.25
402.182	538.25
402.406	545.25
402.63	573.25
402.854	545.25
403.078	570.25
403.302	577.25
403.526	571.25
403.75	570.25
403.974	599.25
404.198	557.25
404.422	573.25
404.645	581.25
404.869	584.25
405.093	611.25
405.317	658.25
405.541	638.25
405.765	619.25
405.988	567.25
406.212	581.25
406.436	623.25
406.66	631.25
406.883	615.25
407.107	629.25
407.331	682.25
407.555	730.25
407.778	747.25
408.002	685.25
408.226	625.25
408.449	627.25
408.673	619.25
408.896	648.25
409.12	679.25
409.344	653.25
409.567	582.25
409.791	580.25
410.014	567.25
410.238	570.25
410.461	558.25
410.685	553.25
410.908	577.25
411.132	634.25
411.355	638.25
411.578	598.25
411.802	561.25
412.025	570.25
412.249	568.25
412.472	590.25
412.695	604.25
412.919	592.25
413.142	558.25
413.365	553.25
413.589	538.25
413.812	545.25
414.035	529.25
414.258	532.25
414.482	509.25
414.705	531.25
414.928	519.25
415.151	539.25
415.374	541.25
415.597	545.25
415.821	516.25
416.044	546.25
416.267	539.25
416.49	505.25
416.713	530.25
416.936	514.25
417.159	527.25
417.382	525.25
417.605	522.25
417.828	546.25
418.051	554.25
418.274	551.25
418.497	551.25
418.72	538.25
418.943	523.25
419.166	553.25
419.389	604.25
419.611	579.25
419.834	573.25
420.057	579.25
420.28	548.25
420.503	539.25
420.726	546.25
420.948	567.25
421.171	601.25
421.394	622.25
421.617	579.25
421.839	569.25
422.062	527.25
422.285	569.25
422.507	608.25
422.73	678.25
422.953	649.25
423.175	603.25
423.398	589.25
423.621	549.25
423.843	577.25
424.066	563.25
424.288	556.25
424.511	586.25
424.733	663.25
424.956	702.25
425.178	710.25
425.401	691.25
425.623	704.25
425.846	602.25
426.068	572.25
426.291	579.25
426.513	557.25
426.735	557.25
426.958	613.25
427.18	683.25
427.402	801.25
427.625	887.25
427.847	782.25
428.069	671.25
428.292	597.25
428.514	552.25
428.736	535.25
428.958	541.25
429.181	507.25
429.403	501.25
429.625	531.25
429.847	558.25
430.069	628.25
430.292	605.25
430.514	542.25
430.736	535.25
430.958	503.25
431.18	494.25
431.402	504.25
431.624	485.25
431.846	494.25
432.068	489.25
432.29	527.25
432.512	489.25
432.734	494.25
432.956	501.25
433.178	489.25
433.4	514.25
433.622	505.25
433.844	498.25
434.066	517.25
434.287	486.25
434.509	503.25
434.731	530.25
434.953	555.25
435.175	531.25
435.397	579.25
435.618	546.25
435.84	607.25
436.062	673.25
436.284	725.25
436.505	607.25
436.727	558.25
436.949	532.25
437.17	535.25
437.392	520.25
437.614	555.25
437.835	561.25
438.057	653.25
438.278	734.25
438.5	720.25
438.721	791.25
438.943	775.25
439.165	589.25
439.386	545.25
439.608	557.25
439.829	562.25
440.05	580.25
440.272	630.25
440.493	588.25
440.715	541.25
440.936	526.25
441.158	526.25
441.379	534.25
441.6	560.25
441.822	543.25
442.043	599.25
442.264	650.25
442.486	698.25
442.707	607.25
442.928	587.25
443.149	584.25
443.371	587.25
443.592	639.25
443.813	753.25
444.034	806.25
444.255	643.25
444.476	618.25
444.698	585.25
444.919	591.25
445.14	740.25
445.361	663.25
445.582	635.25
445.803	656.25
446.024	780.25
446.245	764.25
446.466	706.25
446.687	591.25
446.908	550.25
447.129	534.25
447.35	511.25
447.571	517.25
447.792	493.25
448.013	522.25
448.234	517.25
448.455	561.25
448.675	683.25
448.896	793.25
449.117	681.25
449.338	615.25
449.559	708.25
449.779	793.25
450	647.25
450.221	555.25
450.442	515.25
450.662	506.25
450.883	514.25
451.104	504.25
451.324	506.25
451.545	499.25
451.766	477.25
451.986	456.25
452.207	456.25
452.428	453.25
452.648	439.25
452.869	490.25
453.089	504.25
453.31	472.25
453.53	482.25
453.751	473.25
453.971	459.25
454.192	469.25
454.412	465.25
454.633	455.25
454.853	445.25
455.073	468.25
455.294	478.25
455.514	529.25
455.734	529.25
455.955	456.25
456.175	439.25
456.395	444.25
456.616	419.25
456.836	413.25
457.056	418.25
457.276	431.25
457.497	438.25
457.717	434.25
457.937	435.25
458.157	438.25
458.377	447.25
458.598	458.25
458.818	539.25
459.038	634.25
459.258	627.25
459.478	547.25
459.698	507.25
459.918	501.25
460.138	517.25
460.358	525.25
460.578	525.25
460.798	538.25
461.018	538.25
461.238	531.25
461.458	517.25
461.678	542.25
461.898	515.25
462.118	559.25
462.338	524.25
462.558	564.25
462.777	552.25
462.997	597.25
463.217	626.25
463.437	605.25
463.657	595.25
463.876	555.25
464.096	574.25
464.316	591.25
464.536	586.25
464.755	567.25
464.975	559.25
465.195	595.25
465.414	670.25
465.634	577.25
465.854	545.25
466.073	501.25
466.293	499.25
466.512	483.25
466.732	499.25
466.951	510.25
467.171	480.25
467.391	485.25
467.61	502.25
467.829	499.25
468.049	481.25
468.268	481.25
468.488	476.25
468.707	475.25
468.927	471.25
469.146	472.25
469.365	476.25
469.585	463.25
469.804	492.25
470.023	480.25
470.243	478.25
470.462	492.25
470.681	497.25
470.901	487.25
471.12	487.25
471.339	496.25
471.558	500.25
471.777	492.25
471.997	491.25
472.216	482.25
472.435	498.25
472.654	476.25
472.873	469.25
473.092	485.25
473.311	473.25
473.53	477.25
473.749	486.25
473.968	517.25
474.187	625.25
474.406	611.25
474.625	522.25
474.844	485.25
475.063	478.25
475.282	493.25
475.501	485.25
475.72	512.25
475.939	479.25
476.158	497.25
476.377	501.25
476.596	481.25
476.814	497.25
477.033	493.25
477.252	529.25
477.471	525.25
477.69	521.25
477.908	550.25
478.127	517.25
478.346	525.25
478.564	541.25
478.783	526.25
479.002	537.25
479.22	549.25
479.439	576.25
479.658	581.25
479.876	607.25
480.095	606.25
480.313	614.25
480.532	637.25
480.751	606.25
480.969	581.25
481.188	645.25
481.406	642.25
481.624	602.25
481.843	600.25
482.061	576.25
482.28	565.25
482.498	578.25
482.717	563.25
482.935	538.25
483.153	557.25
483.372	566.25
483.59	565.25
483.808	564.25
484.027	573.25
484.245	573.25
484.463	551.25
484.681	559.25
484.9	543.25
485.118	570.25
485.336	582.25
485.554	581.25
485.772	594.25
485.99	555.25
486.209	539.25
486.427	595.25
486.645	617.25
486.863	623.25
487.081	603.25
487.299	638.25
487.517	605.25
487.735	602.25
487.953	593.25
488.171	594.25
488.389	590.25
488.607	577.25
488.825	602.25
489.043	606.25
489.261	611.25
489.479	594.25
489.696	609.25
489.914	601.25
490.132	610.25
490.35	602.25
490.568	623.25
490.786	650.25
491.003	634.25
491.221	655.25
491.439	671.25
491.657	697.25
491.874	675.25
492.092	684.25
492.31	691.25
492.527	663.25
492.745	662.25
492.963	689.25
493.18	706.25
493.398	671.25
493.615	697.25
493.833	704.25
494.05	690.25
494.268	689.25
494.485	714.25
494.703	721.25
494.92	685.25
495.138	707.25
495.355	702.25
495.573	707.25
495.79	712.25
496.008	715.25
496.225	701.25
496.442	709.25
496.66	710.25
496.877	702.25
497.094	717.25
497.312	718.25
497.529	736.25
497.746	749.25
497.963	761.25
498.181	798.25
498.398	807.25
498.615	811.25
498.832	868.25
499.049	860.25
499.267	905.25
499.484	931.25
499.701	974.25
499.918	1016.25
500.135	1114.25
500.352	1153.25
500.569	1220.25
500.786	1197.25
501.003	1152.25
501.22	1117.25
501.437	1060.25
501.654	1016.25
501.871	977.25
502.088	923.25
502.305	876.25
502.522	859.25
502.739	833.25
502.956	798.25
503.172	800.25
503.389	756.25
503.606	739.25
503.823	771.25
504.04	726.25
504.256	727.25
504.473	755.25
504.69	715.25
504.907	728.25
505.123	728.25
505.34	686.25
505.557	683.25
505.773	674.25
505.99	691.25
506.207	669.25
506.423	643.25
506.64	648.25
506.856	649.25
507.073	663.25
507.289	656.25
507.506	651.25
507.722	654.25
507.939	661.25
508.155	644.25
508.372	629.25
508.588	599.25
508.805	634.25
509.021	631.25
509.238	648.25
509.454	625.25
509.67	633.25
509.887	615.25
510.103	628.25
510.319	655.25
510.536	726.25
510.752	1153.25
510.968	949.25
511.184	655.25
511.401	631.25
511.617	628.25
511.833	593.25
512.049	567.25
512.265	579.25
512.481	584.25
512.698	584.25
512.914	611.25
513.13	599.25
513.346	561.25
513.562	591.25
513.778	563.25
513.994	597.25
514.21	630.25
514.426	619.25
514.642	657.25
514.858	685.25
515.074	731.25
515.29	833.25
515.506	1219.25
515.721	1061.25
515.937	740.25
516.153	658.25
516.369	661.25
516.585	622.25
516.801	643.25
517.016	636.25
517.232	654.25
517.448	653.25
517.664	651.25
517.879	651.25
518.095	660.25
518.311	645.25
518.527	645.25
518.742	627.25
518.958	617.25
519.173	634.25
519.389	613.25
519.605	623.25
519.82	613.25
520.036	627.25
520.251	635.25
520.467	626.25
520.682	649.25
520.898	649.25
521.113	669.25
521.329	697.25
521.544	740.25
521.76	948.25
521.975	1541.25
522.19	1569.25
522.406	847.25
522.621	663.25
522.836	589.25
523.052	606.25
523.267	569.25
523.482	536.25
523.698	555.25
523.913	557.25
524.128	535.25
524.343	516.25
524.559	514.25
524.774	515.25
524.989	504.25
525.204	541.25
525.419	528.25
525.634	518.25
525.849	508.25
526.064	515.25
526.28	503.25
526.495	499.25
526.71	505.25
526.925	500.25
527.14	477.25
527.355	491.25
527.57	491.25
527.785	489.25
527.999	498.25
528.214	481.25
528.429	502.25
528.644	491.25
528.859	502.25
529.074	501.25
529.289	517.25
529.503	574.25
529.718	551.25
529.933	526.25
530.148	491.25
530.363	501.25
530.577	469.25
530.792	474.25
531.007	479.25
531.221	468.25
531.436	481.25
531.651	486.25
531.865	505.25
532.08	470.25
532.295	475.25
532.509	472.25
532.724	455.25
532.938	452.25
533.153	457.25
533.367	457.25
533.582	481.25
533.796	485.25
534.011	462.25
534.225	474.25
534.44	455.25
534.654	467.25
534.868	461.25
535.083	460.25
535.297	470.25
535.511	484.25
535.726	499.25
535.94	469.25
536.154	477.25
536.369	478.25
536.583	457.25
536.797	469.25
537.011	444.25
537.225	448.25
537.44	450.25
537.654	453.25
537.868	465.25
538.082	435.25
538.296	430.25
538.51	445.25
538.724	463.25
538.938	450.25
539.153	456.25
539.367	484.25
539.581	458.25
539.795	457.25
540.009	433.25
540.222	453.25
540.436	434.25
540.65	455.25
540.864	457.25
541.078	446.25
541.292	467.25
541.506	457.25
541.72	435.25
541.934	445.25
542.147	459.25
542.361	453.25
542.575	441.25
542.789	454.25
543.002	449.25
543.216	446.25
543.43	454.25
543.644	458.25
543.857	429.25
544.071	440.25
544.285	441.25
544.498	471.25
544.712	460.25
544.925	429.25
545.139	457.25
545.352	453.25
545.566	433.25
545.779	445.25
545.993	447.25
546.206	429.25
546.42	447.25
546.633	450.25
546.847	447.25
547.06	430.25
547.274	433.25
547.487	433.25
547.7	430.25
547.914	423.25
548.127	433.25
548.34	438.25
548.554	444.25
548.767	457.25
548.98	434.25
549.193	434.25
549.407	436.25
549.62	433.25
549.833	425.25
550.046	428.25
550.259	423.25
550.473	437.25
550.686	440.25
550.899	428.25
551.112	422.25
551.325	436.25
551.538	420.25
551.751	425.25
551.964	426.25
552.177	421.25
552.39	438.25
552.603	428.25
552.816	439.25
553.029	434.25
553.242	417.25
553.455	449.25
553.667	437.25
553.88	443.25
554.093	449.25
554.306	455.25
554.519	446.25
554.732	420.25
554.944	436.25
555.157	421.25
555.37	434.25
555.583	415.25
555.795	412.25
556.008	405.25
556.221	408.25
556.433	412.25
556.646	386.25
556.859	391.25
557.071	393.25
557.284	389.25
557.496	387.25
557.709	405.25
557.921	371.25
558.134	394.25
558.346	389.25
558.559	387.25
558.771	395.25
558.984	385.25
559.196	379.25
559.409	387.25
559.621	389.25
559.833	390.25
560.046	358.25
560.258	369.25
560.47	377.25
560.683	386.25
560.895	374.25
561.107	380.25
561.32	375.25
561.532	378.25
561.744	363.25
561.956	369.25
562.168	371.25
562.381	380.25
562.593	372.25
562.805	358.25
563.017	369.25
563.229	374.25
563.441	391.25
563.653	387.25
563.865	378.25
564.077	398.25
564.289	379.25
564.501	397.25
564.713	385.25
564.925	424.25
565.137	434.25
565.349	413.25
565.561	403.25
565.773	447.25
565.985	455.25
566.197	449.25
566.408	461.25
566.62	505.25
566.832	499.25
567.044	545.25
567.255	523.25
567.467	528.25
567.679	527.25
567.891	555.25
568.102	559.25
568.314	535.25
568.526	509.25
568.737	500.25
568.949	462.25
569.161	444.25
569.372	417.25
569.584	419.25
569.795	422.25
570.007	397.25
570.218	410.25
570.43	405.25
570.641	376.25
570.853	391.25
571.064	377.25
571.276	377.25
571.487	392.25
571.698	359.25
571.91	359.25
572.121	347.25
572.333	360.25
572.544	354.25
572.755	350.25
572.966	337.25
573.178	341.25
573.389	332.25
573.6	344.25
573.811	347.25
574.023	341.25
574.234	343.25
574.445	330.25
574.656	325.25
574.867	350.25
575.078	332.25
575.289	323.25
575.501	323.25
575.712	330.25
575.923	317.25
576.134	322.25
576.345	305.25
576.556	302.25
576.767	327.25
576.978	319.25
577.188	315.25
577.399	326.25
577.61	293.25
577.821	321.25
578.032	324.25
578.243	346.25
578.454	545.25
578.665	402.25
578.875	346.25
579.086	317.25
579.297	311.25
579.508	314.25
579.718	301.25
579.929	299.25
580.14	295.25
580.35	291.25
580.561	317.25
580.772	313.25
580.982	284.25
581.193	297.25
581.403	298.25
581.614	306.25
581.825	309.25
582.035	299.25
582.246	295.25
582.456	306.25
582.667	287.25
582.877	291.25
583.087	301.25
583.298	293.25
583.508	290.25
583.719	302.25
583.929	291.25
584.139	289.25
584.35	298.25
584.56	294.25
584.77	295.25
584.981	299.25
585.191	280.25
585.401	292.25
585.611	301.25
585.821	311.25
586.032	306.25
586.242	284.25
586.452	298.25
586.662	310.25
586.872	269.25
587.082	297.25
587.292	283.25
587.502	299.25
587.713	290.25
587.923	279.25
588.133	277.25
588.343	292.25
588.553	283.25
588.762	289.25
588.972	290.25
589.182	288.25
589.392	278.25
589.602	285.25
589.812	271.25
590.022	270.25
590.232	284.25
590.441	259.25
590.651	271.25
590.861	286.25
591.071	306.25
591.281	315.25
591.49	324.25
591.7	271.25
591.91	292.25
592.119	284.25
592.329	300.25
592.539	324.25
592.748	311.25
592.958	303.25
593.167	319.25
593.377	323.25
593.587	338.25
593.796	333.25
594.006	328.25
594.215	332.25
594.424	320.25
594.634	323.25
594.843	332.25
595.053	307.25
595.262	302.25
595.472	295.25
595.681	306.25
595.89	281.25
596.1	275.25
596.309	300.25
596.518	285.25
596.727	296.25
596.937	283.25
597.146	261.25
597.355	281.25
597.564	268.25
597.774	265.25
597.983	271.25
598.192	268.25
598.401	281.25
598.61	262.25
598.819	241.25
599.028	254.25
599.237	275.25
599.446	255.25
599.655	248.25
599.864	257.25
600.073	250.25
600.282	260.25
600.491	236.25
600.7	253.25
600.909	244.25
601.118	261.25
601.327	257.25
601.536	235.25
601.745	246.25
601.953	257.25
602.162	250.25
602.371	227.25
602.58	235.25
602.789	250.25
602.997	235.25
603.206	252.25
603.415	247.25
603.623	251.25
603.832	246.25
604.041	243.25
604.249	238.25
604.458	244.25
604.666	244.25
604.875	238.25
605.084	250.25
605.292	235.25
605.501	223.25
605.709	227.25
605.918	242.25
606.126	214.25
606.334	236.25
606.543	242.25
606.751	241.25
606.96	226.25
607.168	235.25
607.376	235.25
607.585	235.25
607.793	231.25
608.001	226.25
608.21	236.25
608.418	234.25
608.626	226.25
608.834	221.25
609.043	243.25
609.251	226.25
609.459	223.25
609.667	228.25
609.875	238.25
610.083	246.25
610.291	230.25
610.499	230.25
610.707	228.25
610.916	239.25
611.124	245.25
611.332	240.25
611.54	250.25
611.748	235.25
611.955	236.25
612.163	212.25
612.371	230.25
612.579	228.25
612.787	234.25
612.995	211.25
613.203	227.25
613.411	221.25
613.618	240.25
613.826	221.25
614.034	237.25
614.242	221.25
614.449	213.25
614.657	222.25
614.865	226.25
615.072	227.25
615.28	227.25
615.488	217.25
615.695	220.25
615.903	229.25
616.111	234.25
616.318	231.25
616.526	238.25
616.733	233.25
616.941	221.25
617.148	222.25
617.356	227.25
617.563	217.25
617.771	226.25
617.978	223.25
618.185	229.25
618.393	219.25
618.6	220.25
618.807	226.25
619.015	229.25
619.222	204.25
619.429	220.25
619.637	222.25
619.844	225.25
620.051	228.25
620.258	203.25
620.466	209.25
620.673	203.25
620.88	215.25
621.087	196.25
621.294	227.25
621.501	209.25
621.708	208.25
621.915	206.25
622.122	212.25
622.329	216.25
622.536	222.25
622.743	217.25
622.95	217.25
623.157	219.25
623.364	205.25
623.571	214.25
623.778	231.25
623.985	222.25
624.192	188.25
624.399	202.25
624.606	205.25
624.812	187.25
625.019	213.25
625.226	199.25
625.433	205.25
625.639	206.25
625.846	205.25
626.053	218.25
626.259	219.25
626.466	218.25
626.673	190.25
626.879	200.25
627.086	206.25
627.293	196.25
627.499	209.25
627.706	187.25
627.912	207.25
628.119	182.25
628.325	204.25
628.532	212.25
628.738	195.25
628.945	197.25
629.151	185.25
629.357	198.25
629.564	211.25
629.77	209.25
629.976	208.25
630.183	197.25
630.389	190.25
630.595	187.25
630.802	179.25
631.008	194.25
631.214	200.25
631.42	194.25
631.627	171.25
631.833	189.25
632.039	196.25
632.245	187.25
632.451	178.25
632.657	201.25
632.863	185.25
633.069	191.25
633.275	183.25
633.481	190.25
633.688	176.25
633.893	176.25
634.099	181.25
634.305	178.25
634.511	181.25
634.717	179.25
634.923	163.25
635.129	178.25
635.335	185.25
635.541	187.25
635.747	178.25
635.952	172.25
636.158	195.25
636.364	187.25
636.57	177.25
636.775	188.25
636.981	170.25
637.187	182.25
637.392	175.25
637.598	162.25
637.804	181.25
638.009	172.25
638.215	178.25
638.421	184.25
638.626	202.25
638.832	197.25
639.037	172.25
639.243	177.25
639.448	179.25
639.654	190.25
639.859	165.25
640.065	163.25
640.27	183.25
640.475	178.25
640.681	167.25
640.886	173.25
641.091	169.25
641.297	168.25
641.502	154.25
641.707	165.25
641.913	173.25
642.118	172.25
642.323	165.25
642.528	177.25
642.733	143.25
642.939	169.25
643.144	168.25
643.349	161.25
643.554	181.25
643.759	162.25
643.964	171.25
644.169	154.25
644.374	165.25
644.579	168.25
644.784	161.25
644.989	169.25
645.194	152.25
645.399	169.25
645.604	163.25
645.809	161.25
646.014	160.25
646.219	170.25
646.423	181.25
646.628	163.25
646.833	166.25
647.038	171.25
647.243	161.25
647.447	160.25
647.652	155.25
647.857	166.25
648.062	182.25
648.266	166.25
648.471	151.25
648.676	171.25
648.88	166.25
649.085	165.25
649.289	158.25
649.494	177.25
649.698	181.25
649.903	177.25
650.107	165.25
650.312	166.25
650.516	137.25
650.721	163.25
650.925	145.25
651.13	139.25
651.334	145.25
651.539	154.25
651.743	147.25
651.947	142.25
652.152	141.25
652.356	123.25
652.56	143.25
652.764	132.25
652.969	141.25
653.173	134.25
653.377	144.25
653.581	138.25
653.785	153.25
653.99	137.25
654.194	141.25
654.398	127.25
654.602	134.25
654.806	141.25
655.01	147.25
655.214	132.25
655.418	138.25
655.622	139.25
655.826	145.25
656.03	134.25
656.234	142.25
656.438	136.25
656.642	143.25
656.846	149.25
657.049	142.25
657.253	127.25
657.457	139.25
657.661	133.25
657.865	126.25
658.068	129.25
658.272	101.25
658.476	114.25
658.68	114.25
658.883	101.25
659.087	107.25
659.291	109.25
659.494	110.25
659.698	102.25
659.901	103.25
660.105	115.25
660.309	103.25
660.512	98.25
660.716	97.25
660.919	94.25
661.123	96.25
661.326	84.25
661.53	101.25
661.733	93.25
661.936	90.25
662.14	87.25
662.343	77.25
662.546	84.25
662.75	81.25
662.953	85.25
663.156	86.25
663.36	93.25
663.563	83.25
663.766	100.25
663.969	91.25
664.173	94.25
664.376	82.25
664.579	99.25
664.782	85.25
664.985	76.25
665.188	87.25
665.391	77.25
665.594	76.25
665.797	66.25
666	90.25
666.203	85.25
666.406	90.25
666.609	88.25
666.812	92.25
667.015	86.25
667.218	91.25
667.421	69.25
667.624	85.25
667.827	98.25
668.03	77.25
668.232	76.25
668.435	92.25
668.638	86.25
668.841	80.25
669.043	90.25
669.246	99.25
669.449	78.25
669.651	87.25
669.854	68.25
670.057	83.25
670.259	92.25
670.462	75.25
670.665	99.25
670.867	78.25
671.07	77.25
671.272	76.25
671.475	90.25
671.677	83.25
671.88	84.25
672.082	89.25
672.284	74.25
672.487	77.25
672.689	85.25
672.892	72.25
