Data from 1985.PennyLincolnUp.Lamp.En5.5.200Scan.071819.P1_HRD10591_17-01-54-969.txt Node
Date: Thu Jul 18 17:01:54 EDT 2019
User: cochatt
Spectrometer: HR+D1059
Trigger mode: 1
Integration Time (sec): 1.000000E-1
Scans to average: 1
Electric dark correction enabled: true
Nonlinearity correction enabled: false
Boxcar width: 0
XAxis mode: Wavelengths
Number of Pixels in Spectrum: 2048
>>>>>Begin Spectral Data<<<<<
223.165	-13.94
223.4	-13.94
223.635	-13.94
223.869	-16.94
224.104	-14.94
224.338	-13.94
224.573	-21.94
224.808	-18.94
225.042	-13.94
225.277	-6.94
225.511	-5.94
225.746	8.06
225.98	13.06
226.215	18.06
226.449	7.06
226.683	24.06
226.918	26.06
227.152	31.06
227.387	37.06
227.621	38.06
227.856	43.06
228.09	34.06
228.324	42.06
228.559	62.06
228.793	68.06
229.027	95.06
229.262	91.06
229.496	114.06
229.73	137.06
229.964	138.06
230.199	131.06
230.433	111.06
230.667	108.06
230.901	111.06
231.136	110.06
231.37	114.06
231.604	104.06
231.838	102.06
232.072	105.06
232.306	108.06
232.541	130.06
232.775	107.06
233.009	109.06
233.243	118.06
233.477	100.06
233.711	103.06
233.945	119.06
234.179	108.06
234.413	113.06
234.647	124.06
234.881	121.06
235.115	117.06
235.349	113.06
235.583	134.06
235.817	135.06
236.051	115.06
236.285	117.06
236.519	95.06
236.753	130.06
236.987	144.06
237.221	174.06
237.455	221.06
237.689	177.06
237.922	143.06
238.156	138.06
238.39	137.06
238.624	123.06
238.858	125.06
239.091	111.06
239.325	139.06
239.559	130.06
239.793	126.06
240.027	134.06
240.26	146.06
240.494	139.06
240.728	145.06
240.961	148.06
241.195	143.06
241.429	136.06
241.662	125.06
241.896	139.06
242.13	129.06
242.363	127.06
242.597	140.06
242.83	141.06
243.064	121.06
243.298	139.06
243.531	137.06
243.765	134.06
243.998	147.06
244.232	151.06
244.465	170.06
244.699	141.06
244.932	140.06
245.166	149.06
245.399	153.06
245.633	143.06
245.866	137.06
246.099	147.06
246.333	149.06
246.566	157.06
246.8	157.06
247.033	144.06
247.266	142.06
247.5	155.06
247.733	165.06
247.966	165.06
248.2	179.06
248.433	170.06
248.666	181.06
248.899	177.06
249.133	206.06
249.366	202.06
249.599	193.06
249.832	173.06
250.066	180.06
250.299	173.06
250.532	195.06
250.765	183.06
250.998	188.06
251.231	220.06
251.465	194.06
251.698	190.06
251.931	182.06
252.164	179.06
252.397	190.06
252.63	203.06
252.863	194.06
253.096	213.06
253.329	216.06
253.562	225.06
253.795	219.06
254.028	210.06
254.261	216.06
254.494	226.06
254.727	247.06
254.96	277.06
255.193	246.06
255.426	235.06
255.659	225.06
255.892	206.06
256.124	213.06
256.357	217.06
256.59	220.06
256.823	201.06
257.056	206.06
257.289	215.06
257.521	214.06
257.754	211.06
257.987	198.06
258.22	207.06
258.452	212.06
258.685	183.06
258.918	212.06
259.151	221.06
259.383	233.06
259.616	229.06
259.849	226.06
260.081	233.06
260.314	243.06
260.547	264.06
260.779	239.06
261.012	222.06
261.244	210.06
261.477	217.06
261.71	212.06
261.942	243.06
262.175	224.06
262.407	221.06
262.64	207.06
262.872	226.06
263.105	229.06
263.337	228.06
263.57	216.06
263.802	211.06
264.035	207.06
264.267	222.06
264.499	226.06
264.732	216.06
264.964	216.06
265.197	208.06
265.429	213.06
265.661	226.06
265.894	213.06
266.126	243.06
266.358	233.06
266.591	226.06
266.823	230.06
267.055	246.06
267.287	226.06
267.52	238.06
267.752	239.06
267.984	230.06
268.216	239.06
268.448	221.06
268.681	220.06
268.913	248.06
269.145	267.06
269.377	287.06
269.609	264.06
269.841	260.06
270.073	271.06
270.306	289.06
270.538	310.06
270.77	329.06
271.002	305.06
271.234	291.06
271.466	309.06
271.698	321.06
271.93	302.06
272.162	307.06
272.394	317.06
272.626	302.06
272.858	276.06
273.09	284.06
273.322	278.06
273.553	266.06
273.785	289.06
274.017	254.06
274.249	268.06
274.481	277.06
274.713	277.06
274.945	307.06
275.176	261.06
275.408	273.06
275.64	287.06
275.872	275.06
276.104	263.06
276.335	270.06
276.567	283.06
276.799	313.06
277.031	291.06
277.262	330.06
277.494	332.06
277.726	316.06
277.957	310.06
278.189	310.06
278.421	291.06
278.652	266.06
278.884	291.06
279.115	298.06
279.347	277.06
279.579	296.06
279.81	295.06
280.042	293.06
280.273	287.06
280.505	284.06
280.736	281.06
280.968	281.06
281.199	282.06
281.431	301.06
281.662	289.06
281.894	309.06
282.125	314.06
282.356	318.06
282.588	333.06
282.819	326.06
283.051	286.06
283.282	302.06
283.513	311.06
283.745	307.06
283.976	301.06
284.207	311.06
284.439	289.06
284.67	299.06
284.901	303.06
285.132	298.06
285.364	315.06
285.595	298.06
285.826	311.06
286.057	301.06
286.288	289.06
286.52	303.06
286.751	323.06
286.982	320.06
287.213	286.06
287.444	297.06
287.675	320.06
287.906	329.06
288.138	345.06
288.369	331.06
288.6	334.06
288.831	325.06
289.062	313.06
289.293	314.06
289.524	322.06
289.755	324.06
289.986	303.06
290.217	315.06
290.448	318.06
290.679	323.06
290.91	318.06
291.141	319.06
291.371	315.06
291.602	305.06
291.833	318.06
292.064	324.06
292.295	315.06
292.526	325.06
292.757	302.06
292.987	324.06
293.218	322.06
293.449	331.06
293.68	298.06
293.91	316.06
294.141	315.06
294.372	336.06
294.603	314.06
294.833	329.06
295.064	330.06
295.295	330.06
295.525	331.06
295.756	340.06
295.987	351.06
296.217	350.06
296.448	374.06
296.679	349.06
296.909	328.06
297.14	327.06
297.37	334.06
297.601	326.06
297.831	345.06
298.062	346.06
298.292	332.06
298.523	338.06
298.753	351.06
298.984	358.06
299.214	346.06
299.445	354.06
299.675	346.06
299.905	353.06
300.136	375.06
300.366	369.06
300.597	354.06
300.827	375.06
301.057	355.06
301.288	353.06
301.518	346.06
301.748	361.06
301.979	354.06
302.209	362.06
302.439	359.06
302.669	355.06
302.9	349.06
303.13	358.06
303.36	361.06
303.59	377.06
303.82	397.06
304.051	381.06
304.281	366.06
304.511	366.06
304.741	366.06
304.971	354.06
305.201	369.06
305.431	356.06
305.661	356.06
305.891	374.06
306.121	366.06
306.352	381.06
306.582	364.06
306.812	373.06
307.042	368.06
307.272	375.06
307.502	369.06
307.731	357.06
307.961	374.06
308.191	381.06
308.421	373.06
308.651	388.06
308.881	362.06
309.111	380.06
309.341	389.06
309.571	406.06
309.8	403.06
310.03	403.06
310.26	389.06
310.49	403.06
310.72	418.06
310.949	449.06
311.179	417.06
311.409	415.06
311.639	407.06
311.868	418.06
312.098	407.06
312.328	415.06
312.557	421.06
312.787	438.06
313.017	429.06
313.246	419.06
313.476	414.06
313.706	405.06
313.935	405.06
314.165	426.06
314.394	437.06
314.624	417.06
314.853	412.06
315.083	412.06
315.312	425.06
315.542	416.06
315.771	427.06
316.001	398.06
316.23	411.06
316.46	410.06
316.689	434.06
316.919	414.06
317.148	421.06
317.377	433.06
317.607	410.06
317.836	414.06
318.065	417.06
318.295	428.06
318.524	415.06
318.753	393.06
318.983	403.06
319.212	401.06
319.441	411.06
319.67	422.06
319.9	445.06
320.129	423.06
320.358	410.06
320.587	427.06
320.816	439.06
321.046	436.06
321.275	442.06
321.504	431.06
321.733	417.06
321.962	441.06
322.191	469.06
322.42	460.06
322.649	442.06
322.878	467.06
323.108	472.06
323.337	502.06
323.566	510.06
323.795	534.06
324.024	558.06
324.253	661.06
324.482	897.06
324.71	1326.06
324.939	1883.06
325.168	1627.06
325.397	866.06
325.626	643.06
325.855	544.06
326.084	521.06
326.313	527.06
326.542	514.06
326.77	562.06
326.999	633.06
327.228	825.06
327.457	1157.06
327.686	1448.06
327.914	952.06
328.143	661.06
328.372	607.06
328.6	564.06
328.829	552.06
329.058	583.06
329.287	591.06
329.515	566.06
329.744	524.06
329.972	508.06
330.201	509.06
330.43	524.06
330.658	575.06
330.887	620.06
331.115	604.06
331.344	534.06
331.572	521.06
331.801	513.06
332.03	517.06
332.258	521.06
332.486	503.06
332.715	491.06
332.943	508.06
333.172	522.06
333.4	523.06
333.629	533.06
333.857	514.06
334.085	515.06
334.314	531.06
334.542	505.06
334.771	533.06
334.999	539.06
335.227	539.06
335.455	524.06
335.684	534.06
335.912	530.06
336.14	491.06
336.369	490.06
336.597	513.06
336.825	484.06
337.053	489.06
337.281	496.06
337.51	481.06
337.738	504.06
337.966	477.06
338.194	493.06
338.422	471.06
338.65	481.06
338.878	486.06
339.106	490.06
339.334	485.06
339.562	488.06
339.79	466.06
340.018	469.06
340.246	449.06
340.474	465.06
340.702	448.06
340.93	465.06
341.158	474.06
341.386	481.06
341.614	484.06
341.842	461.06
342.07	484.06
342.298	479.06
342.526	462.06
342.754	445.06
342.981	456.06
343.209	439.06
343.437	466.06
343.665	483.06
343.893	516.06
344.12	521.06
344.348	479.06
344.576	511.06
344.804	477.06
345.031	484.06
345.259	507.06
345.487	469.06
345.714	471.06
345.942	470.06
346.17	456.06
346.397	455.06
346.625	443.06
346.853	459.06
347.08	450.06
347.308	446.06
347.535	457.06
347.763	451.06
347.99	468.06
348.218	450.06
348.445	466.06
348.673	445.06
348.9	446.06
349.128	449.06
349.355	435.06
349.583	428.06
349.81	404.06
350.037	434.06
350.265	419.06
350.492	436.06
350.72	449.06
350.947	448.06
351.174	414.06
351.402	446.06
351.629	439.06
351.856	456.06
352.083	442.06
352.311	450.06
352.538	438.06
352.765	423.06
352.992	434.06
353.22	432.06
353.447	430.06
353.674	437.06
353.901	441.06
354.128	442.06
354.355	409.06
354.583	440.06
354.81	425.06
355.037	415.06
355.264	409.06
355.491	410.06
355.718	419.06
355.945	412.06
356.172	415.06
356.399	420.06
356.626	449.06
356.853	425.06
357.08	419.06
357.307	425.06
357.534	409.06
357.761	439.06
357.988	424.06
358.215	397.06
358.441	402.06
358.668	415.06
358.895	411.06
359.122	425.06
359.349	444.06
359.576	446.06
359.802	462.06
360.029	466.06
360.256	486.06
360.483	487.06
360.709	474.06
360.936	452.06
361.163	442.06
361.39	413.06
361.616	445.06
361.843	447.06
362.07	437.06
362.296	450.06
362.523	445.06
362.749	430.06
362.976	435.06
363.203	415.06
363.429	427.06
363.656	424.06
363.882	422.06
364.109	424.06
364.335	415.06
364.562	407.06
364.788	414.06
365.015	418.06
365.241	435.06
365.468	421.06
365.694	427.06
365.92	417.06
366.147	441.06
366.373	425.06
366.599	411.06
366.826	429.06
367.052	388.06
367.278	413.06
367.505	428.06
367.731	425.06
367.957	421.06
368.184	420.06
368.41	436.06
368.636	447.06
368.862	430.06
369.089	410.06
369.315	405.06
369.541	422.06
369.767	429.06
369.993	422.06
370.219	421.06
370.445	435.06
370.672	407.06
370.898	442.06
371.124	428.06
371.35	435.06
371.576	419.06
371.802	428.06
372.028	434.06
372.254	433.06
372.48	429.06
372.706	441.06
372.932	444.06
373.158	428.06
373.384	403.06
373.61	428.06
373.835	425.06
374.061	427.06
374.287	431.06
374.513	456.06
374.739	443.06
374.965	458.06
375.191	439.06
375.416	458.06
375.642	417.06
375.868	442.06
376.094	430.06
376.319	433.06
376.545	440.06
376.771	426.06
376.997	413.06
377.222	438.06
377.448	428.06
377.674	423.06
377.899	432.06
378.125	420.06
378.35	401.06
378.576	400.06
378.802	413.06
379.027	408.06
379.253	423.06
379.478	433.06
379.704	412.06
379.929	419.06
380.155	413.06
380.38	418.06
380.606	431.06
380.831	417.06
381.057	434.06
381.282	438.06
381.507	410.06
381.733	433.06
381.958	425.06
382.184	436.06
382.409	414.06
382.634	435.06
382.86	425.06
383.085	420.06
383.31	444.06
383.535	419.06
383.761	432.06
383.986	447.06
384.211	451.06
384.436	463.06
384.662	454.06
384.887	472.06
385.112	477.06
385.337	474.06
385.562	466.06
385.787	476.06
386.013	472.06
386.238	480.06
386.463	503.06
386.688	449.06
386.913	469.06
387.138	461.06
387.363	473.06
387.588	477.06
387.813	463.06
388.038	469.06
388.263	487.06
388.488	476.06
388.713	485.06
388.938	493.06
389.163	489.06
389.387	459.06
389.612	460.06
389.837	484.06
390.062	454.06
390.287	461.06
390.512	470.06
390.736	445.06
390.961	474.06
391.186	495.06
391.411	491.06
391.636	492.06
391.86	486.06
392.085	504.06
392.31	503.06
392.534	495.06
392.759	487.06
392.984	465.06
393.208	486.06
393.433	491.06
393.658	497.06
393.882	478.06
394.107	482.06
394.331	469.06
394.556	456.06
394.78	497.06
395.005	482.06
395.229	493.06
395.454	508.06
395.678	492.06
395.903	506.06
396.127	527.06
396.352	529.06
396.576	525.06
396.801	497.06
397.025	490.06
397.249	498.06
397.474	511.06
397.698	513.06
397.922	543.06
398.147	545.06
398.371	556.06
398.595	531.06
398.82	517.06
399.044	545.06
399.268	619.06
399.492	653.06
399.717	684.06
399.941	693.06
400.165	717.06
400.389	719.06
400.613	628.06
400.837	582.06
401.062	566.06
401.286	567.06
401.51	568.06
401.734	553.06
401.958	562.06
402.182	555.06
402.406	566.06
402.63	574.06
402.854	559.06
403.078	576.06
403.302	590.06
403.526	574.06
403.75	570.06
403.974	571.06
404.198	579.06
404.422	587.06
404.645	571.06
404.869	579.06
405.093	599.06
405.317	611.06
405.541	634.06
405.765	587.06
405.988	596.06
406.212	615.06
406.436	643.06
406.66	649.06
406.883	624.06
407.107	654.06
407.331	693.06
407.555	745.06
407.778	757.06
408.002	682.06
408.226	625.06
408.449	628.06
408.673	617.06
408.896	631.06
409.12	661.06
409.344	639.06
409.567	608.06
409.791	606.06
410.014	591.06
410.238	585.06
410.461	548.06
410.685	591.06
410.908	582.06
411.132	594.06
411.355	631.06
411.578	611.06
411.802	575.06
412.025	545.06
412.249	571.06
412.472	546.06
412.695	574.06
412.919	570.06
413.142	538.06
413.365	538.06
413.589	548.06
413.812	524.06
414.035	516.06
414.258	542.06
414.482	514.06
414.705	539.06
414.928	530.06
415.151	537.06
415.374	523.06
415.597	525.06
415.821	499.06
416.044	529.06
416.267	532.06
416.49	536.06
416.713	510.06
416.936	526.06
417.159	536.06
417.382	550.06
417.605	525.06
417.828	531.06
418.051	555.06
418.274	552.06
418.497	561.06
418.72	562.06
418.943	522.06
419.166	553.06
419.389	595.06
419.611	578.06
419.834	569.06
420.057	558.06
420.28	563.06
420.503	558.06
420.726	513.06
420.948	555.06
421.171	585.06
421.394	630.06
421.617	574.06
421.839	532.06
422.062	556.06
422.285	574.06
422.507	623.06
422.73	659.06
422.953	664.06
423.175	629.06
423.398	559.06
423.621	572.06
423.843	586.06
424.066	614.06
424.288	588.06
424.511	600.06
424.733	657.06
424.956	714.06
425.178	684.06
425.401	700.06
425.623	727.06
425.846	605.06
426.068	585.06
426.291	579.06
426.513	572.06
426.735	567.06
426.958	610.06
427.18	662.06
427.402	788.06
427.625	868.06
427.847	737.06
428.069	658.06
428.292	589.06
428.514	554.06
428.736	541.06
428.958	525.06
429.181	519.06
429.403	530.06
429.625	529.06
429.847	565.06
430.069	607.06
430.292	612.06
430.514	535.06
430.736	514.06
430.958	527.06
431.18	506.06
431.402	521.06
431.624	481.06
431.846	497.06
432.068	528.06
432.29	503.06
432.512	493.06
432.734	516.06
432.956	512.06
433.178	517.06
433.4	524.06
433.622	522.06
433.844	511.06
434.066	496.06
434.287	515.06
434.509	534.06
434.731	532.06
434.953	550.06
435.175	566.06
435.397	594.06
435.618	591.06
435.84	567.06
436.062	679.06
436.284	738.06
436.505	593.06
436.727	561.06
436.949	557.06
437.17	526.06
437.392	508.06
437.614	564.06
437.835	550.06
438.057	659.06
438.278	720.06
438.5	697.06
438.721	786.06
438.943	737.06
439.165	589.06
439.386	565.06
439.608	558.06
439.829	556.06
440.05	575.06
440.272	631.06
440.493	596.06
440.715	553.06
440.936	527.06
441.158	531.06
441.379	540.06
441.6	545.06
441.822	579.06
442.043	619.06
442.264	669.06
442.486	705.06
442.707	593.06
442.928	590.06
443.149	587.06
443.371	610.06
443.592	652.06
443.813	744.06
444.034	771.06
444.255	677.06
444.476	605.06
444.698	595.06
444.919	601.06
445.14	706.06
445.361	654.06
445.582	625.06
445.803	677.06
446.024	753.06
446.245	727.06
446.466	671.06
446.687	583.06
446.908	569.06
447.129	526.06
447.35	519.06
447.571	513.06
447.792	515.06
448.013	533.06
448.234	534.06
448.455	551.06
448.675	665.06
448.896	751.06
449.117	671.06
449.338	620.06
449.559	693.06
449.779	797.06
450	654.06
450.221	552.06
450.442	511.06
450.662	500.06
450.883	518.06
451.104	519.06
451.324	513.06
451.545	479.06
451.766	479.06
451.986	470.06
452.207	452.06
452.428	474.06
452.648	471.06
452.869	451.06
453.089	446.06
453.31	485.06
453.53	461.06
453.751	475.06
453.971	485.06
454.192	482.06
454.412	464.06
454.633	466.06
454.853	462.06
455.073	460.06
455.294	475.06
455.514	543.06
455.734	536.06
455.955	469.06
456.175	463.06
456.395	449.06
456.616	450.06
456.836	445.06
457.056	419.06
457.276	447.06
457.497	444.06
457.717	445.06
457.937	437.06
458.157	445.06
458.377	463.06
458.598	485.06
458.818	534.06
459.038	611.06
459.258	623.06
459.478	562.06
459.698	535.06
459.918	524.06
460.138	499.06
460.358	545.06
460.578	535.06
460.798	546.06
461.018	545.06
461.238	538.06
461.458	529.06
461.678	546.06
461.898	528.06
462.118	542.06
462.338	548.06
462.558	559.06
462.777	560.06
462.997	619.06
463.217	637.06
463.437	632.06
463.657	601.06
463.876	597.06
464.096	594.06
464.316	584.06
464.536	595.06
464.755	563.06
464.975	588.06
465.195	588.06
465.414	643.06
465.634	571.06
465.854	540.06
466.073	521.06
466.293	512.06
466.512	513.06
466.732	495.06
466.951	486.06
467.171	483.06
467.391	476.06
467.61	499.06
467.829	509.06
468.049	507.06
468.268	462.06
468.488	494.06
468.707	472.06
468.927	470.06
469.146	460.06
469.365	473.06
469.585	456.06
469.804	490.06
470.023	489.06
470.243	471.06
470.462	505.06
470.681	508.06
470.901	526.06
471.12	494.06
471.339	498.06
471.558	487.06
471.777	489.06
471.997	477.06
472.216	482.06
472.435	475.06
472.654	477.06
472.873	497.06
473.092	464.06
473.311	469.06
473.53	493.06
473.749	468.06
473.968	503.06
474.187	609.06
474.406	612.06
474.625	531.06
474.844	491.06
475.063	485.06
475.282	484.06
475.501	486.06
475.72	498.06
475.939	505.06
476.158	527.06
476.377	484.06
476.596	476.06
476.814	515.06
477.033	530.06
477.252	503.06
477.471	535.06
477.69	522.06
477.908	528.06
478.127	549.06
478.346	547.06
478.564	549.06
478.783	590.06
479.002	582.06
479.22	565.06
479.439	573.06
479.658	596.06
479.876	587.06
480.095	593.06
480.313	604.06
480.532	612.06
480.751	610.06
480.969	596.06
481.188	590.06
481.406	593.06
481.624	570.06
481.843	571.06
482.061	561.06
482.28	558.06
482.498	547.06
482.717	539.06
482.935	577.06
483.153	573.06
483.372	582.06
483.59	564.06
483.808	574.06
484.027	581.06
484.245	585.06
484.463	553.06
484.681	537.06
484.9	573.06
485.118	582.06
485.336	579.06
485.554	566.06
485.772	589.06
485.99	599.06
486.209	571.06
486.427	583.06
486.645	594.06
486.863	615.06
487.081	614.06
487.299	607.06
487.517	587.06
487.735	614.06
487.953	609.06
488.171	599.06
488.389	603.06
488.607	609.06
488.825	611.06
489.043	619.06
489.261	623.06
489.479	604.06
489.696	602.06
489.914	616.06
490.132	631.06
490.35	614.06
490.568	628.06
490.786	632.06
491.003	627.06
491.221	669.06
491.439	663.06
491.657	649.06
491.874	666.06
492.092	665.06
492.31	703.06
492.527	650.06
492.745	657.06
492.963	679.06
493.18	687.06
493.398	707.06
493.615	672.06
493.833	677.06
494.05	684.06
494.268	693.06
494.485	694.06
494.703	692.06
494.92	670.06
495.138	676.06
495.355	699.06
495.573	679.06
495.79	684.06
496.008	731.06
496.225	701.06
496.442	718.06
496.66	706.06
496.877	691.06
497.094	729.06
497.312	718.06
497.529	733.06
497.746	777.06
497.963	777.06
498.181	787.06
498.398	803.06
498.615	819.06
498.832	851.06
499.049	894.06
499.267	927.06
499.484	958.06
499.701	1019.06
499.918	1061.06
500.135	1116.06
500.352	1206.06
500.569	1224.06
500.786	1225.06
501.003	1173.06
501.22	1112.06
501.437	1076.06
501.654	1009.06
501.871	995.06
502.088	937.06
502.305	856.06
502.522	872.06
502.739	827.06
502.956	807.06
503.172	787.06
503.389	776.06
503.606	762.06
503.823	741.06
504.04	749.06
504.256	750.06
504.473	730.06
504.69	737.06
504.907	735.06
505.123	716.06
505.34	698.06
505.557	694.06
505.773	680.06
505.99	653.06
506.207	668.06
506.423	657.06
506.64	650.06
506.856	630.06
507.073	645.06
507.289	641.06
507.506	662.06
507.722	659.06
507.939	661.06
508.155	639.06
508.372	643.06
508.588	645.06
508.805	613.06
509.021	613.06
509.238	629.06
509.454	622.06
509.67	629.06
509.887	633.06
510.103	620.06
510.319	635.06
510.536	705.06
510.752	1129.06
510.968	937.06
511.184	627.06
511.401	613.06
511.617	591.06
511.833	587.06
512.049	594.06
512.265	579.06
512.481	569.06
512.698	589.06
512.914	585.06
513.13	588.06
513.346	581.06
513.562	604.06
513.778	606.06
513.994	605.06
514.21	610.06
514.426	632.06
514.642	664.06
514.858	663.06
515.074	703.06
515.29	813.06
515.506	1158.06
515.721	1003.06
515.937	714.06
516.153	673.06
516.369	647.06
516.585	625.06
516.801	621.06
517.016	653.06
517.232	662.06
517.448	649.06
517.664	676.06
517.879	668.06
518.095	665.06
518.311	662.06
518.527	647.06
518.742	637.06
518.958	626.06
519.173	625.06
519.389	629.06
519.605	616.06
519.82	603.06
520.036	639.06
520.251	627.06
520.467	654.06
520.682	629.06
520.898	623.06
521.113	653.06
521.329	679.06
521.544	753.06
521.76	893.06
521.975	1486.06
522.19	1518.06
522.406	845.06
522.621	655.06
522.836	606.06
523.052	577.06
523.267	574.06
523.482	574.06
523.698	546.06
523.913	546.06
524.128	549.06
524.343	523.06
524.559	527.06
524.774	510.06
524.989	533.06
525.204	532.06
525.419	530.06
525.634	531.06
525.849	511.06
526.064	505.06
526.28	502.06
526.495	493.06
526.71	500.06
526.925	481.06
527.14	483.06
527.355	477.06
527.57	497.06
527.785	496.06
527.999	494.06
528.214	497.06
528.429	485.06
528.644	482.06
528.859	487.06
529.074	483.06
529.289	511.06
529.503	577.06
529.718	566.06
529.933	525.06
530.148	505.06
530.363	495.06
530.577	488.06
530.792	469.06
531.007	491.06
531.221	477.06
531.436	458.06
531.651	515.06
531.865	475.06
532.08	469.06
532.295	469.06
532.509	479.06
532.724	475.06
532.938	475.06
533.153	473.06
533.367	460.06
533.582	478.06
533.796	465.06
534.011	467.06
534.225	461.06
534.44	459.06
534.654	465.06
534.868	469.06
535.083	453.06
535.297	471.06
535.511	478.06
535.726	480.06
535.94	490.06
536.154	468.06
536.369	462.06
536.583	468.06
536.797	462.06
537.011	456.06
537.225	446.06
537.44	457.06
537.654	418.06
537.868	453.06
538.082	457.06
538.296	457.06
538.51	448.06
538.724	455.06
538.938	475.06
539.153	463.06
539.367	454.06
539.581	454.06
539.795	455.06
540.009	443.06
540.222	442.06
540.436	454.06
540.65	451.06
540.864	459.06
541.078	448.06
541.292	426.06
541.506	443.06
541.72	460.06
541.934	453.06
542.147	456.06
542.361	446.06
542.575	422.06
542.789	464.06
543.002	444.06
543.216	458.06
543.43	461.06
543.644	435.06
543.857	442.06
544.071	437.06
544.285	426.06
544.498	431.06
544.712	429.06
544.925	462.06
545.139	445.06
545.352	437.06
545.566	454.06
545.779	439.06
545.993	442.06
546.206	428.06
546.42	461.06
546.633	458.06
546.847	451.06
547.06	436.06
547.274	440.06
547.487	433.06
547.7	444.06
547.914	439.06
548.127	424.06
548.34	429.06
548.554	447.06
548.767	444.06
548.98	433.06
549.193	449.06
549.407	446.06
549.62	460.06
549.833	427.06
550.046	433.06
550.259	435.06
550.473	419.06
550.686	436.06
550.899	434.06
551.112	424.06
551.325	409.06
551.538	437.06
551.751	438.06
551.964	444.06
552.177	425.06
552.39	416.06
552.603	477.06
552.816	457.06
553.029	446.06
553.242	437.06
553.455	472.06
553.667	472.06
553.88	456.06
554.093	434.06
554.306	450.06
554.519	466.06
554.732	426.06
554.944	423.06
555.157	446.06
555.37	428.06
555.583	441.06
555.795	431.06
556.008	415.06
556.221	402.06
556.433	399.06
556.646	394.06
556.859	393.06
557.071	402.06
557.284	395.06
557.496	406.06
557.709	412.06
557.921	401.06
558.134	389.06
558.346	372.06
558.559	374.06
558.771	365.06
558.984	381.06
559.196	372.06
559.409	400.06
559.621	392.06
559.833	377.06
560.046	386.06
560.258	393.06
560.47	376.06
560.683	371.06
560.895	366.06
561.107	363.06
561.32	379.06
561.532	377.06
561.744	390.06
561.956	389.06
562.168	391.06
562.381	396.06
562.593	402.06
562.805	388.06
563.017	382.06
563.229	383.06
563.441	398.06
563.653	379.06
563.865	398.06
564.077	399.06
564.289	406.06
564.501	393.06
564.713	417.06
564.925	413.06
565.137	417.06
565.349	419.06
565.561	423.06
565.773	440.06
565.985	453.06
566.197	447.06
566.408	469.06
566.62	527.06
566.832	513.06
567.044	517.06
567.255	523.06
567.467	548.06
567.679	567.06
567.891	583.06
568.102	562.06
568.314	542.06
568.526	539.06
568.737	512.06
568.949	467.06
569.161	461.06
569.372	419.06
569.584	405.06
569.795	415.06
570.007	406.06
570.218	444.06
570.43	436.06
570.641	402.06
570.853	381.06
571.064	403.06
571.276	385.06
571.487	390.06
571.698	387.06
571.91	367.06
572.121	365.06
572.333	366.06
572.544	358.06
572.755	347.06
572.966	340.06
573.178	344.06
573.389	358.06
573.6	347.06
573.811	358.06
574.023	339.06
574.234	330.06
574.445	337.06
574.656	348.06
574.867	335.06
575.078	340.06
575.289	333.06
575.501	316.06
575.712	323.06
575.923	319.06
576.134	307.06
576.345	316.06
576.556	346.06
576.767	348.06
576.978	331.06
577.188	335.06
577.399	343.06
577.61	314.06
577.821	325.06
578.032	342.06
578.243	339.06
578.454	540.06
578.665	412.06
578.875	317.06
579.086	308.06
579.297	302.06
579.508	311.06
579.718	315.06
579.929	319.06
580.14	300.06
580.35	293.06
580.561	318.06
580.772	287.06
580.982	302.06
581.193	289.06
581.403	307.06
581.614	285.06
581.825	303.06
582.035	295.06
582.246	309.06
582.456	306.06
582.667	318.06
582.877	297.06
583.087	302.06
583.298	291.06
583.508	298.06
583.719	290.06
583.929	301.06
584.139	295.06
584.35	292.06
584.56	323.06
584.77	284.06
584.981	287.06
585.191	298.06
585.401	320.06
585.611	308.06
585.821	283.06
586.032	292.06
586.242	302.06
586.452	284.06
586.662	307.06
586.872	283.06
587.082	301.06
587.292	291.06
587.502	279.06
587.713	290.06
587.923	288.06
588.133	293.06
588.343	283.06
588.553	288.06
588.762	294.06
588.972	281.06
589.182	309.06
589.392	300.06
589.602	294.06
589.812	301.06
590.022	295.06
590.232	289.06
590.441	299.06
590.651	300.06
590.861	290.06
591.071	294.06
591.281	293.06
591.49	295.06
591.7	311.06
591.91	306.06
592.119	282.06
592.329	319.06
592.539	325.06
592.748	335.06
592.958	335.06
593.167	326.06
593.377	324.06
593.587	340.06
593.796	311.06
594.006	332.06
594.215	322.06
594.424	327.06
594.634	310.06
594.843	322.06
595.053	318.06
595.262	311.06
595.472	273.06
595.681	297.06
595.89	299.06
596.1	306.06
596.309	283.06
596.518	277.06
596.727	283.06
596.937	293.06
597.146	265.06
597.355	247.06
597.564	254.06
597.774	283.06
597.983	263.06
598.192	264.06
598.401	241.06
598.61	265.06
598.819	274.06
599.028	265.06
599.237	257.06
599.446	235.06
599.655	274.06
599.864	248.06
600.073	258.06
600.282	261.06
600.491	258.06
600.7	255.06
600.909	257.06
601.118	260.06
601.327	248.06
601.536	248.06
601.745	247.06
601.953	245.06
602.162	259.06
602.371	255.06
602.58	250.06
602.789	229.06
602.997	238.06
603.206	237.06
603.415	240.06
603.623	241.06
603.832	228.06
604.041	225.06
604.249	244.06
604.458	242.06
604.666	241.06
604.875	241.06
605.084	244.06
605.292	227.06
605.501	240.06
605.709	225.06
605.918	225.06
606.126	234.06
606.334	246.06
606.543	235.06
606.751	238.06
606.96	230.06
607.168	230.06
607.376	235.06
607.585	220.06
607.793	235.06
608.001	231.06
608.21	217.06
608.418	240.06
608.626	241.06
608.834	233.06
609.043	226.06
609.251	222.06
609.459	227.06
609.667	227.06
609.875	237.06
610.083	226.06
610.291	238.06
610.499	233.06
610.707	241.06
610.916	236.06
611.124	225.06
611.332	252.06
611.54	209.06
611.748	227.06
611.955	235.06
612.163	243.06
612.371	242.06
612.579	237.06
612.787	230.06
612.995	242.06
613.203	233.06
613.411	218.06
613.618	233.06
613.826	212.06
614.034	222.06
614.242	234.06
614.449	233.06
614.657	229.06
614.865	220.06
615.072	224.06
615.28	230.06
615.488	235.06
615.695	234.06
615.903	223.06
616.111	225.06
616.318	219.06
616.526	236.06
616.733	227.06
616.941	233.06
617.148	238.06
617.356	222.06
617.563	249.06
617.771	222.06
617.978	218.06
618.185	223.06
618.393	232.06
618.6	221.06
618.807	229.06
619.015	229.06
619.222	218.06
619.429	228.06
619.637	217.06
619.844	228.06
620.051	225.06
620.258	236.06
620.466	229.06
620.673	222.06
620.88	215.06
621.087	194.06
621.294	219.06
621.501	215.06
621.708	230.06
621.915	208.06
622.122	219.06
622.329	209.06
622.536	212.06
622.743	220.06
622.95	214.06
623.157	221.06
623.364	215.06
623.571	212.06
623.778	225.06
623.985	198.06
624.192	207.06
624.399	189.06
624.606	195.06
624.812	218.06
625.019	210.06
625.226	195.06
625.433	202.06
625.639	208.06
625.846	205.06
626.053	203.06
626.259	214.06
626.466	195.06
626.673	215.06
626.879	201.06
627.086	208.06
627.293	204.06
627.499	200.06
627.706	178.06
627.912	210.06
628.119	204.06
628.325	210.06
628.532	204.06
628.738	205.06
628.945	196.06
629.151	201.06
629.357	205.06
629.564	199.06
629.77	181.06
629.976	198.06
630.183	191.06
630.389	199.06
630.595	181.06
630.802	189.06
631.008	179.06
631.214	181.06
631.42	204.06
631.627	205.06
631.833	187.06
632.039	196.06
632.245	185.06
632.451	191.06
632.657	173.06
632.863	181.06
633.069	208.06
633.275	182.06
633.481	180.06
633.688	203.06
633.893	193.06
634.099	181.06
634.305	177.06
634.511	186.06
634.717	186.06
634.923	178.06
635.129	174.06
635.335	182.06
635.541	185.06
635.747	181.06
635.952	168.06
636.158	177.06
636.364	175.06
636.57	172.06
636.775	183.06
636.981	177.06
637.187	172.06
637.392	197.06
637.598	170.06
637.804	175.06
638.009	174.06
638.215	190.06
638.421	162.06
638.626	162.06
638.832	166.06
639.037	150.06
639.243	157.06
639.448	166.06
639.654	171.06
639.859	172.06
640.065	149.06
640.27	184.06
640.475	174.06
640.681	170.06
640.886	155.06
641.091	168.06
641.297	154.06
641.502	150.06
641.707	169.06
641.913	156.06
642.118	159.06
642.323	154.06
642.528	175.06
642.733	162.06
642.939	167.06
643.144	142.06
643.349	166.06
643.554	162.06
643.759	170.06
643.964	151.06
644.169	164.06
644.374	155.06
644.579	155.06
644.784	161.06
644.989	171.06
645.194	163.06
645.399	165.06
645.604	161.06
645.809	146.06
646.014	157.06
646.219	160.06
646.423	159.06
646.628	181.06
646.833	162.06
647.038	168.06
647.243	151.06
647.447	165.06
647.652	162.06
647.857	164.06
648.062	170.06
648.266	160.06
648.471	169.06
648.676	171.06
648.88	167.06
649.085	165.06
649.289	178.06
649.494	149.06
649.698	192.06
649.903	171.06
650.107	158.06
650.312	184.06
650.516	146.06
650.721	169.06
650.925	149.06
651.13	150.06
651.334	150.06
651.539	155.06
651.743	170.06
651.947	170.06
652.152	139.06
652.356	130.06
652.56	139.06
652.764	149.06
652.969	140.06
653.173	144.06
653.377	161.06
653.581	146.06
653.785	146.06
653.99	147.06
654.194	138.06
654.398	133.06
654.602	137.06
654.806	138.06
655.01	151.06
655.214	145.06
655.418	135.06
655.622	131.06
655.826	136.06
656.03	135.06
656.234	148.06
656.438	150.06
656.642	145.06
656.846	147.06
657.049	119.06
657.253	125.06
657.457	130.06
657.661	127.06
657.865	111.06
658.068	117.06
658.272	127.06
658.476	109.06
658.68	110.06
658.883	105.06
659.087	113.06
659.291	106.06
659.494	93.06
659.698	97.06
659.901	113.06
660.105	83.06
660.309	102.06
660.512	105.06
660.716	98.06
660.919	107.06
661.123	90.06
661.326	101.06
661.53	88.06
661.733	99.06
661.936	92.06
662.14	85.06
662.343	89.06
662.546	82.06
662.75	76.06
662.953	90.06
663.156	83.06
663.36	86.06
663.563	78.06
663.766	69.06
663.969	69.06
664.173	77.06
664.376	81.06
664.579	86.06
664.782	84.06
664.985	74.06
665.188	77.06
665.391	88.06
665.594	85.06
665.797	80.06
666	70.06
666.203	87.06
666.406	85.06
666.609	76.06
666.812	84.06
667.015	83.06
667.218	91.06
667.421	89.06
667.624	83.06
667.827	78.06
668.03	86.06
668.232	70.06
668.435	82.06
668.638	90.06
668.841	93.06
669.043	89.06
669.246	94.06
669.449	77.06
669.651	83.06
669.854	77.06
670.057	89.06
670.259	96.06
670.462	83.06
670.665	79.06
670.867	82.06
671.07	93.06
671.272	95.06
671.475	93.06
671.677	87.06
671.88	84.06
672.082	98.06
672.284	96.06
672.487	78.06
672.689	81.06
672.892	66.06
