Data from 1985.PennyLincolnUp.Lamp.En5.5.200Scan.071819.P1_HRD10591_17-03-28-971.txt Node
Date: Thu Jul 18 17:03:28 EDT 2019
User: cochatt
Spectrometer: HR+D1059
Trigger mode: 1
Integration Time (sec): 1.000000E-1
Scans to average: 1
Electric dark correction enabled: true
Nonlinearity correction enabled: false
Boxcar width: 0
XAxis mode: Wavelengths
Number of Pixels in Spectrum: 2048
>>>>>Begin Spectral Data<<<<<
223.165	-13.31
223.4	-13.31
223.635	-13.31
223.869	-13.31
224.104	-20.31
224.338	6.69
224.573	-15.31
224.808	-25.31
225.042	-7.31
225.277	-11.31
225.511	-3.31
225.746	-11.31
225.98	6.69
226.215	6.69
226.449	0.69
226.683	36.69
226.918	29.69
227.152	33.69
227.387	30.69
227.621	30.69
227.856	45.69
228.09	45.69
228.324	63.69
228.559	41.69
228.793	44.69
229.027	73.69
229.262	92.69
229.496	95.69
229.73	117.69
229.964	149.69
230.199	132.69
230.433	97.69
230.667	107.69
230.901	109.69
231.136	108.69
231.37	104.69
231.604	113.69
231.838	117.69
232.072	111.69
232.306	112.69
232.541	109.69
232.775	107.69
233.009	109.69
233.243	120.69
233.477	111.69
233.711	119.69
233.945	117.69
234.179	111.69
234.413	105.69
234.647	127.69
234.881	125.69
235.115	117.69
235.349	120.69
235.583	111.69
235.817	114.69
236.051	108.69
236.285	125.69
236.519	117.69
236.753	129.69
236.987	140.69
237.221	184.69
237.455	223.69
237.689	183.69
237.922	150.69
238.156	121.69
238.39	133.69
238.624	123.69
238.858	119.69
239.091	121.69
239.325	116.69
239.559	122.69
239.793	121.69
240.027	133.69
240.26	127.69
240.494	147.69
240.728	154.69
240.961	150.69
241.195	139.69
241.429	129.69
241.662	139.69
241.896	124.69
242.13	129.69
242.363	129.69
242.597	130.69
242.83	141.69
243.064	143.69
243.298	131.69
243.531	131.69
243.765	130.69
243.998	141.69
244.232	142.69
244.465	147.69
244.699	131.69
244.932	160.69
245.166	142.69
245.399	156.69
245.633	144.69
245.866	149.69
246.099	154.69
246.333	155.69
246.566	157.69
246.8	151.69
247.033	146.69
247.266	167.69
247.5	162.69
247.733	175.69
247.966	159.69
248.2	161.69
248.433	179.69
248.666	168.69
248.899	183.69
249.133	192.69
249.366	188.69
249.599	195.69
249.832	179.69
250.066	195.69
250.299	165.69
250.532	216.69
250.765	192.69
250.998	205.69
251.231	228.69
251.465	217.69
251.698	206.69
251.931	191.69
252.164	207.69
252.397	206.69
252.63	196.69
252.863	215.69
253.096	241.69
253.329	222.69
253.562	229.69
253.795	206.69
254.028	207.69
254.261	216.69
254.494	212.69
254.727	255.69
254.96	255.69
255.193	258.69
255.426	247.69
255.659	224.69
255.892	239.69
256.124	227.69
256.357	233.69
256.59	220.69
256.823	221.69
257.056	204.69
257.289	220.69
257.521	221.69
257.754	207.69
257.987	199.69
258.22	214.69
258.452	195.69
258.685	213.69
258.918	213.69
259.151	204.69
259.383	218.69
259.616	209.69
259.849	243.69
260.081	227.69
260.314	253.69
260.547	259.69
260.779	245.69
261.012	241.69
261.244	238.69
261.477	231.69
261.71	231.69
261.942	213.69
262.175	243.69
262.407	225.69
262.64	223.69
262.872	240.69
263.105	227.69
263.337	233.69
263.57	218.69
263.802	203.69
264.035	225.69
264.267	226.69
264.499	212.69
264.732	227.69
264.964	212.69
265.197	219.69
265.429	211.69
265.661	230.69
265.894	228.69
266.126	224.69
266.358	245.69
266.591	226.69
266.823	234.69
267.055	229.69
267.287	253.69
267.52	236.69
267.752	260.69
267.984	241.69
268.216	240.69
268.448	249.69
268.681	269.69
268.913	243.69
269.145	282.69
269.377	275.69
269.609	300.69
269.841	293.69
270.073	267.69
270.306	299.69
270.538	314.69
270.77	347.69
271.002	301.69
271.234	305.69
271.466	316.69
271.698	311.69
271.93	317.69
272.162	324.69
272.394	326.69
272.626	297.69
272.858	288.69
273.09	289.69
273.322	289.69
273.553	279.69
273.785	281.69
274.017	290.69
274.249	278.69
274.481	269.69
274.713	267.69
274.945	267.69
275.176	269.69
275.408	285.69
275.64	276.69
275.872	281.69
276.104	287.69
276.335	296.69
276.567	279.69
276.799	282.69
277.031	308.69
277.262	326.69
277.494	343.69
277.726	313.69
277.957	309.69
278.189	289.69
278.421	285.69
278.652	282.69
278.884	298.69
279.115	292.69
279.347	286.69
279.579	282.69
279.81	292.69
280.042	276.69
280.273	283.69
280.505	285.69
280.736	280.69
280.968	279.69
281.199	308.69
281.431	299.69
281.662	279.69
281.894	306.69
282.125	296.69
282.356	300.69
282.588	327.69
282.819	318.69
283.051	295.69
283.282	298.69
283.513	299.69
283.745	307.69
283.976	303.69
284.207	311.69
284.439	315.69
284.67	295.69
284.901	301.69
285.132	308.69
285.364	297.69
285.595	321.69
285.826	299.69
286.057	311.69
286.288	287.69
286.52	309.69
286.751	305.69
286.982	305.69
287.213	317.69
287.444	319.69
287.675	314.69
287.906	314.69
288.138	338.69
288.369	331.69
288.6	322.69
288.831	309.69
289.062	322.69
289.293	313.69
289.524	300.69
289.755	309.69
289.986	331.69
290.217	314.69
290.448	318.69
290.679	328.69
290.91	321.69
291.141	339.69
291.371	315.69
291.602	327.69
291.833	325.69
292.064	303.69
292.295	327.69
292.526	323.69
292.757	324.69
292.987	309.69
293.218	328.69
293.449	321.69
293.68	326.69
293.91	322.69
294.141	327.69
294.372	312.69
294.603	324.69
294.833	350.69
295.064	319.69
295.295	324.69
295.525	319.69
295.756	338.69
295.987	316.69
296.217	340.69
296.448	381.69
296.679	342.69
296.909	333.69
297.14	337.69
297.37	338.69
297.601	347.69
297.831	355.69
298.062	330.69
298.292	330.69
298.523	352.69
298.753	346.69
298.984	356.69
299.214	356.69
299.445	351.69
299.675	345.69
299.905	356.69
300.136	360.69
300.366	365.69
300.597	349.69
300.827	345.69
301.057	340.69
301.288	370.69
301.518	367.69
301.748	369.69
301.979	364.69
302.209	342.69
302.439	351.69
302.669	377.69
302.9	367.69
303.13	372.69
303.36	360.69
303.59	364.69
303.82	377.69
304.051	385.69
304.281	375.69
304.511	356.69
304.741	343.69
304.971	344.69
305.201	359.69
305.431	360.69
305.661	372.69
305.891	353.69
306.121	360.69
306.352	379.69
306.582	356.69
306.812	357.69
307.042	375.69
307.272	392.69
307.502	360.69
307.731	371.69
307.961	379.69
308.191	382.69
308.421	379.69
308.651	385.69
308.881	352.69
309.111	377.69
309.341	371.69
309.571	381.69
309.8	408.69
310.03	380.69
310.26	402.69
310.49	406.69
310.72	425.69
310.949	434.69
311.179	415.69
311.409	395.69
311.639	398.69
311.868	417.69
312.098	412.69
312.328	403.69
312.557	444.69
312.787	455.69
313.017	449.69
313.246	440.69
313.476	411.69
313.706	392.69
313.935	412.69
314.165	435.69
314.394	420.69
314.624	439.69
314.853	440.69
315.083	412.69
315.312	422.69
315.542	415.69
315.771	411.69
316.001	398.69
316.23	385.69
316.46	398.69
316.689	408.69
316.919	424.69
317.148	411.69
317.377	420.69
317.607	419.69
317.836	403.69
318.065	417.69
318.295	433.69
318.524	435.69
318.753	419.69
318.983	395.69
319.212	429.69
319.441	450.69
319.67	434.69
319.9	419.69
320.129	417.69
320.358	404.69
320.587	417.69
320.816	426.69
321.046	457.69
321.275	436.69
321.504	429.69
321.733	432.69
321.962	441.69
322.191	452.69
322.42	453.69
322.649	462.69
322.878	463.69
323.108	464.69
323.337	514.69
323.566	550.69
323.795	536.69
324.024	582.69
324.253	701.69
324.482	963.69
324.71	1449.69
324.939	2085.69
325.168	1760.69
325.397	945.69
325.626	659.69
325.855	568.69
326.084	540.69
326.313	529.69
326.542	540.69
326.77	574.69
326.999	664.69
327.228	871.69
327.457	1302.69
327.686	1556.69
327.914	1044.69
328.143	707.69
328.372	645.69
328.6	610.69
328.829	581.69
329.058	608.69
329.287	609.69
329.515	564.69
329.744	553.69
329.972	523.69
330.201	558.69
330.43	588.69
330.658	599.69
330.887	641.69
331.115	618.69
331.344	546.69
331.572	532.69
331.801	529.69
332.03	521.69
332.258	523.69
332.486	522.69
332.715	507.69
332.943	534.69
333.172	499.69
333.4	532.69
333.629	530.69
333.857	532.69
334.085	577.69
334.314	575.69
334.542	595.69
334.771	599.69
334.999	538.69
335.227	536.69
335.455	528.69
335.684	496.69
335.912	523.69
336.14	485.69
336.369	489.69
336.597	491.69
336.825	518.69
337.053	517.69
337.281	503.69
337.51	501.69
337.738	500.69
337.966	486.69
338.194	474.69
338.422	491.69
338.65	484.69
338.878	475.69
339.106	493.69
339.334	483.69
339.562	473.69
339.79	469.69
340.018	475.69
340.246	475.69
340.474	463.69
340.702	484.69
340.93	468.69
341.158	467.69
341.386	470.69
341.614	468.69
341.842	481.69
342.07	465.69
342.298	467.69
342.526	446.69
342.754	440.69
342.981	458.69
343.209	452.69
343.437	466.69
343.665	463.69
343.893	495.69
344.12	492.69
344.348	506.69
344.576	497.69
344.804	482.69
345.031	477.69
345.259	494.69
345.487	477.69
345.714	473.69
345.942	473.69
346.17	465.69
346.397	454.69
346.625	436.69
346.853	445.69
347.08	448.69
347.308	456.69
347.535	457.69
347.763	464.69
347.99	467.69
348.218	454.69
348.445	468.69
348.673	473.69
348.9	450.69
349.128	455.69
349.355	434.69
349.583	435.69
349.81	433.69
350.037	441.69
350.265	432.69
350.492	439.69
350.72	429.69
350.947	458.69
351.174	436.69
351.402	464.69
351.629	448.69
351.856	432.69
352.083	428.69
352.311	461.69
352.538	470.69
352.765	467.69
352.992	456.69
353.22	441.69
353.447	412.69
353.674	433.69
353.901	439.69
354.128	421.69
354.355	435.69
354.583	433.69
354.81	415.69
355.037	415.69
355.264	427.69
355.491	400.69
355.718	433.69
355.945	419.69
356.172	434.69
356.399	430.69
356.626	398.69
356.853	409.69
357.08	407.69
357.307	399.69
357.534	431.69
357.761	397.69
357.988	423.69
358.215	418.69
358.441	403.69
358.668	412.69
358.895	408.69
359.122	419.69
359.349	439.69
359.576	446.69
359.802	448.69
360.029	483.69
360.256	477.69
360.483	470.69
360.709	440.69
360.936	463.69
361.163	441.69
361.39	450.69
361.616	462.69
361.843	431.69
362.07	436.69
362.296	454.69
362.523	437.69
362.749	437.69
362.976	440.69
363.203	426.69
363.429	429.69
363.656	447.69
363.882	417.69
364.109	422.69
364.335	432.69
364.562	415.69
364.788	421.69
365.015	411.69
365.241	427.69
365.468	433.69
365.694	421.69
365.92	437.69
366.147	429.69
366.373	426.69
366.599	418.69
366.826	418.69
367.052	427.69
367.278	415.69
367.505	403.69
367.731	420.69
367.957	435.69
368.184	417.69
368.41	425.69
368.636	449.69
368.862	433.69
369.089	432.69
369.315	433.69
369.541	416.69
369.767	429.69
369.993	412.69
370.219	415.69
370.445	422.69
370.672	413.69
370.898	427.69
371.124	415.69
371.35	408.69
371.576	429.69
371.802	415.69
372.028	419.69
372.254	412.69
372.48	429.69
372.706	436.69
372.932	453.69
373.158	433.69
373.384	429.69
373.61	431.69
373.835	427.69
374.061	419.69
374.287	420.69
374.513	438.69
374.739	447.69
374.965	449.69
375.191	407.69
375.416	431.69
375.642	448.69
375.868	431.69
376.094	439.69
376.319	424.69
376.545	435.69
376.771	433.69
376.997	439.69
377.222	418.69
377.448	399.69
377.674	432.69
377.899	414.69
378.125	398.69
378.35	415.69
378.576	425.69
378.802	428.69
379.027	427.69
379.253	417.69
379.478	422.69
379.704	419.69
379.929	405.69
380.155	414.69
380.38	421.69
380.606	416.69
380.831	409.69
381.057	415.69
381.282	418.69
381.507	405.69
381.733	423.69
381.958	385.69
382.184	431.69
382.409	429.69
382.634	431.69
382.86	443.69
383.085	440.69
383.31	438.69
383.535	437.69
383.761	437.69
383.986	449.69
384.211	447.69
384.436	435.69
384.662	437.69
384.887	453.69
385.112	471.69
385.337	435.69
385.562	477.69
385.787	451.69
386.013	486.69
386.238	483.69
386.463	479.69
386.688	459.69
386.913	470.69
387.138	465.69
387.363	472.69
387.588	459.69
387.813	458.69
388.038	452.69
388.263	460.69
388.488	453.69
388.713	473.69
388.938	467.69
389.163	477.69
389.387	486.69
389.612	459.69
389.837	472.69
390.062	457.69
390.287	474.69
390.512	452.69
390.736	458.69
390.961	462.69
391.186	466.69
391.411	491.69
391.636	482.69
391.86	488.69
392.085	488.69
392.31	476.69
392.534	489.69
392.759	484.69
392.984	467.69
393.208	473.69
393.433	477.69
393.658	479.69
393.882	477.69
394.107	475.69
394.331	480.69
394.556	477.69
394.78	493.69
395.005	487.69
395.229	485.69
395.454	485.69
395.678	490.69
395.903	504.69
396.127	513.69
396.352	528.69
396.576	504.69
396.801	485.69
397.025	485.69
397.249	471.69
397.474	504.69
397.698	492.69
397.922	515.69
398.147	516.69
398.371	555.69
398.595	544.69
398.82	546.69
399.044	559.69
399.268	570.69
399.492	626.69
399.717	684.69
399.941	699.69
400.165	703.69
400.389	675.69
400.613	635.69
400.837	594.69
401.062	571.69
401.286	549.69
401.51	562.69
401.734	519.69
401.958	554.69
402.182	552.69
402.406	572.69
402.63	563.69
402.854	563.69
403.078	553.69
403.302	578.69
403.526	596.69
403.75	577.69
403.974	583.69
404.198	591.69
404.422	591.69
404.645	600.69
404.869	594.69
405.093	625.69
405.317	630.69
405.541	663.69
405.765	637.69
405.988	599.69
406.212	615.69
406.436	605.69
406.66	632.69
406.883	639.69
407.107	646.69
407.331	680.69
407.555	769.69
407.778	742.69
408.002	679.69
408.226	624.69
408.449	627.69
408.673	599.69
408.896	653.69
409.12	668.69
409.344	634.69
409.567	567.69
409.791	580.69
410.014	564.69
410.238	546.69
410.461	562.69
410.685	549.69
410.908	576.69
411.132	603.69
411.355	656.69
411.578	585.69
411.802	559.69
412.025	573.69
412.249	585.69
412.472	578.69
412.695	623.69
412.919	602.69
413.142	569.69
413.365	557.69
413.589	560.69
413.812	548.69
414.035	533.69
414.258	532.69
414.482	535.69
414.705	521.69
414.928	533.69
415.151	531.69
415.374	521.69
415.597	530.69
415.821	535.69
416.044	517.69
416.267	525.69
416.49	525.69
416.713	523.69
416.936	497.69
417.159	529.69
417.382	531.69
417.605	520.69
417.828	555.69
418.051	535.69
418.274	558.69
418.497	520.69
418.72	522.69
418.943	547.69
419.166	552.69
419.389	571.69
419.611	551.69
419.834	541.69
420.057	585.69
420.28	559.69
420.503	561.69
420.726	557.69
420.948	541.69
421.171	596.69
421.394	609.69
421.617	557.69
421.839	547.69
422.062	543.69
422.285	557.69
422.507	591.69
422.73	661.69
422.953	652.69
423.175	584.69
423.398	583.69
423.621	579.69
423.843	580.69
424.066	607.69
424.288	566.69
424.511	612.69
424.733	671.69
424.956	748.69
425.178	697.69
425.401	685.69
425.623	675.69
425.846	599.69
426.068	565.69
426.291	559.69
426.513	553.69
426.735	561.69
426.958	619.69
427.18	682.69
427.402	816.69
427.625	899.69
427.847	747.69
428.069	676.69
428.292	603.69
428.514	563.69
428.736	574.69
428.958	535.69
429.181	506.69
429.403	533.69
429.625	536.69
429.847	542.69
430.069	625.69
430.292	628.69
430.514	545.69
430.736	535.69
430.958	526.69
431.18	520.69
431.402	504.69
431.624	486.69
431.846	490.69
432.068	476.69
432.29	473.69
432.512	516.69
432.734	519.69
432.956	496.69
433.178	506.69
433.4	505.69
433.622	500.69
433.844	511.69
434.066	480.69
434.287	516.69
434.509	517.69
434.731	526.69
434.953	526.69
435.175	550.69
435.397	579.69
435.618	571.69
435.84	596.69
436.062	692.69
436.284	769.69
436.505	607.69
436.727	565.69
436.949	551.69
437.17	533.69
437.392	518.69
437.614	538.69
437.835	552.69
438.057	639.69
438.278	747.69
438.5	715.69
438.721	819.69
438.943	756.69
439.165	623.69
439.386	561.69
439.608	562.69
439.829	547.69
440.05	601.69
440.272	635.69
440.493	593.69
440.715	553.69
440.936	544.69
441.158	550.69
441.379	543.69
441.6	581.69
441.822	556.69
442.043	597.69
442.264	667.69
442.486	696.69
442.707	605.69
442.928	578.69
443.149	603.69
443.371	607.69
443.592	628.69
443.813	744.69
444.034	789.69
444.255	673.69
444.476	615.69
444.698	628.69
444.919	621.69
445.14	736.69
445.361	651.69
445.582	634.69
445.803	680.69
446.024	742.69
446.245	764.69
446.466	685.69
446.687	589.69
446.908	567.69
447.129	523.69
447.35	503.69
447.571	508.69
447.792	482.69
448.013	505.69
448.234	548.69
448.455	579.69
448.675	685.69
448.896	783.69
449.117	671.69
449.338	625.69
449.559	754.69
449.779	819.69
450	659.69
450.221	552.69
450.442	539.69
450.662	525.69
450.883	515.69
451.104	507.69
451.324	516.69
451.545	503.69
451.766	495.69
451.986	464.69
452.207	460.69
452.428	451.69
452.648	441.69
452.869	489.69
453.089	483.69
453.31	503.69
453.53	480.69
453.751	473.69
453.971	456.69
454.192	479.69
454.412	472.69
454.633	445.69
454.853	480.69
455.073	459.69
455.294	491.69
455.514	538.69
455.734	537.69
455.955	467.69
456.175	439.69
456.395	422.69
456.616	440.69
456.836	441.69
457.056	429.69
457.276	427.69
457.497	433.69
457.717	441.69
457.937	453.69
458.157	463.69
458.377	464.69
458.598	479.69
458.818	535.69
459.038	595.69
459.258	620.69
459.478	560.69
459.698	513.69
459.918	515.69
460.138	519.69
460.358	506.69
460.578	517.69
460.798	553.69
461.018	553.69
461.238	551.69
461.458	536.69
461.678	536.69
461.898	543.69
462.118	547.69
462.338	554.69
462.558	542.69
462.777	562.69
462.997	595.69
463.217	604.69
463.437	641.69
463.657	589.69
463.876	593.69
464.096	586.69
464.316	561.69
464.536	597.69
464.755	577.69
464.975	584.69
465.195	605.69
465.414	651.69
465.634	582.69
465.854	515.69
466.073	503.69
466.293	513.69
466.512	488.69
466.732	472.69
466.951	492.69
467.171	488.69
467.391	495.69
467.61	490.69
467.829	488.69
468.049	484.69
468.268	487.69
468.488	493.69
468.707	453.69
468.927	460.69
469.146	465.69
469.365	479.69
469.585	489.69
469.804	510.69
470.023	507.69
470.243	496.69
470.462	488.69
470.681	513.69
470.901	494.69
471.12	488.69
471.339	502.69
471.558	488.69
471.777	477.69
471.997	471.69
472.216	487.69
472.435	505.69
472.654	499.69
472.873	490.69
473.092	475.69
473.311	467.69
473.53	488.69
473.749	491.69
473.968	539.69
474.187	624.69
474.406	628.69
474.625	560.69
474.844	495.69
475.063	475.69
475.282	487.69
475.501	482.69
475.72	492.69
475.939	478.69
476.158	488.69
476.377	500.69
476.596	484.69
476.814	515.69
477.033	509.69
477.252	519.69
477.471	522.69
477.69	548.69
477.908	523.69
478.127	511.69
478.346	532.69
478.564	569.69
478.783	537.69
479.002	572.69
479.22	571.69
479.439	585.69
479.658	589.69
479.876	566.69
480.095	607.69
480.313	624.69
480.532	613.69
480.751	612.69
480.969	601.69
481.188	659.69
481.406	669.69
481.624	611.69
481.843	584.69
482.061	588.69
482.28	572.69
482.498	548.69
482.717	548.69
482.935	555.69
483.153	548.69
483.372	568.69
483.59	567.69
483.808	568.69
484.027	565.69
484.245	601.69
484.463	577.69
484.681	575.69
484.9	574.69
485.118	587.69
485.336	569.69
485.554	592.69
485.772	593.69
485.99	561.69
486.209	586.69
486.427	577.69
486.645	564.69
486.863	609.69
487.081	589.69
487.299	600.69
487.517	610.69
487.735	604.69
487.953	607.69
488.171	585.69
488.389	594.69
488.607	613.69
488.825	612.69
489.043	606.69
489.261	612.69
489.479	612.69
489.696	634.69
489.914	609.69
490.132	609.69
490.35	626.69
490.568	645.69
490.786	646.69
491.003	648.69
491.221	656.69
491.439	680.69
491.657	676.69
491.874	699.69
492.092	679.69
492.31	680.69
492.527	678.69
492.745	700.69
492.963	690.69
493.18	698.69
493.398	705.69
493.615	708.69
493.833	727.69
494.05	704.69
494.268	719.69
494.485	723.69
494.703	712.69
494.92	692.69
495.138	703.69
495.355	727.69
495.573	692.69
495.79	730.69
496.008	761.69
496.225	741.69
496.442	712.69
496.66	731.69
496.877	691.69
497.094	705.69
497.312	726.69
497.529	725.69
497.746	744.69
497.963	781.69
498.181	780.69
498.398	821.69
498.615	824.69
498.832	835.69
499.049	908.69
499.267	901.69
499.484	919.69
499.701	988.69
499.918	1055.69
500.135	1116.69
500.352	1171.69
500.569	1228.69
500.786	1243.69
501.003	1205.69
501.22	1151.69
501.437	1059.69
501.654	1021.69
501.871	972.69
502.088	955.69
502.305	892.69
502.522	874.69
502.739	833.69
502.956	823.69
503.172	774.69
503.389	772.69
503.606	762.69
503.823	783.69
504.04	754.69
504.256	729.69
504.473	749.69
504.69	756.69
504.907	740.69
505.123	736.69
505.34	692.69
505.557	691.69
505.773	690.69
505.99	676.69
506.207	674.69
506.423	689.69
506.64	681.69
506.856	691.69
507.073	655.69
507.289	656.69
507.506	636.69
507.722	662.69
507.939	697.69
508.155	643.69
508.372	639.69
508.588	631.69
508.805	643.69
509.021	631.69
509.238	651.69
509.454	649.69
509.67	627.69
509.887	617.69
510.103	643.69
510.319	635.69
510.536	704.69
510.752	1165.69
510.968	956.69
511.184	629.69
511.401	619.69
511.617	611.69
511.833	603.69
512.049	594.69
512.265	593.69
512.481	596.69
512.698	603.69
512.914	595.69
513.13	577.69
513.346	591.69
513.562	609.69
513.778	594.69
513.994	602.69
514.21	618.69
514.426	627.69
514.642	699.69
514.858	699.69
515.074	727.69
515.29	830.69
515.506	1230.69
515.721	1040.69
515.937	692.69
516.153	692.69
516.369	641.69
516.585	629.69
516.801	669.69
517.016	629.69
517.232	658.69
517.448	669.69
517.664	680.69
517.879	673.69
518.095	679.69
518.311	647.69
518.527	649.69
518.742	634.69
518.958	624.69
519.173	620.69
519.389	629.69
519.605	635.69
519.82	596.69
520.036	617.69
520.251	640.69
520.467	651.69
520.682	626.69
520.898	633.69
521.113	647.69
521.329	697.69
521.544	773.69
521.76	964.69
521.975	1568.69
522.19	1616.69
522.406	914.69
522.621	667.69
522.836	607.69
523.052	566.69
523.267	585.69
523.482	563.69
523.698	547.69
523.913	544.69
524.128	554.69
524.343	566.69
524.559	528.69
524.774	507.69
524.989	531.69
525.204	526.69
525.419	530.69
525.634	520.69
525.849	493.69
526.064	499.69
526.28	511.69
526.495	500.69
526.71	490.69
526.925	496.69
527.14	490.69
527.355	484.69
527.57	503.69
527.785	511.69
527.999	483.69
528.214	486.69
528.429	483.69
528.644	491.69
528.859	501.69
529.074	484.69
529.289	531.69
529.503	595.69
529.718	569.69
529.933	516.69
530.148	492.69
530.363	496.69
530.577	487.69
530.792	487.69
531.007	487.69
531.221	488.69
531.436	482.69
531.651	488.69
531.865	482.69
532.08	472.69
532.295	505.69
532.509	475.69
532.724	474.69
532.938	468.69
533.153	481.69
533.367	459.69
533.582	457.69
533.796	482.69
534.011	451.69
534.225	484.69
534.44	479.69
534.654	471.69
534.868	478.69
535.083	455.69
535.297	476.69
535.511	468.69
535.726	482.69
535.94	491.69
536.154	465.69
536.369	448.69
536.583	453.69
536.797	455.69
537.011	462.69
537.225	456.69
537.44	455.69
537.654	445.69
537.868	444.69
538.082	445.69
538.296	463.69
538.51	461.69
538.724	445.69
538.938	475.69
539.153	453.69
539.367	457.69
539.581	456.69
539.795	445.69
540.009	465.69
540.222	452.69
540.436	451.69
540.65	458.69
540.864	476.69
541.078	461.69
541.292	457.69
541.506	465.69
541.72	440.69
541.934	456.69
542.147	435.69
542.361	443.69
542.575	428.69
542.789	443.69
543.002	451.69
543.216	456.69
543.43	447.69
543.644	425.69
543.857	439.69
544.071	450.69
544.285	432.69
544.498	427.69
544.712	455.69
544.925	439.69
545.139	448.69
545.352	445.69
545.566	443.69
545.779	434.69
545.993	455.69
546.206	435.69
546.42	455.69
546.633	437.69
546.847	451.69
547.06	440.69
547.274	436.69
547.487	429.69
547.7	445.69
547.914	436.69
548.127	419.69
548.34	419.69
548.554	441.69
548.767	445.69
548.98	424.69
549.193	431.69
549.407	447.69
549.62	464.69
549.833	414.69
550.046	433.69
550.259	423.69
550.473	463.69
550.686	428.69
550.899	419.69
551.112	419.69
551.325	421.69
551.538	430.69
551.751	417.69
551.964	426.69
552.177	421.69
552.39	443.69
552.603	435.69
552.816	437.69
553.029	453.69
553.242	444.69
553.455	460.69
553.667	455.69
553.88	470.69
554.093	472.69
554.306	443.69
554.519	441.69
554.732	432.69
554.944	425.69
555.157	436.69
555.37	410.69
555.583	424.69
555.795	403.69
556.008	406.69
556.221	388.69
556.433	385.69
556.646	417.69
556.859	390.69
557.071	383.69
557.284	374.69
557.496	391.69
557.709	405.69
557.921	380.69
558.134	383.69
558.346	388.69
558.559	387.69
558.771	389.69
558.984	394.69
559.196	378.69
559.409	395.69
559.621	390.69
559.833	377.69
560.046	385.69
560.258	390.69
560.47	380.69
560.683	372.69
560.895	368.69
561.107	377.69
561.32	362.69
561.532	367.69
561.744	379.69
561.956	388.69
562.168	395.69
562.381	375.69
562.593	386.69
562.805	390.69
563.017	390.69
563.229	373.69
563.441	377.69
563.653	372.69
563.865	389.69
564.077	385.69
564.289	387.69
564.501	403.69
564.713	408.69
564.925	424.69
565.137	413.69
565.349	413.69
565.561	410.69
565.773	456.69
565.985	433.69
566.197	467.69
566.408	495.69
566.62	503.69
566.832	509.69
567.044	515.69
567.255	520.69
567.467	533.69
567.679	547.69
567.891	572.69
568.102	575.69
568.314	569.69
568.526	517.69
568.737	500.69
568.949	459.69
569.161	429.69
569.372	415.69
569.584	389.69
569.795	413.69
570.007	412.69
570.218	428.69
570.43	417.69
570.641	396.69
570.853	393.69
571.064	382.69
571.276	376.69
571.487	362.69
571.698	375.69
571.91	367.69
572.121	357.69
572.333	367.69
572.544	369.69
572.755	315.69
572.966	359.69
573.178	349.69
573.389	346.69
573.6	346.69
573.811	335.69
574.023	345.69
574.234	324.69
574.445	327.69
574.656	337.69
574.867	330.69
575.078	332.69
575.289	327.69
575.501	328.69
575.712	317.69
575.923	328.69
576.134	332.69
576.345	334.69
576.556	321.69
576.767	339.69
576.978	319.69
577.188	326.69
577.399	317.69
577.61	327.69
577.821	333.69
578.032	320.69
578.243	353.69
578.454	531.69
578.665	408.69
578.875	313.69
579.086	308.69
579.297	301.69
579.508	330.69
579.718	308.69
579.929	295.69
580.14	316.69
580.35	304.69
580.561	307.69
580.772	284.69
580.982	286.69
581.193	276.69
581.403	309.69
581.614	309.69
581.825	280.69
582.035	290.69
582.246	292.69
582.456	279.69
582.667	307.69
582.877	288.69
583.087	269.69
583.298	275.69
583.508	287.69
583.719	287.69
583.929	300.69
584.139	277.69
584.35	288.69
584.56	292.69
584.77	288.69
584.981	296.69
585.191	299.69
585.401	311.69
585.611	301.69
585.821	283.69
586.032	285.69
586.242	280.69
586.452	301.69
586.662	279.69
586.872	286.69
587.082	293.69
587.292	273.69
587.502	293.69
587.713	285.69
587.923	307.69
588.133	262.69
588.343	271.69
588.553	278.69
588.762	275.69
588.972	296.69
589.182	305.69
589.392	298.69
589.602	287.69
589.812	283.69
590.022	276.69
590.232	277.69
590.441	271.69
590.651	285.69
590.861	291.69
591.071	289.69
591.281	306.69
591.49	296.69
591.7	299.69
591.91	284.69
592.119	298.69
592.329	306.69
592.539	305.69
592.748	319.69
592.958	338.69
593.167	327.69
593.377	323.69
593.587	323.69
593.796	325.69
594.006	317.69
594.215	329.69
594.424	317.69
594.634	327.69
594.843	316.69
595.053	322.69
595.262	328.69
595.472	309.69
595.681	298.69
595.89	299.69
596.1	293.69
596.309	291.69
596.518	269.69
596.727	287.69
596.937	267.69
597.146	283.69
597.355	275.69
597.564	258.69
597.774	283.69
597.983	251.69
598.192	257.69
598.401	251.69
598.61	265.69
598.819	272.69
599.028	260.69
599.237	261.69
599.446	251.69
599.655	244.69
599.864	237.69
600.073	237.69
600.282	251.69
600.491	234.69
600.7	240.69
600.909	249.69
601.118	235.69
601.327	239.69
601.536	269.69
601.745	238.69
601.953	259.69
602.162	248.69
602.371	234.69
602.58	246.69
602.789	246.69
602.997	247.69
603.206	263.69
603.415	255.69
603.623	257.69
603.832	245.69
604.041	236.69
604.249	244.69
604.458	215.69
604.666	245.69
604.875	234.69
605.084	247.69
605.292	241.69
605.501	231.69
605.709	244.69
605.918	229.69
606.126	239.69
606.334	228.69
606.543	241.69
606.751	255.69
606.96	229.69
607.168	240.69
607.376	227.69
607.585	225.69
607.793	243.69
608.001	234.69
608.21	231.69
608.418	227.69
608.626	225.69
608.834	218.69
609.043	216.69
609.251	221.69
609.459	222.69
609.667	250.69
609.875	225.69
610.083	207.69
610.291	231.69
610.499	230.69
610.707	224.69
610.916	244.69
611.124	224.69
611.332	228.69
611.54	264.69
611.748	240.69
611.955	232.69
612.163	216.69
612.371	220.69
612.579	229.69
612.787	224.69
612.995	243.69
613.203	224.69
613.411	241.69
613.618	248.69
613.826	235.69
614.034	229.69
614.242	225.69
614.449	204.69
614.657	224.69
614.865	228.69
615.072	220.69
615.28	223.69
615.488	224.69
615.695	220.69
615.903	234.69
616.111	227.69
616.318	223.69
616.526	209.69
616.733	228.69
616.941	221.69
617.148	217.69
617.356	220.69
617.563	232.69
617.771	228.69
617.978	223.69
618.185	216.69
618.393	225.69
618.6	211.69
618.807	229.69
619.015	216.69
619.222	235.69
619.429	218.69
619.637	217.69
619.844	216.69
620.051	228.69
620.258	229.69
620.466	207.69
620.673	211.69
620.88	208.69
621.087	224.69
621.294	220.69
621.501	200.69
621.708	212.69
621.915	216.69
622.122	204.69
622.329	208.69
622.536	211.69
622.743	224.69
622.95	204.69
623.157	200.69
623.364	197.69
623.571	204.69
623.778	209.69
623.985	210.69
624.192	207.69
624.399	187.69
624.606	202.69
624.812	201.69
625.019	196.69
625.226	228.69
625.433	208.69
625.639	191.69
625.846	195.69
626.053	195.69
626.259	195.69
626.466	197.69
626.673	189.69
626.879	214.69
627.086	215.69
627.293	201.69
627.499	212.69
627.706	200.69
627.912	195.69
628.119	205.69
628.325	196.69
628.532	190.69
628.738	195.69
628.945	181.69
629.151	187.69
629.357	188.69
629.564	196.69
629.77	193.69
629.976	187.69
630.183	191.69
630.389	188.69
630.595	175.69
630.802	189.69
631.008	199.69
631.214	177.69
631.42	182.69
631.627	200.69
631.833	187.69
632.039	175.69
632.245	181.69
632.451	171.69
632.657	171.69
632.863	172.69
633.069	173.69
633.275	179.69
633.481	172.69
633.688	193.69
633.893	207.69
634.099	185.69
634.305	176.69
634.511	171.69
634.717	193.69
634.923	159.69
635.129	177.69
635.335	179.69
635.541	163.69
635.747	177.69
635.952	167.69
636.158	189.69
636.364	189.69
636.57	189.69
636.775	166.69
636.981	168.69
637.187	173.69
637.392	166.69
637.598	167.69
637.804	167.69
638.009	165.69
638.215	180.69
638.421	159.69
638.626	169.69
638.832	178.69
639.037	159.69
639.243	172.69
639.448	175.69
639.654	159.69
639.859	159.69
640.065	166.69
640.27	182.69
640.475	156.69
640.681	183.69
640.886	159.69
641.091	181.69
641.297	172.69
641.502	154.69
641.707	164.69
641.913	169.69
642.118	170.69
642.323	161.69
642.528	158.69
642.733	168.69
642.939	169.69
643.144	162.69
643.349	161.69
643.554	153.69
643.759	154.69
643.964	162.69
644.169	148.69
644.374	159.69
644.579	143.69
644.784	146.69
644.989	161.69
645.194	145.69
645.399	150.69
645.604	176.69
645.809	176.69
646.014	143.69
646.219	159.69
646.423	149.69
646.628	150.69
646.833	161.69
647.038	155.69
647.243	165.69
647.447	163.69
647.652	162.69
647.857	172.69
648.062	161.69
648.266	163.69
648.471	168.69
648.676	156.69
648.88	167.69
649.085	160.69
649.289	154.69
649.494	169.69
649.698	183.69
649.903	179.69
650.107	169.69
650.312	160.69
650.516	142.69
650.721	160.69
650.925	148.69
651.13	159.69
651.334	147.69
651.539	146.69
651.743	143.69
651.947	139.69
652.152	140.69
652.356	140.69
652.56	145.69
652.764	155.69
652.969	129.69
653.173	149.69
653.377	139.69
653.581	137.69
653.785	136.69
653.99	138.69
654.194	128.69
654.398	124.69
654.602	148.69
654.806	134.69
655.01	137.69
655.214	140.69
655.418	121.69
655.622	116.69
655.826	131.69
656.03	147.69
656.234	136.69
656.438	135.69
656.642	128.69
656.846	144.69
657.049	135.69
657.253	127.69
657.457	108.69
657.661	121.69
657.865	113.69
658.068	117.69
658.272	103.69
658.476	108.69
658.68	95.69
658.883	91.69
659.087	97.69
659.291	107.69
659.494	104.69
659.698	93.69
659.901	91.69
660.105	103.69
660.309	104.69
660.512	109.69
660.716	88.69
660.919	81.69
661.123	86.69
661.326	91.69
661.53	83.69
661.733	91.69
661.936	88.69
662.14	76.69
662.343	82.69
662.546	86.69
662.75	87.69
662.953	77.69
663.156	92.69
663.36	76.69
663.563	80.69
663.766	83.69
663.969	74.69
664.173	77.69
664.376	77.69
664.579	77.69
664.782	92.69
664.985	82.69
665.188	79.69
665.391	92.69
665.594	80.69
665.797	92.69
666	87.69
666.203	71.69
666.406	89.69
666.609	75.69
666.812	81.69
667.015	76.69
667.218	83.69
667.421	79.69
667.624	71.69
667.827	84.69
668.03	79.69
668.232	79.69
668.435	83.69
668.638	85.69
668.841	80.69
669.043	77.69
669.246	89.69
669.449	72.69
669.651	87.69
669.854	84.69
670.057	77.69
670.259	89.69
670.462	87.69
670.665	89.69
670.867	87.69
671.07	88.69
671.272	73.69
671.475	89.69
671.677	72.69
671.88	79.69
672.082	77.69
672.284	81.69
672.487	77.69
672.689	91.69
672.892	71.69
