Data from 1985.PennyLincolnUp.Lamp.En5.5.200Scan.071819.P1_HRD10591_17-01-59-971.txt Node
Date: Thu Jul 18 17:01:59 EDT 2019
User: cochatt
Spectrometer: HR+D1059
Trigger mode: 1
Integration Time (sec): 1.000000E-1
Scans to average: 1
Electric dark correction enabled: true
Nonlinearity correction enabled: false
Boxcar width: 0
XAxis mode: Wavelengths
Number of Pixels in Spectrum: 2048
>>>>>Begin Spectral Data<<<<<
223.165	-17.19
223.4	-17.19
223.635	-17.19
223.869	-15.19
224.104	-13.19
224.338	-2.19
224.573	-13.19
224.808	-13.19
225.042	-32.19
225.277	-5.19
225.511	-1.19
225.746	2.81
225.98	13.81
226.215	11.81
226.449	13.81
226.683	2.81
226.918	31.81
227.152	35.81
227.387	35.81
227.621	38.81
227.856	32.81
228.09	43.81
228.324	49.81
228.559	62.81
228.793	76.81
229.027	82.81
229.262	94.81
229.496	102.81
229.73	130.81
229.964	140.81
230.199	94.81
230.433	107.81
230.667	110.81
230.901	120.81
231.136	122.81
231.37	113.81
231.604	107.81
231.838	112.81
232.072	113.81
232.306	95.81
232.541	107.81
232.775	111.81
233.009	110.81
233.243	117.81
233.477	105.81
233.711	104.81
233.945	115.81
234.179	116.81
234.413	112.81
234.647	127.81
234.881	115.81
235.115	103.81
235.349	124.81
235.583	117.81
235.817	126.81
236.051	117.81
236.285	113.81
236.519	132.81
236.753	116.81
236.987	132.81
237.221	164.81
237.455	223.81
237.689	180.81
237.922	127.81
238.156	134.81
238.39	122.81
238.624	103.81
238.858	120.81
239.091	111.81
239.325	130.81
239.559	134.81
239.793	127.81
240.027	123.81
240.26	135.81
240.494	143.81
240.728	150.81
240.961	162.81
241.195	140.81
241.429	120.81
241.662	134.81
241.896	124.81
242.13	139.81
242.363	122.81
242.597	126.81
242.83	127.81
243.064	141.81
243.298	131.81
243.531	127.81
243.765	132.81
243.998	134.81
244.232	134.81
244.465	126.81
244.699	152.81
244.932	151.81
245.166	134.81
245.399	143.81
245.633	136.81
245.866	142.81
246.099	141.81
246.333	153.81
246.566	147.81
246.8	139.81
247.033	155.81
247.266	169.81
247.5	161.81
247.733	169.81
247.966	159.81
248.2	171.81
248.433	182.81
248.666	147.81
248.899	176.81
249.133	172.81
249.366	198.81
249.599	184.81
249.832	180.81
250.066	174.81
250.299	176.81
250.532	182.81
250.765	198.81
250.998	205.81
251.231	214.81
251.465	194.81
251.698	186.81
251.931	199.81
252.164	196.81
252.397	191.81
252.63	199.81
252.863	202.81
253.096	209.81
253.329	208.81
253.562	212.81
253.795	200.81
254.028	212.81
254.261	230.81
254.494	203.81
254.727	230.81
254.96	256.81
255.193	244.81
255.426	226.81
255.659	216.81
255.892	205.81
256.124	202.81
256.357	208.81
256.59	202.81
256.823	191.81
257.056	195.81
257.289	195.81
257.521	196.81
257.754	195.81
257.987	195.81
258.22	194.81
258.452	209.81
258.685	200.81
258.918	195.81
259.151	201.81
259.383	200.81
259.616	207.81
259.849	217.81
260.081	229.81
260.314	250.81
260.547	236.81
260.779	229.81
261.012	230.81
261.244	221.81
261.477	220.81
261.71	200.81
261.942	234.81
262.175	222.81
262.407	226.81
262.64	194.81
262.872	208.81
263.105	216.81
263.337	233.81
263.57	208.81
263.802	212.81
264.035	194.81
264.267	209.81
264.499	223.81
264.732	204.81
264.964	217.81
265.197	218.81
265.429	197.81
265.661	219.81
265.894	222.81
266.126	224.81
266.358	206.81
266.591	241.81
266.823	231.81
267.055	234.81
267.287	228.81
267.52	244.81
267.752	238.81
267.984	231.81
268.216	240.81
268.448	233.81
268.681	217.81
268.913	260.81
269.145	268.81
269.377	275.81
269.609	272.81
269.841	278.81
270.073	258.81
270.306	285.81
270.538	294.81
270.77	321.81
271.002	304.81
271.234	296.81
271.466	282.81
271.698	300.81
271.93	305.81
272.162	317.81
272.394	303.81
272.626	311.81
272.858	268.81
273.09	280.81
273.322	278.81
273.553	255.81
273.785	276.81
274.017	264.81
274.249	291.81
274.481	268.81
274.713	274.81
274.945	274.81
275.176	251.81
275.408	278.81
275.64	249.81
275.872	275.81
276.104	258.81
276.335	270.81
276.567	267.81
276.799	286.81
277.031	295.81
277.262	324.81
277.494	322.81
277.726	300.81
277.957	297.81
278.189	287.81
278.421	279.81
278.652	300.81
278.884	290.81
279.115	272.81
279.347	280.81
279.579	273.81
279.81	288.81
280.042	292.81
280.273	273.81
280.505	288.81
280.736	283.81
280.968	274.81
281.199	280.81
281.431	288.81
281.662	282.81
281.894	281.81
282.125	291.81
282.356	300.81
282.588	320.81
282.819	320.81
283.051	298.81
283.282	286.81
283.513	299.81
283.745	288.81
283.976	296.81
284.207	299.81
284.439	313.81
284.67	288.81
284.901	296.81
285.132	300.81
285.364	288.81
285.595	282.81
285.826	296.81
286.057	290.81
286.288	297.81
286.52	320.81
286.751	292.81
286.982	299.81
287.213	316.81
287.444	319.81
287.675	303.81
287.906	319.81
288.138	319.81
288.369	320.81
288.6	310.81
288.831	321.81
289.062	312.81
289.293	301.81
289.524	318.81
289.755	332.81
289.986	313.81
290.217	313.81
290.448	315.81
290.679	307.81
290.91	303.81
291.141	308.81
291.371	327.81
291.602	301.81
291.833	314.81
292.064	316.81
292.295	300.81
292.526	303.81
292.757	322.81
292.987	296.81
293.218	303.81
293.449	329.81
293.68	326.81
293.91	321.81
294.141	310.81
294.372	302.81
294.603	319.81
294.833	324.81
295.064	327.81
295.295	329.81
295.525	319.81
295.756	337.81
295.987	327.81
296.217	356.81
296.448	354.81
296.679	334.81
296.909	342.81
297.14	332.81
297.37	312.81
297.601	348.81
297.831	322.81
298.062	329.81
298.292	348.81
298.523	329.81
298.753	322.81
298.984	321.81
299.214	344.81
299.445	334.81
299.675	352.81
299.905	352.81
300.136	329.81
300.366	338.81
300.597	358.81
300.827	328.81
301.057	341.81
301.288	352.81
301.518	372.81
301.748	363.81
301.979	355.81
302.209	355.81
302.439	354.81
302.669	366.81
302.9	350.81
303.13	360.81
303.36	369.81
303.59	384.81
303.82	373.81
304.051	374.81
304.281	355.81
304.511	360.81
304.741	361.81
304.971	369.81
305.201	350.81
305.431	368.81
305.661	385.81
305.891	368.81
306.121	369.81
306.352	356.81
306.582	373.81
306.812	373.81
307.042	363.81
307.272	347.81
307.502	362.81
307.731	370.81
307.961	363.81
308.191	355.81
308.421	361.81
308.651	364.81
308.881	358.81
309.111	386.81
309.341	371.81
309.571	375.81
309.8	380.81
310.03	406.81
310.26	412.81
310.49	385.81
310.72	399.81
310.949	426.81
311.179	423.81
311.409	405.81
311.639	378.81
311.868	392.81
312.098	395.81
312.328	416.81
312.557	416.81
312.787	422.81
313.017	449.81
313.246	409.81
313.476	399.81
313.706	424.81
313.935	412.81
314.165	435.81
314.394	422.81
314.624	434.81
314.853	402.81
315.083	414.81
315.312	431.81
315.542	416.81
315.771	387.81
316.001	385.81
316.23	391.81
316.46	393.81
316.689	408.81
316.919	413.81
317.148	415.81
317.377	419.81
317.607	410.81
317.836	383.81
318.065	414.81
318.295	420.81
318.524	387.81
318.753	404.81
318.983	396.81
319.212	432.81
319.441	412.81
319.67	426.81
319.9	427.81
320.129	405.81
320.358	404.81
320.587	408.81
320.816	421.81
321.046	422.81
321.275	433.81
321.504	419.81
321.733	426.81
321.962	432.81
322.191	424.81
322.42	445.81
322.649	454.81
322.878	467.81
323.108	486.81
323.337	496.81
323.566	512.81
323.795	529.81
324.024	564.81
324.253	674.81
324.482	891.81
324.71	1316.81
324.939	1872.81
325.168	1629.81
325.397	857.81
325.626	616.81
325.855	538.81
326.084	515.81
326.313	483.81
326.542	507.81
326.77	568.81
326.999	634.81
327.228	804.81
327.457	1211.81
327.686	1401.81
327.914	948.81
328.143	673.81
328.372	601.81
328.6	560.81
328.829	549.81
329.058	567.81
329.287	575.81
329.515	543.81
329.744	518.81
329.972	508.81
330.201	532.81
330.43	508.81
330.658	540.81
330.887	591.81
331.115	588.81
331.344	532.81
331.572	507.81
331.801	520.81
332.03	544.81
332.258	490.81
332.486	484.81
332.715	489.81
332.943	491.81
333.172	504.81
333.4	523.81
333.629	528.81
333.857	542.81
334.085	505.81
334.314	526.81
334.542	523.81
334.771	522.81
334.999	499.81
335.227	517.81
335.455	495.81
335.684	502.81
335.912	505.81
336.14	462.81
336.369	485.81
336.597	490.81
336.825	479.81
337.053	500.81
337.281	461.81
337.51	489.81
337.738	474.81
337.966	462.81
338.194	468.81
338.422	463.81
338.65	476.81
338.878	440.81
339.106	451.81
339.334	433.81
339.562	458.81
339.79	450.81
340.018	444.81
340.246	462.81
340.474	472.81
340.702	477.81
340.93	440.81
341.158	453.81
341.386	475.81
341.614	475.81
341.842	482.81
342.07	472.81
342.298	453.81
342.526	448.81
342.754	449.81
342.981	427.81
343.209	441.81
343.437	468.81
343.665	456.81
343.893	477.81
344.12	513.81
344.348	487.81
344.576	456.81
344.804	467.81
345.031	451.81
345.259	480.81
345.487	468.81
345.714	467.81
345.942	446.81
346.17	438.81
346.397	416.81
346.625	452.81
346.853	438.81
347.08	432.81
347.308	424.81
347.535	438.81
347.763	441.81
347.99	446.81
348.218	442.81
348.445	442.81
348.673	442.81
348.9	447.81
349.128	448.81
349.355	426.81
349.583	411.81
349.81	417.81
350.037	421.81
350.265	441.81
350.492	411.81
350.72	431.81
350.947	426.81
351.174	422.81
351.402	456.81
351.629	445.81
351.856	438.81
352.083	460.81
352.311	455.81
352.538	449.81
352.765	421.81
352.992	436.81
353.22	422.81
353.447	412.81
353.674	420.81
353.901	417.81
354.128	403.81
354.355	420.81
354.583	391.81
354.81	394.81
355.037	399.81
355.264	416.81
355.491	408.81
355.718	397.81
355.945	407.81
356.172	403.81
356.399	413.81
356.626	402.81
356.853	408.81
357.08	406.81
357.307	429.81
357.534	404.81
357.761	413.81
357.988	416.81
358.215	411.81
358.441	402.81
358.668	424.81
358.895	407.81
359.122	435.81
359.349	417.81
359.576	423.81
359.802	461.81
360.029	460.81
360.256	482.81
360.483	444.81
360.709	423.81
360.936	425.81
361.163	423.81
361.39	427.81
361.616	456.81
361.843	439.81
362.07	423.81
362.296	414.81
362.523	414.81
362.749	435.81
362.976	402.81
363.203	409.81
363.429	416.81
363.656	424.81
363.882	427.81
364.109	424.81
364.335	408.81
364.562	410.81
364.788	394.81
365.015	403.81
365.241	424.81
365.468	414.81
365.694	425.81
365.92	434.81
366.147	412.81
366.373	430.81
366.599	402.81
366.826	412.81
367.052	407.81
367.278	396.81
367.505	404.81
367.731	424.81
367.957	419.81
368.184	404.81
368.41	411.81
368.636	417.81
368.862	424.81
369.089	432.81
369.315	420.81
369.541	425.81
369.767	410.81
369.993	398.81
370.219	418.81
370.445	423.81
370.672	402.81
370.898	399.81
371.124	427.81
371.35	439.81
371.576	415.81
371.802	430.81
372.028	398.81
372.254	432.81
372.48	425.81
372.706	396.81
372.932	419.81
373.158	440.81
373.384	440.81
373.61	419.81
373.835	433.81
374.061	413.81
374.287	426.81
374.513	436.81
374.739	432.81
374.965	432.81
375.191	443.81
375.416	428.81
375.642	406.81
375.868	418.81
376.094	415.81
376.319	422.81
376.545	433.81
376.771	410.81
376.997	397.81
377.222	412.81
377.448	408.81
377.674	437.81
377.899	410.81
378.125	398.81
378.35	421.81
378.576	407.81
378.802	431.81
379.027	416.81
379.253	405.81
379.478	404.81
379.704	399.81
379.929	441.81
380.155	420.81
380.38	400.81
380.606	408.81
380.831	402.81
381.057	426.81
381.282	416.81
381.507	421.81
381.733	419.81
381.958	415.81
382.184	411.81
382.409	436.81
382.634	430.81
382.86	419.81
383.085	426.81
383.31	436.81
383.535	427.81
383.761	411.81
383.986	432.81
384.211	453.81
384.436	440.81
384.662	480.81
384.887	475.81
385.112	448.81
385.337	467.81
385.562	445.81
385.787	466.81
386.013	471.81
386.238	468.81
386.463	442.81
386.688	463.81
386.913	457.81
387.138	455.81
387.363	468.81
387.588	460.81
387.813	441.81
388.038	446.81
388.263	442.81
388.488	470.81
388.713	452.81
388.938	448.81
389.163	460.81
389.387	471.81
389.612	452.81
389.837	463.81
390.062	473.81
390.287	468.81
390.512	452.81
390.736	466.81
390.961	465.81
391.186	459.81
391.411	459.81
391.636	473.81
391.86	466.81
392.085	478.81
392.31	491.81
392.534	513.81
392.759	473.81
392.984	455.81
393.208	472.81
393.433	471.81
393.658	459.81
393.882	446.81
394.107	470.81
394.331	471.81
394.556	441.81
394.78	467.81
395.005	478.81
395.229	452.81
395.454	481.81
395.678	478.81
395.903	467.81
396.127	525.81
396.352	506.81
396.576	490.81
396.801	487.81
397.025	462.81
397.249	483.81
397.474	510.81
397.698	497.81
397.922	499.81
398.147	521.81
398.371	529.81
398.595	515.81
398.82	552.81
399.044	555.81
399.268	591.81
399.492	638.81
399.717	694.81
399.941	686.81
400.165	708.81
400.389	698.81
400.613	645.81
400.837	562.81
401.062	537.81
401.286	552.81
401.51	560.81
401.734	540.81
401.958	530.81
402.182	545.81
402.406	558.81
402.63	539.81
402.854	562.81
403.078	564.81
403.302	566.81
403.526	582.81
403.75	581.81
403.974	547.81
404.198	566.81
404.422	587.81
404.645	587.81
404.869	550.81
405.093	588.81
405.317	588.81
405.541	591.81
405.765	567.81
405.988	556.81
406.212	584.81
406.436	606.81
406.66	614.81
406.883	602.81
407.107	612.81
407.331	653.81
407.555	727.81
407.778	736.81
408.002	642.81
408.226	614.81
408.449	607.81
408.673	592.81
408.896	609.81
409.12	656.81
409.344	626.81
409.567	582.81
409.791	558.81
410.014	550.81
410.238	547.81
410.461	575.81
410.685	567.81
410.908	591.81
411.132	584.81
411.355	617.81
411.578	603.81
411.802	554.81
412.025	547.81
412.249	560.81
412.472	532.81
412.695	571.81
412.919	536.81
413.142	536.81
413.365	533.81
413.589	533.81
413.812	511.81
414.035	519.81
414.258	527.81
414.482	513.81
414.705	512.81
414.928	518.81
415.151	502.81
415.374	507.81
415.597	521.81
415.821	537.81
416.044	515.81
416.267	514.81
416.49	523.81
416.713	505.81
416.936	531.81
417.159	528.81
417.382	516.81
417.605	512.81
417.828	528.81
418.051	527.81
418.274	531.81
418.497	551.81
418.72	522.81
418.943	514.81
419.166	550.81
419.389	575.81
419.611	554.81
419.834	584.81
420.057	543.81
420.28	532.81
420.503	524.81
420.726	543.81
420.948	541.81
421.171	589.81
421.394	599.81
421.617	562.81
421.839	552.81
422.062	544.81
422.285	555.81
422.507	602.81
422.73	672.81
422.953	638.81
423.175	563.81
423.398	538.81
423.621	539.81
423.843	598.81
424.066	588.81
424.288	593.81
424.511	584.81
424.733	633.81
424.956	696.81
425.178	660.81
425.401	642.81
425.623	684.81
425.846	606.81
426.068	555.81
426.291	558.81
426.513	558.81
426.735	567.81
426.958	588.81
427.18	676.81
427.402	770.81
427.625	842.81
427.847	717.81
428.069	603.81
428.292	564.81
428.514	521.81
428.736	529.81
428.958	525.81
429.181	509.81
429.403	499.81
429.625	529.81
429.847	551.81
430.069	604.81
430.292	601.81
430.514	524.81
430.736	532.81
430.958	498.81
431.18	504.81
431.402	490.81
431.624	468.81
431.846	507.81
432.068	498.81
432.29	498.81
432.512	480.81
432.734	480.81
432.956	478.81
433.178	512.81
433.4	519.81
433.622	494.81
433.844	513.81
434.066	501.81
434.287	507.81
434.509	495.81
434.731	522.81
434.953	532.81
435.175	516.81
435.397	556.81
435.618	549.81
435.84	590.81
436.062	673.81
436.284	728.81
436.505	609.81
436.727	555.81
436.949	523.81
437.17	518.81
437.392	511.81
437.614	501.81
437.835	537.81
438.057	632.81
438.278	713.81
438.5	711.81
438.721	759.81
438.943	750.81
439.165	605.81
439.386	568.81
439.608	561.81
439.829	550.81
440.05	545.81
440.272	578.81
440.493	567.81
440.715	548.81
440.936	526.81
441.158	515.81
441.379	534.81
441.6	546.81
441.822	527.81
442.043	577.81
442.264	666.81
442.486	697.81
442.707	595.81
442.928	566.81
443.149	564.81
443.371	578.81
443.592	633.81
443.813	717.81
444.034	776.81
444.255	648.81
444.476	608.81
444.698	592.81
444.919	574.81
445.14	708.81
445.361	671.81
445.582	619.81
445.803	650.81
446.024	725.81
446.245	747.81
446.466	690.81
446.687	585.81
446.908	545.81
447.129	518.81
447.35	514.81
447.571	519.81
447.792	467.81
448.013	487.81
448.234	494.81
448.455	560.81
448.675	684.81
448.896	756.81
449.117	623.81
449.338	625.81
449.559	704.81
449.779	799.81
450	626.81
450.221	542.81
450.442	513.81
450.662	506.81
450.883	501.81
451.104	495.81
451.324	497.81
451.545	493.81
451.766	484.81
451.986	455.81
452.207	448.81
452.428	443.81
452.648	430.81
452.869	442.81
453.089	480.81
453.31	483.81
453.53	461.81
453.751	456.81
453.971	459.81
454.192	476.81
454.412	453.81
454.633	442.81
454.853	464.81
455.073	451.81
455.294	478.81
455.514	520.81
455.734	507.81
455.955	445.81
456.175	452.81
456.395	434.81
456.616	423.81
456.836	408.81
457.056	417.81
457.276	423.81
457.497	438.81
457.717	430.81
457.937	448.81
458.157	454.81
458.377	444.81
458.598	449.81
458.818	516.81
459.038	558.81
459.258	601.81
459.478	523.81
459.698	491.81
459.918	513.81
460.138	520.81
460.358	504.81
460.578	523.81
460.798	524.81
461.018	513.81
461.238	514.81
461.458	529.81
461.678	520.81
461.898	520.81
462.118	531.81
462.338	534.81
462.558	560.81
462.777	568.81
462.997	588.81
463.217	598.81
463.437	612.81
463.657	566.81
463.876	579.81
464.096	570.81
464.316	569.81
464.536	561.81
464.755	570.81
464.975	574.81
465.195	578.81
465.414	634.81
465.634	560.81
465.854	506.81
466.073	508.81
466.293	519.81
466.512	496.81
466.732	487.81
466.951	485.81
467.171	490.81
467.391	458.81
467.61	476.81
467.829	498.81
468.049	473.81
468.268	475.81
468.488	470.81
468.707	451.81
468.927	454.81
469.146	469.81
469.365	456.81
469.585	462.81
469.804	472.81
470.023	463.81
470.243	481.81
470.462	480.81
470.681	512.81
470.901	490.81
471.12	486.81
471.339	480.81
471.558	496.81
471.777	453.81
471.997	454.81
472.216	453.81
472.435	471.81
472.654	477.81
472.873	459.81
473.092	440.81
473.311	453.81
473.53	466.81
473.749	467.81
473.968	503.81
474.187	581.81
474.406	627.81
474.625	512.81
474.844	472.81
475.063	469.81
475.282	458.81
475.501	482.81
475.72	484.81
475.939	466.81
476.158	467.81
476.377	476.81
476.596	475.81
476.814	489.81
477.033	498.81
477.252	514.81
477.471	535.81
477.69	502.81
477.908	519.81
478.127	499.81
478.346	531.81
478.564	539.81
478.783	534.81
479.002	533.81
479.22	546.81
479.439	548.81
479.658	545.81
479.876	565.81
480.095	572.81
480.313	601.81
480.532	593.81
480.751	618.81
480.969	593.81
481.188	574.81
481.406	578.81
481.624	565.81
481.843	557.81
482.061	572.81
482.28	551.81
482.498	548.81
482.717	537.81
482.935	531.81
483.153	538.81
483.372	536.81
483.59	543.81
483.808	549.81
484.027	557.81
484.245	553.81
484.463	578.81
484.681	564.81
484.9	555.81
485.118	573.81
485.336	578.81
485.554	545.81
485.772	579.81
485.99	569.81
486.209	580.81
486.427	572.81
486.645	576.81
486.863	574.81
487.081	599.81
487.299	574.81
487.517	575.81
487.735	569.81
487.953	577.81
488.171	580.81
488.389	584.81
488.607	575.81
488.825	599.81
489.043	580.81
489.261	577.81
489.479	580.81
489.696	578.81
489.914	592.81
490.132	574.81
490.35	612.81
490.568	612.81
490.786	623.81
491.003	622.81
491.221	635.81
491.439	632.81
491.657	655.81
491.874	636.81
492.092	640.81
492.31	659.81
492.527	656.81
492.745	649.81
492.963	677.81
493.18	679.81
493.398	668.81
493.615	679.81
493.833	700.81
494.05	703.81
494.268	665.81
494.485	692.81
494.703	674.81
494.92	702.81
495.138	694.81
495.355	702.81
495.573	692.81
495.79	680.81
496.008	670.81
496.225	703.81
496.442	696.81
496.66	715.81
496.877	719.81
497.094	691.81
497.312	746.81
497.529	722.81
497.746	732.81
497.963	740.81
498.181	787.81
498.398	779.81
498.615	808.81
498.832	857.81
499.049	876.81
499.267	895.81
499.484	896.81
499.701	959.81
499.918	1019.81
500.135	1128.81
500.352	1179.81
500.569	1202.81
500.786	1214.81
501.003	1177.81
501.22	1090.81
501.437	1048.81
501.654	996.81
501.871	942.81
502.088	902.81
502.305	854.81
502.522	830.81
502.739	819.81
502.956	795.81
503.172	746.81
503.389	738.81
503.606	759.81
503.823	728.81
504.04	732.81
504.256	697.81
504.473	711.81
504.69	726.81
504.907	684.81
505.123	701.81
505.34	678.81
505.557	668.81
505.773	675.81
505.99	673.81
506.207	672.81
506.423	674.81
506.64	650.81
506.856	633.81
507.073	648.81
507.289	612.81
507.506	660.81
507.722	666.81
507.939	651.81
508.155	628.81
508.372	603.81
508.588	615.81
508.805	592.81
509.021	592.81
509.238	632.81
509.454	625.81
509.67	628.81
509.887	628.81
510.103	635.81
510.319	603.81
510.536	675.81
510.752	1098.81
510.968	915.81
511.184	639.81
511.401	608.81
511.617	575.81
511.833	564.81
512.049	566.81
512.265	578.81
512.481	588.81
512.698	593.81
512.914	582.81
513.13	602.81
513.346	564.81
513.562	567.81
513.778	574.81
513.994	553.81
514.21	593.81
514.426	628.81
514.642	650.81
514.858	640.81
515.074	676.81
515.29	833.81
515.506	1166.81
515.721	1008.81
515.937	699.81
516.153	659.81
516.369	614.81
516.585	634.81
516.801	627.81
517.016	611.81
517.232	613.81
517.448	684.81
517.664	646.81
517.879	660.81
518.095	651.81
518.311	641.81
518.527	632.81
518.742	623.81
518.958	597.81
519.173	606.81
519.389	586.81
519.605	597.81
519.82	604.81
520.036	601.81
520.251	611.81
520.467	636.81
520.682	638.81
520.898	632.81
521.113	646.81
521.329	676.81
521.544	722.81
521.76	894.81
521.975	1460.81
522.19	1501.81
522.406	823.81
522.621	650.81
522.836	599.81
523.052	578.81
523.267	552.81
523.482	568.81
523.698	551.81
523.913	548.81
524.128	523.81
524.343	512.81
524.559	504.81
524.774	522.81
524.989	508.81
525.204	515.81
525.419	512.81
525.634	502.81
525.849	519.81
526.064	478.81
526.28	477.81
526.495	478.81
526.71	483.81
526.925	508.81
527.14	480.81
527.355	495.81
527.57	493.81
527.785	490.81
527.999	466.81
528.214	460.81
528.429	467.81
528.644	466.81
528.859	476.81
529.074	471.81
529.289	487.81
529.503	572.81
529.718	564.81
529.933	508.81
530.148	508.81
530.363	502.81
530.577	471.81
530.792	490.81
531.007	474.81
531.221	485.81
531.436	474.81
531.651	468.81
531.865	490.81
532.08	489.81
532.295	465.81
532.509	455.81
532.724	464.81
532.938	443.81
533.153	467.81
533.367	453.81
533.582	467.81
533.796	458.81
534.011	462.81
534.225	453.81
534.44	464.81
534.654	444.81
534.868	462.81
535.083	463.81
535.297	451.81
535.511	456.81
535.726	470.81
535.94	480.81
536.154	468.81
536.369	453.81
536.583	466.81
536.797	456.81
537.011	440.81
537.225	456.81
537.44	444.81
537.654	447.81
537.868	443.81
538.082	452.81
538.296	457.81
538.51	461.81
538.724	440.81
538.938	456.81
539.153	455.81
539.367	459.81
539.581	446.81
539.795	445.81
540.009	434.81
540.222	435.81
540.436	446.81
540.65	450.81
540.864	438.81
541.078	439.81
541.292	461.81
541.506	442.81
541.72	440.81
541.934	451.81
542.147	448.81
542.361	447.81
542.575	450.81
542.789	443.81
543.002	446.81
543.216	438.81
543.43	448.81
543.644	441.81
543.857	450.81
544.071	448.81
544.285	442.81
544.498	437.81
544.712	439.81
544.925	439.81
545.139	444.81
545.352	434.81
545.566	435.81
545.779	430.81
545.993	449.81
546.206	446.81
546.42	442.81
546.633	449.81
546.847	417.81
547.06	427.81
547.274	439.81
547.487	425.81
547.7	403.81
547.914	419.81
548.127	405.81
548.34	425.81
548.554	438.81
548.767	424.81
548.98	419.81
549.193	437.81
549.407	446.81
549.62	444.81
549.833	471.81
550.046	405.81
550.259	414.81
550.473	417.81
550.686	421.81
550.899	411.81
551.112	411.81
551.325	418.81
551.538	414.81
551.751	408.81
551.964	425.81
552.177	419.81
552.39	418.81
552.603	446.81
552.816	430.81
553.029	434.81
553.242	442.81
553.455	462.81
553.667	455.81
553.88	448.81
554.093	455.81
554.306	431.81
554.519	441.81
554.732	420.81
554.944	428.81
555.157	421.81
555.37	421.81
555.583	420.81
555.795	411.81
556.008	407.81
556.221	407.81
556.433	389.81
556.646	400.81
556.859	379.81
557.071	400.81
557.284	383.81
557.496	377.81
557.709	380.81
557.921	367.81
558.134	392.81
558.346	400.81
558.559	374.81
558.771	384.81
558.984	397.81
559.196	375.81
559.409	375.81
559.621	383.81
559.833	359.81
560.046	362.81
560.258	383.81
560.47	382.81
560.683	400.81
560.895	363.81
561.107	376.81
561.32	364.81
561.532	368.81
561.744	372.81
561.956	379.81
562.168	373.81
562.381	396.81
562.593	374.81
562.805	367.81
563.017	376.81
563.229	369.81
563.441	367.81
563.653	379.81
563.865	361.81
564.077	389.81
564.289	388.81
564.501	407.81
564.713	404.81
564.925	401.81
565.137	410.81
565.349	427.81
565.561	413.81
565.773	431.81
565.985	427.81
566.197	441.81
566.408	478.81
566.62	468.81
566.832	502.81
567.044	520.81
567.255	511.81
567.467	520.81
567.679	529.81
567.891	568.81
568.102	548.81
568.314	562.81
568.526	523.81
568.737	514.81
568.949	470.81
569.161	435.81
569.372	416.81
569.584	402.81
569.795	424.81
570.007	415.81
570.218	432.81
570.43	417.81
570.641	397.81
570.853	360.81
571.064	357.81
571.276	382.81
571.487	366.81
571.698	379.81
571.91	384.81
572.121	361.81
572.333	359.81
572.544	347.81
572.755	347.81
572.966	348.81
573.178	332.81
573.389	314.81
573.6	350.81
573.811	341.81
574.023	344.81
574.234	330.81
574.445	337.81
574.656	353.81
574.867	336.81
575.078	349.81
575.289	327.81
575.501	329.81
575.712	324.81
575.923	328.81
576.134	319.81
576.345	325.81
576.556	334.81
576.767	326.81
576.978	315.81
577.188	322.81
577.399	310.81
577.61	312.81
577.821	317.81
578.032	318.81
578.243	336.81
578.454	523.81
578.665	398.81
578.875	325.81
579.086	288.81
579.297	305.81
579.508	314.81
579.718	302.81
579.929	321.81
580.14	286.81
580.35	308.81
580.561	302.81
580.772	268.81
580.982	279.81
581.193	302.81
581.403	298.81
581.614	291.81
581.825	300.81
582.035	290.81
582.246	292.81
582.456	300.81
582.667	315.81
582.877	291.81
583.087	300.81
583.298	306.81
583.508	289.81
583.719	291.81
583.929	268.81
584.139	297.81
584.35	274.81
584.56	312.81
584.77	310.81
584.981	288.81
585.191	307.81
585.401	271.81
585.611	282.81
585.821	294.81
586.032	295.81
586.242	281.81
586.452	283.81
586.662	278.81
586.872	287.81
587.082	306.81
587.292	280.81
587.502	282.81
587.713	281.81
587.923	292.81
588.133	281.81
588.343	272.81
588.553	276.81
588.762	286.81
588.972	280.81
589.182	285.81
589.392	307.81
589.602	286.81
589.812	291.81
590.022	283.81
590.232	249.81
590.441	271.81
590.651	287.81
590.861	288.81
591.071	297.81
591.281	298.81
591.49	282.81
591.7	294.81
591.91	297.81
592.119	298.81
592.329	310.81
592.539	314.81
592.748	293.81
592.958	318.81
593.167	307.81
593.377	321.81
593.587	319.81
593.796	330.81
594.006	320.81
594.215	314.81
594.424	307.81
594.634	320.81
594.843	310.81
595.053	306.81
595.262	304.81
595.472	296.81
595.681	293.81
595.89	281.81
596.1	297.81
596.309	269.81
596.518	292.81
596.727	268.81
596.937	279.81
597.146	264.81
597.355	254.81
597.564	263.81
597.774	262.81
597.983	263.81
598.192	267.81
598.401	265.81
598.61	267.81
598.819	244.81
599.028	256.81
599.237	255.81
599.446	249.81
599.655	258.81
599.864	250.81
600.073	241.81
600.282	238.81
600.491	233.81
600.7	238.81
600.909	250.81
601.118	258.81
601.327	254.81
601.536	230.81
601.745	242.81
601.953	232.81
602.162	232.81
602.371	235.81
602.58	250.81
602.789	235.81
602.997	241.81
603.206	228.81
603.415	229.81
603.623	235.81
603.832	247.81
604.041	226.81
604.249	252.81
604.458	260.81
604.666	247.81
604.875	227.81
605.084	234.81
605.292	227.81
605.501	240.81
605.709	229.81
605.918	220.81
606.126	227.81
606.334	232.81
606.543	238.81
606.751	227.81
606.96	206.81
607.168	219.81
607.376	222.81
607.585	233.81
607.793	224.81
608.001	223.81
608.21	250.81
608.418	230.81
608.626	238.81
608.834	244.81
609.043	238.81
609.251	234.81
609.459	213.81
609.667	235.81
609.875	241.81
610.083	239.81
610.291	227.81
610.499	209.81
610.707	225.81
610.916	224.81
611.124	220.81
611.332	239.81
611.54	240.81
611.748	233.81
611.955	226.81
612.163	244.81
612.371	218.81
612.579	218.81
612.787	235.81
612.995	219.81
613.203	233.81
613.411	218.81
613.618	239.81
613.826	218.81
614.034	222.81
614.242	236.81
614.449	214.81
614.657	223.81
614.865	231.81
615.072	217.81
615.28	236.81
615.488	210.81
615.695	219.81
615.903	234.81
616.111	216.81
616.318	231.81
616.526	231.81
616.733	229.81
616.941	214.81
617.148	225.81
617.356	228.81
617.563	217.81
617.771	208.81
617.978	208.81
618.185	223.81
618.393	225.81
618.6	220.81
618.807	220.81
619.015	220.81
619.222	210.81
619.429	221.81
619.637	224.81
619.844	213.81
620.051	199.81
620.258	215.81
620.466	221.81
620.673	217.81
620.88	212.81
621.087	212.81
621.294	201.81
621.501	199.81
621.708	202.81
621.915	210.81
622.122	204.81
622.329	212.81
622.536	196.81
622.743	203.81
622.95	200.81
623.157	189.81
623.364	224.81
623.571	210.81
623.778	212.81
623.985	208.81
624.192	197.81
624.399	197.81
624.606	198.81
624.812	202.81
625.019	190.81
625.226	182.81
625.433	200.81
625.639	181.81
625.846	190.81
626.053	203.81
626.259	199.81
626.466	185.81
626.673	194.81
626.879	188.81
627.086	186.81
627.293	186.81
627.499	171.81
627.706	203.81
627.912	190.81
628.119	181.81
628.325	195.81
628.532	183.81
628.738	184.81
628.945	197.81
629.151	183.81
629.357	180.81
629.564	199.81
629.77	197.81
629.976	188.81
630.183	178.81
630.389	177.81
630.595	178.81
630.802	186.81
631.008	171.81
631.214	187.81
631.42	178.81
631.627	191.81
631.833	181.81
632.039	176.81
632.245	179.81
632.451	169.81
632.657	173.81
632.863	174.81
633.069	159.81
633.275	171.81
633.481	184.81
633.688	167.81
633.893	184.81
634.099	178.81
634.305	171.81
634.511	176.81
634.717	178.81
634.923	171.81
635.129	177.81
635.335	169.81
635.541	170.81
635.747	171.81
635.952	180.81
636.158	155.81
636.364	182.81
636.57	172.81
636.775	162.81
636.981	162.81
637.187	175.81
637.392	168.81
637.598	187.81
637.804	181.81
638.009	171.81
638.215	174.81
638.421	156.81
638.626	154.81
638.832	164.81
639.037	162.81
639.243	178.81
639.448	159.81
639.654	162.81
639.859	158.81
640.065	170.81
640.27	157.81
640.475	180.81
640.681	162.81
640.886	171.81
641.091	166.81
641.297	159.81
641.502	153.81
641.707	158.81
641.913	144.81
642.118	158.81
642.323	157.81
642.528	156.81
642.733	165.81
642.939	147.81
643.144	151.81
643.349	171.81
643.554	157.81
643.759	152.81
643.964	149.81
644.169	160.81
644.374	159.81
644.579	152.81
644.784	164.81
644.989	162.81
645.194	153.81
645.399	139.81
645.604	167.81
645.809	167.81
646.014	164.81
646.219	165.81
646.423	157.81
646.628	165.81
646.833	176.81
647.038	156.81
647.243	152.81
647.447	164.81
647.652	157.81
647.857	166.81
648.062	162.81
648.266	168.81
648.471	164.81
648.676	173.81
648.88	157.81
649.085	152.81
649.289	150.81
649.494	156.81
649.698	178.81
649.903	164.81
650.107	175.81
650.312	164.81
650.516	148.81
650.721	155.81
650.925	157.81
651.13	151.81
651.334	160.81
651.539	138.81
651.743	146.81
651.947	147.81
652.152	132.81
652.356	139.81
652.56	142.81
652.764	128.81
652.969	141.81
653.173	135.81
653.377	140.81
653.581	127.81
653.785	130.81
653.99	118.81
654.194	132.81
654.398	140.81
654.602	122.81
654.806	131.81
655.01	132.81
655.214	143.81
655.418	137.81
655.622	147.81
655.826	133.81
656.03	132.81
656.234	151.81
656.438	130.81
656.642	138.81
656.846	136.81
657.049	134.81
657.253	126.81
657.457	106.81
657.661	110.81
657.865	116.81
658.068	128.81
658.272	100.81
658.476	113.81
658.68	102.81
658.883	104.81
659.087	104.81
659.291	105.81
659.494	99.81
659.698	96.81
659.901	106.81
660.105	106.81
660.309	87.81
660.512	107.81
660.716	106.81
660.919	100.81
661.123	93.81
661.326	82.81
661.53	91.81
661.733	81.81
661.936	80.81
662.14	91.81
662.343	86.81
662.546	91.81
662.75	84.81
662.953	81.81
663.156	79.81
663.36	94.81
663.563	82.81
663.766	76.81
663.969	82.81
664.173	67.81
664.376	73.81
664.579	84.81
664.782	81.81
664.985	64.81
665.188	73.81
665.391	72.81
665.594	73.81
665.797	76.81
666	75.81
666.203	84.81
666.406	77.81
666.609	82.81
666.812	98.81
667.015	89.81
667.218	76.81
667.421	85.81
667.624	83.81
667.827	76.81
668.03	84.81
668.232	86.81
668.435	81.81
668.638	78.81
668.841	73.81
669.043	86.81
669.246	81.81
669.449	78.81
669.651	74.81
669.854	70.81
670.057	83.81
670.259	86.81
670.462	75.81
670.665	82.81
670.867	89.81
671.07	84.81
671.272	83.81
671.475	91.81
671.677	78.81
671.88	79.81
672.082	81.81
672.284	83.81
672.487	76.81
672.689	75.81
672.892	64.81
