Data from 1985.PennyLincolnUp.Lamp.En5.5.200Scan.071819.P1_HRD10591_17-01-32-969.txt Node
Date: Thu Jul 18 17:01:32 EDT 2019
User: cochatt
Spectrometer: HR+D1059
Trigger mode: 1
Integration Time (sec): 1.000000E-1
Scans to average: 1
Electric dark correction enabled: true
Nonlinearity correction enabled: false
Boxcar width: 0
XAxis mode: Wavelengths
Number of Pixels in Spectrum: 2048
>>>>>Begin Spectral Data<<<<<
223.165	-15.31
223.4	-15.31
223.635	-15.31
223.869	-18.31
224.104	-18.31
224.338	-25.31
224.573	-14.31
224.808	-22.31
225.042	-9.31
225.277	2.69
225.511	2.69
225.746	-2.31
225.98	11.69
226.215	25.69
226.449	-3.31
226.683	27.69
226.918	22.69
227.152	35.69
227.387	25.69
227.621	46.69
227.856	44.69
228.09	39.69
228.324	39.69
228.559	57.69
228.793	61.69
229.027	82.69
229.262	81.69
229.496	105.69
229.73	131.69
229.964	127.69
230.199	118.69
230.433	96.69
230.667	97.69
230.901	100.69
231.136	104.69
231.37	107.69
231.604	108.69
231.838	109.69
232.072	118.69
232.306	120.69
232.541	112.69
232.775	114.69
233.009	107.69
233.243	93.69
233.477	110.69
233.711	120.69
233.945	117.69
234.179	117.69
234.413	117.69
234.647	104.69
234.881	113.69
235.115	102.69
235.349	103.69
235.583	124.69
235.817	123.69
236.051	122.69
236.285	134.69
236.519	119.69
236.753	127.69
236.987	141.69
237.221	168.69
237.455	208.69
237.689	153.69
237.922	126.69
238.156	139.69
238.39	115.69
238.624	116.69
238.858	120.69
239.091	128.69
239.325	126.69
239.559	122.69
239.793	118.69
240.027	128.69
240.26	135.69
240.494	142.69
240.728	155.69
240.961	143.69
241.195	129.69
241.429	127.69
241.662	131.69
241.896	118.69
242.13	129.69
242.363	129.69
242.597	126.69
242.83	122.69
243.064	142.69
243.298	134.69
243.531	122.69
243.765	114.69
243.998	133.69
244.232	132.69
244.465	118.69
244.699	146.69
244.932	133.69
245.166	138.69
245.399	148.69
245.633	144.69
245.866	136.69
246.099	140.69
246.333	144.69
246.566	146.69
246.8	147.69
247.033	155.69
247.266	150.69
247.5	151.69
247.733	154.69
247.966	183.69
248.2	162.69
248.433	155.69
248.666	170.69
248.899	197.69
249.133	187.69
249.366	186.69
249.599	173.69
249.832	172.69
250.066	176.69
250.299	183.69
250.532	189.69
250.765	197.69
250.998	206.69
251.231	216.69
251.465	199.69
251.698	201.69
251.931	194.69
252.164	181.69
252.397	178.69
252.63	170.69
252.863	193.69
253.096	204.69
253.329	221.69
253.562	214.69
253.795	201.69
254.028	191.69
254.261	201.69
254.494	207.69
254.727	228.69
254.96	272.69
255.193	249.69
255.426	244.69
255.659	210.69
255.892	236.69
256.124	215.69
256.357	200.69
256.59	186.69
256.823	207.69
257.056	205.69
257.289	202.69
257.521	202.69
257.754	202.69
257.987	188.69
258.22	205.69
258.452	211.69
258.685	198.69
258.918	211.69
259.151	221.69
259.383	201.69
259.616	213.69
259.849	212.69
260.081	218.69
260.314	261.69
260.547	237.69
260.779	218.69
261.012	224.69
261.244	225.69
261.477	215.69
261.71	218.69
261.942	225.69
262.175	217.69
262.407	223.69
262.64	213.69
262.872	221.69
263.105	209.69
263.337	222.69
263.57	224.69
263.802	209.69
264.035	214.69
264.267	213.69
264.499	201.69
264.732	214.69
264.964	211.69
265.197	198.69
265.429	233.69
265.661	234.69
265.894	201.69
266.126	225.69
266.358	234.69
266.591	220.69
266.823	222.69
267.055	234.69
267.287	229.69
267.52	238.69
267.752	229.69
267.984	233.69
268.216	237.69
268.448	256.69
268.681	226.69
268.913	248.69
269.145	251.69
269.377	277.69
269.609	274.69
269.841	238.69
270.073	268.69
270.306	275.69
270.538	308.69
270.77	321.69
271.002	304.69
271.234	265.69
271.466	298.69
271.698	298.69
271.93	294.69
272.162	316.69
272.394	317.69
272.626	294.69
272.858	279.69
273.09	262.69
273.322	280.69
273.553	256.69
273.785	258.69
274.017	264.69
274.249	283.69
274.481	265.69
274.713	266.69
274.945	279.69
275.176	271.69
275.408	275.69
275.64	269.69
275.872	262.69
276.104	277.69
276.335	271.69
276.567	274.69
276.799	292.69
277.031	313.69
277.262	308.69
277.494	294.69
277.726	282.69
277.957	289.69
278.189	294.69
278.421	283.69
278.652	273.69
278.884	296.69
279.115	282.69
279.347	276.69
279.579	293.69
279.81	268.69
280.042	278.69
280.273	283.69
280.505	285.69
280.736	266.69
280.968	283.69
281.199	277.69
281.431	296.69
281.662	290.69
281.894	282.69
282.125	278.69
282.356	303.69
282.588	316.69
282.819	307.69
283.051	299.69
283.282	289.69
283.513	288.69
283.745	293.69
283.976	266.69
284.207	300.69
284.439	298.69
284.67	310.69
284.901	291.69
285.132	316.69
285.364	309.69
285.595	317.69
285.826	298.69
286.057	295.69
286.288	298.69
286.52	305.69
286.751	292.69
286.982	312.69
287.213	306.69
287.444	294.69
287.675	315.69
287.906	323.69
288.138	293.69
288.369	318.69
288.6	318.69
288.831	308.69
289.062	337.69
289.293	333.69
289.524	320.69
289.755	321.69
289.986	328.69
290.217	305.69
290.448	340.69
290.679	337.69
290.91	310.69
291.141	296.69
291.371	299.69
291.602	315.69
291.833	334.69
292.064	308.69
292.295	312.69
292.526	305.69
292.757	331.69
292.987	342.69
293.218	302.69
293.449	328.69
293.68	322.69
293.91	311.69
294.141	311.69
294.372	321.69
294.603	328.69
294.833	329.69
295.064	328.69
295.295	327.69
295.525	321.69
295.756	339.69
295.987	336.69
296.217	344.69
296.448	369.69
296.679	358.69
296.909	318.69
297.14	327.69
297.37	322.69
297.601	320.69
297.831	310.69
298.062	324.69
298.292	325.69
298.523	324.69
298.753	354.69
298.984	359.69
299.214	332.69
299.445	346.69
299.675	322.69
299.905	328.69
300.136	339.69
300.366	333.69
300.597	350.69
300.827	320.69
301.057	342.69
301.288	362.69
301.518	370.69
301.748	362.69
301.979	352.69
302.209	361.69
302.439	354.69
302.669	375.69
302.9	359.69
303.13	357.69
303.36	362.69
303.59	349.69
303.82	364.69
304.051	376.69
304.281	368.69
304.511	352.69
304.741	340.69
304.971	354.69
305.201	358.69
305.431	346.69
305.661	374.69
305.891	363.69
306.121	368.69
306.352	366.69
306.582	353.69
306.812	362.69
307.042	370.69
307.272	348.69
307.502	368.69
307.731	352.69
307.961	356.69
308.191	362.69
308.421	344.69
308.651	371.69
308.881	379.69
309.111	374.69
309.341	369.69
309.571	358.69
309.8	378.69
310.03	402.69
310.26	406.69
310.49	379.69
310.72	392.69
310.949	402.69
311.179	407.69
311.409	410.69
311.639	402.69
311.868	402.69
312.098	402.69
312.328	393.69
312.557	439.69
312.787	424.69
313.017	416.69
313.246	420.69
313.476	412.69
313.706	412.69
313.935	395.69
314.165	434.69
314.394	426.69
314.624	419.69
314.853	425.69
315.083	419.69
315.312	406.69
315.542	404.69
315.771	408.69
316.001	419.69
316.23	400.69
316.46	409.69
316.689	417.69
316.919	405.69
317.148	418.69
317.377	414.69
317.607	399.69
317.836	410.69
318.065	395.69
318.295	416.69
318.524	395.69
318.753	422.69
318.983	397.69
319.212	399.69
319.441	434.69
319.67	432.69
319.9	409.69
320.129	395.69
320.358	380.69
320.587	406.69
320.816	427.69
321.046	402.69
321.275	420.69
321.504	406.69
321.733	434.69
321.962	429.69
322.191	419.69
322.42	442.69
322.649	454.69
322.878	429.69
323.108	469.69
323.337	491.69
323.566	492.69
323.795	505.69
324.024	523.69
324.253	612.69
324.482	804.69
324.71	1185.69
324.939	1682.69
325.168	1439.69
325.397	800.69
325.626	618.69
325.855	528.69
326.084	491.69
326.313	514.69
326.542	502.69
326.77	544.69
326.999	610.69
327.228	782.69
327.457	1082.69
327.686	1306.69
327.914	891.69
328.143	626.69
328.372	548.69
328.6	542.69
328.829	530.69
329.058	528.69
329.287	547.69
329.515	530.69
329.744	502.69
329.972	490.69
330.201	491.69
330.43	522.69
330.658	536.69
330.887	576.69
331.115	562.69
331.344	512.69
331.572	494.69
331.801	492.69
332.03	485.69
332.258	485.69
332.486	490.69
332.715	489.69
332.943	501.69
333.172	503.69
333.4	512.69
333.629	509.69
333.857	530.69
334.085	512.69
334.314	514.69
334.542	503.69
334.771	498.69
334.999	494.69
335.227	540.69
335.455	522.69
335.684	512.69
335.912	501.69
336.14	488.69
336.369	493.69
336.597	510.69
336.825	505.69
337.053	487.69
337.281	497.69
337.51	486.69
337.738	472.69
337.966	466.69
338.194	479.69
338.422	472.69
338.65	468.69
338.878	454.69
339.106	461.69
339.334	448.69
339.562	469.69
339.79	449.69
340.018	446.69
340.246	448.69
340.474	462.69
340.702	465.69
340.93	459.69
341.158	438.69
341.386	456.69
341.614	465.69
341.842	464.69
342.07	454.69
342.298	450.69
342.526	464.69
342.754	434.69
342.981	454.69
343.209	450.69
343.437	461.69
343.665	449.69
343.893	471.69
344.12	516.69
344.348	506.69
344.576	478.69
344.804	474.69
345.031	465.69
345.259	463.69
345.487	476.69
345.714	449.69
345.942	440.69
346.17	458.69
346.397	455.69
346.625	438.69
346.853	427.69
347.08	442.69
347.308	442.69
347.535	453.69
347.763	432.69
347.99	461.69
348.218	450.69
348.445	459.69
348.673	440.69
348.9	433.69
349.128	413.69
349.355	423.69
349.583	418.69
349.81	438.69
350.037	418.69
350.265	428.69
350.492	416.69
350.72	413.69
350.947	413.69
351.174	440.69
351.402	454.69
351.629	434.69
351.856	445.69
352.083	426.69
352.311	440.69
352.538	436.69
352.765	449.69
352.992	453.69
353.22	411.69
353.447	439.69
353.674	418.69
353.901	440.69
354.128	414.69
354.355	399.69
354.583	407.69
354.81	405.69
355.037	419.69
355.264	423.69
355.491	404.69
355.718	412.69
355.945	400.69
356.172	423.69
356.399	413.69
356.626	418.69
356.853	415.69
357.08	416.69
357.307	414.69
357.534	424.69
357.761	400.69
357.988	422.69
358.215	409.69
358.441	410.69
358.668	402.69
358.895	420.69
359.122	416.69
359.349	437.69
359.576	424.69
359.802	452.69
360.029	467.69
360.256	475.69
360.483	440.69
360.709	447.69
360.936	450.69
361.163	447.69
361.39	428.69
361.616	418.69
361.843	427.69
362.07	423.69
362.296	433.69
362.523	419.69
362.749	436.69
362.976	402.69
363.203	424.69
363.429	425.69
363.656	440.69
363.882	399.69
364.109	410.69
364.335	414.69
364.562	429.69
364.788	412.69
365.015	400.69
365.241	410.69
365.468	415.69
365.694	420.69
365.92	416.69
366.147	414.69
366.373	422.69
366.599	428.69
366.826	419.69
367.052	407.69
367.278	412.69
367.505	416.69
367.731	429.69
367.957	417.69
368.184	418.69
368.41	416.69
368.636	429.69
368.862	436.69
369.089	429.69
369.315	424.69
369.541	414.69
369.767	421.69
369.993	404.69
370.219	417.69
370.445	415.69
370.672	426.69
370.898	418.69
371.124	417.69
371.35	428.69
371.576	421.69
371.802	416.69
372.028	409.69
372.254	413.69
372.48	415.69
372.706	420.69
372.932	445.69
373.158	433.69
373.384	448.69
373.61	434.69
373.835	445.69
374.061	421.69
374.287	432.69
374.513	440.69
374.739	433.69
374.965	429.69
375.191	442.69
375.416	450.69
375.642	427.69
375.868	422.69
376.094	420.69
376.319	413.69
376.545	410.69
376.771	410.69
376.997	408.69
377.222	413.69
377.448	437.69
377.674	412.69
377.899	409.69
378.125	399.69
378.35	399.69
378.576	413.69
378.802	418.69
379.027	388.69
379.253	416.69
379.478	414.69
379.704	414.69
379.929	418.69
380.155	398.69
380.38	425.69
380.606	418.69
380.831	428.69
381.057	423.69
381.282	430.69
381.507	429.69
381.733	429.69
381.958	414.69
382.184	404.69
382.409	420.69
382.634	435.69
382.86	424.69
383.085	418.69
383.31	436.69
383.535	432.69
383.761	447.69
383.986	438.69
384.211	420.69
384.436	461.69
384.662	462.69
384.887	451.69
385.112	457.69
385.337	462.69
385.562	457.69
385.787	472.69
386.013	486.69
386.238	464.69
386.463	481.69
386.688	473.69
386.913	436.69
387.138	450.69
387.363	468.69
387.588	472.69
387.813	458.69
388.038	440.69
388.263	462.69
388.488	451.69
388.713	469.69
388.938	466.69
389.163	474.69
389.387	476.69
389.612	470.69
389.837	462.69
390.062	457.69
390.287	455.69
390.512	452.69
390.736	453.69
390.961	450.69
391.186	468.69
391.411	460.69
391.636	483.69
391.86	486.69
392.085	481.69
392.31	473.69
392.534	487.69
392.759	485.69
392.984	446.69
393.208	470.69
393.433	481.69
393.658	468.69
393.882	461.69
394.107	451.69
394.331	458.69
394.556	464.69
394.78	486.69
395.005	487.69
395.229	487.69
395.454	500.69
395.678	495.69
395.903	490.69
396.127	494.69
396.352	514.69
396.576	501.69
396.801	497.69
397.025	513.69
397.249	513.69
397.474	498.69
397.698	506.69
397.922	517.69
398.147	513.69
398.371	526.69
398.595	537.69
398.82	552.69
399.044	577.69
399.268	588.69
399.492	621.69
399.717	677.69
399.941	684.69
400.165	726.69
400.389	692.69
400.613	624.69
400.837	560.69
401.062	548.69
401.286	567.69
401.51	521.69
401.734	534.69
401.958	551.69
402.182	536.69
402.406	553.69
402.63	557.69
402.854	574.69
403.078	583.69
403.302	567.69
403.526	588.69
403.75	569.69
403.974	576.69
404.198	592.69
404.422	577.69
404.645	577.69
404.869	588.69
405.093	567.69
405.317	613.69
405.541	611.69
405.765	584.69
405.988	572.69
406.212	595.69
406.436	595.69
406.66	619.69
406.883	602.69
407.107	638.69
407.331	688.69
407.555	740.69
407.778	719.69
408.002	667.69
408.226	631.69
408.449	624.69
408.673	599.69
408.896	634.69
409.12	664.69
409.344	627.69
409.567	587.69
409.791	566.69
410.014	549.69
410.238	562.69
410.461	565.69
410.685	561.69
410.908	575.69
411.132	589.69
411.355	625.69
411.578	610.69
411.802	549.69
412.025	566.69
412.249	546.69
412.472	524.69
412.695	524.69
412.919	531.69
413.142	532.69
413.365	564.69
413.589	528.69
413.812	531.69
414.035	538.69
414.258	547.69
414.482	512.69
414.705	536.69
414.928	549.69
415.151	530.69
415.374	505.69
415.597	521.69
415.821	529.69
416.044	538.69
416.267	523.69
416.49	520.69
416.713	517.69
416.936	528.69
417.159	516.69
417.382	528.69
417.605	536.69
417.828	531.69
418.051	555.69
418.274	535.69
418.497	529.69
418.72	526.69
418.943	527.69
419.166	543.69
419.389	570.69
419.611	574.69
419.834	554.69
420.057	562.69
420.28	544.69
420.503	530.69
420.726	524.69
420.948	533.69
421.171	589.69
421.394	606.69
421.617	551.69
421.839	550.69
422.062	569.69
422.285	557.69
422.507	613.69
422.73	684.69
422.953	650.69
423.175	578.69
423.398	575.69
423.621	590.69
423.843	579.69
424.066	585.69
424.288	562.69
424.511	594.69
424.733	648.69
424.956	707.69
425.178	672.69
425.401	668.69
425.623	694.69
425.846	601.69
426.068	556.69
426.291	562.69
426.513	554.69
426.735	576.69
426.958	598.69
427.18	681.69
427.402	745.69
427.625	844.69
427.847	716.69
428.069	603.69
428.292	577.69
428.514	546.69
428.736	530.69
428.958	506.69
429.181	505.69
429.403	505.69
429.625	492.69
429.847	540.69
430.069	602.69
430.292	602.69
430.514	538.69
430.736	545.69
430.958	507.69
431.18	502.69
431.402	496.69
431.624	492.69
431.846	489.69
432.068	507.69
432.29	514.69
432.512	501.69
432.734	496.69
432.956	488.69
433.178	505.69
433.4	504.69
433.622	520.69
433.844	496.69
434.066	485.69
434.287	508.69
434.509	505.69
434.731	513.69
434.953	543.69
435.175	543.69
435.397	556.69
435.618	562.69
435.84	601.69
436.062	652.69
436.284	710.69
436.505	615.69
436.727	566.69
436.949	520.69
437.17	492.69
437.392	533.69
437.614	532.69
437.835	538.69
438.057	613.69
438.278	717.69
438.5	714.69
438.721	782.69
438.943	763.69
439.165	585.69
439.386	550.69
439.608	544.69
439.829	545.69
440.05	574.69
440.272	583.69
440.493	568.69
440.715	551.69
440.936	535.69
441.158	518.69
441.379	532.69
441.6	556.69
441.822	562.69
442.043	588.69
442.264	674.69
442.486	702.69
442.707	610.69
442.928	588.69
443.149	547.69
443.371	581.69
443.592	650.69
443.813	704.69
444.034	762.69
444.255	658.69
444.476	597.69
444.698	582.69
444.919	611.69
445.14	723.69
445.361	649.69
445.582	598.69
445.803	632.69
446.024	723.69
446.245	724.69
446.466	670.69
446.687	586.69
446.908	540.69
447.129	521.69
447.35	505.69
447.571	497.69
447.792	472.69
448.013	485.69
448.234	504.69
448.455	562.69
448.675	663.69
448.896	758.69
449.117	643.69
449.338	611.69
449.559	708.69
449.779	816.69
450	637.69
450.221	517.69
450.442	497.69
450.662	496.69
450.883	480.69
451.104	486.69
451.324	512.69
451.545	465.69
451.766	456.69
451.986	450.69
452.207	460.69
452.428	457.69
452.648	477.69
452.869	467.69
453.089	468.69
453.31	462.69
453.53	471.69
453.751	464.69
453.971	456.69
454.192	470.69
454.412	464.69
454.633	464.69
454.853	446.69
455.073	425.69
455.294	463.69
455.514	504.69
455.734	512.69
455.955	456.69
456.175	456.69
456.395	429.69
456.616	427.69
456.836	440.69
457.056	435.69
457.276	425.69
457.497	451.69
457.717	436.69
457.937	438.69
458.157	444.69
458.377	450.69
458.598	466.69
458.818	517.69
459.038	567.69
459.258	584.69
459.478	512.69
459.698	504.69
459.918	513.69
460.138	491.69
460.358	514.69
460.578	526.69
460.798	523.69
461.018	520.69
461.238	512.69
461.458	536.69
461.678	521.69
461.898	550.69
462.118	551.69
462.338	529.69
462.558	560.69
462.777	586.69
462.997	587.69
463.217	639.69
463.437	619.69
463.657	598.69
463.876	583.69
464.096	582.69
464.316	574.69
464.536	593.69
464.755	586.69
464.975	573.69
465.195	574.69
465.414	587.69
465.634	556.69
465.854	518.69
466.073	501.69
466.293	508.69
466.512	482.69
466.732	482.69
466.951	468.69
467.171	480.69
467.391	492.69
467.61	482.69
467.829	483.69
468.049	493.69
468.268	451.69
468.488	481.69
468.707	452.69
468.927	463.69
469.146	466.69
469.365	462.69
469.585	470.69
469.804	471.69
470.023	485.69
470.243	507.69
470.462	492.69
470.681	496.69
470.901	508.69
471.12	486.69
471.339	481.69
471.558	488.69
471.777	497.69
471.997	488.69
472.216	477.69
472.435	474.69
472.654	470.69
472.873	465.69
473.092	462.69
473.311	472.69
473.53	481.69
473.749	491.69
473.968	509.69
474.187	613.69
474.406	590.69
474.625	516.69
474.844	476.69
475.063	488.69
475.282	456.69
475.501	463.69
475.72	475.69
475.939	490.69
476.158	480.69
476.377	513.69
476.596	480.69
476.814	501.69
477.033	499.69
477.252	507.69
477.471	523.69
477.69	493.69
477.908	536.69
478.127	549.69
478.346	513.69
478.564	545.69
478.783	562.69
479.002	546.69
479.22	558.69
479.439	573.69
479.658	572.69
479.876	557.69
480.095	576.69
480.313	623.69
480.532	615.69
480.751	591.69
480.969	592.69
481.188	575.69
481.406	580.69
481.624	580.69
481.843	544.69
482.061	565.69
482.28	564.69
482.498	541.69
482.717	527.69
482.935	571.69
483.153	551.69
483.372	557.69
483.59	561.69
483.808	528.69
484.027	560.69
484.245	580.69
484.463	555.69
484.681	573.69
484.9	573.69
485.118	555.69
485.336	557.69
485.554	552.69
485.772	588.69
485.99	579.69
486.209	559.69
486.427	571.69
486.645	594.69
486.863	602.69
487.081	586.69
487.299	588.69
487.517	600.69
487.735	573.69
487.953	562.69
488.171	591.69
488.389	596.69
488.607	579.69
488.825	593.69
489.043	597.69
489.261	588.69
489.479	601.69
489.696	599.69
489.914	599.69
490.132	601.69
490.35	618.69
490.568	635.69
490.786	621.69
491.003	629.69
491.221	632.69
491.439	648.69
491.657	640.69
491.874	641.69
492.092	676.69
492.31	653.69
492.527	642.69
492.745	662.69
492.963	678.69
493.18	650.69
493.398	682.69
493.615	679.69
493.833	666.69
494.05	670.69
494.268	675.69
494.485	690.69
494.703	652.69
494.92	685.69
495.138	691.69
495.355	666.69
495.573	674.69
495.79	660.69
496.008	701.69
496.225	692.69
496.442	679.69
496.66	712.69
496.877	700.69
497.094	689.69
497.312	701.69
497.529	713.69
497.746	734.69
497.963	738.69
498.181	759.69
498.398	777.69
498.615	817.69
498.832	857.69
499.049	873.69
499.267	883.69
499.484	946.69
499.701	1002.69
499.918	1052.69
500.135	1117.69
500.352	1192.69
500.569	1243.69
500.786	1218.69
501.003	1182.69
501.22	1090.69
501.437	1034.69
501.654	993.69
501.871	975.69
502.088	897.69
502.305	833.69
502.522	853.69
502.739	833.69
502.956	792.69
503.172	762.69
503.389	744.69
503.606	737.69
503.823	748.69
504.04	767.69
504.256	721.69
504.473	734.69
504.69	716.69
504.907	752.69
505.123	708.69
505.34	668.69
505.557	646.69
505.773	658.69
505.99	668.69
506.207	649.69
506.423	658.69
506.64	635.69
506.856	649.69
507.073	654.69
507.289	642.69
507.506	624.69
507.722	641.69
507.939	648.69
508.155	644.69
508.372	609.69
508.588	592.69
508.805	611.69
509.021	609.69
509.238	605.69
509.454	627.69
509.67	613.69
509.887	612.69
510.103	600.69
510.319	594.69
510.536	660.69
510.752	1012.69
510.968	859.69
511.184	600.69
511.401	592.69
511.617	560.69
511.833	556.69
512.049	574.69
512.265	541.69
512.481	557.69
512.698	583.69
512.914	568.69
513.13	563.69
513.346	559.69
513.562	551.69
513.778	587.69
513.994	567.69
514.21	577.69
514.426	619.69
514.642	608.69
514.858	636.69
515.074	656.69
515.29	770.69
515.506	1054.69
515.721	931.69
515.937	690.69
516.153	629.69
516.369	614.69
516.585	629.69
516.801	611.69
517.016	624.69
517.232	648.69
517.448	627.69
517.664	635.69
517.879	651.69
518.095	627.69
518.311	660.69
518.527	654.69
518.742	614.69
518.958	620.69
519.173	612.69
519.389	591.69
519.605	604.69
519.82	591.69
520.036	589.69
520.251	595.69
520.467	625.69
520.682	603.69
520.898	617.69
521.113	601.69
521.329	642.69
521.544	709.69
521.76	821.69
521.975	1314.69
522.19	1322.69
522.406	793.69
522.621	617.69
522.836	570.69
523.052	553.69
523.267	524.69
523.482	538.69
523.698	506.69
523.913	536.69
524.128	524.69
524.343	496.69
524.559	508.69
524.774	512.69
524.989	477.69
525.204	506.69
525.419	494.69
525.634	492.69
525.849	497.69
526.064	500.69
526.28	494.69
526.495	490.69
526.71	470.69
526.925	475.69
527.14	467.69
527.355	486.69
527.57	487.69
527.785	464.69
527.999	470.69
528.214	481.69
528.429	483.69
528.644	492.69
528.859	499.69
529.074	466.69
529.289	500.69
529.503	558.69
529.718	528.69
529.933	505.69
530.148	465.69
530.363	472.69
530.577	487.69
530.792	479.69
531.007	468.69
531.221	480.69
531.436	466.69
531.651	467.69
531.865	472.69
532.08	477.69
532.295	452.69
532.509	452.69
532.724	474.69
532.938	486.69
533.153	459.69
533.367	438.69
533.582	460.69
533.796	474.69
534.011	466.69
534.225	471.69
534.44	477.69
534.654	472.69
534.868	475.69
535.083	452.69
535.297	441.69
535.511	469.69
535.726	460.69
535.94	463.69
536.154	474.69
536.369	472.69
536.583	452.69
536.797	451.69
537.011	460.69
537.225	459.69
537.44	445.69
537.654	445.69
537.868	457.69
538.082	452.69
538.296	455.69
538.51	442.69
538.724	444.69
538.938	432.69
539.153	434.69
539.367	452.69
539.581	465.69
539.795	426.69
540.009	442.69
540.222	457.69
540.436	429.69
540.65	438.69
540.864	425.69
541.078	437.69
541.292	460.69
541.506	438.69
541.72	440.69
541.934	427.69
542.147	436.69
542.361	449.69
542.575	418.69
542.789	423.69
543.002	433.69
543.216	417.69
543.43	429.69
543.644	426.69
543.857	426.69
544.071	438.69
544.285	455.69
544.498	444.69
544.712	442.69
544.925	439.69
545.139	428.69
545.352	439.69
545.566	428.69
545.779	438.69
545.993	456.69
546.206	414.69
546.42	458.69
546.633	440.69
546.847	437.69
547.06	423.69
547.274	428.69
547.487	436.69
547.7	422.69
547.914	420.69
548.127	452.69
548.34	430.69
548.554	410.69
548.767	422.69
548.98	459.69
549.193	421.69
549.407	427.69
549.62	438.69
549.833	440.69
550.046	430.69
550.259	451.69
550.473	408.69
550.686	432.69
550.899	424.69
551.112	408.69
551.325	418.69
551.538	417.69
551.751	419.69
551.964	436.69
552.177	440.69
552.39	420.69
552.603	457.69
552.816	425.69
553.029	429.69
553.242	445.69
553.455	469.69
553.667	470.69
553.88	481.69
554.093	442.69
554.306	434.69
554.519	428.69
554.732	440.69
554.944	417.69
555.157	429.69
555.37	409.69
555.583	426.69
555.795	406.69
556.008	398.69
556.221	397.69
556.433	388.69
556.646	382.69
556.859	390.69
557.071	386.69
557.284	391.69
557.496	372.69
557.709	388.69
557.921	385.69
558.134	384.69
558.346	370.69
558.559	378.69
558.771	369.69
558.984	381.69
559.196	376.69
559.409	356.69
559.621	375.69
559.833	362.69
560.046	368.69
560.258	372.69
560.47	373.69
560.683	359.69
560.895	366.69
561.107	372.69
561.32	380.69
561.532	366.69
561.744	374.69
561.956	364.69
562.168	376.69
562.381	392.69
562.593	376.69
562.805	377.69
563.017	382.69
563.229	389.69
563.441	381.69
563.653	387.69
563.865	382.69
564.077	380.69
564.289	403.69
564.501	383.69
564.713	396.69
564.925	401.69
565.137	437.69
565.349	420.69
565.561	420.69
565.773	443.69
565.985	444.69
566.197	454.69
566.408	454.69
566.62	491.69
566.832	510.69
567.044	521.69
567.255	505.69
567.467	535.69
567.679	534.69
567.891	564.69
568.102	571.69
568.314	534.69
568.526	513.69
568.737	500.69
568.949	468.69
569.161	453.69
569.372	449.69
569.584	405.69
569.795	398.69
570.007	404.69
570.218	408.69
570.43	438.69
570.641	388.69
570.853	391.69
571.064	382.69
571.276	401.69
571.487	402.69
571.698	377.69
571.91	352.69
572.121	364.69
572.333	378.69
572.544	356.69
572.755	362.69
572.966	357.69
573.178	347.69
573.389	330.69
573.6	319.69
573.811	333.69
574.023	307.69
574.234	341.69
574.445	323.69
574.656	345.69
574.867	333.69
575.078	335.69
575.289	316.69
575.501	332.69
575.712	327.69
575.923	318.69
576.134	310.69
576.345	308.69
576.556	293.69
576.767	318.69
576.978	311.69
577.188	320.69
577.399	315.69
577.61	338.69
577.821	311.69
578.032	322.69
578.243	334.69
578.454	500.69
578.665	365.69
578.875	301.69
579.086	300.69
579.297	310.69
579.508	321.69
579.718	315.69
579.929	321.69
580.14	288.69
580.35	312.69
580.561	300.69
580.772	303.69
580.982	323.69
581.193	299.69
581.403	292.69
581.614	297.69
581.825	311.69
582.035	282.69
582.246	310.69
582.456	292.69
582.667	298.69
582.877	297.69
583.087	307.69
583.298	291.69
583.508	283.69
583.719	285.69
583.929	283.69
584.139	283.69
584.35	287.69
584.56	291.69
584.77	294.69
584.981	308.69
585.191	304.69
585.401	284.69
585.611	284.69
585.821	289.69
586.032	289.69
586.242	263.69
586.452	292.69
586.662	283.69
586.872	274.69
587.082	274.69
587.292	280.69
587.502	289.69
587.713	286.69
587.923	289.69
588.133	269.69
588.343	303.69
588.553	306.69
588.762	302.69
588.972	301.69
589.182	314.69
589.392	310.69
589.602	304.69
589.812	321.69
590.022	304.69
590.232	273.69
590.441	295.69
590.651	297.69
590.861	288.69
591.071	293.69
591.281	291.69
591.49	285.69
591.7	290.69
591.91	303.69
592.119	287.69
592.329	300.69
592.539	317.69
592.748	341.69
592.958	327.69
593.167	333.69
593.377	327.69
593.587	325.69
593.796	314.69
594.006	323.69
594.215	329.69
594.424	328.69
594.634	334.69
594.843	324.69
595.053	323.69
595.262	304.69
595.472	295.69
595.681	286.69
595.89	310.69
596.1	295.69
596.309	272.69
596.518	272.69
596.727	276.69
596.937	270.69
597.146	268.69
597.355	276.69
597.564	268.69
597.774	265.69
597.983	267.69
598.192	260.69
598.401	260.69
598.61	272.69
598.819	264.69
599.028	260.69
599.237	258.69
599.446	243.69
599.655	251.69
599.864	260.69
600.073	254.69
600.282	256.69
600.491	244.69
600.7	262.69
600.909	237.69
601.118	242.69
601.327	258.69
601.536	242.69
601.745	253.69
601.953	243.69
602.162	243.69
602.371	248.69
602.58	244.69
602.789	240.69
602.997	232.69
603.206	255.69
603.415	246.69
603.623	241.69
603.832	247.69
604.041	237.69
604.249	246.69
604.458	240.69
604.666	241.69
604.875	244.69
605.084	241.69
605.292	231.69
605.501	226.69
605.709	235.69
605.918	235.69
606.126	221.69
606.334	248.69
606.543	252.69
606.751	236.69
606.96	210.69
607.168	229.69
607.376	229.69
607.585	221.69
607.793	241.69
608.001	233.69
608.21	226.69
608.418	212.69
608.626	244.69
608.834	238.69
609.043	231.69
609.251	234.69
609.459	231.69
609.667	228.69
609.875	225.69
610.083	233.69
610.291	227.69
610.499	237.69
610.707	229.69
610.916	227.69
611.124	253.69
611.332	214.69
611.54	241.69
611.748	247.69
611.955	240.69
612.163	258.69
612.371	231.69
612.579	216.69
612.787	256.69
612.995	224.69
613.203	222.69
613.411	227.69
613.618	222.69
613.826	237.69
614.034	220.69
614.242	219.69
614.449	230.69
614.657	203.69
614.865	222.69
615.072	247.69
615.28	233.69
615.488	213.69
615.695	219.69
615.903	233.69
616.111	235.69
616.318	220.69
616.526	233.69
616.733	240.69
616.941	216.69
617.148	229.69
617.356	244.69
617.563	220.69
617.771	225.69
617.978	233.69
618.185	222.69
618.393	233.69
618.6	215.69
618.807	230.69
619.015	224.69
619.222	215.69
619.429	236.69
619.637	237.69
619.844	209.69
620.051	216.69
620.258	221.69
620.466	209.69
620.673	220.69
620.88	221.69
621.087	223.69
621.294	222.69
621.501	221.69
621.708	214.69
621.915	216.69
622.122	210.69
622.329	218.69
622.536	217.69
622.743	228.69
622.95	215.69
623.157	224.69
623.364	215.69
623.571	214.69
623.778	217.69
623.985	228.69
624.192	196.69
624.399	196.69
624.606	205.69
624.812	217.69
625.019	207.69
625.226	180.69
625.433	213.69
625.639	196.69
625.846	206.69
626.053	196.69
626.259	192.69
626.466	207.69
626.673	196.69
626.879	198.69
627.086	199.69
627.293	211.69
627.499	205.69
627.706	200.69
627.912	190.69
628.119	205.69
628.325	198.69
628.532	192.69
628.738	174.69
628.945	192.69
629.151	201.69
629.357	198.69
629.564	198.69
629.77	198.69
629.976	198.69
630.183	177.69
630.389	173.69
630.595	206.69
630.802	185.69
631.008	192.69
631.214	167.69
631.42	183.69
631.627	192.69
631.833	185.69
632.039	192.69
632.245	190.69
632.451	185.69
632.657	196.69
632.863	185.69
633.069	182.69
633.275	185.69
633.481	180.69
633.688	194.69
633.893	168.69
634.099	166.69
634.305	186.69
634.511	180.69
634.717	165.69
634.923	196.69
635.129	185.69
635.335	158.69
635.541	179.69
635.747	166.69
635.952	194.69
636.158	186.69
636.364	176.69
636.57	176.69
636.775	170.69
636.981	173.69
637.187	171.69
637.392	176.69
637.598	160.69
637.804	164.69
638.009	185.69
638.215	176.69
638.421	173.69
638.626	162.69
638.832	182.69
639.037	168.69
639.243	180.69
639.448	167.69
639.654	188.69
639.859	187.69
640.065	169.69
640.27	171.69
640.475	175.69
640.681	168.69
640.886	164.69
641.091	179.69
641.297	187.69
641.502	166.69
641.707	146.69
641.913	162.69
642.118	174.69
642.323	165.69
642.528	168.69
642.733	150.69
642.939	154.69
643.144	162.69
643.349	162.69
643.554	184.69
643.759	166.69
643.964	171.69
644.169	159.69
644.374	153.69
644.579	155.69
644.784	159.69
644.989	171.69
645.194	153.69
645.399	167.69
645.604	162.69
645.809	148.69
646.014	164.69
646.219	169.69
646.423	170.69
646.628	168.69
646.833	155.69
647.038	168.69
647.243	160.69
647.447	158.69
647.652	168.69
647.857	161.69
648.062	170.69
648.266	175.69
648.471	167.69
648.676	169.69
648.88	184.69
649.085	173.69
649.289	160.69
649.494	186.69
649.698	186.69
649.903	173.69
650.107	173.69
650.312	160.69
650.516	160.69
650.721	141.69
650.925	153.69
651.13	151.69
651.334	162.69
651.539	168.69
651.743	143.69
651.947	145.69
652.152	154.69
652.356	146.69
652.56	137.69
652.764	141.69
652.969	144.69
653.173	140.69
653.377	134.69
653.581	128.69
653.785	114.69
653.99	145.69
654.194	139.69
654.398	144.69
654.602	137.69
654.806	129.69
655.01	148.69
655.214	146.69
655.418	143.69
655.622	130.69
655.826	142.69
656.03	129.69
656.234	146.69
656.438	138.69
656.642	150.69
656.846	136.69
657.049	121.69
657.253	129.69
657.457	112.69
657.661	114.69
657.865	117.69
658.068	120.69
658.272	113.69
658.476	106.69
658.68	123.69
658.883	107.69
659.087	104.69
659.291	103.69
659.494	107.69
659.698	101.69
659.901	86.69
660.105	85.69
660.309	99.69
660.512	82.69
660.716	91.69
660.919	85.69
661.123	89.69
661.326	73.69
661.53	93.69
661.733	100.69
661.936	83.69
662.14	88.69
662.343	87.69
662.546	83.69
662.75	83.69
662.953	85.69
663.156	85.69
663.36	82.69
663.563	81.69
663.766	86.69
663.969	89.69
664.173	94.69
664.376	91.69
664.579	80.69
664.782	92.69
664.985	90.69
665.188	100.69
665.391	82.69
665.594	89.69
665.797	78.69
666	72.69
666.203	85.69
666.406	74.69
666.609	76.69
666.812	78.69
667.015	74.69
667.218	88.69
667.421	74.69
667.624	60.69
667.827	84.69
668.03	84.69
668.232	82.69
668.435	78.69
668.638	88.69
668.841	82.69
669.043	85.69
669.246	90.69
669.449	81.69
669.651	70.69
669.854	96.69
670.057	92.69
670.259	67.69
670.462	78.69
670.665	81.69
670.867	91.69
671.07	88.69
671.272	85.69
671.475	93.69
671.677	81.69
671.88	71.69
672.082	74.69
672.284	75.69
672.487	82.69
672.689	82.69
672.892	82.69
