Data from 1985.PennyLincolnUp.Lamp.En5.5.200Scan.071819.P1_HRD10591_17-01-58-970.txt Node
Date: Thu Jul 18 17:01:58 EDT 2019
User: cochatt
Spectrometer: HR+D1059
Trigger mode: 1
Integration Time (sec): 1.000000E-1
Scans to average: 1
Electric dark correction enabled: true
Nonlinearity correction enabled: false
Boxcar width: 0
XAxis mode: Wavelengths
Number of Pixels in Spectrum: 2048
>>>>>Begin Spectral Data<<<<<
223.165	-10.12
223.4	-10.12
223.635	-10.12
223.869	-28.12
224.104	-20.12
224.338	-20.12
224.573	-19.12
224.808	-11.12
225.042	-9.12
225.277	-11.12
225.511	7.88
225.746	-5.12
225.98	4.88
226.215	6.88
226.449	17.88
226.683	23.88
226.918	30.88
227.152	41.88
227.387	25.88
227.621	40.88
227.856	53.88
228.09	39.88
228.324	59.88
228.559	62.88
228.793	71.88
229.027	94.88
229.262	88.88
229.496	105.88
229.73	127.88
229.964	137.88
230.199	114.88
230.433	119.88
230.667	115.88
230.901	101.88
231.136	115.88
231.37	108.88
231.604	114.88
231.838	117.88
232.072	111.88
232.306	117.88
232.541	122.88
232.775	117.88
233.009	119.88
233.243	107.88
233.477	98.88
233.711	103.88
233.945	124.88
234.179	115.88
234.413	119.88
234.647	114.88
234.881	116.88
235.115	118.88
235.349	103.88
235.583	108.88
235.817	122.88
236.051	120.88
236.285	127.88
236.519	134.88
236.753	127.88
236.987	136.88
237.221	176.88
237.455	195.88
237.689	181.88
237.922	140.88
238.156	130.88
238.39	136.88
238.624	111.88
238.858	121.88
239.091	109.88
239.325	128.88
239.559	129.88
239.793	121.88
240.027	133.88
240.26	140.88
240.494	137.88
240.728	143.88
240.961	139.88
241.195	141.88
241.429	135.88
241.662	135.88
241.896	147.88
242.13	126.88
242.363	119.88
242.597	140.88
242.83	137.88
243.064	133.88
243.298	142.88
243.531	125.88
243.765	128.88
243.998	141.88
244.232	139.88
244.465	147.88
244.699	137.88
244.932	150.88
245.166	135.88
245.399	140.88
245.633	138.88
245.866	152.88
246.099	153.88
246.333	149.88
246.566	142.88
246.8	152.88
247.033	156.88
247.266	171.88
247.5	144.88
247.733	178.88
247.966	170.88
248.2	172.88
248.433	184.88
248.666	175.88
248.899	173.88
249.133	181.88
249.366	209.88
249.599	182.88
249.832	170.88
250.066	181.88
250.299	165.88
250.532	168.88
250.765	206.88
250.998	221.88
251.231	214.88
251.465	180.88
251.698	173.88
251.931	201.88
252.164	184.88
252.397	195.88
252.63	206.88
252.863	189.88
253.096	201.88
253.329	218.88
253.562	207.88
253.795	191.88
254.028	218.88
254.261	187.88
254.494	217.88
254.727	245.88
254.96	261.88
255.193	249.88
255.426	222.88
255.659	203.88
255.892	211.88
256.124	204.88
256.357	190.88
256.59	205.88
256.823	191.88
257.056	195.88
257.289	197.88
257.521	194.88
257.754	195.88
257.987	198.88
258.22	195.88
258.452	206.88
258.685	211.88
258.918	215.88
259.151	199.88
259.383	223.88
259.616	197.88
259.849	222.88
260.081	226.88
260.314	249.88
260.547	231.88
260.779	223.88
261.012	236.88
261.244	231.88
261.477	226.88
261.71	217.88
261.942	212.88
262.175	234.88
262.407	229.88
262.64	213.88
262.872	198.88
263.105	221.88
263.337	216.88
263.57	200.88
263.802	222.88
264.035	213.88
264.267	213.88
264.499	212.88
264.732	196.88
264.964	221.88
265.197	222.88
265.429	206.88
265.661	228.88
265.894	199.88
266.126	221.88
266.358	211.88
266.591	219.88
266.823	234.88
267.055	223.88
267.287	232.88
267.52	231.88
267.752	221.88
267.984	237.88
268.216	229.88
268.448	243.88
268.681	246.88
268.913	244.88
269.145	279.88
269.377	268.88
269.609	268.88
269.841	265.88
270.073	262.88
270.306	283.88
270.538	307.88
270.77	301.88
271.002	307.88
271.234	278.88
271.466	301.88
271.698	305.88
271.93	300.88
272.162	302.88
272.394	301.88
272.626	285.88
272.858	265.88
273.09	286.88
273.322	292.88
273.553	248.88
273.785	262.88
274.017	242.88
274.249	257.88
274.481	242.88
274.713	264.88
274.945	270.88
275.176	263.88
275.408	275.88
275.64	262.88
275.872	259.88
276.104	289.88
276.335	284.88
276.567	262.88
276.799	271.88
277.031	291.88
277.262	316.88
277.494	315.88
277.726	305.88
277.957	276.88
278.189	282.88
278.421	267.88
278.652	266.88
278.884	271.88
279.115	250.88
279.347	269.88
279.579	278.88
279.81	279.88
280.042	286.88
280.273	277.88
280.505	291.88
280.736	277.88
280.968	276.88
281.199	280.88
281.431	271.88
281.662	267.88
281.894	274.88
282.125	280.88
282.356	288.88
282.588	309.88
282.819	289.88
283.051	293.88
283.282	286.88
283.513	271.88
283.745	274.88
283.976	292.88
284.207	306.88
284.439	313.88
284.67	294.88
284.901	275.88
285.132	288.88
285.364	291.88
285.595	310.88
285.826	270.88
286.057	294.88
286.288	303.88
286.52	299.88
286.751	300.88
286.982	286.88
287.213	295.88
287.444	314.88
287.675	324.88
287.906	307.88
288.138	329.88
288.369	321.88
288.6	301.88
288.831	286.88
289.062	319.88
289.293	314.88
289.524	318.88
289.755	308.88
289.986	310.88
290.217	315.88
290.448	316.88
290.679	316.88
290.91	302.88
291.141	306.88
291.371	295.88
291.602	311.88
291.833	310.88
292.064	325.88
292.295	319.88
292.526	283.88
292.757	301.88
292.987	280.88
293.218	299.88
293.449	311.88
293.68	315.88
293.91	308.88
294.141	315.88
294.372	306.88
294.603	313.88
294.833	327.88
295.064	301.88
295.295	305.88
295.525	334.88
295.756	335.88
295.987	321.88
296.217	356.88
296.448	357.88
296.679	327.88
296.909	323.88
297.14	325.88
297.37	318.88
297.601	327.88
297.831	325.88
298.062	326.88
298.292	316.88
298.523	330.88
298.753	318.88
298.984	332.88
299.214	329.88
299.445	334.88
299.675	332.88
299.905	350.88
300.136	320.88
300.366	335.88
300.597	324.88
300.827	351.88
301.057	336.88
301.288	361.88
301.518	361.88
301.748	324.88
301.979	330.88
302.209	355.88
302.439	354.88
302.669	348.88
302.9	345.88
303.13	334.88
303.36	349.88
303.59	371.88
303.82	379.88
304.051	373.88
304.281	359.88
304.511	350.88
304.741	355.88
304.971	360.88
305.201	357.88
305.431	376.88
305.661	353.88
305.891	371.88
306.121	375.88
306.352	346.88
306.582	355.88
306.812	346.88
307.042	371.88
307.272	360.88
307.502	337.88
307.731	373.88
307.961	356.88
308.191	367.88
308.421	358.88
308.651	360.88
308.881	352.88
309.111	373.88
309.341	363.88
309.571	365.88
309.8	359.88
310.03	372.88
310.26	383.88
310.49	374.88
310.72	390.88
310.949	406.88
311.179	403.88
311.409	419.88
311.639	403.88
311.868	399.88
312.098	411.88
312.328	383.88
312.557	408.88
312.787	417.88
313.017	424.88
313.246	398.88
313.476	385.88
313.706	405.88
313.935	395.88
314.165	412.88
314.394	427.88
314.624	432.88
314.853	394.88
315.083	406.88
315.312	405.88
315.542	389.88
315.771	380.88
316.001	388.88
316.23	401.88
316.46	384.88
316.689	386.88
316.919	385.88
317.148	398.88
317.377	415.88
317.607	407.88
317.836	415.88
318.065	394.88
318.295	409.88
318.524	386.88
318.753	381.88
318.983	396.88
319.212	404.88
319.441	387.88
319.67	400.88
319.9	402.88
320.129	395.88
320.358	399.88
320.587	415.88
320.816	399.88
321.046	426.88
321.275	421.88
321.504	400.88
321.733	426.88
321.962	424.88
322.191	418.88
322.42	420.88
322.649	455.88
322.878	425.88
323.108	460.88
323.337	465.88
323.566	507.88
323.795	527.88
324.024	563.88
324.253	638.88
324.482	870.88
324.71	1257.88
324.939	1838.88
325.168	1553.88
325.397	839.88
325.626	621.88
325.855	526.88
326.084	502.88
326.313	503.88
326.542	493.88
326.77	535.88
326.999	601.88
327.228	781.88
327.457	1165.88
327.686	1355.88
327.914	932.88
328.143	662.88
328.372	608.88
328.6	561.88
328.829	539.88
329.058	562.88
329.287	539.88
329.515	519.88
329.744	499.88
329.972	512.88
330.201	485.88
330.43	523.88
330.658	547.88
330.887	588.88
331.115	549.88
331.344	507.88
331.572	509.88
331.801	477.88
332.03	519.88
332.258	484.88
332.486	449.88
332.715	470.88
332.943	476.88
333.172	483.88
333.4	485.88
333.629	503.88
333.857	499.88
334.085	528.88
334.314	527.88
334.542	493.88
334.771	504.88
334.999	496.88
335.227	493.88
335.455	491.88
335.684	470.88
335.912	500.88
336.14	460.88
336.369	455.88
336.597	476.88
336.825	460.88
337.053	475.88
337.281	453.88
337.51	462.88
337.738	471.88
337.966	479.88
338.194	454.88
338.422	448.88
338.65	470.88
338.878	447.88
339.106	454.88
339.334	452.88
339.562	457.88
339.79	442.88
340.018	453.88
340.246	421.88
340.474	463.88
340.702	443.88
340.93	459.88
341.158	454.88
341.386	443.88
341.614	447.88
341.842	436.88
342.07	437.88
342.298	444.88
342.526	445.88
342.754	426.88
342.981	462.88
343.209	442.88
343.437	434.88
343.665	466.88
343.893	478.88
344.12	475.88
344.348	480.88
344.576	460.88
344.804	458.88
345.031	472.88
345.259	493.88
345.487	450.88
345.714	454.88
345.942	423.88
346.17	434.88
346.397	406.88
346.625	427.88
346.853	426.88
347.08	419.88
347.308	409.88
347.535	445.88
347.763	437.88
347.99	409.88
348.218	428.88
348.445	444.88
348.673	422.88
348.9	450.88
349.128	423.88
349.355	418.88
349.583	411.88
349.81	411.88
350.037	451.88
350.265	401.88
350.492	426.88
350.72	408.88
350.947	406.88
351.174	444.88
351.402	430.88
351.629	422.88
351.856	413.88
352.083	423.88
352.311	433.88
352.538	423.88
352.765	443.88
352.992	418.88
353.22	423.88
353.447	429.88
353.674	421.88
353.901	412.88
354.128	399.88
354.355	401.88
354.583	416.88
354.81	396.88
355.037	404.88
355.264	405.88
355.491	394.88
355.718	389.88
355.945	379.88
356.172	378.88
356.399	416.88
356.626	391.88
356.853	407.88
357.08	404.88
357.307	389.88
357.534	389.88
357.761	386.88
357.988	405.88
358.215	387.88
358.441	378.88
358.668	398.88
358.895	424.88
359.122	417.88
359.349	412.88
359.576	417.88
359.802	442.88
360.029	446.88
360.256	466.88
360.483	430.88
360.709	431.88
360.936	415.88
361.163	407.88
361.39	406.88
361.616	395.88
361.843	409.88
362.07	425.88
362.296	429.88
362.523	426.88
362.749	422.88
362.976	412.88
363.203	430.88
363.429	407.88
363.656	395.88
363.882	411.88
364.109	424.88
364.335	400.88
364.562	400.88
364.788	387.88
365.015	406.88
365.241	398.88
365.468	385.88
365.694	414.88
365.92	419.88
366.147	428.88
366.373	417.88
366.599	395.88
366.826	406.88
367.052	421.88
367.278	406.88
367.505	413.88
367.731	410.88
367.957	417.88
368.184	419.88
368.41	410.88
368.636	408.88
368.862	401.88
369.089	403.88
369.315	413.88
369.541	397.88
369.767	413.88
369.993	402.88
370.219	402.88
370.445	403.88
370.672	391.88
370.898	385.88
371.124	406.88
371.35	394.88
371.576	403.88
371.802	409.88
372.028	411.88
372.254	399.88
372.48	424.88
372.706	418.88
372.932	405.88
373.158	413.88
373.384	399.88
373.61	416.88
373.835	399.88
374.061	390.88
374.287	398.88
374.513	411.88
374.739	410.88
374.965	414.88
375.191	434.88
375.416	417.88
375.642	419.88
375.868	403.88
376.094	409.88
376.319	410.88
376.545	407.88
376.771	394.88
376.997	422.88
377.222	382.88
377.448	402.88
377.674	414.88
377.899	393.88
378.125	410.88
378.35	375.88
378.576	390.88
378.802	395.88
379.027	393.88
379.253	413.88
379.478	397.88
379.704	409.88
379.929	411.88
380.155	402.88
380.38	421.88
380.606	383.88
380.831	421.88
381.057	418.88
381.282	424.88
381.507	400.88
381.733	425.88
381.958	411.88
382.184	427.88
382.409	427.88
382.634	412.88
382.86	429.88
383.085	428.88
383.31	434.88
383.535	423.88
383.761	428.88
383.986	434.88
384.211	445.88
384.436	421.88
384.662	428.88
384.887	467.88
385.112	421.88
385.337	440.88
385.562	453.88
385.787	456.88
386.013	466.88
386.238	459.88
386.463	452.88
386.688	448.88
386.913	451.88
387.138	445.88
387.363	455.88
387.588	454.88
387.813	447.88
388.038	460.88
388.263	450.88
388.488	454.88
388.713	441.88
388.938	439.88
389.163	442.88
389.387	438.88
389.612	433.88
389.837	437.88
390.062	444.88
390.287	454.88
390.512	449.88
390.736	438.88
390.961	439.88
391.186	447.88
391.411	455.88
391.636	474.88
391.86	455.88
392.085	454.88
392.31	500.88
392.534	490.88
392.759	463.88
392.984	456.88
393.208	465.88
393.433	472.88
393.658	458.88
393.882	445.88
394.107	441.88
394.331	447.88
394.556	452.88
394.78	429.88
395.005	455.88
395.229	457.88
395.454	478.88
395.678	469.88
395.903	504.88
396.127	510.88
396.352	491.88
396.576	472.88
396.801	471.88
397.025	470.88
397.249	485.88
397.474	473.88
397.698	501.88
397.922	499.88
398.147	523.88
398.371	516.88
398.595	500.88
398.82	505.88
399.044	536.88
399.268	571.88
399.492	620.88
399.717	653.88
399.941	655.88
400.165	672.88
400.389	659.88
400.613	587.88
400.837	547.88
401.062	530.88
401.286	526.88
401.51	527.88
401.734	524.88
401.958	520.88
402.182	521.88
402.406	526.88
402.63	549.88
402.854	539.88
403.078	545.88
403.302	545.88
403.526	558.88
403.75	555.88
403.974	555.88
404.198	539.88
404.422	554.88
404.645	572.88
404.869	540.88
405.093	543.88
405.317	578.88
405.541	609.88
405.765	565.88
405.988	577.88
406.212	563.88
406.436	567.88
406.66	597.88
406.883	596.88
407.107	619.88
407.331	665.88
407.555	712.88
407.778	691.88
408.002	631.88
408.226	628.88
408.449	607.88
408.673	597.88
408.896	599.88
409.12	657.88
409.344	615.88
409.567	578.88
409.791	554.88
410.014	562.88
410.238	531.88
410.461	541.88
410.685	533.88
410.908	564.88
411.132	586.88
411.355	612.88
411.578	556.88
411.802	524.88
412.025	516.88
412.249	514.88
412.472	522.88
412.695	521.88
412.919	525.88
413.142	511.88
413.365	507.88
413.589	522.88
413.812	520.88
414.035	495.88
414.258	493.88
414.482	501.88
414.705	504.88
414.928	518.88
415.151	505.88
415.374	494.88
415.597	513.88
415.821	483.88
416.044	526.88
416.267	512.88
416.49	502.88
416.713	511.88
416.936	507.88
417.159	521.88
417.382	528.88
417.605	483.88
417.828	525.88
418.051	522.88
418.274	533.88
418.497	506.88
418.72	484.88
418.943	499.88
419.166	526.88
419.389	563.88
419.611	529.88
419.834	526.88
420.057	517.88
420.28	524.88
420.503	489.88
420.726	496.88
420.948	527.88
421.171	545.88
421.394	590.88
421.617	545.88
421.839	523.88
422.062	528.88
422.285	514.88
422.507	581.88
422.73	648.88
422.953	593.88
423.175	563.88
423.398	550.88
423.621	518.88
423.843	553.88
424.066	550.88
424.288	542.88
424.511	568.88
424.733	590.88
424.956	698.88
425.178	619.88
425.401	630.88
425.623	665.88
425.846	601.88
426.068	537.88
426.291	535.88
426.513	536.88
426.735	505.88
426.958	564.88
427.18	628.88
427.402	749.88
427.625	822.88
427.847	699.88
428.069	603.88
428.292	549.88
428.514	526.88
428.736	512.88
428.958	492.88
429.181	490.88
429.403	511.88
429.625	494.88
429.847	537.88
430.069	576.88
430.292	584.88
430.514	508.88
430.736	487.88
430.958	479.88
431.18	487.88
431.402	490.88
431.624	455.88
431.846	476.88
432.068	468.88
432.29	469.88
432.512	471.88
432.734	493.88
432.956	510.88
433.178	478.88
433.4	475.88
433.622	483.88
433.844	506.88
434.066	473.88
434.287	481.88
434.509	463.88
434.731	514.88
434.953	527.88
435.175	533.88
435.397	546.88
435.618	533.88
435.84	581.88
436.062	657.88
436.284	699.88
436.505	585.88
436.727	555.88
436.949	521.88
437.17	515.88
437.392	481.88
437.614	507.88
437.835	529.88
438.057	600.88
438.278	680.88
438.5	682.88
438.721	749.88
438.943	691.88
439.165	564.88
439.386	532.88
439.608	535.88
439.829	534.88
440.05	566.88
440.272	613.88
440.493	567.88
440.715	521.88
440.936	517.88
441.158	512.88
441.379	519.88
441.6	536.88
441.822	558.88
442.043	581.88
442.264	639.88
442.486	679.88
442.707	624.88
442.928	553.88
443.149	545.88
443.371	586.88
443.592	613.88
443.813	685.88
444.034	740.88
444.255	635.88
444.476	579.88
444.698	565.88
444.919	571.88
445.14	662.88
445.361	633.88
445.582	583.88
445.803	635.88
446.024	693.88
446.245	737.88
446.466	643.88
446.687	574.88
446.908	550.88
447.129	494.88
447.35	471.88
447.571	491.88
447.792	496.88
448.013	501.88
448.234	509.88
448.455	559.88
448.675	649.88
448.896	753.88
449.117	623.88
449.338	567.88
449.559	681.88
449.779	755.88
450	622.88
450.221	539.88
450.442	488.88
450.662	473.88
450.883	491.88
451.104	514.88
451.324	510.88
451.545	469.88
451.766	465.88
451.986	445.88
452.207	434.88
452.428	440.88
452.648	450.88
452.869	445.88
453.089	482.88
453.31	457.88
453.53	449.88
453.751	458.88
453.971	448.88
454.192	441.88
454.412	452.88
454.633	441.88
454.853	413.88
455.073	417.88
455.294	458.88
455.514	530.88
455.734	490.88
455.955	447.88
456.175	439.88
456.395	418.88
456.616	415.88
456.836	425.88
457.056	436.88
457.276	419.88
457.497	426.88
457.717	430.88
457.937	429.88
458.157	436.88
458.377	435.88
458.598	466.88
458.818	497.88
459.038	565.88
459.258	596.88
459.478	517.88
459.698	497.88
459.918	505.88
460.138	492.88
460.358	523.88
460.578	517.88
460.798	524.88
461.018	523.88
461.238	519.88
461.458	519.88
461.678	497.88
461.898	499.88
462.118	527.88
462.338	552.88
462.558	527.88
462.777	547.88
462.997	577.88
463.217	607.88
463.437	600.88
463.657	571.88
463.876	554.88
464.096	563.88
464.316	556.88
464.536	549.88
464.755	554.88
464.975	542.88
465.195	563.88
465.414	637.88
465.634	551.88
465.854	492.88
466.073	499.88
466.293	477.88
466.512	472.88
466.732	474.88
466.951	471.88
467.171	466.88
467.391	471.88
467.61	473.88
467.829	469.88
468.049	459.88
468.268	457.88
468.488	463.88
468.707	454.88
468.927	450.88
469.146	426.88
469.365	438.88
469.585	441.88
469.804	467.88
470.023	460.88
470.243	462.88
470.462	481.88
470.681	497.88
470.901	491.88
471.12	463.88
471.339	462.88
471.558	461.88
471.777	457.88
471.997	447.88
472.216	467.88
472.435	461.88
472.654	467.88
472.873	445.88
473.092	464.88
473.311	467.88
473.53	466.88
473.749	453.88
473.968	478.88
474.187	568.88
474.406	598.88
474.625	509.88
474.844	477.88
475.063	472.88
475.282	468.88
475.501	449.88
475.72	467.88
475.939	478.88
476.158	481.88
476.377	475.88
476.596	465.88
476.814	483.88
477.033	497.88
477.252	492.88
477.471	503.88
477.69	517.88
477.908	505.88
478.127	511.88
478.346	518.88
478.564	528.88
478.783	534.88
479.002	529.88
479.22	547.88
479.439	539.88
479.658	550.88
479.876	566.88
480.095	580.88
480.313	608.88
480.532	586.88
480.751	594.88
480.969	591.88
481.188	561.88
481.406	557.88
481.624	554.88
481.843	532.88
482.061	542.88
482.28	523.88
482.498	525.88
482.717	503.88
482.935	519.88
483.153	527.88
483.372	524.88
483.59	537.88
483.808	535.88
484.027	543.88
484.245	532.88
484.463	524.88
484.681	529.88
484.9	556.88
485.118	538.88
485.336	551.88
485.554	545.88
485.772	558.88
485.99	550.88
486.209	545.88
486.427	553.88
486.645	566.88
486.863	564.88
487.081	563.88
487.299	589.88
487.517	599.88
487.735	567.88
487.953	582.88
488.171	551.88
488.389	570.88
488.607	580.88
488.825	577.88
489.043	568.88
489.261	563.88
489.479	574.88
489.696	587.88
489.914	579.88
490.132	582.88
490.35	576.88
490.568	589.88
490.786	606.88
491.003	627.88
491.221	612.88
491.439	602.88
491.657	617.88
491.874	611.88
492.092	638.88
492.31	627.88
492.527	603.88
492.745	637.88
492.963	627.88
493.18	626.88
493.398	654.88
493.615	630.88
493.833	649.88
494.05	649.88
494.268	642.88
494.485	659.88
494.703	662.88
494.92	651.88
495.138	669.88
495.355	655.88
495.573	665.88
495.79	655.88
496.008	661.88
496.225	684.88
496.442	654.88
496.66	669.88
496.877	675.88
497.094	706.88
497.312	694.88
497.529	698.88
497.746	716.88
497.963	705.88
498.181	793.88
498.398	756.88
498.615	783.88
498.832	805.88
499.049	812.88
499.267	856.88
499.484	918.88
499.701	959.88
499.918	989.88
500.135	1032.88
500.352	1117.88
500.569	1142.88
500.786	1141.88
501.003	1109.88
501.22	1038.88
501.437	1018.88
501.654	948.88
501.871	910.88
502.088	889.88
502.305	839.88
502.522	829.88
502.739	790.88
502.956	769.88
503.172	761.88
503.389	718.88
503.606	722.88
503.823	691.88
504.04	686.88
504.256	707.88
504.473	693.88
504.69	717.88
504.907	691.88
505.123	696.88
505.34	652.88
505.557	639.88
505.773	643.88
505.99	636.88
506.207	639.88
506.423	637.88
506.64	618.88
506.856	643.88
507.073	608.88
507.289	598.88
507.506	635.88
507.722	609.88
507.939	634.88
508.155	627.88
508.372	632.88
508.588	605.88
508.805	582.88
509.021	591.88
509.238	613.88
509.454	623.88
509.67	628.88
509.887	586.88
510.103	605.88
510.319	606.88
510.536	653.88
510.752	1085.88
510.968	875.88
511.184	633.88
511.401	588.88
511.617	556.88
511.833	550.88
512.049	554.88
512.265	558.88
512.481	556.88
512.698	566.88
512.914	566.88
513.13	562.88
513.346	571.88
513.562	546.88
513.778	543.88
513.994	581.88
514.21	574.88
514.426	595.88
514.642	619.88
514.858	651.88
515.074	682.88
515.29	759.88
515.506	1141.88
515.721	986.88
515.937	685.88
516.153	618.88
516.369	627.88
516.585	609.88
516.801	606.88
517.016	610.88
517.232	611.88
517.448	619.88
517.664	649.88
517.879	614.88
518.095	666.88
518.311	639.88
518.527	625.88
518.742	599.88
518.958	605.88
519.173	605.88
519.389	588.88
519.605	571.88
519.82	580.88
520.036	586.88
520.251	609.88
520.467	614.88
520.682	594.88
520.898	609.88
521.113	626.88
521.329	637.88
521.544	709.88
521.76	882.88
521.975	1425.88
522.19	1502.88
522.406	809.88
522.621	637.88
522.836	555.88
523.052	535.88
523.267	551.88
523.482	525.88
523.698	522.88
523.913	515.88
524.128	532.88
524.343	492.88
524.559	483.88
524.774	499.88
524.989	495.88
525.204	488.88
525.419	517.88
525.634	494.88
525.849	478.88
526.064	459.88
526.28	485.88
526.495	467.88
526.71	479.88
526.925	457.88
527.14	469.88
527.355	471.88
527.57	475.88
527.785	485.88
527.999	451.88
528.214	445.88
528.429	487.88
528.644	482.88
528.859	479.88
529.074	467.88
529.289	487.88
529.503	531.88
529.718	553.88
529.933	487.88
530.148	479.88
530.363	498.88
530.577	471.88
530.792	449.88
531.007	459.88
531.221	474.88
531.436	446.88
531.651	445.88
531.865	436.88
532.08	461.88
532.295	438.88
532.509	439.88
532.724	451.88
532.938	446.88
533.153	428.88
533.367	461.88
533.582	456.88
533.796	453.88
534.011	440.88
534.225	429.88
534.44	420.88
534.654	431.88
534.868	438.88
535.083	439.88
535.297	453.88
535.511	415.88
535.726	480.88
535.94	468.88
536.154	441.88
536.369	449.88
536.583	436.88
536.797	434.88
537.011	434.88
537.225	425.88
537.44	451.88
537.654	442.88
537.868	430.88
538.082	433.88
538.296	411.88
538.51	433.88
538.724	431.88
538.938	433.88
539.153	403.88
539.367	443.88
539.581	436.88
539.795	411.88
540.009	417.88
540.222	411.88
540.436	422.88
540.65	435.88
540.864	441.88
541.078	435.88
541.292	438.88
541.506	435.88
541.72	438.88
541.934	428.88
542.147	427.88
542.361	441.88
542.575	427.88
542.789	431.88
543.002	443.88
543.216	434.88
543.43	443.88
543.644	441.88
543.857	428.88
544.071	431.88
544.285	441.88
544.498	424.88
544.712	435.88
544.925	421.88
545.139	399.88
545.352	430.88
545.566	406.88
545.779	408.88
545.993	422.88
546.206	422.88
546.42	447.88
546.633	412.88
546.847	422.88
547.06	405.88
547.274	400.88
547.487	439.88
547.7	403.88
547.914	421.88
548.127	427.88
548.34	423.88
548.554	415.88
548.767	422.88
548.98	424.88
549.193	417.88
549.407	401.88
549.62	437.88
549.833	418.88
550.046	415.88
550.259	421.88
550.473	409.88
550.686	426.88
550.899	405.88
551.112	412.88
551.325	408.88
551.538	403.88
551.751	415.88
551.964	417.88
552.177	430.88
552.39	409.88
552.603	435.88
552.816	448.88
553.029	426.88
553.242	437.88
553.455	431.88
553.667	447.88
553.88	445.88
554.093	430.88
554.306	441.88
554.519	423.88
554.732	430.88
554.944	397.88
555.157	401.88
555.37	403.88
555.583	396.88
555.795	386.88
556.008	394.88
556.221	389.88
556.433	375.88
556.646	365.88
556.859	373.88
557.071	383.88
557.284	358.88
557.496	365.88
557.709	382.88
557.921	372.88
558.134	378.88
558.346	360.88
558.559	369.88
558.771	367.88
558.984	353.88
559.196	376.88
559.409	350.88
559.621	375.88
559.833	366.88
560.046	359.88
560.258	359.88
560.47	357.88
560.683	351.88
560.895	354.88
561.107	364.88
561.32	361.88
561.532	352.88
561.744	373.88
561.956	375.88
562.168	377.88
562.381	367.88
562.593	381.88
562.805	380.88
563.017	373.88
563.229	391.88
563.441	376.88
563.653	372.88
563.865	371.88
564.077	364.88
564.289	383.88
564.501	399.88
564.713	398.88
564.925	399.88
565.137	416.88
565.349	410.88
565.561	405.88
565.773	425.88
565.985	427.88
566.197	434.88
566.408	460.88
566.62	449.88
566.832	458.88
567.044	492.88
567.255	492.88
567.467	513.88
567.679	518.88
567.891	531.88
568.102	531.88
568.314	546.88
568.526	493.88
568.737	497.88
568.949	430.88
569.161	441.88
569.372	412.88
569.584	407.88
569.795	408.88
570.007	390.88
570.218	415.88
570.43	434.88
570.641	400.88
570.853	371.88
571.064	364.88
571.276	363.88
571.487	371.88
571.698	350.88
571.91	345.88
572.121	345.88
572.333	359.88
572.544	353.88
572.755	353.88
572.966	348.88
573.178	329.88
573.389	315.88
573.6	322.88
573.811	327.88
574.023	328.88
574.234	309.88
574.445	321.88
574.656	329.88
574.867	336.88
575.078	327.88
575.289	322.88
575.501	333.88
575.712	326.88
575.923	319.88
576.134	309.88
576.345	313.88
576.556	314.88
576.767	314.88
576.978	308.88
577.188	312.88
577.399	313.88
577.61	306.88
577.821	322.88
578.032	316.88
578.243	343.88
578.454	528.88
578.665	382.88
578.875	335.88
579.086	309.88
579.297	302.88
579.508	300.88
579.718	308.88
579.929	292.88
580.14	300.88
580.35	284.88
580.561	299.88
580.772	285.88
580.982	269.88
581.193	292.88
581.403	302.88
581.614	297.88
581.825	283.88
582.035	251.88
582.246	296.88
582.456	302.88
582.667	312.88
582.877	290.88
583.087	306.88
583.298	282.88
583.508	283.88
583.719	292.88
583.929	299.88
584.139	292.88
584.35	286.88
584.56	300.88
584.77	272.88
584.981	292.88
585.191	286.88
585.401	273.88
585.611	283.88
585.821	275.88
586.032	281.88
586.242	289.88
586.452	280.88
586.662	291.88
586.872	279.88
587.082	280.88
587.292	271.88
587.502	281.88
587.713	252.88
587.923	271.88
588.133	267.88
588.343	283.88
588.553	279.88
588.762	291.88
588.972	294.88
589.182	307.88
589.392	301.88
589.602	271.88
589.812	277.88
590.022	283.88
590.232	262.88
590.441	284.88
590.651	279.88
590.861	275.88
591.071	281.88
591.281	292.88
591.49	289.88
591.7	276.88
591.91	292.88
592.119	284.88
592.329	272.88
592.539	294.88
592.748	294.88
592.958	306.88
593.167	313.88
593.377	292.88
593.587	314.88
593.796	311.88
594.006	303.88
594.215	327.88
594.424	312.88
594.634	304.88
594.843	300.88
595.053	303.88
595.262	295.88
595.472	276.88
595.681	288.88
595.89	286.88
596.1	277.88
596.309	279.88
596.518	290.88
596.727	274.88
596.937	260.88
597.146	251.88
597.355	269.88
597.564	267.88
597.774	259.88
597.983	247.88
598.192	259.88
598.401	246.88
598.61	262.88
598.819	269.88
599.028	245.88
599.237	240.88
599.446	246.88
599.655	242.88
599.864	233.88
600.073	223.88
600.282	238.88
600.491	241.88
600.7	239.88
600.909	254.88
601.118	238.88
601.327	256.88
601.536	221.88
601.745	243.88
601.953	243.88
602.162	245.88
602.371	243.88
602.58	228.88
602.789	247.88
602.997	243.88
603.206	237.88
603.415	238.88
603.623	237.88
603.832	237.88
604.041	226.88
604.249	222.88
604.458	249.88
604.666	226.88
604.875	219.88
605.084	236.88
605.292	243.88
605.501	222.88
605.709	215.88
605.918	236.88
606.126	229.88
606.334	213.88
606.543	232.88
606.751	225.88
606.96	227.88
607.168	221.88
607.376	213.88
607.585	215.88
607.793	219.88
608.001	222.88
608.21	216.88
608.418	237.88
608.626	226.88
608.834	205.88
609.043	219.88
609.251	219.88
609.459	218.88
609.667	227.88
609.875	223.88
610.083	219.88
610.291	222.88
610.499	222.88
610.707	229.88
610.916	226.88
611.124	247.88
611.332	222.88
611.54	234.88
611.748	225.88
611.955	220.88
612.163	221.88
612.371	217.88
612.579	226.88
612.787	219.88
612.995	236.88
613.203	227.88
613.411	232.88
613.618	217.88
613.826	236.88
614.034	213.88
614.242	215.88
614.449	230.88
614.657	207.88
614.865	229.88
615.072	227.88
615.28	227.88
615.488	225.88
615.695	210.88
615.903	224.88
616.111	237.88
616.318	249.88
616.526	217.88
616.733	225.88
616.941	225.88
617.148	214.88
617.356	227.88
617.563	230.88
617.771	208.88
617.978	217.88
618.185	225.88
618.393	221.88
618.6	231.88
618.807	209.88
619.015	206.88
619.222	214.88
619.429	203.88
619.637	211.88
619.844	204.88
620.051	213.88
620.258	221.88
620.466	214.88
620.673	185.88
620.88	184.88
621.087	195.88
621.294	208.88
621.501	218.88
621.708	209.88
621.915	192.88
622.122	211.88
622.329	205.88
622.536	210.88
622.743	208.88
622.95	193.88
623.157	214.88
623.364	194.88
623.571	207.88
623.778	212.88
623.985	211.88
624.192	202.88
624.399	204.88
624.606	207.88
624.812	195.88
625.019	201.88
625.226	194.88
625.433	207.88
625.639	196.88
625.846	196.88
626.053	194.88
626.259	211.88
626.466	190.88
626.673	174.88
626.879	181.88
627.086	188.88
627.293	190.88
627.499	196.88
627.706	199.88
627.912	190.88
628.119	185.88
628.325	198.88
628.532	202.88
628.738	180.88
628.945	190.88
629.151	180.88
629.357	187.88
629.564	187.88
629.77	191.88
629.976	202.88
630.183	169.88
630.389	174.88
630.595	174.88
630.802	190.88
631.008	170.88
631.214	177.88
631.42	198.88
631.627	207.88
631.833	199.88
632.039	175.88
632.245	172.88
632.451	179.88
632.657	169.88
632.863	187.88
633.069	194.88
633.275	174.88
633.481	173.88
633.688	174.88
633.893	166.88
634.099	182.88
634.305	171.88
634.511	181.88
634.717	169.88
634.923	165.88
635.129	155.88
635.335	159.88
635.541	178.88
635.747	168.88
635.952	169.88
636.158	177.88
636.364	183.88
636.57	165.88
636.775	165.88
636.981	186.88
637.187	177.88
637.392	180.88
637.598	169.88
637.804	169.88
638.009	170.88
638.215	191.88
638.421	168.88
638.626	193.88
638.832	170.88
639.037	168.88
639.243	164.88
639.448	177.88
639.654	175.88
639.859	179.88
640.065	167.88
640.27	169.88
640.475	167.88
640.681	152.88
640.886	173.88
641.091	169.88
641.297	166.88
641.502	166.88
641.707	172.88
641.913	163.88
642.118	159.88
642.323	150.88
642.528	165.88
642.733	158.88
642.939	180.88
643.144	148.88
643.349	156.88
643.554	155.88
643.759	173.88
643.964	170.88
644.169	158.88
644.374	148.88
644.579	147.88
644.784	163.88
644.989	160.88
645.194	151.88
645.399	161.88
645.604	147.88
645.809	167.88
646.014	156.88
646.219	166.88
646.423	152.88
646.628	162.88
646.833	157.88
647.038	148.88
647.243	171.88
647.447	158.88
647.652	162.88
647.857	173.88
648.062	161.88
648.266	174.88
648.471	163.88
648.676	183.88
648.88	155.88
649.085	154.88
649.289	167.88
649.494	170.88
649.698	186.88
649.903	173.88
650.107	159.88
650.312	156.88
650.516	149.88
650.721	149.88
650.925	154.88
651.13	166.88
651.334	152.88
651.539	143.88
651.743	144.88
651.947	154.88
652.152	143.88
652.356	159.88
652.56	144.88
652.764	137.88
652.969	130.88
653.173	149.88
653.377	129.88
653.581	151.88
653.785	141.88
653.99	131.88
654.194	148.88
654.398	145.88
654.602	140.88
654.806	133.88
655.01	131.88
655.214	126.88
655.418	144.88
655.622	141.88
655.826	136.88
656.03	127.88
656.234	146.88
656.438	130.88
656.642	133.88
656.846	142.88
657.049	127.88
657.253	124.88
657.457	128.88
657.661	117.88
657.865	107.88
658.068	119.88
658.272	119.88
658.476	98.88
658.68	98.88
658.883	97.88
659.087	105.88
659.291	122.88
659.494	99.88
659.698	105.88
659.901	85.88
660.105	110.88
660.309	103.88
660.512	94.88
660.716	89.88
660.919	83.88
661.123	91.88
661.326	95.88
661.53	91.88
661.733	97.88
661.936	99.88
662.14	102.88
662.343	95.88
662.546	94.88
662.75	73.88
662.953	87.88
663.156	86.88
663.36	84.88
663.563	71.88
663.766	91.88
663.969	99.88
664.173	68.88
664.376	88.88
664.579	92.88
664.782	77.88
664.985	76.88
665.188	96.88
665.391	84.88
665.594	76.88
665.797	88.88
666	80.88
666.203	83.88
666.406	82.88
666.609	80.88
666.812	80.88
667.015	96.88
667.218	83.88
667.421	95.88
667.624	83.88
667.827	79.88
668.03	87.88
668.232	84.88
668.435	87.88
668.638	77.88
668.841	99.88
669.043	78.88
669.246	82.88
669.449	85.88
669.651	82.88
669.854	87.88
670.057	102.88
670.259	79.88
670.462	88.88
670.665	92.88
670.867	91.88
671.07	79.88
671.272	71.88
671.475	103.88
671.677	85.88
671.88	98.88
672.082	82.88
672.284	81.88
672.487	95.88
672.689	79.88
672.892	83.88
