Data from 1985.PennyLincolnUp.Lamp.En5.5.200Scan.071819.P1_HRD10591_17-01-49-970.txt Node
Date: Thu Jul 18 17:01:49 EDT 2019
User: cochatt
Spectrometer: HR+D1059
Trigger mode: 1
Integration Time (sec): 1.000000E-1
Scans to average: 1
Electric dark correction enabled: true
Nonlinearity correction enabled: false
Boxcar width: 0
XAxis mode: Wavelengths
Number of Pixels in Spectrum: 2048
>>>>>Begin Spectral Data<<<<<
223.165	-14.62
223.4	-14.62
223.635	-14.62
223.869	-4.62
224.104	-7.62
224.338	-7.62
224.573	-12.62
224.808	-10.62
225.042	-7.62
225.277	-8.62
225.511	-13.62
225.746	-1.62
225.98	26.38
226.215	-9.62
226.449	1.38
226.683	18.38
226.918	20.38
227.152	32.38
227.387	21.38
227.621	28.38
227.856	39.38
228.09	43.38
228.324	49.38
228.559	54.38
228.793	54.38
229.027	78.38
229.262	98.38
229.496	112.38
229.73	119.38
229.964	132.38
230.199	105.38
230.433	112.38
230.667	98.38
230.901	104.38
231.136	99.38
231.37	102.38
231.604	102.38
231.838	107.38
232.072	104.38
232.306	117.38
232.541	102.38
232.775	102.38
233.009	121.38
233.243	99.38
233.477	116.38
233.711	119.38
233.945	102.38
234.179	116.38
234.413	113.38
234.647	112.38
234.881	113.38
235.115	115.38
235.349	116.38
235.583	108.38
235.817	114.38
236.051	120.38
236.285	116.38
236.519	106.38
236.753	118.38
236.987	141.38
237.221	162.38
237.455	194.38
237.689	163.38
237.922	128.38
238.156	121.38
238.39	121.38
238.624	128.38
238.858	130.38
239.091	119.38
239.325	132.38
239.559	117.38
239.793	112.38
240.027	126.38
240.26	121.38
240.494	154.38
240.728	134.38
240.961	122.38
241.195	136.38
241.429	144.38
241.662	131.38
241.896	110.38
242.13	129.38
242.363	116.38
242.597	136.38
242.83	134.38
243.064	130.38
243.298	130.38
243.531	135.38
243.765	145.38
243.998	152.38
244.232	136.38
244.465	140.38
244.699	149.38
244.932	147.38
245.166	151.38
245.399	153.38
245.633	143.38
245.866	136.38
246.099	136.38
246.333	116.38
246.566	134.38
246.8	126.38
247.033	139.38
247.266	140.38
247.5	161.38
247.733	171.38
247.966	175.38
248.2	165.38
248.433	162.38
248.666	179.38
248.899	193.38
249.133	188.38
249.366	199.38
249.599	178.38
249.832	156.38
250.066	186.38
250.299	163.38
250.532	169.38
250.765	180.38
250.998	200.38
251.231	206.38
251.465	199.38
251.698	188.38
251.931	190.38
252.164	167.38
252.397	181.38
252.63	198.38
252.863	184.38
253.096	199.38
253.329	209.38
253.562	208.38
253.795	202.38
254.028	199.38
254.261	199.38
254.494	215.38
254.727	239.38
254.96	243.38
255.193	242.38
255.426	211.38
255.659	215.38
255.892	205.38
256.124	197.38
256.357	182.38
256.59	206.38
256.823	192.38
257.056	211.38
257.289	199.38
257.521	195.38
257.754	187.38
257.987	193.38
258.22	186.38
258.452	196.38
258.685	192.38
258.918	206.38
259.151	214.38
259.383	211.38
259.616	210.38
259.849	234.38
260.081	218.38
260.314	218.38
260.547	217.38
260.779	231.38
261.012	226.38
261.244	202.38
261.477	219.38
261.71	202.38
261.942	218.38
262.175	210.38
262.407	212.38
262.64	216.38
262.872	199.38
263.105	210.38
263.337	211.38
263.57	205.38
263.802	210.38
264.035	225.38
264.267	212.38
264.499	201.38
264.732	215.38
264.964	219.38
265.197	216.38
265.429	211.38
265.661	220.38
265.894	210.38
266.126	208.38
266.358	227.38
266.591	225.38
266.823	233.38
267.055	215.38
267.287	225.38
267.52	217.38
267.752	226.38
267.984	226.38
268.216	226.38
268.448	231.38
268.681	230.38
268.913	233.38
269.145	247.38
269.377	269.38
269.609	271.38
269.841	262.38
270.073	264.38
270.306	282.38
270.538	299.38
270.77	296.38
271.002	284.38
271.234	265.38
271.466	278.38
271.698	299.38
271.93	308.38
272.162	307.38
272.394	297.38
272.626	280.38
272.858	262.38
273.09	266.38
273.322	260.38
273.553	263.38
273.785	246.38
274.017	260.38
274.249	263.38
274.481	285.38
274.713	278.38
274.945	267.38
275.176	280.38
275.408	281.38
275.64	275.38
275.872	246.38
276.104	269.38
276.335	265.38
276.567	264.38
276.799	298.38
277.031	307.38
277.262	318.38
277.494	306.38
277.726	284.38
277.957	285.38
278.189	273.38
278.421	273.38
278.652	286.38
278.884	268.38
279.115	275.38
279.347	291.38
279.579	272.38
279.81	279.38
280.042	292.38
280.273	288.38
280.505	274.38
280.736	277.38
280.968	270.38
281.199	260.38
281.431	275.38
281.662	281.38
281.894	289.38
282.125	292.38
282.356	280.38
282.588	292.38
282.819	329.38
283.051	282.38
283.282	278.38
283.513	293.38
283.745	286.38
283.976	306.38
284.207	284.38
284.439	315.38
284.67	307.38
284.901	296.38
285.132	293.38
285.364	274.38
285.595	297.38
285.826	286.38
286.057	291.38
286.288	305.38
286.52	300.38
286.751	280.38
286.982	313.38
287.213	298.38
287.444	288.38
287.675	308.38
287.906	302.38
288.138	307.38
288.369	306.38
288.6	303.38
288.831	292.38
289.062	294.38
289.293	294.38
289.524	315.38
289.755	294.38
289.986	310.38
290.217	314.38
290.448	310.38
290.679	310.38
290.91	327.38
291.141	304.38
291.371	302.38
291.602	316.38
291.833	314.38
292.064	294.38
292.295	306.38
292.526	318.38
292.757	327.38
292.987	299.38
293.218	306.38
293.449	318.38
293.68	318.38
293.91	310.38
294.141	305.38
294.372	304.38
294.603	307.38
294.833	314.38
295.064	341.38
295.295	312.38
295.525	331.38
295.756	323.38
295.987	321.38
296.217	353.38
296.448	336.38
296.679	323.38
296.909	329.38
297.14	309.38
297.37	336.38
297.601	326.38
297.831	319.38
298.062	328.38
298.292	335.38
298.523	318.38
298.753	345.38
298.984	306.38
299.214	342.38
299.445	334.38
299.675	328.38
299.905	338.38
300.136	326.38
300.366	347.38
300.597	345.38
300.827	351.38
301.057	361.38
301.288	353.38
301.518	364.38
301.748	345.38
301.979	352.38
302.209	357.38
302.439	369.38
302.669	358.38
302.9	370.38
303.13	361.38
303.36	347.38
303.59	339.38
303.82	354.38
304.051	355.38
304.281	353.38
304.511	357.38
304.741	344.38
304.971	355.38
305.201	363.38
305.431	344.38
305.661	363.38
305.891	356.38
306.121	346.38
306.352	367.38
306.582	372.38
306.812	345.38
307.042	345.38
307.272	344.38
307.502	372.38
307.731	364.38
307.961	354.38
308.191	364.38
308.421	331.38
308.651	372.38
308.881	362.38
309.111	368.38
309.341	380.38
309.571	385.38
309.8	392.38
310.03	392.38
310.26	377.38
310.49	392.38
310.72	386.38
310.949	389.38
311.179	425.38
311.409	377.38
311.639	365.38
311.868	397.38
312.098	408.38
312.328	387.38
312.557	390.38
312.787	430.38
313.017	426.38
313.246	388.38
313.476	375.38
313.706	393.38
313.935	402.38
314.165	416.38
314.394	410.38
314.624	420.38
314.853	385.38
315.083	404.38
315.312	397.38
315.542	409.38
315.771	394.38
316.001	379.38
316.23	376.38
316.46	373.38
316.689	403.38
316.919	391.38
317.148	397.38
317.377	414.38
317.607	384.38
317.836	394.38
318.065	373.38
318.295	383.38
318.524	381.38
318.753	395.38
318.983	383.38
319.212	384.38
319.441	400.38
319.67	414.38
319.9	400.38
320.129	382.38
320.358	398.38
320.587	418.38
320.816	427.38
321.046	407.38
321.275	405.38
321.504	394.38
321.733	404.38
321.962	435.38
322.191	454.38
322.42	432.38
322.649	449.38
322.878	453.38
323.108	446.38
323.337	472.38
323.566	465.38
323.795	516.38
324.024	533.38
324.253	632.38
324.482	857.38
324.71	1256.38
324.939	1804.38
325.168	1497.38
325.397	820.38
325.626	599.38
325.855	526.38
326.084	530.38
326.313	506.38
326.542	500.38
326.77	538.38
326.999	604.38
327.228	778.38
327.457	1120.38
327.686	1350.38
327.914	903.38
328.143	638.38
328.372	574.38
328.6	562.38
328.829	520.38
329.058	552.38
329.287	552.38
329.515	522.38
329.744	478.38
329.972	510.38
330.201	491.38
330.43	486.38
330.658	518.38
330.887	544.38
331.115	544.38
331.344	513.38
331.572	506.38
331.801	511.38
332.03	474.38
332.258	475.38
332.486	481.38
332.715	488.38
332.943	489.38
333.172	500.38
333.4	496.38
333.629	500.38
333.857	512.38
334.085	508.38
334.314	482.38
334.542	501.38
334.771	491.38
334.999	492.38
335.227	497.38
335.455	504.38
335.684	481.38
335.912	483.38
336.14	480.38
336.369	457.38
336.597	488.38
336.825	479.38
337.053	466.38
337.281	470.38
337.51	475.38
337.738	464.38
337.966	465.38
338.194	483.38
338.422	447.38
338.65	464.38
338.878	461.38
339.106	440.38
339.334	472.38
339.562	447.38
339.79	458.38
340.018	466.38
340.246	459.38
340.474	458.38
340.702	458.38
340.93	453.38
341.158	442.38
341.386	452.38
341.614	442.38
341.842	452.38
342.07	451.38
342.298	449.38
342.526	435.38
342.754	405.38
342.981	450.38
343.209	424.38
343.437	466.38
343.665	451.38
343.893	478.38
344.12	475.38
344.348	475.38
344.576	459.38
344.804	456.38
345.031	434.38
345.259	470.38
345.487	470.38
345.714	439.38
345.942	412.38
346.17	429.38
346.397	434.38
346.625	441.38
346.853	425.38
347.08	404.38
347.308	426.38
347.535	430.38
347.763	442.38
347.99	410.38
348.218	436.38
348.445	437.38
348.673	437.38
348.9	433.38
349.128	421.38
349.355	424.38
349.583	412.38
349.81	424.38
350.037	425.38
350.265	408.38
350.492	423.38
350.72	412.38
350.947	417.38
351.174	414.38
351.402	414.38
351.629	435.38
351.856	435.38
352.083	437.38
352.311	433.38
352.538	423.38
352.765	421.38
352.992	434.38
353.22	435.38
353.447	414.38
353.674	435.38
353.901	420.38
354.128	400.38
354.355	396.38
354.583	407.38
354.81	396.38
355.037	392.38
355.264	398.38
355.491	404.38
355.718	401.38
355.945	409.38
356.172	398.38
356.399	391.38
356.626	406.38
356.853	407.38
357.08	395.38
357.307	399.38
357.534	408.38
357.761	414.38
357.988	386.38
358.215	390.38
358.441	405.38
358.668	407.38
358.895	420.38
359.122	423.38
359.349	408.38
359.576	418.38
359.802	450.38
360.029	447.38
360.256	466.38
360.483	451.38
360.709	422.38
360.936	421.38
361.163	431.38
361.39	435.38
361.616	433.38
361.843	416.38
362.07	394.38
362.296	430.38
362.523	433.38
362.749	401.38
362.976	401.38
363.203	412.38
363.429	400.38
363.656	410.38
363.882	392.38
364.109	414.38
364.335	416.38
364.562	394.38
364.788	403.38
365.015	424.38
365.241	411.38
365.468	405.38
365.694	410.38
365.92	406.38
366.147	409.38
366.373	414.38
366.599	402.38
366.826	412.38
367.052	393.38
367.278	391.38
367.505	391.38
367.731	400.38
367.957	439.38
368.184	406.38
368.41	399.38
368.636	419.38
368.862	423.38
369.089	406.38
369.315	426.38
369.541	410.38
369.767	408.38
369.993	417.38
370.219	427.38
370.445	424.38
370.672	418.38
370.898	410.38
371.124	393.38
371.35	395.38
371.576	415.38
371.802	407.38
372.028	407.38
372.254	411.38
372.48	410.38
372.706	425.38
372.932	415.38
373.158	424.38
373.384	403.38
373.61	400.38
373.835	415.38
374.061	427.38
374.287	415.38
374.513	426.38
374.739	413.38
374.965	426.38
375.191	423.38
375.416	419.38
375.642	404.38
375.868	395.38
376.094	406.38
376.319	424.38
376.545	402.38
376.771	399.38
376.997	417.38
377.222	398.38
377.448	398.38
377.674	412.38
377.899	396.38
378.125	386.38
378.35	416.38
378.576	415.38
378.802	409.38
379.027	414.38
379.253	415.38
379.478	408.38
379.704	403.38
379.929	404.38
380.155	401.38
380.38	432.38
380.606	433.38
380.831	413.38
381.057	414.38
381.282	402.38
381.507	411.38
381.733	412.38
381.958	414.38
382.184	436.38
382.409	408.38
382.634	402.38
382.86	410.38
383.085	400.38
383.31	414.38
383.535	417.38
383.761	427.38
383.986	438.38
384.211	434.38
384.436	437.38
384.662	433.38
384.887	439.38
385.112	450.38
385.337	472.38
385.562	450.38
385.787	432.38
386.013	457.38
386.238	456.38
386.463	456.38
386.688	457.38
386.913	452.38
387.138	441.38
387.363	452.38
387.588	439.38
387.813	438.38
388.038	444.38
388.263	441.38
388.488	456.38
388.713	447.38
388.938	450.38
389.163	452.38
389.387	468.38
389.612	443.38
389.837	455.38
390.062	447.38
390.287	445.38
390.512	441.38
390.736	438.38
390.961	450.38
391.186	455.38
391.411	459.38
391.636	466.38
391.86	498.38
392.085	484.38
392.31	467.38
392.534	510.38
392.759	464.38
392.984	472.38
393.208	450.38
393.433	479.38
393.658	452.38
393.882	456.38
394.107	460.38
394.331	459.38
394.556	473.38
394.78	439.38
395.005	450.38
395.229	468.38
395.454	487.38
395.678	445.38
395.903	487.38
396.127	491.38
396.352	490.38
396.576	479.38
396.801	486.38
397.025	466.38
397.249	481.38
397.474	504.38
397.698	488.38
397.922	502.38
398.147	515.38
398.371	518.38
398.595	534.38
398.82	514.38
399.044	540.38
399.268	553.38
399.492	612.38
399.717	648.38
399.941	692.38
400.165	685.38
400.389	671.38
400.613	598.38
400.837	542.38
401.062	582.38
401.286	511.38
401.51	516.38
401.734	535.38
401.958	518.38
402.182	538.38
402.406	543.38
402.63	553.38
402.854	548.38
403.078	543.38
403.302	537.38
403.526	558.38
403.75	554.38
403.974	563.38
404.198	546.38
404.422	564.38
404.645	564.38
404.869	562.38
405.093	576.38
405.317	585.38
405.541	609.38
405.765	566.38
405.988	558.38
406.212	582.38
406.436	600.38
406.66	603.38
406.883	594.38
407.107	611.38
407.331	650.38
407.555	716.38
407.778	688.38
408.002	642.38
408.226	620.38
408.449	600.38
408.673	591.38
408.896	612.38
409.12	632.38
409.344	608.38
409.567	566.38
409.791	567.38
410.014	542.38
410.238	528.38
410.461	541.38
410.685	560.38
410.908	554.38
411.132	574.38
411.355	614.38
411.578	576.38
411.802	536.38
412.025	523.38
412.249	511.38
412.472	524.38
412.695	536.38
412.919	515.38
413.142	518.38
413.365	510.38
413.589	530.38
413.812	516.38
414.035	506.38
414.258	527.38
414.482	523.38
414.705	506.38
414.928	498.38
415.151	499.38
415.374	509.38
415.597	502.38
415.821	501.38
416.044	496.38
416.267	497.38
416.49	498.38
416.713	480.38
416.936	494.38
417.159	509.38
417.382	515.38
417.605	520.38
417.828	532.38
418.051	542.38
418.274	528.38
418.497	515.38
418.72	516.38
418.943	508.38
419.166	516.38
419.389	557.38
419.611	569.38
419.834	561.38
420.057	522.38
420.28	522.38
420.503	514.38
420.726	525.38
420.948	530.38
421.171	569.38
421.394	594.38
421.617	552.38
421.839	525.38
422.062	520.38
422.285	537.38
422.507	585.38
422.73	634.38
422.953	623.38
423.175	571.38
423.398	552.38
423.621	551.38
423.843	562.38
424.066	568.38
424.288	533.38
424.511	591.38
424.733	615.38
424.956	663.38
425.178	647.38
425.401	662.38
425.623	664.38
425.846	596.38
426.068	564.38
426.291	548.38
426.513	556.38
426.735	549.38
426.958	596.38
427.18	652.38
427.402	750.38
427.625	850.38
427.847	687.38
428.069	620.38
428.292	544.38
428.514	526.38
428.736	523.38
428.958	532.38
429.181	503.38
429.403	495.38
429.625	493.38
429.847	524.38
430.069	599.38
430.292	578.38
430.514	530.38
430.736	500.38
430.958	511.38
431.18	511.38
431.402	473.38
431.624	473.38
431.846	474.38
432.068	482.38
432.29	484.38
432.512	492.38
432.734	490.38
432.956	471.38
433.178	498.38
433.4	507.38
433.622	488.38
433.844	470.38
434.066	483.38
434.287	491.38
434.509	494.38
434.731	508.38
434.953	530.38
435.175	539.38
435.397	549.38
435.618	552.38
435.84	561.38
436.062	646.38
436.284	698.38
436.505	613.38
436.727	555.38
436.949	515.38
437.17	489.38
437.392	486.38
437.614	495.38
437.835	551.38
438.057	619.38
438.278	683.38
438.5	696.38
438.721	762.38
438.943	740.38
439.165	566.38
439.386	522.38
439.608	520.38
439.829	556.38
440.05	544.38
440.272	601.38
440.493	540.38
440.715	524.38
440.936	515.38
441.158	525.38
441.379	523.38
441.6	522.38
441.822	550.38
442.043	592.38
442.264	648.38
442.486	669.38
442.707	607.38
442.928	547.38
443.149	583.38
443.371	568.38
443.592	632.38
443.813	726.38
444.034	734.38
444.255	629.38
444.476	580.38
444.698	588.38
444.919	575.38
445.14	688.38
445.361	617.38
445.582	590.38
445.803	615.38
446.024	709.38
446.245	701.38
446.466	637.38
446.687	572.38
446.908	544.38
447.129	527.38
447.35	499.38
447.571	482.38
447.792	489.38
448.013	483.38
448.234	516.38
448.455	548.38
448.675	618.38
448.896	768.38
449.117	608.38
449.338	578.38
449.559	723.38
449.779	774.38
450	619.38
450.221	530.38
450.442	498.38
450.662	476.38
450.883	489.38
451.104	504.38
451.324	487.38
451.545	464.38
451.766	464.38
451.986	443.38
452.207	458.38
452.428	430.38
452.648	449.38
452.869	469.38
453.089	445.38
453.31	442.38
453.53	459.38
453.751	458.38
453.971	426.38
454.192	472.38
454.412	432.38
454.633	452.38
454.853	452.38
455.073	443.38
455.294	458.38
455.514	498.38
455.734	479.38
455.955	456.38
456.175	457.38
456.395	428.38
456.616	413.38
456.836	430.38
457.056	390.38
457.276	417.38
457.497	432.38
457.717	415.38
457.937	420.38
458.157	408.38
458.377	448.38
458.598	446.38
458.818	500.38
459.038	582.38
459.258	590.38
459.478	528.38
459.698	495.38
459.918	495.38
460.138	498.38
460.358	505.38
460.578	531.38
460.798	522.38
461.018	544.38
461.238	519.38
461.458	520.38
461.678	506.38
461.898	505.38
462.118	538.38
462.338	537.38
462.558	551.38
462.777	551.38
462.997	591.38
463.217	605.38
463.437	580.38
463.657	578.38
463.876	579.38
464.096	568.38
464.316	582.38
464.536	564.38
464.755	553.38
464.975	545.38
465.195	554.38
465.414	605.38
465.634	575.38
465.854	530.38
466.073	509.38
466.293	464.38
466.512	478.38
466.732	469.38
466.951	475.38
467.171	461.38
467.391	466.38
467.61	478.38
467.829	490.38
468.049	474.38
468.268	461.38
468.488	439.38
468.707	440.38
468.927	439.38
469.146	453.38
469.365	464.38
469.585	451.38
469.804	470.38
470.023	472.38
470.243	491.38
470.462	494.38
470.681	494.38
470.901	475.38
471.12	466.38
471.339	475.38
471.558	475.38
471.777	473.38
471.997	462.38
472.216	462.38
472.435	442.38
472.654	436.38
472.873	441.38
473.092	464.38
473.311	478.38
473.53	454.38
473.749	466.38
473.968	505.38
474.187	583.38
474.406	585.38
474.625	500.38
474.844	449.38
475.063	462.38
475.282	452.38
475.501	473.38
475.72	472.38
475.939	478.38
476.158	495.38
476.377	466.38
476.596	467.38
476.814	468.38
477.033	506.38
477.252	509.38
477.471	482.38
477.69	499.38
477.908	489.38
478.127	516.38
478.346	498.38
478.564	547.38
478.783	514.38
479.002	543.38
479.22	544.38
479.439	534.38
479.658	547.38
479.876	567.38
480.095	578.38
480.313	594.38
480.532	596.38
480.751	598.38
480.969	574.38
481.188	562.38
481.406	573.38
481.624	555.38
481.843	551.38
482.061	552.38
482.28	537.38
482.498	522.38
482.717	515.38
482.935	520.38
483.153	529.38
483.372	544.38
483.59	521.38
483.808	528.38
484.027	547.38
484.245	532.38
484.463	535.38
484.681	553.38
484.9	534.38
485.118	565.38
485.336	536.38
485.554	571.38
485.772	552.38
485.99	554.38
486.209	551.38
486.427	577.38
486.645	540.38
486.863	595.38
487.081	582.38
487.299	576.38
487.517	565.38
487.735	570.38
487.953	551.38
488.171	551.38
488.389	562.38
488.607	555.38
488.825	551.38
489.043	561.38
489.261	570.38
489.479	582.38
489.696	578.38
489.914	574.38
490.132	586.38
490.35	560.38
490.568	605.38
490.786	611.38
491.003	632.38
491.221	651.38
491.439	639.38
491.657	618.38
491.874	632.38
492.092	642.38
492.31	646.38
492.527	645.38
492.745	635.38
492.963	648.38
493.18	656.38
493.398	651.38
493.615	653.38
493.833	665.38
494.05	668.38
494.268	671.38
494.485	637.38
494.703	659.38
494.92	646.38
495.138	662.38
495.355	648.38
495.573	661.38
495.79	650.38
496.008	688.38
496.225	653.38
496.442	658.38
496.66	659.38
496.877	689.38
497.094	674.38
497.312	682.38
497.529	685.38
497.746	717.38
497.963	724.38
498.181	759.38
498.398	761.38
498.615	798.38
498.832	814.38
499.049	847.38
499.267	858.38
499.484	909.38
499.701	971.38
499.918	958.38
500.135	1078.38
500.352	1141.38
500.569	1147.38
500.786	1150.38
501.003	1129.38
501.22	1109.38
501.437	1014.38
501.654	966.38
501.871	939.38
502.088	895.38
502.305	847.38
502.522	828.38
502.739	820.38
502.956	778.38
503.172	740.38
503.389	731.38
503.606	732.38
503.823	736.38
504.04	711.38
504.256	725.38
504.473	717.38
504.69	700.38
504.907	699.38
505.123	695.38
505.34	659.38
505.557	647.38
505.773	666.38
505.99	636.38
506.207	645.38
506.423	635.38
506.64	628.38
506.856	638.38
507.073	633.38
507.289	618.38
507.506	614.38
507.722	626.38
507.939	631.38
508.155	622.38
508.372	592.38
508.588	597.38
508.805	595.38
509.021	602.38
509.238	609.38
509.454	595.38
509.67	615.38
509.887	603.38
510.103	574.38
510.319	603.38
510.536	681.38
510.752	1062.38
510.968	896.38
511.184	618.38
511.401	574.38
511.617	580.38
511.833	559.38
512.049	546.38
512.265	532.38
512.481	544.38
512.698	552.38
512.914	563.38
513.13	555.38
513.346	551.38
513.562	534.38
513.778	560.38
513.994	578.38
514.21	575.38
514.426	585.38
514.642	616.38
514.858	622.38
515.074	647.38
515.29	770.38
515.506	1112.38
515.721	966.38
515.937	669.38
516.153	626.38
516.369	600.38
516.585	606.38
516.801	588.38
517.016	631.38
517.232	628.38
517.448	626.38
517.664	614.38
517.879	642.38
518.095	634.38
518.311	628.38
518.527	636.38
518.742	613.38
518.958	615.38
519.173	607.38
519.389	600.38
519.605	574.38
519.82	588.38
520.036	583.38
520.251	599.38
520.467	594.38
520.682	615.38
520.898	618.38
521.113	626.38
521.329	673.38
521.544	699.38
521.76	871.38
521.975	1425.38
522.19	1428.38
522.406	834.38
522.621	637.38
522.836	540.38
523.052	541.38
523.267	537.38
523.482	526.38
523.698	513.38
523.913	506.38
524.128	544.38
524.343	531.38
524.559	522.38
524.774	498.38
524.989	485.38
525.204	512.38
525.419	520.38
525.634	512.38
525.849	490.38
526.064	481.38
526.28	489.38
526.495	488.38
526.71	463.38
526.925	479.38
527.14	482.38
527.355	473.38
527.57	470.38
527.785	450.38
527.999	465.38
528.214	474.38
528.429	484.38
528.644	468.38
528.859	443.38
529.074	472.38
529.289	506.38
529.503	571.38
529.718	516.38
529.933	499.38
530.148	490.38
530.363	490.38
530.577	456.38
530.792	462.38
531.007	456.38
531.221	451.38
531.436	447.38
531.651	455.38
531.865	476.38
532.08	450.38
532.295	452.38
532.509	453.38
532.724	447.38
532.938	464.38
533.153	440.38
533.367	452.38
533.582	456.38
533.796	455.38
534.011	458.38
534.225	436.38
534.44	445.38
534.654	448.38
534.868	467.38
535.083	440.38
535.297	440.38
535.511	457.38
535.726	450.38
535.94	459.38
536.154	433.38
536.369	428.38
536.583	421.38
536.797	437.38
537.011	424.38
537.225	426.38
537.44	426.38
537.654	416.38
537.868	427.38
538.082	417.38
538.296	435.38
538.51	454.38
538.724	450.38
538.938	444.38
539.153	427.38
539.367	441.38
539.581	426.38
539.795	427.38
540.009	439.38
540.222	414.38
540.436	434.38
540.65	443.38
540.864	432.38
541.078	443.38
541.292	426.38
541.506	417.38
541.72	412.38
541.934	416.38
542.147	447.38
542.361	434.38
542.575	436.38
542.789	416.38
543.002	417.38
543.216	423.38
543.43	444.38
543.644	431.38
543.857	423.38
544.071	436.38
544.285	422.38
544.498	434.38
544.712	424.38
544.925	450.38
545.139	428.38
545.352	434.38
545.566	416.38
545.779	425.38
545.993	434.38
546.206	424.38
546.42	424.38
546.633	423.38
546.847	421.38
547.06	400.38
547.274	433.38
547.487	436.38
547.7	434.38
547.914	428.38
548.127	421.38
548.34	412.38
548.554	426.38
548.767	410.38
548.98	414.38
549.193	419.38
549.407	413.38
549.62	419.38
549.833	411.38
550.046	422.38
550.259	418.38
550.473	434.38
550.686	404.38
550.899	408.38
551.112	422.38
551.325	400.38
551.538	395.38
551.751	419.38
551.964	426.38
552.177	418.38
552.39	431.38
552.603	446.38
552.816	418.38
553.029	422.38
553.242	434.38
553.455	449.38
553.667	455.38
553.88	457.38
554.093	426.38
554.306	439.38
554.519	417.38
554.732	437.38
554.944	411.38
555.157	402.38
555.37	412.38
555.583	401.38
555.795	404.38
556.008	388.38
556.221	399.38
556.433	378.38
556.646	372.38
556.859	379.38
557.071	368.38
557.284	360.38
557.496	372.38
557.709	384.38
557.921	381.38
558.134	370.38
558.346	372.38
558.559	373.38
558.771	368.38
558.984	367.38
559.196	373.38
559.409	373.38
559.621	367.38
559.833	368.38
560.046	369.38
560.258	374.38
560.47	378.38
560.683	355.38
560.895	366.38
561.107	362.38
561.32	371.38
561.532	358.38
561.744	352.38
561.956	363.38
562.168	370.38
562.381	372.38
562.593	378.38
562.805	363.38
563.017	386.38
563.229	364.38
563.441	380.38
563.653	378.38
563.865	388.38
564.077	358.38
564.289	392.38
564.501	369.38
564.713	370.38
564.925	396.38
565.137	412.38
565.349	414.38
565.561	414.38
565.773	412.38
565.985	421.38
566.197	424.38
566.408	465.38
566.62	480.38
566.832	480.38
567.044	491.38
567.255	505.38
567.467	526.38
567.679	527.38
567.891	569.38
568.102	546.38
568.314	547.38
568.526	499.38
568.737	482.38
568.949	440.38
569.161	420.38
569.372	399.38
569.584	427.38
569.795	434.38
570.007	376.38
570.218	419.38
570.43	414.38
570.641	376.38
570.853	370.38
571.064	370.38
571.276	370.38
571.487	366.38
571.698	340.38
571.91	345.38
572.121	353.38
572.333	326.38
572.544	335.38
572.755	328.38
572.966	332.38
573.178	349.38
573.389	313.38
573.6	322.38
573.811	319.38
574.023	335.38
574.234	322.38
574.445	320.38
574.656	323.38
574.867	323.38
575.078	323.38
575.289	327.38
575.501	332.38
575.712	309.38
575.923	333.38
576.134	321.38
576.345	318.38
576.556	324.38
576.767	299.38
576.978	326.38
577.188	293.38
577.399	309.38
577.61	307.38
577.821	312.38
578.032	316.38
578.243	339.38
578.454	534.38
578.665	388.38
578.875	307.38
579.086	304.38
579.297	312.38
579.508	300.38
579.718	305.38
579.929	286.38
580.14	296.38
580.35	284.38
580.561	289.38
580.772	298.38
580.982	284.38
581.193	287.38
581.403	300.38
581.614	290.38
581.825	287.38
582.035	268.38
582.246	289.38
582.456	290.38
582.667	287.38
582.877	291.38
583.087	291.38
583.298	270.38
583.508	276.38
583.719	278.38
583.929	278.38
584.139	281.38
584.35	293.38
584.56	283.38
584.77	291.38
584.981	298.38
585.191	286.38
585.401	277.38
585.611	280.38
585.821	276.38
586.032	283.38
586.242	284.38
586.452	309.38
586.662	286.38
586.872	308.38
587.082	268.38
587.292	275.38
587.502	256.38
587.713	286.38
587.923	272.38
588.133	279.38
588.343	291.38
588.553	278.38
588.762	270.38
588.972	268.38
589.182	300.38
589.392	295.38
589.602	277.38
589.812	284.38
590.022	273.38
590.232	305.38
590.441	277.38
590.651	269.38
590.861	274.38
591.071	277.38
591.281	284.38
591.49	286.38
591.7	278.38
591.91	293.38
592.119	299.38
592.329	303.38
592.539	286.38
592.748	308.38
592.958	299.38
593.167	326.38
593.377	322.38
593.587	327.38
593.796	331.38
594.006	311.38
594.215	322.38
594.424	328.38
594.634	301.38
594.843	298.38
595.053	293.38
595.262	306.38
595.472	307.38
595.681	290.38
595.89	283.38
596.1	279.38
596.309	285.38
596.518	274.38
596.727	274.38
596.937	278.38
597.146	260.38
597.355	263.38
597.564	260.38
597.774	256.38
597.983	245.38
598.192	248.38
598.401	239.38
598.61	252.38
598.819	250.38
599.028	255.38
599.237	247.38
599.446	262.38
599.655	254.38
599.864	259.38
600.073	232.38
600.282	238.38
600.491	228.38
600.7	242.38
600.909	265.38
601.118	252.38
601.327	249.38
601.536	242.38
601.745	226.38
601.953	228.38
602.162	232.38
602.371	223.38
602.58	249.38
602.789	229.38
602.997	235.38
603.206	238.38
603.415	234.38
603.623	226.38
603.832	257.38
604.041	235.38
604.249	235.38
604.458	224.38
604.666	231.38
604.875	222.38
605.084	240.38
605.292	231.38
605.501	239.38
605.709	226.38
605.918	209.38
606.126	235.38
606.334	221.38
606.543	214.38
606.751	220.38
606.96	225.38
607.168	219.38
607.376	228.38
607.585	240.38
607.793	232.38
608.001	210.38
608.21	223.38
608.418	221.38
608.626	210.38
608.834	242.38
609.043	233.38
609.251	229.38
609.459	226.38
609.667	225.38
609.875	227.38
610.083	228.38
610.291	226.38
610.499	222.38
610.707	223.38
610.916	231.38
611.124	220.38
611.332	228.38
611.54	230.38
611.748	222.38
611.955	208.38
612.163	209.38
612.371	238.38
612.579	207.38
612.787	228.38
612.995	224.38
613.203	224.38
613.411	220.38
613.618	211.38
613.826	216.38
614.034	219.38
614.242	220.38
614.449	206.38
614.657	224.38
614.865	210.38
615.072	224.38
615.28	231.38
615.488	196.38
615.695	227.38
615.903	228.38
616.111	243.38
616.318	225.38
616.526	229.38
616.733	213.38
616.941	217.38
617.148	234.38
617.356	215.38
617.563	210.38
617.771	231.38
617.978	209.38
618.185	227.38
618.393	203.38
618.6	211.38
618.807	223.38
619.015	215.38
619.222	215.38
619.429	211.38
619.637	211.38
619.844	227.38
620.051	195.38
620.258	200.38
620.466	207.38
620.673	206.38
620.88	209.38
621.087	205.38
621.294	214.38
621.501	209.38
621.708	210.38
621.915	204.38
622.122	226.38
622.329	208.38
622.536	207.38
622.743	204.38
622.95	208.38
623.157	209.38
623.364	209.38
623.571	203.38
623.778	190.38
623.985	188.38
624.192	221.38
624.399	207.38
624.606	190.38
624.812	202.38
625.019	209.38
625.226	188.38
625.433	199.38
625.639	197.38
625.846	215.38
626.053	196.38
626.259	187.38
626.466	197.38
626.673	194.38
626.879	192.38
627.086	204.38
627.293	190.38
627.499	180.38
627.706	180.38
627.912	189.38
628.119	206.38
628.325	191.38
628.532	202.38
628.738	192.38
628.945	194.38
629.151	182.38
629.357	195.38
629.564	175.38
629.77	178.38
629.976	171.38
630.183	183.38
630.389	187.38
630.595	192.38
630.802	184.38
631.008	177.38
631.214	168.38
631.42	184.38
631.627	178.38
631.833	181.38
632.039	186.38
632.245	158.38
632.451	172.38
632.657	195.38
632.863	162.38
633.069	187.38
633.275	171.38
633.481	162.38
633.688	183.38
633.893	171.38
634.099	174.38
634.305	164.38
634.511	178.38
634.717	169.38
634.923	170.38
635.129	163.38
635.335	169.38
635.541	175.38
635.747	174.38
635.952	152.38
636.158	172.38
636.364	173.38
636.57	169.38
636.775	174.38
636.981	165.38
637.187	163.38
637.392	163.38
637.598	155.38
637.804	155.38
638.009	165.38
638.215	176.38
638.421	169.38
638.626	177.38
638.832	168.38
639.037	169.38
639.243	164.38
639.448	153.38
639.654	176.38
639.859	162.38
640.065	166.38
640.27	174.38
640.475	161.38
640.681	160.38
640.886	146.38
641.091	152.38
641.297	155.38
641.502	155.38
641.707	158.38
641.913	190.38
642.118	150.38
642.323	164.38
642.528	176.38
642.733	156.38
642.939	153.38
643.144	140.38
643.349	169.38
643.554	162.38
643.759	160.38
643.964	157.38
644.169	159.38
644.374	168.38
644.579	153.38
644.784	164.38
644.989	146.38
645.194	153.38
645.399	164.38
645.604	170.38
645.809	164.38
646.014	160.38
646.219	165.38
646.423	158.38
646.628	170.38
646.833	160.38
647.038	169.38
647.243	164.38
647.447	157.38
647.652	175.38
647.857	163.38
648.062	160.38
648.266	177.38
648.471	171.38
648.676	162.38
648.88	166.38
649.085	174.38
649.289	156.38
649.494	172.38
649.698	168.38
649.903	176.38
650.107	156.38
650.312	170.38
650.516	172.38
650.721	148.38
650.925	162.38
651.13	152.38
651.334	152.38
651.539	149.38
651.743	146.38
651.947	135.38
652.152	149.38
652.356	140.38
652.56	140.38
652.764	131.38
652.969	149.38
653.173	135.38
653.377	134.38
653.581	128.38
653.785	149.38
653.99	123.38
654.194	134.38
654.398	144.38
654.602	131.38
654.806	129.38
655.01	132.38
655.214	137.38
655.418	135.38
655.622	120.38
655.826	140.38
656.03	125.38
656.234	151.38
656.438	133.38
656.642	148.38
656.846	140.38
657.049	125.38
657.253	123.38
657.457	118.38
657.661	115.38
657.865	99.38
658.068	107.38
658.272	101.38
658.476	102.38
658.68	99.38
658.883	100.38
659.087	96.38
659.291	98.38
659.494	107.38
659.698	98.38
659.901	108.38
660.105	101.38
660.309	94.38
660.512	81.38
660.716	96.38
660.919	78.38
661.123	91.38
661.326	96.38
661.53	96.38
661.733	110.38
661.936	94.38
662.14	91.38
662.343	78.38
662.546	87.38
662.75	88.38
662.953	90.38
663.156	82.38
663.36	69.38
663.563	92.38
663.766	80.38
663.969	77.38
664.173	76.38
664.376	82.38
664.579	79.38
664.782	91.38
664.985	81.38
665.188	98.38
665.391	88.38
665.594	52.38
665.797	95.38
666	84.38
666.203	76.38
666.406	81.38
666.609	72.38
666.812	72.38
667.015	72.38
667.218	74.38
667.421	89.38
667.624	83.38
667.827	98.38
668.03	88.38
668.232	73.38
668.435	84.38
668.638	79.38
668.841	63.38
669.043	70.38
669.246	58.38
669.449	68.38
669.651	91.38
669.854	83.38
670.057	80.38
670.259	90.38
670.462	90.38
670.665	78.38
670.867	76.38
671.07	79.38
671.272	80.38
671.475	79.38
671.677	84.38
671.88	94.38
672.082	74.38
672.284	87.38
672.487	88.38
672.689	81.38
672.892	73.38
