Data from 1985.PennyLincolnUp.Lamp.En5.5.200Scan.071819.P1_HRD10591_17-03-01-970.txt Node
Date: Thu Jul 18 17:03:01 EDT 2019
User: cochatt
Spectrometer: HR+D1059
Trigger mode: 1
Integration Time (sec): 1.000000E-1
Scans to average: 1
Electric dark correction enabled: true
Nonlinearity correction enabled: false
Boxcar width: 0
XAxis mode: Wavelengths
Number of Pixels in Spectrum: 2048
>>>>>Begin Spectral Data<<<<<
223.165	-7.62
223.4	-7.62
223.635	-7.62
223.869	-23.62
224.104	-19.62
224.338	-24.62
224.573	-4.62
224.808	-11.62
225.042	-0.62
225.277	5.38
225.511	3.38
225.746	-7.62
225.98	-8.62
226.215	7.38
226.449	13.38
226.683	22.38
226.918	34.38
227.152	22.38
227.387	40.38
227.621	28.38
227.856	46.38
228.09	36.38
228.324	35.38
228.559	49.38
228.793	56.38
229.027	84.38
229.262	99.38
229.496	123.38
229.73	118.38
229.964	131.38
230.199	123.38
230.433	110.38
230.667	113.38
230.901	123.38
231.136	108.38
231.37	120.38
231.604	116.38
231.838	114.38
232.072	123.38
232.306	99.38
232.541	117.38
232.775	110.38
233.009	110.38
233.243	116.38
233.477	118.38
233.711	117.38
233.945	121.38
234.179	111.38
234.413	115.38
234.647	108.38
234.881	114.38
235.115	112.38
235.349	107.38
235.583	126.38
235.817	130.38
236.051	126.38
236.285	111.38
236.519	120.38
236.753	128.38
236.987	140.38
237.221	160.38
237.455	205.38
237.689	168.38
237.922	138.38
238.156	131.38
238.39	115.38
238.624	121.38
238.858	128.38
239.091	122.38
239.325	126.38
239.559	123.38
239.793	120.38
240.027	132.38
240.26	129.38
240.494	143.38
240.728	140.38
240.961	140.38
241.195	138.38
241.429	136.38
241.662	126.38
241.896	140.38
242.13	128.38
242.363	121.38
242.597	126.38
242.83	135.38
243.064	151.38
243.298	150.38
243.531	141.38
243.765	138.38
243.998	160.38
244.232	141.38
244.465	136.38
244.699	146.38
244.932	145.38
245.166	133.38
245.399	143.38
245.633	148.38
245.866	136.38
246.099	158.38
246.333	142.38
246.566	153.38
246.8	153.38
247.033	166.38
247.266	169.38
247.5	156.38
247.733	168.38
247.966	164.38
248.2	160.38
248.433	180.38
248.666	169.38
248.899	180.38
249.133	188.38
249.366	199.38
249.599	197.38
249.832	177.38
250.066	178.38
250.299	168.38
250.532	192.38
250.765	204.38
250.998	227.38
251.231	209.38
251.465	200.38
251.698	173.38
251.931	188.38
252.164	196.38
252.397	204.38
252.63	198.38
252.863	193.38
253.096	209.38
253.329	205.38
253.562	209.38
253.795	213.38
254.028	190.38
254.261	220.38
254.494	229.38
254.727	233.38
254.96	253.38
255.193	256.38
255.426	221.38
255.659	212.38
255.892	229.38
256.124	223.38
256.357	221.38
256.59	203.38
256.823	217.38
257.056	227.38
257.289	213.38
257.521	199.38
257.754	212.38
257.987	194.38
258.22	205.38
258.452	204.38
258.685	211.38
258.918	206.38
259.151	208.38
259.383	209.38
259.616	205.38
259.849	211.38
260.081	241.38
260.314	244.38
260.547	245.38
260.779	232.38
261.012	220.38
261.244	233.38
261.477	217.38
261.71	232.38
261.942	236.38
262.175	247.38
262.407	226.38
262.64	212.38
262.872	213.38
263.105	222.38
263.337	210.38
263.57	228.38
263.802	204.38
264.035	215.38
264.267	222.38
264.499	210.38
264.732	222.38
264.964	209.38
265.197	216.38
265.429	240.38
265.661	217.38
265.894	221.38
266.126	234.38
266.358	225.38
266.591	227.38
266.823	241.38
267.055	236.38
267.287	237.38
267.52	220.38
267.752	213.38
267.984	226.38
268.216	248.38
268.448	228.38
268.681	233.38
268.913	261.38
269.145	278.38
269.377	287.38
269.609	272.38
269.841	248.38
270.073	284.38
270.306	306.38
270.538	321.38
270.77	309.38
271.002	296.38
271.234	279.38
271.466	313.38
271.698	312.38
271.93	317.38
272.162	320.38
272.394	312.38
272.626	294.38
272.858	299.38
273.09	288.38
273.322	283.38
273.553	266.38
273.785	276.38
274.017	293.38
274.249	269.38
274.481	272.38
274.713	268.38
274.945	267.38
275.176	292.38
275.408	285.38
275.64	264.38
275.872	268.38
276.104	262.38
276.335	277.38
276.567	263.38
276.799	281.38
277.031	314.38
277.262	306.38
277.494	299.38
277.726	300.38
277.957	285.38
278.189	298.38
278.421	295.38
278.652	270.38
278.884	280.38
279.115	286.38
279.347	270.38
279.579	298.38
279.81	280.38
280.042	277.38
280.273	268.38
280.505	280.38
280.736	273.38
280.968	276.38
281.199	272.38
281.431	305.38
281.662	300.38
281.894	292.38
282.125	309.38
282.356	326.38
282.588	328.38
282.819	321.38
283.051	286.38
283.282	279.38
283.513	280.38
283.745	288.38
283.976	307.38
284.207	305.38
284.439	300.38
284.67	305.38
284.901	302.38
285.132	294.38
285.364	289.38
285.595	287.38
285.826	290.38
286.057	299.38
286.288	294.38
286.52	297.38
286.751	321.38
286.982	306.38
287.213	300.38
287.444	301.38
287.675	311.38
287.906	316.38
288.138	326.38
288.369	318.38
288.6	344.38
288.831	320.38
289.062	322.38
289.293	309.38
289.524	317.38
289.755	330.38
289.986	307.38
290.217	296.38
290.448	323.38
290.679	318.38
290.91	315.38
291.141	320.38
291.371	308.38
291.602	301.38
291.833	309.38
292.064	314.38
292.295	323.38
292.526	301.38
292.757	330.38
292.987	301.38
293.218	314.38
293.449	312.38
293.68	329.38
293.91	320.38
294.141	318.38
294.372	319.38
294.603	309.38
294.833	316.38
295.064	305.38
295.295	321.38
295.525	314.38
295.756	330.38
295.987	324.38
296.217	362.38
296.448	348.38
296.679	322.38
296.909	318.38
297.14	330.38
297.37	326.38
297.601	334.38
297.831	332.38
298.062	330.38
298.292	335.38
298.523	315.38
298.753	316.38
298.984	330.38
299.214	352.38
299.445	324.38
299.675	346.38
299.905	362.38
300.136	324.38
300.366	333.38
300.597	334.38
300.827	361.38
301.057	350.38
301.288	379.38
301.518	357.38
301.748	346.38
301.979	357.38
302.209	356.38
302.439	363.38
302.669	352.38
302.9	361.38
303.13	343.38
303.36	366.38
303.59	374.38
303.82	365.38
304.051	357.38
304.281	367.38
304.511	357.38
304.741	348.38
304.971	350.38
305.201	374.38
305.431	380.38
305.661	371.38
305.891	378.38
306.121	384.38
306.352	387.38
306.582	371.38
306.812	371.38
307.042	361.38
307.272	357.38
307.502	362.38
307.731	382.38
307.961	346.38
308.191	363.38
308.421	372.38
308.651	388.38
308.881	362.38
309.111	373.38
309.341	372.38
309.571	392.38
309.8	402.38
310.03	388.38
310.26	384.38
310.49	396.38
310.72	403.38
310.949	406.38
311.179	425.38
311.409	409.38
311.639	421.38
311.868	408.38
312.098	432.38
312.328	418.38
312.557	443.38
312.787	442.38
313.017	444.38
313.246	406.38
313.476	396.38
313.706	401.38
313.935	421.38
314.165	437.38
314.394	441.38
314.624	432.38
314.853	410.38
315.083	395.38
315.312	417.38
315.542	408.38
315.771	426.38
316.001	396.38
316.23	400.38
316.46	397.38
316.689	419.38
316.919	434.38
317.148	412.38
317.377	416.38
317.607	417.38
317.836	415.38
318.065	394.38
318.295	408.38
318.524	416.38
318.753	402.38
318.983	390.38
319.212	412.38
319.441	415.38
319.67	437.38
319.9	405.38
320.129	402.38
320.358	402.38
320.587	417.38
320.816	404.38
321.046	415.38
321.275	418.38
321.504	408.38
321.733	434.38
321.962	445.38
322.191	457.38
322.42	466.38
322.649	458.38
322.878	460.38
323.108	469.38
323.337	489.38
323.566	504.38
323.795	530.38
324.024	569.38
324.253	675.38
324.482	946.38
324.71	1395.38
324.939	1930.38
325.168	1693.38
325.397	896.38
325.626	643.38
325.855	562.38
326.084	530.38
326.313	524.38
326.542	513.38
326.77	580.38
326.999	662.38
327.228	832.38
327.457	1260.38
327.686	1462.38
327.914	968.38
328.143	699.38
328.372	624.38
328.6	578.38
328.829	562.38
329.058	569.38
329.287	599.38
329.515	564.38
329.744	520.38
329.972	529.38
330.201	504.38
330.43	564.38
330.658	568.38
330.887	622.38
331.115	584.38
331.344	537.38
331.572	528.38
331.801	512.38
332.03	526.38
332.258	501.38
332.486	498.38
332.715	517.38
332.943	511.38
333.172	499.38
333.4	497.38
333.629	522.38
333.857	526.38
334.085	533.38
334.314	526.38
334.542	558.38
334.771	558.38
334.999	512.38
335.227	525.38
335.455	524.38
335.684	508.38
335.912	472.38
336.14	449.38
336.369	494.38
336.597	491.38
336.825	478.38
337.053	485.38
337.281	452.38
337.51	485.38
337.738	482.38
337.966	484.38
338.194	492.38
338.422	479.38
338.65	466.38
338.878	464.38
339.106	470.38
339.334	486.38
339.562	480.38
339.79	446.38
340.018	444.38
340.246	485.38
340.474	470.38
340.702	462.38
340.93	436.38
341.158	436.38
341.386	449.38
341.614	466.38
341.842	453.38
342.07	451.38
342.298	458.38
342.526	442.38
342.754	454.38
342.981	458.38
343.209	428.38
343.437	460.38
343.665	472.38
343.893	493.38
344.12	513.38
344.348	490.38
344.576	466.38
344.804	464.38
345.031	486.38
345.259	501.38
345.487	486.38
345.714	467.38
345.942	433.38
346.17	424.38
346.397	452.38
346.625	437.38
346.853	429.38
347.08	444.38
347.308	456.38
347.535	427.38
347.763	435.38
347.99	453.38
348.218	442.38
348.445	460.38
348.673	465.38
348.9	428.38
349.128	440.38
349.355	428.38
349.583	415.38
349.81	418.38
350.037	421.38
350.265	432.38
350.492	435.38
350.72	425.38
350.947	429.38
351.174	447.38
351.402	427.38
351.629	439.38
351.856	447.38
352.083	450.38
352.311	453.38
352.538	450.38
352.765	455.38
352.992	433.38
353.22	429.38
353.447	442.38
353.674	422.38
353.901	416.38
354.128	419.38
354.355	407.38
354.583	411.38
354.81	404.38
355.037	433.38
355.264	428.38
355.491	412.38
355.718	414.38
355.945	409.38
356.172	422.38
356.399	401.38
356.626	407.38
356.853	397.38
357.08	423.38
357.307	418.38
357.534	429.38
357.761	417.38
357.988	417.38
358.215	409.38
358.441	438.38
358.668	402.38
358.895	416.38
359.122	427.38
359.349	425.38
359.576	453.38
359.802	453.38
360.029	470.38
360.256	477.38
360.483	468.38
360.709	445.38
360.936	436.38
361.163	442.38
361.39	443.38
361.616	439.38
361.843	448.38
362.07	424.38
362.296	419.38
362.523	424.38
362.749	437.38
362.976	423.38
363.203	443.38
363.429	438.38
363.656	416.38
363.882	426.38
364.109	424.38
364.335	414.38
364.562	394.38
364.788	404.38
365.015	428.38
365.241	410.38
365.468	413.38
365.694	425.38
365.92	430.38
366.147	421.38
366.373	434.38
366.599	421.38
366.826	411.38
367.052	411.38
367.278	410.38
367.505	417.38
367.731	409.38
367.957	436.38
368.184	404.38
368.41	428.38
368.636	407.38
368.862	452.38
369.089	442.38
369.315	423.38
369.541	418.38
369.767	428.38
369.993	411.38
370.219	435.38
370.445	428.38
370.672	417.38
370.898	413.38
371.124	409.38
371.35	427.38
371.576	434.38
371.802	433.38
372.028	421.38
372.254	435.38
372.48	404.38
372.706	437.38
372.932	432.38
373.158	417.38
373.384	410.38
373.61	408.38
373.835	420.38
374.061	435.38
374.287	427.38
374.513	440.38
374.739	403.38
374.965	422.38
375.191	432.38
375.416	424.38
375.642	433.38
375.868	438.38
376.094	389.38
376.319	415.38
376.545	410.38
376.771	429.38
376.997	420.38
377.222	418.38
377.448	423.38
377.674	424.38
377.899	403.38
378.125	418.38
378.35	415.38
378.576	404.38
378.802	398.38
379.027	400.38
379.253	388.38
379.478	408.38
379.704	413.38
379.929	414.38
380.155	406.38
380.38	402.38
380.606	416.38
380.831	426.38
381.057	410.38
381.282	413.38
381.507	409.38
381.733	408.38
381.958	432.38
382.184	394.38
382.409	418.38
382.634	445.38
382.86	442.38
383.085	418.38
383.31	432.38
383.535	440.38
383.761	430.38
383.986	440.38
384.211	416.38
384.436	436.38
384.662	472.38
384.887	446.38
385.112	456.38
385.337	447.38
385.562	468.38
385.787	448.38
386.013	463.38
386.238	475.38
386.463	498.38
386.688	477.38
386.913	457.38
387.138	464.38
387.363	448.38
387.588	453.38
387.813	465.38
388.038	442.38
388.263	455.38
388.488	447.38
388.713	467.38
388.938	442.38
389.163	468.38
389.387	459.38
389.612	467.38
389.837	457.38
390.062	462.38
390.287	457.38
390.512	458.38
390.736	460.38
390.961	477.38
391.186	461.38
391.411	465.38
391.636	481.38
391.86	491.38
392.085	483.38
392.31	493.38
392.534	469.38
392.759	466.38
392.984	467.38
393.208	467.38
393.433	452.38
393.658	489.38
393.882	477.38
394.107	446.38
394.331	468.38
394.556	461.38
394.78	472.38
395.005	459.38
395.229	486.38
395.454	450.38
395.678	483.38
395.903	494.38
396.127	520.38
396.352	515.38
396.576	498.38
396.801	469.38
397.025	488.38
397.249	493.38
397.474	517.38
397.698	514.38
397.922	514.38
398.147	502.38
398.371	540.38
398.595	520.38
398.82	538.38
399.044	561.38
399.268	599.38
399.492	626.38
399.717	658.38
399.941	684.38
400.165	676.38
400.389	657.38
400.613	604.38
400.837	548.38
401.062	573.38
401.286	528.38
401.51	533.38
401.734	559.38
401.958	551.38
402.182	536.38
402.406	554.38
402.63	561.38
402.854	562.38
403.078	579.38
403.302	569.38
403.526	568.38
403.75	577.38
403.974	562.38
404.198	570.38
404.422	596.38
404.645	592.38
404.869	564.38
405.093	585.38
405.317	617.38
405.541	646.38
405.765	642.38
405.988	587.38
406.212	580.38
406.436	609.38
406.66	642.38
406.883	640.38
407.107	621.38
407.331	653.38
407.555	722.38
407.778	721.38
408.002	688.38
408.226	628.38
408.449	603.38
408.673	612.38
408.896	638.38
409.12	646.38
409.344	633.38
409.567	581.38
409.791	584.38
410.014	581.38
410.238	545.38
410.461	563.38
410.685	549.38
410.908	556.38
411.132	608.38
411.355	614.38
411.578	589.38
411.802	564.38
412.025	557.38
412.249	564.38
412.472	548.38
412.695	599.38
412.919	582.38
413.142	542.38
413.365	529.38
413.589	527.38
413.812	513.38
414.035	536.38
414.258	514.38
414.482	525.38
414.705	540.38
414.928	528.38
415.151	500.38
415.374	512.38
415.597	523.38
415.821	514.38
416.044	506.38
416.267	501.38
416.49	505.38
416.713	501.38
416.936	519.38
417.159	521.38
417.382	526.38
417.605	530.38
417.828	540.38
418.051	546.38
418.274	520.38
418.497	494.38
418.72	519.38
418.943	540.38
419.166	537.38
419.389	565.38
419.611	573.38
419.834	543.38
420.057	564.38
420.28	536.38
420.503	540.38
420.726	529.38
420.948	570.38
421.171	575.38
421.394	600.38
421.617	552.38
421.839	514.38
422.062	526.38
422.285	553.38
422.507	573.38
422.73	671.38
422.953	637.38
423.175	570.38
423.398	555.38
423.621	561.38
423.843	590.38
424.066	560.38
424.288	568.38
424.511	577.38
424.733	632.38
424.956	741.38
425.178	688.38
425.401	674.38
425.623	686.38
425.846	595.38
426.068	568.38
426.291	573.38
426.513	566.38
426.735	564.38
426.958	595.38
427.18	650.38
427.402	804.38
427.625	847.38
427.847	753.38
428.069	641.38
428.292	590.38
428.514	565.38
428.736	500.38
428.958	518.38
429.181	524.38
429.403	500.38
429.625	512.38
429.847	547.38
430.069	592.38
430.292	596.38
430.514	549.38
430.736	493.38
430.958	506.38
431.18	488.38
431.402	477.38
431.624	509.38
431.846	468.38
432.068	493.38
432.29	498.38
432.512	511.38
432.734	498.38
432.956	499.38
433.178	528.38
433.4	529.38
433.622	497.38
433.844	487.38
434.066	485.38
434.287	507.38
434.509	512.38
434.731	512.38
434.953	522.38
435.175	523.38
435.397	536.38
435.618	584.38
435.84	585.38
436.062	673.38
436.284	718.38
436.505	627.38
436.727	555.38
436.949	564.38
437.17	536.38
437.392	502.38
437.614	528.38
437.835	524.38
438.057	618.38
438.278	734.38
438.5	719.38
438.721	818.38
438.943	756.38
439.165	599.38
439.386	562.38
439.608	551.38
439.829	578.38
440.05	585.38
440.272	629.38
440.493	584.38
440.715	540.38
440.936	555.38
441.158	504.38
441.379	552.38
441.6	545.38
441.822	573.38
442.043	599.38
442.264	652.38
442.486	705.38
442.707	610.38
442.928	579.38
443.149	600.38
443.371	598.38
443.592	624.38
443.813	735.38
444.034	756.38
444.255	645.38
444.476	585.38
444.698	612.38
444.919	599.38
445.14	733.38
445.361	662.38
445.582	630.38
445.803	657.38
446.024	779.38
446.245	747.38
446.466	678.38
446.687	589.38
446.908	523.38
447.129	505.38
447.35	507.38
447.571	487.38
447.792	489.38
448.013	482.38
448.234	531.38
448.455	575.38
448.675	681.38
448.896	789.38
449.117	654.38
449.338	629.38
449.559	726.38
449.779	803.38
450	632.38
450.221	556.38
450.442	521.38
450.662	490.38
450.883	496.38
451.104	501.38
451.324	509.38
451.545	486.38
451.766	483.38
451.986	457.38
452.207	460.38
452.428	436.38
452.648	444.38
452.869	490.38
453.089	474.38
453.31	487.38
453.53	476.38
453.751	450.38
453.971	475.38
454.192	463.38
454.412	463.38
454.633	450.38
454.853	456.38
455.073	447.38
455.294	478.38
455.514	550.38
455.734	513.38
455.955	470.38
456.175	418.38
456.395	432.38
456.616	434.38
456.836	441.38
457.056	437.38
457.276	432.38
457.497	429.38
457.717	427.38
457.937	422.38
458.157	424.38
458.377	451.38
458.598	474.38
458.818	534.38
459.038	602.38
459.258	641.38
459.478	539.38
459.698	488.38
459.918	507.38
460.138	497.38
460.358	516.38
460.578	516.38
460.798	542.38
461.018	530.38
461.238	542.38
461.458	515.38
461.678	545.38
461.898	557.38
462.118	512.38
462.338	550.38
462.558	544.38
462.777	562.38
462.997	584.38
463.217	621.38
463.437	603.38
463.657	598.38
463.876	567.38
464.096	570.38
464.316	570.38
464.536	570.38
464.755	574.38
464.975	578.38
465.195	594.38
465.414	644.38
465.634	587.38
465.854	557.38
466.073	529.38
466.293	486.38
466.512	467.38
466.732	501.38
466.951	482.38
467.171	460.38
467.391	489.38
467.61	498.38
467.829	516.38
468.049	499.38
468.268	471.38
468.488	445.38
468.707	460.38
468.927	479.38
469.146	436.38
469.365	470.38
469.585	445.38
469.804	485.38
470.023	481.38
470.243	479.38
470.462	494.38
470.681	524.38
470.901	474.38
471.12	482.38
471.339	481.38
471.558	471.38
471.777	494.38
471.997	473.38
472.216	470.38
472.435	484.38
472.654	461.38
472.873	462.38
473.092	458.38
473.311	450.38
473.53	449.38
473.749	488.38
473.968	536.38
474.187	601.38
474.406	610.38
474.625	529.38
474.844	481.38
475.063	476.38
475.282	483.38
475.501	468.38
475.72	492.38
475.939	475.38
476.158	497.38
476.377	497.38
476.596	483.38
476.814	510.38
477.033	501.38
477.252	502.38
477.471	512.38
477.69	534.38
477.908	540.38
478.127	547.38
478.346	491.38
478.564	544.38
478.783	532.38
479.002	549.38
479.22	554.38
479.439	553.38
479.658	533.38
479.876	592.38
480.095	576.38
480.313	607.38
480.532	604.38
480.751	596.38
480.969	598.38
481.188	618.38
481.406	617.38
481.624	565.38
481.843	572.38
482.061	562.38
482.28	522.38
482.498	558.38
482.717	546.38
482.935	561.38
483.153	560.38
483.372	534.38
483.59	549.38
483.808	551.38
484.027	572.38
484.245	532.38
484.463	543.38
484.681	566.38
484.9	568.38
485.118	582.38
485.336	580.38
485.554	566.38
485.772	571.38
485.99	572.38
486.209	602.38
486.427	558.38
486.645	576.38
486.863	591.38
487.081	602.38
487.299	605.38
487.517	578.38
487.735	586.38
487.953	570.38
488.171	592.38
488.389	591.38
488.607	584.38
488.825	624.38
489.043	565.38
489.261	613.38
489.479	592.38
489.696	590.38
489.914	601.38
490.132	635.38
490.35	608.38
490.568	612.38
490.786	630.38
491.003	638.38
491.221	644.38
491.439	644.38
491.657	641.38
491.874	651.38
492.092	663.38
492.31	640.38
492.527	668.38
492.745	665.38
492.963	674.38
493.18	678.38
493.398	685.38
493.615	680.38
493.833	686.38
494.05	695.38
494.268	677.38
494.485	672.38
494.703	656.38
494.92	712.38
495.138	687.38
495.355	690.38
495.573	694.38
495.79	692.38
496.008	698.38
496.225	713.38
496.442	679.38
496.66	686.38
496.877	704.38
497.094	703.38
497.312	737.38
497.529	714.38
497.746	728.38
497.963	727.38
498.181	781.38
498.398	768.38
498.615	797.38
498.832	843.38
499.049	852.38
499.267	923.38
499.484	958.38
499.701	993.38
499.918	1036.38
500.135	1098.38
500.352	1164.38
500.569	1215.38
500.786	1205.38
501.003	1151.38
501.22	1084.38
501.437	1044.38
501.654	985.38
501.871	944.38
502.088	920.38
502.305	890.38
502.522	856.38
502.739	808.38
502.956	780.38
503.172	774.38
503.389	766.38
503.606	762.38
503.823	735.38
504.04	727.38
504.256	726.38
504.473	722.38
504.69	723.38
504.907	719.38
505.123	722.38
505.34	688.38
505.557	690.38
505.773	674.38
505.99	658.38
506.207	662.38
506.423	680.38
506.64	647.38
506.856	652.38
507.073	660.38
507.289	658.38
507.506	649.38
507.722	640.38
507.939	648.38
508.155	639.38
508.372	610.38
508.588	626.38
508.805	614.38
509.021	609.38
509.238	631.38
509.454	635.38
509.67	600.38
509.887	611.38
510.103	622.38
510.319	596.38
510.536	707.38
510.752	1166.38
510.968	931.38
511.184	644.38
511.401	611.38
511.617	598.38
511.833	596.38
512.049	563.38
512.265	594.38
512.481	566.38
512.698	590.38
512.914	577.38
513.13	599.38
513.346	560.38
513.562	600.38
513.778	577.38
513.994	582.38
514.21	587.38
514.426	616.38
514.642	653.38
514.858	683.38
515.074	722.38
515.29	816.38
515.506	1261.38
515.721	1060.38
515.937	706.38
516.153	656.38
516.369	637.38
516.585	626.38
516.801	644.38
517.016	638.38
517.232	630.38
517.448	644.38
517.664	676.38
517.879	647.38
518.095	639.38
518.311	636.38
518.527	617.38
518.742	642.38
518.958	621.38
519.173	620.38
519.389	598.38
519.605	601.38
519.82	604.38
520.036	625.38
520.251	620.38
520.467	624.38
520.682	638.38
520.898	636.38
521.113	669.38
521.329	665.38
521.544	743.38
521.76	907.38
521.975	1594.38
522.19	1594.38
522.406	862.38
522.621	635.38
522.836	593.38
523.052	574.38
523.267	554.38
523.482	544.38
523.698	544.38
523.913	535.38
524.128	538.38
524.343	516.38
524.559	521.38
524.774	513.38
524.989	525.38
525.204	526.38
525.419	520.38
525.634	486.38
525.849	516.38
526.064	523.38
526.28	490.38
526.495	496.38
526.71	493.38
526.925	494.38
527.14	502.38
527.355	486.38
527.57	476.38
527.785	484.38
527.999	452.38
528.214	478.38
528.429	483.38
528.644	516.38
528.859	473.38
529.074	487.38
529.289	499.38
529.503	589.38
529.718	568.38
529.933	515.38
530.148	500.38
530.363	498.38
530.577	468.38
530.792	468.38
531.007	478.38
531.221	471.38
531.436	459.38
531.651	481.38
531.865	469.38
532.08	485.38
532.295	480.38
532.509	486.38
532.724	466.38
532.938	472.38
533.153	466.38
533.367	474.38
533.582	458.38
533.796	485.38
534.011	460.38
534.225	466.38
534.44	459.38
534.654	460.38
534.868	468.38
535.083	467.38
535.297	473.38
535.511	457.38
535.726	478.38
535.94	473.38
536.154	478.38
536.369	442.38
536.583	451.38
536.797	440.38
537.011	446.38
537.225	469.38
537.44	461.38
537.654	447.38
537.868	440.38
538.082	438.38
538.296	452.38
538.51	457.38
538.724	453.38
538.938	435.38
539.153	442.38
539.367	470.38
539.581	446.38
539.795	432.38
540.009	438.38
540.222	426.38
540.436	454.38
540.65	460.38
540.864	451.38
541.078	461.38
541.292	450.38
541.506	440.38
541.72	416.38
541.934	458.38
542.147	443.38
542.361	417.38
542.575	442.38
542.789	443.38
543.002	440.38
543.216	435.38
543.43	438.38
543.644	448.38
543.857	430.38
544.071	444.38
544.285	446.38
544.498	446.38
544.712	456.38
544.925	439.38
545.139	428.38
545.352	426.38
545.566	416.38
545.779	438.38
545.993	424.38
546.206	424.38
546.42	436.38
546.633	428.38
546.847	419.38
547.06	428.38
547.274	419.38
547.487	424.38
547.7	438.38
547.914	394.38
548.127	408.38
548.34	409.38
548.554	429.38
548.767	429.38
548.98	432.38
549.193	428.38
549.407	442.38
549.62	422.38
549.833	412.38
550.046	431.38
550.259	409.38
550.473	405.38
550.686	430.38
550.899	435.38
551.112	406.38
551.325	453.38
551.538	413.38
551.751	412.38
551.964	424.38
552.177	427.38
552.39	445.38
552.603	446.38
552.816	448.38
553.029	445.38
553.242	447.38
553.455	443.38
553.667	466.38
553.88	475.38
554.093	443.38
554.306	445.38
554.519	438.38
554.732	421.38
554.944	421.38
555.157	418.38
555.37	417.38
555.583	409.38
555.795	407.38
556.008	395.38
556.221	387.38
556.433	368.38
556.646	380.38
556.859	395.38
557.071	385.38
557.284	388.38
557.496	381.38
557.709	365.38
557.921	382.38
558.134	378.38
558.346	376.38
558.559	385.38
558.771	387.38
558.984	388.38
559.196	369.38
559.409	371.38
559.621	389.38
559.833	371.38
560.046	366.38
560.258	375.38
560.47	365.38
560.683	380.38
560.895	370.38
561.107	384.38
561.32	374.38
561.532	366.38
561.744	365.38
561.956	376.38
562.168	374.38
562.381	371.38
562.593	365.38
562.805	393.38
563.017	393.38
563.229	388.38
563.441	385.38
563.653	373.38
563.865	381.38
564.077	386.38
564.289	409.38
564.501	379.38
564.713	406.38
564.925	420.38
565.137	386.38
565.349	413.38
565.561	414.38
565.773	433.38
565.985	436.38
566.197	457.38
566.408	464.38
566.62	481.38
566.832	489.38
567.044	483.38
567.255	487.38
567.467	514.38
567.679	520.38
567.891	538.38
568.102	550.38
568.314	537.38
568.526	492.38
568.737	502.38
568.949	454.38
569.161	455.38
569.372	432.38
569.584	433.38
569.795	416.38
570.007	402.38
570.218	454.38
570.43	435.38
570.641	388.38
570.853	376.38
571.064	382.38
571.276	382.38
571.487	359.38
571.698	364.38
571.91	350.38
572.121	342.38
572.333	350.38
572.544	348.38
572.755	345.38
572.966	343.38
573.178	347.38
573.389	329.38
573.6	330.38
573.811	314.38
574.023	316.38
574.234	338.38
574.445	340.38
574.656	337.38
574.867	341.38
575.078	325.38
575.289	338.38
575.501	330.38
575.712	320.38
575.923	324.38
576.134	320.38
576.345	322.38
576.556	328.38
576.767	320.38
576.978	321.38
577.188	291.38
577.399	318.38
577.61	304.38
577.821	321.38
578.032	317.38
578.243	334.38
578.454	542.38
578.665	412.38
578.875	310.38
579.086	312.38
579.297	322.38
579.508	289.38
579.718	293.38
579.929	304.38
580.14	293.38
580.35	302.38
580.561	296.38
580.772	310.38
580.982	289.38
581.193	299.38
581.403	292.38
581.614	283.38
581.825	308.38
582.035	293.38
582.246	276.38
582.456	287.38
582.667	305.38
582.877	298.38
583.087	296.38
583.298	277.38
583.508	285.38
583.719	293.38
583.929	269.38
584.139	296.38
584.35	301.38
584.56	296.38
584.77	283.38
584.981	309.38
585.191	291.38
585.401	280.38
585.611	270.38
585.821	282.38
586.032	286.38
586.242	268.38
586.452	281.38
586.662	277.38
586.872	268.38
587.082	278.38
587.292	267.38
587.502	280.38
587.713	277.38
587.923	293.38
588.133	282.38
588.343	277.38
588.553	271.38
588.762	293.38
588.972	283.38
589.182	284.38
589.392	274.38
589.602	293.38
589.812	278.38
590.022	291.38
590.232	276.38
590.441	286.38
590.651	278.38
590.861	296.38
591.071	289.38
591.281	283.38
591.49	292.38
591.7	286.38
591.91	284.38
592.119	290.38
592.329	312.38
592.539	288.38
592.748	300.38
592.958	307.38
593.167	300.38
593.377	309.38
593.587	323.38
593.796	326.38
594.006	316.38
594.215	344.38
594.424	333.38
594.634	333.38
594.843	315.38
595.053	327.38
595.262	313.38
595.472	309.38
595.681	306.38
595.89	286.38
596.1	289.38
596.309	271.38
596.518	282.38
596.727	273.38
596.937	272.38
597.146	284.38
597.355	277.38
597.564	276.38
597.774	249.38
597.983	277.38
598.192	256.38
598.401	260.38
598.61	269.38
598.819	259.38
599.028	252.38
599.237	245.38
599.446	245.38
599.655	250.38
599.864	259.38
600.073	261.38
600.282	246.38
600.491	236.38
600.7	228.38
600.909	254.38
601.118	256.38
601.327	229.38
601.536	242.38
601.745	235.38
601.953	270.38
602.162	246.38
602.371	248.38
602.58	235.38
602.789	246.38
602.997	254.38
603.206	254.38
603.415	238.38
603.623	241.38
603.832	248.38
604.041	232.38
604.249	234.38
604.458	245.38
604.666	231.38
604.875	238.38
605.084	235.38
605.292	230.38
605.501	253.38
605.709	232.38
605.918	223.38
606.126	227.38
606.334	225.38
606.543	221.38
606.751	242.38
606.96	216.38
607.168	203.38
607.376	232.38
607.585	252.38
607.793	230.38
608.001	227.38
608.21	229.38
608.418	231.38
608.626	215.38
608.834	234.38
609.043	228.38
609.251	226.38
609.459	229.38
609.667	218.38
609.875	235.38
610.083	236.38
610.291	229.38
610.499	228.38
610.707	223.38
610.916	230.38
611.124	250.38
611.332	246.38
611.54	240.38
611.748	223.38
611.955	225.38
612.163	229.38
612.371	232.38
612.579	224.38
612.787	230.38
612.995	232.38
613.203	237.38
613.411	236.38
613.618	222.38
613.826	233.38
614.034	226.38
614.242	219.38
614.449	212.38
614.657	232.38
614.865	222.38
615.072	215.38
615.28	233.38
615.488	224.38
615.695	223.38
615.903	208.38
616.111	216.38
616.318	216.38
616.526	227.38
616.733	215.38
616.941	233.38
617.148	222.38
617.356	224.38
617.563	230.38
617.771	220.38
617.978	240.38
618.185	227.38
618.393	229.38
618.6	209.38
618.807	220.38
619.015	203.38
619.222	207.38
619.429	225.38
619.637	221.38
619.844	225.38
620.051	214.38
620.258	209.38
620.466	207.38
620.673	216.38
620.88	224.38
621.087	201.38
621.294	206.38
621.501	215.38
621.708	220.38
621.915	212.38
622.122	212.38
622.329	218.38
622.536	221.38
622.743	202.38
622.95	222.38
623.157	204.38
623.364	199.38
623.571	201.38
623.778	198.38
623.985	196.38
624.192	220.38
624.399	204.38
624.606	193.38
624.812	208.38
625.019	182.38
625.226	205.38
625.433	200.38
625.639	220.38
625.846	198.38
626.053	193.38
626.259	190.38
626.466	210.38
626.673	202.38
626.879	198.38
627.086	192.38
627.293	187.38
627.499	193.38
627.706	188.38
627.912	202.38
628.119	212.38
628.325	201.38
628.532	185.38
628.738	178.38
628.945	191.38
629.151	177.38
629.357	191.38
629.564	194.38
629.77	201.38
629.976	181.38
630.183	185.38
630.389	198.38
630.595	204.38
630.802	188.38
631.008	191.38
631.214	183.38
631.42	186.38
631.627	195.38
631.833	183.38
632.039	192.38
632.245	160.38
632.451	184.38
632.657	187.38
632.863	189.38
633.069	182.38
633.275	176.38
633.481	171.38
633.688	196.38
633.893	176.38
634.099	181.38
634.305	188.38
634.511	181.38
634.717	163.38
634.923	184.38
635.129	172.38
635.335	169.38
635.541	179.38
635.747	179.38
635.952	174.38
636.158	196.38
636.364	174.38
636.57	185.38
636.775	184.38
636.981	186.38
637.187	172.38
637.392	166.38
637.598	193.38
637.804	187.38
638.009	188.38
638.215	168.38
638.421	176.38
638.626	174.38
638.832	176.38
639.037	154.38
639.243	169.38
639.448	164.38
639.654	157.38
639.859	173.38
640.065	173.38
640.27	171.38
640.475	168.38
640.681	163.38
640.886	159.38
641.091	165.38
641.297	158.38
641.502	155.38
641.707	167.38
641.913	158.38
642.118	154.38
642.323	176.38
642.528	166.38
642.733	169.38
642.939	152.38
643.144	145.38
643.349	161.38
643.554	159.38
643.759	161.38
643.964	155.38
644.169	174.38
644.374	182.38
644.579	164.38
644.784	156.38
644.989	153.38
645.194	148.38
645.399	147.38
645.604	141.38
645.809	156.38
646.014	149.38
646.219	153.38
646.423	166.38
646.628	158.38
646.833	159.38
647.038	144.38
647.243	164.38
647.447	156.38
647.652	166.38
647.857	152.38
648.062	164.38
648.266	176.38
648.471	166.38
648.676	159.38
648.88	156.38
649.085	159.38
649.289	180.38
649.494	158.38
649.698	195.38
649.903	172.38
650.107	170.38
650.312	169.38
650.516	164.38
650.721	156.38
650.925	160.38
651.13	156.38
651.334	157.38
651.539	151.38
651.743	157.38
651.947	148.38
652.152	146.38
652.356	140.38
652.56	131.38
652.764	139.38
652.969	141.38
653.173	139.38
653.377	123.38
653.581	124.38
653.785	132.38
653.99	138.38
654.194	132.38
654.398	128.38
654.602	136.38
654.806	137.38
655.01	148.38
655.214	144.38
655.418	133.38
655.622	122.38
655.826	137.38
656.03	132.38
656.234	155.38
656.438	128.38
656.642	146.38
656.846	129.38
657.049	129.38
657.253	134.38
657.457	126.38
657.661	131.38
657.865	125.38
658.068	126.38
658.272	111.38
658.476	96.38
658.68	119.38
658.883	112.38
659.087	113.38
659.291	91.38
659.494	100.38
659.698	109.38
659.901	110.38
660.105	108.38
660.309	94.38
660.512	91.38
660.716	97.38
660.919	98.38
661.123	102.38
661.326	100.38
661.53	89.38
661.733	97.38
661.936	93.38
662.14	75.38
662.343	92.38
662.546	97.38
662.75	92.38
662.953	84.38
663.156	90.38
663.36	91.38
663.563	87.38
663.766	93.38
663.969	92.38
664.173	77.38
664.376	81.38
664.579	85.38
664.782	91.38
664.985	81.38
665.188	79.38
665.391	79.38
665.594	82.38
665.797	77.38
666	91.38
666.203	74.38
666.406	75.38
666.609	86.38
666.812	91.38
667.015	78.38
667.218	91.38
667.421	82.38
667.624	97.38
667.827	86.38
668.03	87.38
668.232	81.38
668.435	74.38
668.638	80.38
668.841	82.38
669.043	80.38
669.246	74.38
669.449	93.38
669.651	72.38
669.854	76.38
670.057	92.38
670.259	87.38
670.462	86.38
670.665	80.38
670.867	78.38
671.07	72.38
671.272	73.38
671.475	77.38
671.677	85.38
671.88	75.38
672.082	84.38
672.284	83.38
672.487	92.38
672.689	89.38
672.892	83.38
