Data from 1985.PennyLincolnUp.Lamp.En5.5.200Scan.071819.P1_HRD10591_17-03-31-971.txt Node
Date: Thu Jul 18 17:03:31 EDT 2019
User: cochatt
Spectrometer: HR+D1059
Trigger mode: 1
Integration Time (sec): 1.000000E-1
Scans to average: 1
Electric dark correction enabled: true
Nonlinearity correction enabled: false
Boxcar width: 0
XAxis mode: Wavelengths
Number of Pixels in Spectrum: 2048
>>>>>Begin Spectral Data<<<<<
223.165	-5.62
223.4	-5.62
223.635	-5.62
223.869	-11.62
224.104	-17.62
224.338	-17.62
224.573	-9.62
224.808	-9.62
225.042	-4.62
225.277	-12.62
225.511	-3.62
225.746	-2.62
225.98	9.38
226.215	1.38
226.449	9.38
226.683	28.38
226.918	23.38
227.152	23.38
227.387	30.38
227.621	40.38
227.856	54.38
228.09	50.38
228.324	55.38
228.559	51.38
228.793	70.38
229.027	91.38
229.262	109.38
229.496	114.38
229.73	130.38
229.964	161.38
230.199	124.38
230.433	119.38
230.667	114.38
230.901	103.38
231.136	109.38
231.37	110.38
231.604	93.38
231.838	101.38
232.072	99.38
232.306	112.38
232.541	120.38
232.775	126.38
233.009	120.38
233.243	112.38
233.477	107.38
233.711	124.38
233.945	113.38
234.179	117.38
234.413	120.38
234.647	116.38
234.881	133.38
235.115	98.38
235.349	116.38
235.583	134.38
235.817	111.38
236.051	130.38
236.285	132.38
236.519	130.38
236.753	136.38
236.987	144.38
237.221	162.38
237.455	206.38
237.689	187.38
237.922	154.38
238.156	123.38
238.39	123.38
238.624	121.38
238.858	121.38
239.091	137.38
239.325	131.38
239.559	139.38
239.793	111.38
240.027	134.38
240.26	144.38
240.494	153.38
240.728	138.38
240.961	148.38
241.195	137.38
241.429	146.38
241.662	130.38
241.896	145.38
242.13	128.38
242.363	142.38
242.597	134.38
242.83	156.38
243.064	150.38
243.298	139.38
243.531	142.38
243.765	133.38
243.998	149.38
244.232	143.38
244.465	138.38
244.699	142.38
244.932	139.38
245.166	153.38
245.399	136.38
245.633	149.38
245.866	149.38
246.099	145.38
246.333	158.38
246.566	163.38
246.8	164.38
247.033	151.38
247.266	157.38
247.5	152.38
247.733	179.38
247.966	194.38
248.2	170.38
248.433	176.38
248.666	178.38
248.899	189.38
249.133	199.38
249.366	203.38
249.599	208.38
249.832	176.38
250.066	180.38
250.299	196.38
250.532	215.38
250.765	217.38
250.998	252.38
251.231	217.38
251.465	206.38
251.698	201.38
251.931	217.38
252.164	197.38
252.397	203.38
252.63	199.38
252.863	190.38
253.096	215.38
253.329	226.38
253.562	220.38
253.795	225.38
254.028	202.38
254.261	215.38
254.494	243.38
254.727	250.38
254.96	276.38
255.193	291.38
255.426	255.38
255.659	231.38
255.892	239.38
256.124	247.38
256.357	256.38
256.59	228.38
256.823	214.38
257.056	206.38
257.289	207.38
257.521	213.38
257.754	210.38
257.987	212.38
258.22	228.38
258.452	199.38
258.685	198.38
258.918	199.38
259.151	221.38
259.383	232.38
259.616	231.38
259.849	233.38
260.081	250.38
260.314	266.38
260.547	248.38
260.779	245.38
261.012	243.38
261.244	232.38
261.477	235.38
261.71	220.38
261.942	224.38
262.175	247.38
262.407	243.38
262.64	234.38
262.872	234.38
263.105	225.38
263.337	214.38
263.57	215.38
263.802	229.38
264.035	227.38
264.267	219.38
264.499	223.38
264.732	236.38
264.964	212.38
265.197	210.38
265.429	210.38
265.661	213.38
265.894	206.38
266.126	223.38
266.358	226.38
266.591	229.38
266.823	226.38
267.055	245.38
267.287	230.38
267.52	225.38
267.752	223.38
267.984	228.38
268.216	235.38
268.448	218.38
268.681	236.38
268.913	253.38
269.145	272.38
269.377	278.38
269.609	266.38
269.841	273.38
270.073	288.38
270.306	315.38
270.538	334.38
270.77	317.38
271.002	303.38
271.234	296.38
271.466	292.38
271.698	339.38
271.93	333.38
272.162	342.38
272.394	324.38
272.626	322.38
272.858	301.38
273.09	303.38
273.322	282.38
273.553	280.38
273.785	280.38
274.017	272.38
274.249	285.38
274.481	272.38
274.713	269.38
274.945	295.38
275.176	284.38
275.408	278.38
275.64	278.38
275.872	271.38
276.104	278.38
276.335	283.38
276.567	277.38
276.799	308.38
277.031	316.38
277.262	328.38
277.494	329.38
277.726	311.38
277.957	306.38
278.189	312.38
278.421	309.38
278.652	291.38
278.884	303.38
279.115	314.38
279.347	300.38
279.579	297.38
279.81	303.38
280.042	301.38
280.273	301.38
280.505	299.38
280.736	297.38
280.968	290.38
281.199	285.38
281.431	295.38
281.662	296.38
281.894	297.38
282.125	306.38
282.356	305.38
282.588	328.38
282.819	326.38
283.051	288.38
283.282	290.38
283.513	315.38
283.745	329.38
283.976	289.38
284.207	320.38
284.439	323.38
284.67	318.38
284.901	308.38
285.132	306.38
285.364	299.38
285.595	306.38
285.826	315.38
286.057	298.38
286.288	312.38
286.52	316.38
286.751	311.38
286.982	330.38
287.213	319.38
287.444	320.38
287.675	317.38
287.906	333.38
288.138	329.38
288.369	327.38
288.6	331.38
288.831	336.38
289.062	348.38
289.293	318.38
289.524	301.38
289.755	303.38
289.986	306.38
290.217	316.38
290.448	331.38
290.679	310.38
290.91	327.38
291.141	324.38
291.371	340.38
291.602	310.38
291.833	306.38
292.064	336.38
292.295	322.38
292.526	321.38
292.757	333.38
292.987	335.38
293.218	330.38
293.449	333.38
293.68	323.38
293.91	321.38
294.141	335.38
294.372	324.38
294.603	335.38
294.833	310.38
295.064	331.38
295.295	332.38
295.525	326.38
295.756	334.38
295.987	344.38
296.217	358.38
296.448	359.38
296.679	345.38
296.909	346.38
297.14	327.38
297.37	347.38
297.601	343.38
297.831	344.38
298.062	338.38
298.292	340.38
298.523	342.38
298.753	336.38
298.984	361.38
299.214	334.38
299.445	343.38
299.675	346.38
299.905	345.38
300.136	359.38
300.366	362.38
300.597	362.38
300.827	347.38
301.057	370.38
301.288	364.38
301.518	370.38
301.748	365.38
301.979	372.38
302.209	378.38
302.439	377.38
302.669	370.38
302.9	360.38
303.13	372.38
303.36	378.38
303.59	361.38
303.82	372.38
304.051	382.38
304.281	360.38
304.511	356.38
304.741	378.38
304.971	358.38
305.201	364.38
305.431	376.38
305.661	360.38
305.891	360.38
306.121	372.38
306.352	376.38
306.582	370.38
306.812	367.38
307.042	384.38
307.272	370.38
307.502	388.38
307.731	378.38
307.961	383.38
308.191	382.38
308.421	371.38
308.651	388.38
308.881	364.38
309.111	390.38
309.341	378.38
309.571	382.38
309.8	394.38
310.03	389.38
310.26	429.38
310.49	410.38
310.72	423.38
310.949	438.38
311.179	438.38
311.409	403.38
311.639	420.38
311.868	407.38
312.098	436.38
312.328	412.38
312.557	440.38
312.787	440.38
313.017	440.38
313.246	430.38
313.476	404.38
313.706	414.38
313.935	427.38
314.165	441.38
314.394	448.38
314.624	425.38
314.853	441.38
315.083	434.38
315.312	413.38
315.542	414.38
315.771	417.38
316.001	412.38
316.23	414.38
316.46	426.38
316.689	428.38
316.919	411.38
317.148	421.38
317.377	427.38
317.607	442.38
317.836	433.38
318.065	420.38
318.295	421.38
318.524	426.38
318.753	411.38
318.983	409.38
319.212	427.38
319.441	436.38
319.67	428.38
319.9	429.38
320.129	434.38
320.358	438.38
320.587	440.38
320.816	420.38
321.046	464.38
321.275	446.38
321.504	435.38
321.733	451.38
321.962	444.38
322.191	451.38
322.42	443.38
322.649	475.38
322.878	470.38
323.108	477.38
323.337	511.38
323.566	528.38
323.795	562.38
324.024	587.38
324.253	671.38
324.482	965.38
324.71	1466.38
324.939	2104.38
325.168	1759.38
325.397	923.38
325.626	660.38
325.855	574.38
326.084	544.38
326.313	519.38
326.542	540.38
326.77	572.38
326.999	675.38
327.228	876.38
327.457	1327.38
327.686	1567.38
327.914	1040.38
328.143	733.38
328.372	665.38
328.6	605.38
328.829	596.38
329.058	606.38
329.287	598.38
329.515	569.38
329.744	534.38
329.972	555.38
330.201	576.38
330.43	604.38
330.658	633.38
330.887	642.38
331.115	616.38
331.344	545.38
331.572	522.38
331.801	539.38
332.03	527.38
332.258	522.38
332.486	519.38
332.715	502.38
332.943	533.38
333.172	528.38
333.4	529.38
333.629	547.38
333.857	538.38
334.085	547.38
334.314	568.38
334.542	587.38
334.771	596.38
334.999	559.38
335.227	549.38
335.455	549.38
335.684	516.38
335.912	518.38
336.14	482.38
336.369	498.38
336.597	515.38
336.825	536.38
337.053	509.38
337.281	499.38
337.51	483.38
337.738	520.38
337.966	483.38
338.194	507.38
338.422	495.38
338.65	470.38
338.878	498.38
339.106	490.38
339.334	462.38
339.562	489.38
339.79	498.38
340.018	464.38
340.246	486.38
340.474	503.38
340.702	494.38
340.93	473.38
341.158	452.38
341.386	487.38
341.614	471.38
341.842	479.38
342.07	456.38
342.298	474.38
342.526	452.38
342.754	465.38
342.981	473.38
343.209	467.38
343.437	484.38
343.665	490.38
343.893	514.38
344.12	491.38
344.348	503.38
344.576	491.38
344.804	512.38
345.031	484.38
345.259	492.38
345.487	486.38
345.714	491.38
345.942	468.38
346.17	453.38
346.397	462.38
346.625	437.38
346.853	440.38
347.08	459.38
347.308	439.38
347.535	464.38
347.763	466.38
347.99	445.38
348.218	444.38
348.445	482.38
348.673	456.38
348.9	474.38
349.128	456.38
349.355	459.38
349.583	427.38
349.81	436.38
350.037	442.38
350.265	415.38
350.492	439.38
350.72	414.38
350.947	444.38
351.174	455.38
351.402	458.38
351.629	456.38
351.856	446.38
352.083	447.38
352.311	470.38
352.538	475.38
352.765	475.38
352.992	452.38
353.22	435.38
353.447	450.38
353.674	461.38
353.901	436.38
354.128	441.38
354.355	409.38
354.583	440.38
354.81	433.38
355.037	437.38
355.264	410.38
355.491	422.38
355.718	409.38
355.945	421.38
356.172	400.38
356.399	425.38
356.626	422.38
356.853	423.38
357.08	421.38
357.307	421.38
357.534	410.38
357.761	414.38
357.988	434.38
358.215	428.38
358.441	422.38
358.668	414.38
358.895	426.38
359.122	448.38
359.349	439.38
359.576	435.38
359.802	463.38
360.029	506.38
360.256	516.38
360.483	465.38
360.709	453.38
360.936	444.38
361.163	426.38
361.39	475.38
361.616	446.38
361.843	438.38
362.07	436.38
362.296	440.38
362.523	472.38
362.749	454.38
362.976	453.38
363.203	464.38
363.429	438.38
363.656	422.38
363.882	415.38
364.109	442.38
364.335	429.38
364.562	419.38
364.788	426.38
365.015	422.38
365.241	422.38
365.468	416.38
365.694	436.38
365.92	426.38
366.147	422.38
366.373	431.38
366.599	410.38
366.826	429.38
367.052	420.38
367.278	422.38
367.505	400.38
367.731	429.38
367.957	416.38
368.184	426.38
368.41	430.38
368.636	439.38
368.862	454.38
369.089	440.38
369.315	435.38
369.541	430.38
369.767	425.38
369.993	449.38
370.219	437.38
370.445	446.38
370.672	411.38
370.898	410.38
371.124	415.38
371.35	424.38
371.576	427.38
371.802	426.38
372.028	424.38
372.254	423.38
372.48	431.38
372.706	433.38
372.932	438.38
373.158	431.38
373.384	434.38
373.61	438.38
373.835	447.38
374.061	424.38
374.287	452.38
374.513	430.38
374.739	448.38
374.965	448.38
375.191	441.38
375.416	408.38
375.642	415.38
375.868	440.38
376.094	427.38
376.319	409.38
376.545	429.38
376.771	427.38
376.997	420.38
377.222	416.38
377.448	413.38
377.674	423.38
377.899	421.38
378.125	412.38
378.35	408.38
378.576	418.38
378.802	419.38
379.027	412.38
379.253	427.38
379.478	427.38
379.704	444.38
379.929	432.38
380.155	420.38
380.38	418.38
380.606	426.38
380.831	424.38
381.057	418.38
381.282	434.38
381.507	418.38
381.733	431.38
381.958	436.38
382.184	444.38
382.409	448.38
382.634	428.38
382.86	422.38
383.085	451.38
383.31	456.38
383.535	440.38
383.761	419.38
383.986	451.38
384.211	450.38
384.436	453.38
384.662	469.38
384.887	444.38
385.112	470.38
385.337	470.38
385.562	476.38
385.787	474.38
386.013	491.38
386.238	493.38
386.463	479.38
386.688	468.38
386.913	472.38
387.138	485.38
387.363	480.38
387.588	488.38
387.813	481.38
388.038	477.38
388.263	478.38
388.488	479.38
388.713	470.38
388.938	489.38
389.163	459.38
389.387	479.38
389.612	470.38
389.837	471.38
390.062	450.38
390.287	470.38
390.512	482.38
390.736	464.38
390.961	483.38
391.186	487.38
391.411	475.38
391.636	496.38
391.86	503.38
392.085	514.38
392.31	533.38
392.534	484.38
392.759	491.38
392.984	484.38
393.208	458.38
393.433	468.38
393.658	498.38
393.882	468.38
394.107	486.38
394.331	486.38
394.556	485.38
394.78	471.38
395.005	490.38
395.229	476.38
395.454	480.38
395.678	484.38
395.903	524.38
396.127	519.38
396.352	493.38
396.576	505.38
396.801	494.38
397.025	493.38
397.249	508.38
397.474	526.38
397.698	508.38
397.922	526.38
398.147	556.38
398.371	546.38
398.595	538.38
398.82	563.38
399.044	562.38
399.268	585.38
399.492	632.38
399.717	675.38
399.941	711.38
400.165	695.38
400.389	692.38
400.613	629.38
400.837	580.38
401.062	573.38
401.286	567.38
401.51	547.38
401.734	549.38
401.958	546.38
402.182	580.38
402.406	573.38
402.63	570.38
402.854	569.38
403.078	572.38
403.302	577.38
403.526	580.38
403.75	586.38
403.974	587.38
404.198	581.38
404.422	587.38
404.645	598.38
404.869	579.38
405.093	623.38
405.317	659.38
405.541	670.38
405.765	614.38
405.988	605.38
406.212	623.38
406.436	626.38
406.66	640.38
406.883	612.38
407.107	654.38
407.331	692.38
407.555	766.38
407.778	751.38
408.002	685.38
408.226	646.38
408.449	635.38
408.673	605.38
408.896	646.38
409.12	675.38
409.344	638.38
409.567	614.38
409.791	590.38
410.014	589.38
410.238	576.38
410.461	571.38
410.685	568.38
410.908	599.38
411.132	604.38
411.355	652.38
411.578	633.38
411.802	574.38
412.025	574.38
412.249	600.38
412.472	605.38
412.695	619.38
412.919	620.38
413.142	582.38
413.365	558.38
413.589	550.38
413.812	532.38
414.035	537.38
414.258	543.38
414.482	549.38
414.705	532.38
414.928	552.38
415.151	539.38
415.374	510.38
415.597	526.38
415.821	515.38
416.044	530.38
416.267	534.38
416.49	526.38
416.713	518.38
416.936	536.38
417.159	532.38
417.382	541.38
417.605	539.38
417.828	542.38
418.051	544.38
418.274	532.38
418.497	527.38
418.72	540.38
418.943	538.38
419.166	566.38
419.389	592.38
419.611	582.38
419.834	591.38
420.057	577.38
420.28	552.38
420.503	583.38
420.726	543.38
420.948	572.38
421.171	616.38
421.394	626.38
421.617	563.38
421.839	552.38
422.062	570.38
422.285	552.38
422.507	618.38
422.73	692.38
422.953	659.38
423.175	616.38
423.398	570.38
423.621	567.38
423.843	622.38
424.066	598.38
424.288	589.38
424.511	620.38
424.733	679.38
424.956	720.38
425.178	710.38
425.401	689.38
425.623	702.38
425.846	601.38
426.068	570.38
426.291	567.38
426.513	556.38
426.735	589.38
426.958	644.38
427.18	710.38
427.402	824.38
427.625	894.38
427.847	772.38
428.069	660.38
428.292	619.38
428.514	549.38
428.736	539.38
428.958	542.38
429.181	531.38
429.403	507.38
429.625	532.38
429.847	581.38
430.069	622.38
430.292	633.38
430.514	539.38
430.736	516.38
430.958	517.38
431.18	526.38
431.402	519.38
431.624	489.38
431.846	502.38
432.068	523.38
432.29	507.38
432.512	501.38
432.734	499.38
432.956	518.38
433.178	523.38
433.4	529.38
433.622	510.38
433.844	521.38
434.066	494.38
434.287	499.38
434.509	510.38
434.731	527.38
434.953	554.38
435.175	546.38
435.397	579.38
435.618	602.38
435.84	635.38
436.062	706.38
436.284	754.38
436.505	628.38
436.727	567.38
436.949	564.38
437.17	523.38
437.392	520.38
437.614	534.38
437.835	552.38
438.057	639.38
438.278	729.38
438.5	739.38
438.721	782.38
438.943	780.38
439.165	611.38
439.386	568.38
439.608	566.38
439.829	575.38
440.05	605.38
440.272	646.38
440.493	599.38
440.715	558.38
440.936	538.38
441.158	520.38
441.379	536.38
441.6	543.38
441.822	598.38
442.043	607.38
442.264	711.38
442.486	726.38
442.707	626.38
442.928	602.38
443.149	581.38
443.371	631.38
443.592	663.38
443.813	727.38
444.034	762.38
444.255	674.38
444.476	607.38
444.698	623.38
444.919	607.38
445.14	739.38
445.361	677.38
445.582	644.38
445.803	667.38
446.024	785.38
446.245	759.38
446.466	712.38
446.687	627.38
446.908	546.38
447.129	543.38
447.35	530.38
447.571	526.38
447.792	526.38
448.013	526.38
448.234	537.38
448.455	582.38
448.675	694.38
448.896	775.38
449.117	677.38
449.338	623.38
449.559	726.38
449.779	838.38
450	644.38
450.221	576.38
450.442	514.38
450.662	484.38
450.883	499.38
451.104	531.38
451.324	521.38
451.545	503.38
451.766	471.38
451.986	459.38
452.207	462.38
452.428	474.38
452.648	467.38
452.869	479.38
453.089	502.38
453.31	481.38
453.53	471.38
453.751	467.38
453.971	467.38
454.192	495.38
454.412	473.38
454.633	458.38
454.853	447.38
455.073	456.38
455.294	511.38
455.514	554.38
455.734	541.38
455.955	485.38
456.175	444.38
456.395	446.38
456.616	444.38
456.836	470.38
457.056	464.38
457.276	450.38
457.497	446.38
457.717	454.38
457.937	452.38
458.157	475.38
458.377	472.38
458.598	477.38
458.818	538.38
459.038	602.38
459.258	617.38
459.478	571.38
459.698	518.38
459.918	512.38
460.138	519.38
460.358	529.38
460.578	540.38
460.798	539.38
461.018	540.38
461.238	550.38
461.458	542.38
461.678	549.38
461.898	557.38
462.118	549.38
462.338	566.38
462.558	564.38
462.777	575.38
462.997	600.38
463.217	646.38
463.437	638.38
463.657	596.38
463.876	588.38
464.096	602.38
464.316	582.38
464.536	588.38
464.755	578.38
464.975	593.38
465.195	609.38
465.414	675.38
465.634	586.38
465.854	555.38
466.073	526.38
466.293	500.38
466.512	490.38
466.732	492.38
466.951	499.38
467.171	501.38
467.391	487.38
467.61	499.38
467.829	503.38
468.049	494.38
468.268	479.38
468.488	489.38
468.707	483.38
468.927	484.38
469.146	468.38
469.365	489.38
469.585	479.38
469.804	492.38
470.023	490.38
470.243	512.38
470.462	525.38
470.681	527.38
470.901	523.38
471.12	503.38
471.339	519.38
471.558	477.38
471.777	514.38
471.997	493.38
472.216	493.38
472.435	532.38
472.654	522.38
472.873	492.38
473.092	477.38
473.311	487.38
473.53	468.38
473.749	490.38
473.968	530.38
474.187	617.38
474.406	640.38
474.625	535.38
474.844	494.38
475.063	502.38
475.282	488.38
475.501	479.38
475.72	514.38
475.939	494.38
476.158	515.38
476.377	502.38
476.596	499.38
476.814	518.38
477.033	510.38
477.252	522.38
477.471	534.38
477.69	514.38
477.908	544.38
478.127	558.38
478.346	536.38
478.564	540.38
478.783	568.38
479.002	584.38
479.22	573.38
479.439	600.38
479.658	598.38
479.876	600.38
480.095	613.38
480.313	634.38
480.532	632.38
480.751	627.38
480.969	615.38
481.188	664.38
481.406	703.38
481.624	625.38
481.843	600.38
482.061	586.38
482.28	568.38
482.498	558.38
482.717	563.38
482.935	570.38
483.153	534.38
483.372	555.38
483.59	559.38
483.808	571.38
484.027	592.38
484.245	572.38
484.463	553.38
484.681	583.38
484.9	579.38
485.118	577.38
485.336	582.38
485.554	567.38
485.772	579.38
485.99	590.38
486.209	583.38
486.427	584.38
486.645	589.38
486.863	607.38
487.081	614.38
487.299	620.38
487.517	616.38
487.735	613.38
487.953	591.38
488.171	600.38
488.389	620.38
488.607	610.38
488.825	624.38
489.043	614.38
489.261	604.38
489.479	629.38
489.696	610.38
489.914	623.38
490.132	634.38
490.35	614.38
490.568	644.38
490.786	638.38
491.003	648.38
491.221	651.38
491.439	671.38
491.657	674.38
491.874	668.38
492.092	669.38
492.31	701.38
492.527	691.38
492.745	703.38
492.963	720.38
493.18	702.38
493.398	725.38
493.615	715.38
493.833	727.38
494.05	738.38
494.268	717.38
494.485	742.38
494.703	733.38
494.92	732.38
495.138	705.38
495.355	740.38
495.573	718.38
495.79	715.38
496.008	696.38
496.225	739.38
496.442	711.38
496.66	742.38
496.877	714.38
497.094	724.38
497.312	732.38
497.529	726.38
497.746	728.38
497.963	811.38
498.181	822.38
498.398	831.38
498.615	829.38
498.832	870.38
499.049	889.38
499.267	898.38
499.484	943.38
499.701	1007.38
499.918	1072.38
500.135	1141.38
500.352	1246.38
500.569	1209.38
500.786	1226.38
501.003	1225.38
501.22	1138.38
501.437	1046.38
501.654	1014.38
501.871	977.38
502.088	917.38
502.305	885.38
502.522	860.38
502.739	855.38
502.956	809.38
503.172	806.38
503.389	762.38
503.606	787.38
503.823	772.38
504.04	769.38
504.256	763.38
504.473	747.38
504.69	750.38
504.907	726.38
505.123	730.38
505.34	722.38
505.557	704.38
505.773	684.38
505.99	685.38
506.207	687.38
506.423	683.38
506.64	650.38
506.856	665.38
507.073	688.38
507.289	664.38
507.506	639.38
507.722	672.38
507.939	693.38
508.155	651.38
508.372	636.38
508.588	639.38
508.805	631.38
509.021	658.38
509.238	630.38
509.454	647.38
509.67	632.38
509.887	637.38
510.103	623.38
510.319	620.38
510.536	703.38
510.752	1196.38
510.968	963.38
511.184	655.38
511.401	621.38
511.617	608.38
511.833	601.38
512.049	614.38
512.265	606.38
512.481	601.38
512.698	607.38
512.914	596.38
513.13	595.38
513.346	594.38
513.562	589.38
513.778	612.38
513.994	588.38
514.21	619.38
514.426	637.38
514.642	658.38
514.858	700.38
515.074	723.38
515.29	866.38
515.506	1248.38
515.721	1059.38
515.937	717.38
516.153	677.38
516.369	666.38
516.585	627.38
516.801	639.38
517.016	673.38
517.232	650.38
517.448	668.38
517.664	669.38
517.879	685.38
518.095	673.38
518.311	626.38
518.527	644.38
518.742	654.38
518.958	653.38
519.173	634.38
519.389	616.38
519.605	636.38
519.82	610.38
520.036	612.38
520.251	637.38
520.467	638.38
520.682	678.38
520.898	683.38
521.113	672.38
521.329	720.38
521.544	768.38
521.76	951.38
521.975	1579.38
522.19	1568.38
522.406	886.38
522.621	671.38
522.836	613.38
523.052	577.38
523.267	574.38
523.482	568.38
523.698	558.38
523.913	537.38
524.128	547.38
524.343	560.38
524.559	542.38
524.774	541.38
524.989	505.38
525.204	542.38
525.419	524.38
525.634	526.38
525.849	526.38
526.064	520.38
526.28	513.38
526.495	511.38
526.71	489.38
526.925	490.38
527.14	503.38
527.355	480.38
527.57	492.38
527.785	499.38
527.999	480.38
528.214	494.38
528.429	493.38
528.644	501.38
528.859	495.38
529.074	507.38
529.289	521.38
529.503	567.38
529.718	560.38
529.933	535.38
530.148	520.38
530.363	492.38
530.577	488.38
530.792	484.38
531.007	493.38
531.221	490.38
531.436	475.38
531.651	503.38
531.865	487.38
532.08	474.38
532.295	497.38
532.509	487.38
532.724	470.38
532.938	488.38
533.153	494.38
533.367	470.38
533.582	486.38
533.796	460.38
534.011	500.38
534.225	482.38
534.44	479.38
534.654	480.38
534.868	475.38
535.083	459.38
535.297	476.38
535.511	486.38
535.726	484.38
535.94	479.38
536.154	475.38
536.369	463.38
536.583	452.38
536.797	463.38
537.011	458.38
537.225	467.38
537.44	438.38
537.654	464.38
537.868	465.38
538.082	462.38
538.296	457.38
538.51	470.38
538.724	472.38
538.938	444.38
539.153	462.38
539.367	497.38
539.581	459.38
539.795	452.38
540.009	462.38
540.222	454.38
540.436	459.38
540.65	462.38
540.864	470.38
541.078	454.38
541.292	453.38
541.506	453.38
541.72	458.38
541.934	440.38
542.147	442.38
542.361	451.38
542.575	461.38
542.789	460.38
543.002	439.38
543.216	441.38
543.43	461.38
543.644	443.38
543.857	438.38
544.071	460.38
544.285	453.38
544.498	447.38
544.712	435.38
544.925	438.38
545.139	431.38
545.352	453.38
545.566	446.38
545.779	449.38
545.993	452.38
546.206	455.38
546.42	454.38
546.633	456.38
546.847	430.38
547.06	447.38
547.274	447.38
547.487	436.38
547.7	436.38
547.914	436.38
548.127	445.38
548.34	433.38
548.554	434.38
548.767	442.38
548.98	450.38
549.193	422.38
549.407	426.38
549.62	438.38
549.833	454.38
550.046	414.38
550.259	438.38
550.473	405.38
550.686	443.38
550.899	436.38
551.112	421.38
551.325	398.38
551.538	438.38
551.751	441.38
551.964	443.38
552.177	439.38
552.39	448.38
552.603	451.38
552.816	454.38
553.029	449.38
553.242	445.38
553.455	454.38
553.667	472.38
553.88	461.38
554.093	440.38
554.306	465.38
554.519	446.38
554.732	458.38
554.944	423.38
555.157	421.38
555.37	424.38
555.583	416.38
555.795	412.38
556.008	399.38
556.221	414.38
556.433	388.38
556.646	398.38
556.859	405.38
557.071	396.38
557.284	406.38
557.496	403.38
557.709	396.38
557.921	370.38
558.134	385.38
558.346	395.38
558.559	390.38
558.771	406.38
558.984	380.38
559.196	396.38
559.409	398.38
559.621	390.38
559.833	389.38
560.046	380.38
560.258	376.38
560.47	378.38
560.683	374.38
560.895	376.38
561.107	380.38
561.32	390.38
561.532	396.38
561.744	398.38
561.956	396.38
562.168	387.38
562.381	398.38
562.593	377.38
562.805	392.38
563.017	376.38
563.229	393.38
563.441	392.38
563.653	390.38
563.865	396.38
564.077	369.38
564.289	386.38
564.501	387.38
564.713	407.38
564.925	412.38
565.137	410.38
565.349	423.38
565.561	443.38
565.773	418.38
565.985	432.38
566.197	470.38
566.408	474.38
566.62	502.38
566.832	510.38
567.044	524.38
567.255	522.38
567.467	519.38
567.679	548.38
567.891	564.38
568.102	562.38
568.314	527.38
568.526	504.38
568.737	483.38
568.949	472.38
569.161	450.38
569.372	423.38
569.584	440.38
569.795	415.38
570.007	432.38
570.218	448.38
570.43	445.38
570.641	404.38
570.853	408.38
571.064	399.38
571.276	415.38
571.487	406.38
571.698	395.38
571.91	374.38
572.121	354.38
572.333	374.38
572.544	351.38
572.755	350.38
572.966	325.38
573.178	340.38
573.389	340.38
573.6	364.38
573.811	333.38
574.023	349.38
574.234	334.38
574.445	341.38
574.656	337.38
574.867	332.38
575.078	322.38
575.289	342.38
575.501	348.38
575.712	327.38
575.923	338.38
576.134	327.38
576.345	346.38
576.556	321.38
576.767	304.38
576.978	314.38
577.188	307.38
577.399	329.38
577.61	316.38
577.821	312.38
578.032	346.38
578.243	330.38
578.454	544.38
578.665	410.38
578.875	319.38
579.086	312.38
579.297	321.38
579.508	307.38
579.718	306.38
579.929	295.38
580.14	325.38
580.35	304.38
580.561	316.38
580.772	313.38
580.982	322.38
581.193	320.38
581.403	307.38
581.614	285.38
581.825	301.38
582.035	310.38
582.246	300.38
582.456	312.38
582.667	285.38
582.877	281.38
583.087	301.38
583.298	290.38
583.508	294.38
583.719	296.38
583.929	302.38
584.139	294.38
584.35	292.38
584.56	303.38
584.77	307.38
584.981	301.38
585.191	302.38
585.401	287.38
585.611	290.38
585.821	284.38
586.032	294.38
586.242	290.38
586.452	278.38
586.662	290.38
586.872	285.38
587.082	296.38
587.292	287.38
587.502	299.38
587.713	284.38
587.923	297.38
588.133	294.38
588.343	286.38
588.553	310.38
588.762	286.38
588.972	297.38
589.182	283.38
589.392	293.38
589.602	288.38
589.812	293.38
590.022	308.38
590.232	304.38
590.441	291.38
590.651	299.38
590.861	295.38
591.071	292.38
591.281	278.38
591.49	307.38
591.7	322.38
591.91	297.38
592.119	310.38
592.329	294.38
592.539	313.38
592.748	323.38
592.958	317.38
593.167	311.38
593.377	326.38
593.587	324.38
593.796	327.38
594.006	349.38
594.215	306.38
594.424	330.38
594.634	338.38
594.843	308.38
595.053	330.38
595.262	301.38
595.472	310.38
595.681	293.38
595.89	288.38
596.1	281.38
596.309	282.38
596.518	308.38
596.727	284.38
596.937	280.38
597.146	279.38
597.355	274.38
597.564	283.38
597.774	276.38
597.983	260.38
598.192	273.38
598.401	262.38
598.61	272.38
598.819	258.38
599.028	270.38
599.237	262.38
599.446	276.38
599.655	246.38
599.864	257.38
600.073	252.38
600.282	251.38
600.491	244.38
600.7	239.38
600.909	246.38
601.118	250.38
601.327	266.38
601.536	239.38
601.745	244.38
601.953	280.38
602.162	261.38
602.371	239.38
602.58	244.38
602.789	247.38
602.997	247.38
603.206	242.38
603.415	251.38
603.623	243.38
603.832	242.38
604.041	250.38
604.249	235.38
604.458	235.38
604.666	243.38
604.875	239.38
605.084	244.38
605.292	237.38
605.501	250.38
605.709	237.38
605.918	236.38
606.126	239.38
606.334	226.38
606.543	234.38
606.751	234.38
606.96	258.38
607.168	237.38
607.376	236.38
607.585	227.38
607.793	226.38
608.001	229.38
608.21	218.38
608.418	230.38
608.626	238.38
608.834	231.38
609.043	245.38
609.251	249.38
609.459	231.38
609.667	235.38
609.875	229.38
610.083	234.38
610.291	227.38
610.499	246.38
610.707	247.38
610.916	240.38
611.124	266.38
611.332	255.38
611.54	230.38
611.748	235.38
611.955	235.38
612.163	219.38
612.371	230.38
612.579	236.38
612.787	229.38
612.995	231.38
613.203	247.38
613.411	238.38
613.618	214.38
613.826	230.38
614.034	239.38
614.242	234.38
614.449	242.38
614.657	224.38
614.865	235.38
615.072	228.38
615.28	243.38
615.488	239.38
615.695	227.38
615.903	230.38
616.111	235.38
616.318	234.38
616.526	226.38
616.733	231.38
616.941	234.38
617.148	238.38
617.356	222.38
617.563	238.38
617.771	248.38
617.978	218.38
618.185	234.38
618.393	229.38
618.6	206.38
618.807	232.38
619.015	242.38
619.222	227.38
619.429	223.38
619.637	236.38
619.844	219.38
620.051	209.38
620.258	223.38
620.466	217.38
620.673	212.38
620.88	232.38
621.087	211.38
621.294	221.38
621.501	218.38
621.708	211.38
621.915	231.38
622.122	214.38
622.329	228.38
622.536	220.38
622.743	221.38
622.95	208.38
623.157	210.38
623.364	221.38
623.571	212.38
623.778	212.38
623.985	191.38
624.192	207.38
624.399	202.38
624.606	217.38
624.812	201.38
625.019	213.38
625.226	205.38
625.433	205.38
625.639	212.38
625.846	214.38
626.053	209.38
626.259	202.38
626.466	198.38
626.673	206.38
626.879	196.38
627.086	219.38
627.293	207.38
627.499	204.38
627.706	213.38
627.912	214.38
628.119	217.38
628.325	189.38
628.532	188.38
628.738	175.38
628.945	186.38
629.151	188.38
629.357	197.38
629.564	218.38
629.77	195.38
629.976	176.38
630.183	173.38
630.389	189.38
630.595	181.38
630.802	179.38
631.008	194.38
631.214	197.38
631.42	199.38
631.627	224.38
631.833	185.38
632.039	187.38
632.245	183.38
632.451	194.38
632.657	186.38
632.863	195.38
633.069	201.38
633.275	181.38
633.481	177.38
633.688	175.38
633.893	192.38
634.099	195.38
634.305	181.38
634.511	170.38
634.717	182.38
634.923	193.38
635.129	182.38
635.335	186.38
635.541	182.38
635.747	174.38
635.952	175.38
636.158	185.38
636.364	188.38
636.57	187.38
636.775	177.38
636.981	163.38
637.187	175.38
637.392	171.38
637.598	174.38
637.804	185.38
638.009	191.38
638.215	166.38
638.421	175.38
638.626	172.38
638.832	162.38
639.037	169.38
639.243	165.38
639.448	172.38
639.654	182.38
639.859	181.38
640.065	171.38
640.27	183.38
640.475	186.38
640.681	166.38
640.886	178.38
641.091	184.38
641.297	168.38
641.502	167.38
641.707	151.38
641.913	167.38
642.118	163.38
642.323	169.38
642.528	162.38
642.733	183.38
642.939	149.38
643.144	168.38
643.349	159.38
643.554	151.38
643.759	166.38
643.964	154.38
644.169	154.38
644.374	154.38
644.579	157.38
644.784	154.38
644.989	167.38
645.194	158.38
645.399	159.38
645.604	157.38
645.809	165.38
646.014	149.38
646.219	175.38
646.423	162.38
646.628	164.38
646.833	155.38
647.038	183.38
647.243	183.38
647.447	156.38
647.652	178.38
647.857	178.38
648.062	158.38
648.266	168.38
648.471	169.38
648.676	171.38
648.88	171.38
649.085	164.38
649.289	163.38
649.494	173.38
649.698	195.38
649.903	174.38
650.107	162.38
650.312	172.38
650.516	157.38
650.721	162.38
650.925	153.38
651.13	157.38
651.334	155.38
651.539	147.38
651.743	148.38
651.947	144.38
652.152	162.38
652.356	134.38
652.56	141.38
652.764	124.38
652.969	142.38
653.173	135.38
653.377	128.38
653.581	120.38
653.785	149.38
653.99	148.38
654.194	136.38
654.398	139.38
654.602	130.38
654.806	139.38
655.01	154.38
655.214	142.38
655.418	130.38
655.622	135.38
655.826	132.38
656.03	135.38
656.234	131.38
656.438	136.38
656.642	147.38
656.846	134.38
657.049	121.38
657.253	123.38
657.457	114.38
657.661	123.38
657.865	122.38
658.068	132.38
658.272	105.38
658.476	115.38
658.68	109.38
658.883	95.38
659.087	114.38
659.291	112.38
659.494	106.38
659.698	113.38
659.901	96.38
660.105	96.38
660.309	102.38
660.512	95.38
660.716	101.38
660.919	103.38
661.123	104.38
661.326	98.38
661.53	102.38
661.733	86.38
661.936	94.38
662.14	92.38
662.343	85.38
662.546	94.38
662.75	95.38
662.953	83.38
663.156	89.38
663.36	80.38
663.563	78.38
663.766	81.38
663.969	89.38
664.173	85.38
664.376	106.38
664.579	94.38
664.782	91.38
664.985	107.38
665.188	75.38
665.391	91.38
665.594	83.38
665.797	95.38
666	78.38
666.203	82.38
666.406	86.38
666.609	89.38
666.812	91.38
667.015	76.38
667.218	99.38
667.421	75.38
667.624	80.38
667.827	88.38
668.03	79.38
668.232	78.38
668.435	84.38
668.638	89.38
668.841	78.38
669.043	76.38
669.246	67.38
669.449	83.38
669.651	87.38
669.854	98.38
670.057	85.38
670.259	83.38
670.462	76.38
670.665	88.38
670.867	80.38
671.07	65.38
671.272	95.38
671.475	73.38
671.677	89.38
671.88	84.38
672.082	91.38
672.284	80.38
672.487	80.38
672.689	79.38
672.892	95.38
