Data from 1985.PennyLincolnUp.Lamp.En5.5.200Scan.071819.P1_HRD10591_17-03-39-970.txt Node
Date: Thu Jul 18 17:03:39 EDT 2019
User: cochatt
Spectrometer: HR+D1059
Trigger mode: 1
Integration Time (sec): 1.000000E-1
Scans to average: 1
Electric dark correction enabled: true
Nonlinearity correction enabled: false
Boxcar width: 0
XAxis mode: Wavelengths
Number of Pixels in Spectrum: 2048
>>>>>Begin Spectral Data<<<<<
223.165	-25.12
223.4	-25.12
223.635	-25.12
223.869	-14.12
224.104	-15.12
224.338	-14.12
224.573	-14.12
224.808	-12.12
225.042	-1.12
225.277	-15.12
225.511	5.88
225.746	-12.12
225.98	13.88
226.215	20.88
226.449	21.88
226.683	12.88
226.918	24.88
227.152	22.88
227.387	26.88
227.621	50.88
227.856	36.88
228.09	39.88
228.324	47.88
228.559	46.88
228.793	65.88
229.027	112.88
229.262	112.88
229.496	107.88
229.73	124.88
229.964	136.88
230.199	120.88
230.433	114.88
230.667	97.88
230.901	126.88
231.136	97.88
231.37	116.88
231.604	112.88
231.838	114.88
232.072	116.88
232.306	114.88
232.541	111.88
232.775	104.88
233.009	119.88
233.243	110.88
233.477	120.88
233.711	120.88
233.945	117.88
234.179	116.88
234.413	128.88
234.647	109.88
234.881	124.88
235.115	120.88
235.349	123.88
235.583	121.88
235.817	125.88
236.051	127.88
236.285	135.88
236.519	125.88
236.753	108.88
236.987	122.88
237.221	167.88
237.455	214.88
237.689	184.88
237.922	131.88
238.156	142.88
238.39	152.88
238.624	119.88
238.858	130.88
239.091	134.88
239.325	108.88
239.559	128.88
239.793	116.88
240.027	115.88
240.26	139.88
240.494	150.88
240.728	156.88
240.961	156.88
241.195	145.88
241.429	127.88
241.662	126.88
241.896	125.88
242.13	139.88
242.363	143.88
242.597	148.88
242.83	136.88
243.064	139.88
243.298	151.88
243.531	148.88
243.765	144.88
243.998	147.88
244.232	147.88
244.465	160.88
244.699	150.88
244.932	151.88
245.166	150.88
245.399	141.88
245.633	158.88
245.866	151.88
246.099	154.88
246.333	164.88
246.566	162.88
246.8	150.88
247.033	168.88
247.266	139.88
247.5	165.88
247.733	165.88
247.966	166.88
248.2	180.88
248.433	178.88
248.666	167.88
248.899	182.88
249.133	204.88
249.366	190.88
249.599	188.88
249.832	186.88
250.066	186.88
250.299	168.88
250.532	189.88
250.765	193.88
250.998	248.88
251.231	222.88
251.465	216.88
251.698	202.88
251.931	209.88
252.164	194.88
252.397	198.88
252.63	201.88
252.863	207.88
253.096	220.88
253.329	229.88
253.562	219.88
253.795	209.88
254.028	212.88
254.261	219.88
254.494	219.88
254.727	253.88
254.96	278.88
255.193	272.88
255.426	231.88
255.659	224.88
255.892	246.88
256.124	231.88
256.357	244.88
256.59	237.88
256.823	234.88
257.056	208.88
257.289	206.88
257.521	227.88
257.754	221.88
257.987	223.88
258.22	230.88
258.452	206.88
258.685	213.88
258.918	207.88
259.151	218.88
259.383	210.88
259.616	221.88
259.849	233.88
260.081	233.88
260.314	256.88
260.547	249.88
260.779	254.88
261.012	243.88
261.244	223.88
261.477	217.88
261.71	236.88
261.942	237.88
262.175	244.88
262.407	236.88
262.64	220.88
262.872	209.88
263.105	228.88
263.337	229.88
263.57	221.88
263.802	222.88
264.035	218.88
264.267	232.88
264.499	208.88
264.732	223.88
264.964	218.88
265.197	226.88
265.429	227.88
265.661	234.88
265.894	224.88
266.126	219.88
266.358	240.88
266.591	237.88
266.823	223.88
267.055	228.88
267.287	245.88
267.52	235.88
267.752	242.88
267.984	235.88
268.216	233.88
268.448	229.88
268.681	261.88
268.913	249.88
269.145	275.88
269.377	279.88
269.609	280.88
269.841	276.88
270.073	292.88
270.306	305.88
270.538	329.88
270.77	320.88
271.002	318.88
271.234	289.88
271.466	293.88
271.698	314.88
271.93	313.88
272.162	333.88
272.394	329.88
272.626	289.88
272.858	309.88
273.09	296.88
273.322	287.88
273.553	273.88
273.785	292.88
274.017	270.88
274.249	280.88
274.481	290.88
274.713	288.88
274.945	256.88
275.176	260.88
275.408	290.88
275.64	285.88
275.872	266.88
276.104	285.88
276.335	283.88
276.567	291.88
276.799	320.88
277.031	338.88
277.262	338.88
277.494	346.88
277.726	332.88
277.957	294.88
278.189	322.88
278.421	310.88
278.652	295.88
278.884	301.88
279.115	296.88
279.347	288.88
279.579	289.88
279.81	279.88
280.042	289.88
280.273	291.88
280.505	307.88
280.736	282.88
280.968	298.88
281.199	290.88
281.431	299.88
281.662	286.88
281.894	305.88
282.125	308.88
282.356	289.88
282.588	328.88
282.819	336.88
283.051	300.88
283.282	292.88
283.513	306.88
283.745	306.88
283.976	294.88
284.207	310.88
284.439	309.88
284.67	329.88
284.901	311.88
285.132	314.88
285.364	289.88
285.595	308.88
285.826	292.88
286.057	316.88
286.288	309.88
286.52	308.88
286.751	316.88
286.982	311.88
287.213	313.88
287.444	306.88
287.675	334.88
287.906	320.88
288.138	329.88
288.369	328.88
288.6	340.88
288.831	315.88
289.062	335.88
289.293	338.88
289.524	332.88
289.755	325.88
289.986	307.88
290.217	316.88
290.448	316.88
290.679	318.88
290.91	303.88
291.141	329.88
291.371	329.88
291.602	323.88
291.833	329.88
292.064	331.88
292.295	329.88
292.526	301.88
292.757	327.88
292.987	332.88
293.218	303.88
293.449	314.88
293.68	324.88
293.91	324.88
294.141	331.88
294.372	328.88
294.603	318.88
294.833	335.88
295.064	326.88
295.295	316.88
295.525	338.88
295.756	334.88
295.987	333.88
296.217	344.88
296.448	351.88
296.679	343.88
296.909	322.88
297.14	350.88
297.37	343.88
297.601	337.88
297.831	324.88
298.062	349.88
298.292	332.88
298.523	347.88
298.753	334.88
298.984	331.88
299.214	353.88
299.445	332.88
299.675	360.88
299.905	345.88
300.136	342.88
300.366	368.88
300.597	348.88
300.827	350.88
301.057	363.88
301.288	374.88
301.518	372.88
301.748	361.88
301.979	368.88
302.209	353.88
302.439	372.88
302.669	384.88
302.9	374.88
303.13	380.88
303.36	369.88
303.59	383.88
303.82	361.88
304.051	378.88
304.281	370.88
304.511	360.88
304.741	363.88
304.971	373.88
305.201	382.88
305.431	369.88
305.661	352.88
305.891	365.88
306.121	370.88
306.352	364.88
306.582	368.88
306.812	366.88
307.042	379.88
307.272	362.88
307.502	374.88
307.731	364.88
307.961	380.88
308.191	364.88
308.421	369.88
308.651	390.88
308.881	377.88
309.111	382.88
309.341	369.88
309.571	368.88
309.8	385.88
310.03	382.88
310.26	396.88
310.49	384.88
310.72	400.88
310.949	425.88
311.179	437.88
311.409	420.88
311.639	407.88
311.868	413.88
312.098	406.88
312.328	405.88
312.557	458.88
312.787	427.88
313.017	441.88
313.246	414.88
313.476	408.88
313.706	412.88
313.935	421.88
314.165	428.88
314.394	438.88
314.624	413.88
314.853	422.88
315.083	407.88
315.312	413.88
315.542	420.88
315.771	417.88
316.001	420.88
316.23	415.88
316.46	421.88
316.689	423.88
316.919	434.88
317.148	416.88
317.377	444.88
317.607	419.88
317.836	411.88
318.065	417.88
318.295	412.88
318.524	438.88
318.753	419.88
318.983	413.88
319.212	410.88
319.441	418.88
319.67	423.88
319.9	423.88
320.129	409.88
320.358	433.88
320.587	412.88
320.816	423.88
321.046	439.88
321.275	446.88
321.504	442.88
321.733	433.88
321.962	446.88
322.191	470.88
322.42	474.88
322.649	483.88
322.878	470.88
323.108	515.88
323.337	518.88
323.566	523.88
323.795	554.88
324.024	580.88
324.253	696.88
324.482	945.88
324.71	1450.88
324.939	2009.88
325.168	1704.88
325.397	923.88
325.626	654.88
325.855	567.88
326.084	560.88
326.313	524.88
326.542	552.88
326.77	585.88
326.999	658.88
327.228	899.88
327.457	1277.88
327.686	1520.88
327.914	1030.88
328.143	745.88
328.372	644.88
328.6	608.88
328.829	587.88
329.058	603.88
329.287	587.88
329.515	547.88
329.744	526.88
329.972	561.88
330.201	553.88
330.43	590.88
330.658	623.88
330.887	631.88
331.115	596.88
331.344	537.88
331.572	546.88
331.801	530.88
332.03	529.88
332.258	523.88
332.486	525.88
332.715	504.88
332.943	524.88
333.172	536.88
333.4	536.88
333.629	548.88
333.857	560.88
334.085	594.88
334.314	556.88
334.542	604.88
334.771	609.88
334.999	585.88
335.227	573.88
335.455	512.88
335.684	538.88
335.912	516.88
336.14	504.88
336.369	519.88
336.597	523.88
336.825	522.88
337.053	499.88
337.281	489.88
337.51	481.88
337.738	485.88
337.966	495.88
338.194	492.88
338.422	484.88
338.65	477.88
338.878	497.88
339.106	476.88
339.334	457.88
339.562	456.88
339.79	466.88
340.018	469.88
340.246	471.88
340.474	462.88
340.702	466.88
340.93	468.88
341.158	454.88
341.386	474.88
341.614	477.88
341.842	468.88
342.07	458.88
342.298	457.88
342.526	467.88
342.754	440.88
342.981	469.88
343.209	470.88
343.437	467.88
343.665	493.88
343.893	508.88
344.12	490.88
344.348	473.88
344.576	470.88
344.804	502.88
345.031	498.88
345.259	500.88
345.487	476.88
345.714	456.88
345.942	456.88
346.17	457.88
346.397	456.88
346.625	448.88
346.853	466.88
347.08	466.88
347.308	451.88
347.535	461.88
347.763	460.88
347.99	469.88
348.218	465.88
348.445	457.88
348.673	457.88
348.9	454.88
349.128	452.88
349.355	434.88
349.583	452.88
349.81	451.88
350.037	440.88
350.265	448.88
350.492	448.88
350.72	446.88
350.947	438.88
351.174	438.88
351.402	457.88
351.629	472.88
351.856	455.88
352.083	473.88
352.311	470.88
352.538	462.88
352.765	461.88
352.992	443.88
353.22	447.88
353.447	460.88
353.674	455.88
353.901	428.88
354.128	429.88
354.355	433.88
354.583	435.88
354.81	437.88
355.037	427.88
355.264	407.88
355.491	422.88
355.718	443.88
355.945	412.88
356.172	414.88
356.399	416.88
356.626	383.88
356.853	420.88
357.08	411.88
357.307	421.88
357.534	434.88
357.761	440.88
357.988	438.88
358.215	432.88
358.441	437.88
358.668	425.88
358.895	426.88
359.122	440.88
359.349	439.88
359.576	442.88
359.802	467.88
360.029	472.88
360.256	478.88
360.483	485.88
360.709	459.88
360.936	447.88
361.163	453.88
361.39	437.88
361.616	448.88
361.843	424.88
362.07	431.88
362.296	463.88
362.523	445.88
362.749	452.88
362.976	420.88
363.203	438.88
363.429	445.88
363.656	435.88
363.882	418.88
364.109	422.88
364.335	421.88
364.562	404.88
364.788	434.88
365.015	425.88
365.241	432.88
365.468	440.88
365.694	407.88
365.92	429.88
366.147	412.88
366.373	418.88
366.599	433.88
366.826	432.88
367.052	413.88
367.278	441.88
367.505	432.88
367.731	422.88
367.957	432.88
368.184	430.88
368.41	429.88
368.636	443.88
368.862	446.88
369.089	442.88
369.315	411.88
369.541	437.88
369.767	452.88
369.993	421.88
370.219	446.88
370.445	429.88
370.672	432.88
370.898	412.88
371.124	443.88
371.35	430.88
371.576	426.88
371.802	430.88
372.028	421.88
372.254	427.88
372.48	438.88
372.706	428.88
372.932	440.88
373.158	438.88
373.384	429.88
373.61	436.88
373.835	444.88
374.061	446.88
374.287	457.88
374.513	426.88
374.739	435.88
374.965	442.88
375.191	436.88
375.416	435.88
375.642	438.88
375.868	445.88
376.094	425.88
376.319	419.88
376.545	412.88
376.771	428.88
376.997	426.88
377.222	426.88
377.448	416.88
377.674	445.88
377.899	421.88
378.125	416.88
378.35	414.88
378.576	420.88
378.802	410.88
379.027	422.88
379.253	397.88
379.478	432.88
379.704	426.88
379.929	428.88
380.155	416.88
380.38	426.88
380.606	442.88
380.831	425.88
381.057	435.88
381.282	422.88
381.507	455.88
381.733	434.88
381.958	401.88
382.184	428.88
382.409	425.88
382.634	440.88
382.86	426.88
383.085	435.88
383.31	444.88
383.535	465.88
383.761	449.88
383.986	462.88
384.211	464.88
384.436	442.88
384.662	463.88
384.887	467.88
385.112	467.88
385.337	460.88
385.562	481.88
385.787	460.88
386.013	467.88
386.238	463.88
386.463	445.88
386.688	490.88
386.913	463.88
387.138	470.88
387.363	456.88
387.588	472.88
387.813	457.88
388.038	465.88
388.263	458.88
388.488	485.88
388.713	475.88
388.938	471.88
389.163	456.88
389.387	470.88
389.612	466.88
389.837	490.88
390.062	469.88
390.287	454.88
390.512	471.88
390.736	480.88
390.961	464.88
391.186	470.88
391.411	500.88
391.636	507.88
391.86	502.88
392.085	503.88
392.31	487.88
392.534	510.88
392.759	487.88
392.984	500.88
393.208	490.88
393.433	474.88
393.658	485.88
393.882	497.88
394.107	459.88
394.331	471.88
394.556	482.88
394.78	486.88
395.005	475.88
395.229	480.88
395.454	500.88
395.678	511.88
395.903	488.88
396.127	512.88
396.352	534.88
396.576	489.88
396.801	469.88
397.025	479.88
397.249	505.88
397.474	502.88
397.698	479.88
397.922	530.88
398.147	521.88
398.371	558.88
398.595	541.88
398.82	564.88
399.044	582.88
399.268	598.88
399.492	647.88
399.717	669.88
399.941	670.88
400.165	717.88
400.389	723.88
400.613	632.88
400.837	610.88
401.062	580.88
401.286	556.88
401.51	565.88
401.734	553.88
401.958	572.88
402.182	558.88
402.406	552.88
402.63	569.88
402.854	562.88
403.078	577.88
403.302	571.88
403.526	595.88
403.75	587.88
403.974	594.88
404.198	581.88
404.422	574.88
404.645	582.88
404.869	602.88
405.093	650.88
405.317	644.88
405.541	683.88
405.765	644.88
405.988	620.88
406.212	606.88
406.436	631.88
406.66	652.88
406.883	628.88
407.107	645.88
407.331	669.88
407.555	752.88
407.778	764.88
408.002	688.88
408.226	650.88
408.449	621.88
408.673	619.88
408.896	649.88
409.12	713.88
409.344	636.88
409.567	610.88
409.791	602.88
410.014	560.88
410.238	590.88
410.461	557.88
410.685	574.88
410.908	596.88
411.132	587.88
411.355	638.88
411.578	628.88
411.802	560.88
412.025	577.88
412.249	574.88
412.472	604.88
412.695	641.88
412.919	578.88
413.142	588.88
413.365	556.88
413.589	535.88
413.812	562.88
414.035	544.88
414.258	538.88
414.482	538.88
414.705	537.88
414.928	522.88
415.151	531.88
415.374	536.88
415.597	560.88
415.821	558.88
416.044	536.88
416.267	553.88
416.49	552.88
416.713	512.88
416.936	514.88
417.159	526.88
417.382	561.88
417.605	514.88
417.828	577.88
418.051	565.88
418.274	550.88
418.497	545.88
418.72	539.88
418.943	537.88
419.166	554.88
419.389	584.88
419.611	566.88
419.834	554.88
420.057	576.88
420.28	587.88
420.503	567.88
420.726	564.88
420.948	575.88
421.171	584.88
421.394	616.88
421.617	558.88
421.839	547.88
422.062	556.88
422.285	557.88
422.507	625.88
422.73	690.88
422.953	659.88
423.175	595.88
423.398	554.88
423.621	582.88
423.843	577.88
424.066	584.88
424.288	572.88
424.511	637.88
424.733	655.88
424.956	720.88
425.178	702.88
425.401	710.88
425.623	688.88
425.846	618.88
426.068	582.88
426.291	567.88
426.513	549.88
426.735	587.88
426.958	610.88
427.18	669.88
427.402	833.88
427.625	896.88
427.847	806.88
428.069	674.88
428.292	602.88
428.514	563.88
428.736	551.88
428.958	542.88
429.181	520.88
429.403	524.88
429.625	521.88
429.847	577.88
430.069	620.88
430.292	602.88
430.514	521.88
430.736	526.88
430.958	521.88
431.18	512.88
431.402	492.88
431.624	506.88
431.846	496.88
432.068	485.88
432.29	492.88
432.512	497.88
432.734	512.88
432.956	505.88
433.178	522.88
433.4	548.88
433.622	516.88
433.844	528.88
434.066	503.88
434.287	508.88
434.509	512.88
434.731	518.88
434.953	561.88
435.175	561.88
435.397	549.88
435.618	580.88
435.84	596.88
436.062	681.88
436.284	744.88
436.505	597.88
436.727	563.88
436.949	546.88
437.17	529.88
437.392	517.88
437.614	512.88
437.835	597.88
438.057	667.88
438.278	761.88
438.5	746.88
438.721	822.88
438.943	750.88
439.165	594.88
439.386	560.88
439.608	573.88
439.829	572.88
440.05	595.88
440.272	638.88
440.493	581.88
440.715	564.88
440.936	548.88
441.158	534.88
441.379	557.88
441.6	533.88
441.822	563.88
442.043	596.88
442.264	679.88
442.486	708.88
442.707	619.88
442.928	593.88
443.149	589.88
443.371	617.88
443.592	641.88
443.813	725.88
444.034	787.88
444.255	676.88
444.476	618.88
444.698	593.88
444.919	608.88
445.14	745.88
445.361	656.88
445.582	625.88
445.803	679.88
446.024	774.88
446.245	752.88
446.466	674.88
446.687	610.88
446.908	564.88
447.129	552.88
447.35	515.88
447.571	536.88
447.792	532.88
448.013	506.88
448.234	524.88
448.455	603.88
448.675	677.88
448.896	788.88
449.117	653.88
449.338	625.88
449.559	740.88
449.779	838.88
450	657.88
450.221	552.88
450.442	508.88
450.662	520.88
450.883	504.88
451.104	522.88
451.324	493.88
451.545	519.88
451.766	482.88
451.986	458.88
452.207	441.88
452.428	424.88
452.648	448.88
452.869	466.88
453.089	467.88
453.31	492.88
453.53	466.88
453.751	481.88
453.971	466.88
454.192	492.88
454.412	476.88
454.633	464.88
454.853	422.88
455.073	462.88
455.294	490.88
455.514	532.88
455.734	548.88
455.955	480.88
456.175	452.88
456.395	456.88
456.616	447.88
456.836	434.88
457.056	456.88
457.276	424.88
457.497	444.88
457.717	452.88
457.937	448.88
458.157	453.88
458.377	455.88
458.598	470.88
458.818	547.88
459.038	613.88
459.258	635.88
459.478	546.88
459.698	522.88
459.918	519.88
460.138	530.88
460.358	533.88
460.578	549.88
460.798	540.88
461.018	539.88
461.238	534.88
461.458	519.88
461.678	536.88
461.898	535.88
462.118	555.88
462.338	550.88
462.558	555.88
462.777	572.88
462.997	611.88
463.217	611.88
463.437	658.88
463.657	587.88
463.876	605.88
464.096	586.88
464.316	569.88
464.536	567.88
464.755	575.88
464.975	586.88
465.195	597.88
465.414	629.88
465.634	564.88
465.854	528.88
466.073	533.88
466.293	517.88
466.512	490.88
466.732	484.88
466.951	472.88
467.171	474.88
467.391	497.88
467.61	488.88
467.829	524.88
468.049	500.88
468.268	515.88
468.488	480.88
468.707	475.88
468.927	477.88
469.146	467.88
469.365	490.88
469.585	457.88
469.804	488.88
470.023	515.88
470.243	496.88
470.462	522.88
470.681	505.88
470.901	523.88
471.12	496.88
471.339	491.88
471.558	502.88
471.777	487.88
471.997	481.88
472.216	499.88
472.435	524.88
472.654	504.88
472.873	500.88
473.092	472.88
473.311	472.88
473.53	486.88
473.749	517.88
473.968	524.88
474.187	610.88
474.406	636.88
474.625	542.88
474.844	491.88
475.063	498.88
475.282	496.88
475.501	484.88
475.72	490.88
475.939	496.88
476.158	523.88
476.377	506.88
476.596	499.88
476.814	518.88
477.033	519.88
477.252	521.88
477.471	523.88
477.69	534.88
477.908	545.88
478.127	555.88
478.346	549.88
478.564	552.88
478.783	549.88
479.002	572.88
479.22	584.88
479.439	569.88
479.658	592.88
479.876	593.88
480.095	592.88
480.313	640.88
480.532	610.88
480.751	596.88
480.969	622.88
481.188	658.88
481.406	670.88
481.624	633.88
481.843	597.88
482.061	580.88
482.28	568.88
482.498	577.88
482.717	571.88
482.935	596.88
483.153	568.88
483.372	564.88
483.59	561.88
483.808	571.88
484.027	588.88
484.245	583.88
484.463	571.88
484.681	565.88
484.9	578.88
485.118	589.88
485.336	577.88
485.554	594.88
485.772	601.88
485.99	583.88
486.209	606.88
486.427	580.88
486.645	582.88
486.863	624.88
487.081	628.88
487.299	587.88
487.517	616.88
487.735	618.88
487.953	598.88
488.171	598.88
488.389	602.88
488.607	606.88
488.825	593.88
489.043	600.88
489.261	610.88
489.479	618.88
489.696	625.88
489.914	615.88
490.132	660.88
490.35	621.88
490.568	634.88
490.786	642.88
491.003	658.88
491.221	660.88
491.439	666.88
491.657	679.88
491.874	675.88
492.092	702.88
492.31	715.88
492.527	697.88
492.745	694.88
492.963	714.88
493.18	731.88
493.398	704.88
493.615	710.88
493.833	734.88
494.05	701.88
494.268	684.88
494.485	722.88
494.703	702.88
494.92	714.88
495.138	715.88
495.355	718.88
495.573	712.88
495.79	696.88
496.008	713.88
496.225	671.88
496.442	722.88
496.66	698.88
496.877	726.88
497.094	727.88
497.312	730.88
497.529	748.88
497.746	767.88
497.963	786.88
498.181	783.88
498.398	824.88
498.615	820.88
498.832	882.88
499.049	896.88
499.267	937.88
499.484	962.88
499.701	981.88
499.918	1048.88
500.135	1128.88
500.352	1171.88
500.569	1223.88
500.786	1239.88
501.003	1214.88
501.22	1141.88
501.437	1085.88
501.654	1005.88
501.871	973.88
502.088	930.88
502.305	866.88
502.522	856.88
502.739	827.88
502.956	808.88
503.172	799.88
503.389	785.88
503.606	765.88
503.823	785.88
504.04	756.88
504.256	745.88
504.473	742.88
504.69	738.88
504.907	753.88
505.123	715.88
505.34	692.88
505.557	685.88
505.773	688.88
505.99	692.88
506.207	683.88
506.423	683.88
506.64	659.88
506.856	668.88
507.073	661.88
507.289	667.88
507.506	648.88
507.722	646.88
507.939	707.88
508.155	661.88
508.372	628.88
508.588	620.88
508.805	609.88
509.021	649.88
509.238	650.88
509.454	658.88
509.67	653.88
509.887	642.88
510.103	629.88
510.319	614.88
510.536	756.88
510.752	1159.88
510.968	946.88
511.184	651.88
511.401	619.88
511.617	610.88
511.833	619.88
512.049	591.88
512.265	598.88
512.481	625.88
512.698	596.88
512.914	613.88
513.13	568.88
513.346	609.88
513.562	581.88
513.778	584.88
513.994	589.88
514.21	628.88
514.426	629.88
514.642	680.88
514.858	708.88
515.074	720.88
515.29	824.88
515.506	1189.88
515.721	1028.88
515.937	713.88
516.153	675.88
516.369	656.88
516.585	628.88
516.801	636.88
517.016	650.88
517.232	664.88
517.448	676.88
517.664	661.88
517.879	667.88
518.095	678.88
518.311	672.88
518.527	665.88
518.742	650.88
518.958	624.88
519.173	621.88
519.389	610.88
519.605	613.88
519.82	620.88
520.036	607.88
520.251	647.88
520.467	633.88
520.682	644.88
520.898	647.88
521.113	677.88
521.329	709.88
521.544	783.88
521.76	910.88
521.975	1536.88
522.19	1572.88
522.406	857.88
522.621	678.88
522.836	636.88
523.052	588.88
523.267	555.88
523.482	582.88
523.698	536.88
523.913	567.88
524.128	555.88
524.343	538.88
524.559	528.88
524.774	532.88
524.989	503.88
525.204	533.88
525.419	533.88
525.634	511.88
525.849	540.88
526.064	520.88
526.28	491.88
526.495	496.88
526.71	502.88
526.925	483.88
527.14	501.88
527.355	487.88
527.57	481.88
527.785	487.88
527.999	495.88
528.214	481.88
528.429	498.88
528.644	494.88
528.859	508.88
529.074	504.88
529.289	496.88
529.503	582.88
529.718	561.88
529.933	503.88
530.148	512.88
530.363	498.88
530.577	494.88
530.792	494.88
531.007	480.88
531.221	497.88
531.436	489.88
531.651	492.88
531.865	468.88
532.08	472.88
532.295	476.88
532.509	483.88
532.724	472.88
532.938	488.88
533.153	491.88
533.367	487.88
533.582	485.88
533.796	475.88
534.011	464.88
534.225	466.88
534.44	472.88
534.654	467.88
534.868	477.88
535.083	469.88
535.297	460.88
535.511	469.88
535.726	477.88
535.94	482.88
536.154	475.88
536.369	469.88
536.583	453.88
536.797	469.88
537.011	448.88
537.225	444.88
537.44	434.88
537.654	465.88
537.868	454.88
538.082	445.88
538.296	452.88
538.51	439.88
538.724	488.88
538.938	444.88
539.153	450.88
539.367	468.88
539.581	480.88
539.795	459.88
540.009	442.88
540.222	444.88
540.436	457.88
540.65	440.88
540.864	433.88
541.078	450.88
541.292	450.88
541.506	457.88
541.72	435.88
541.934	426.88
542.147	454.88
542.361	451.88
542.575	441.88
542.789	444.88
543.002	468.88
543.216	430.88
543.43	462.88
543.644	454.88
543.857	455.88
544.071	459.88
544.285	461.88
544.498	463.88
544.712	437.88
544.925	454.88
545.139	454.88
545.352	456.88
545.566	441.88
545.779	443.88
545.993	454.88
546.206	436.88
546.42	449.88
546.633	435.88
546.847	442.88
547.06	456.88
547.274	440.88
547.487	420.88
547.7	431.88
547.914	416.88
548.127	436.88
548.34	458.88
548.554	428.88
548.767	432.88
548.98	448.88
549.193	430.88
549.407	445.88
549.62	458.88
549.833	448.88
550.046	422.88
550.259	434.88
550.473	448.88
550.686	449.88
550.899	414.88
551.112	428.88
551.325	421.88
551.538	441.88
551.751	410.88
551.964	428.88
552.177	428.88
552.39	456.88
552.603	430.88
552.816	465.88
553.029	461.88
553.242	472.88
553.455	465.88
553.667	485.88
553.88	472.88
554.093	434.88
554.306	455.88
554.519	438.88
554.732	470.88
554.944	434.88
555.157	415.88
555.37	418.88
555.583	432.88
555.795	415.88
556.008	418.88
556.221	405.88
556.433	421.88
556.646	404.88
556.859	394.88
557.071	406.88
557.284	386.88
557.496	413.88
557.709	408.88
557.921	405.88
558.134	400.88
558.346	386.88
558.559	402.88
558.771	385.88
558.984	399.88
559.196	389.88
559.409	391.88
559.621	378.88
559.833	386.88
560.046	366.88
560.258	376.88
560.47	368.88
560.683	396.88
560.895	384.88
561.107	382.88
561.32	382.88
561.532	378.88
561.744	399.88
561.956	376.88
562.168	396.88
562.381	391.88
562.593	389.88
562.805	383.88
563.017	388.88
563.229	389.88
563.441	407.88
563.653	374.88
563.865	381.88
564.077	407.88
564.289	398.88
564.501	402.88
564.713	402.88
564.925	433.88
565.137	436.88
565.349	418.88
565.561	427.88
565.773	417.88
565.985	441.88
566.197	464.88
566.408	480.88
566.62	483.88
566.832	516.88
567.044	521.88
567.255	538.88
567.467	524.88
567.679	555.88
567.891	564.88
568.102	568.88
568.314	530.88
568.526	496.88
568.737	480.88
568.949	478.88
569.161	446.88
569.372	423.88
569.584	427.88
569.795	428.88
570.007	412.88
570.218	456.88
570.43	436.88
570.641	384.88
570.853	378.88
571.064	405.88
571.276	398.88
571.487	388.88
571.698	376.88
571.91	356.88
572.121	348.88
572.333	346.88
572.544	354.88
572.755	337.88
572.966	345.88
573.178	348.88
573.389	354.88
573.6	338.88
573.811	330.88
574.023	352.88
574.234	333.88
574.445	340.88
574.656	313.88
574.867	338.88
575.078	347.88
575.289	338.88
575.501	339.88
575.712	318.88
575.923	317.88
576.134	323.88
576.345	326.88
576.556	319.88
576.767	314.88
576.978	318.88
577.188	320.88
577.399	308.88
577.61	300.88
577.821	315.88
578.032	320.88
578.243	340.88
578.454	528.88
578.665	396.88
578.875	333.88
579.086	312.88
579.297	317.88
579.508	307.88
579.718	313.88
579.929	295.88
580.14	306.88
580.35	298.88
580.561	306.88
580.772	306.88
580.982	289.88
581.193	294.88
581.403	305.88
581.614	291.88
581.825	301.88
582.035	301.88
582.246	315.88
582.456	297.88
582.667	313.88
582.877	301.88
583.087	307.88
583.298	298.88
583.508	297.88
583.719	299.88
583.929	301.88
584.139	299.88
584.35	301.88
584.56	285.88
584.77	278.88
584.981	273.88
585.191	299.88
585.401	296.88
585.611	284.88
585.821	292.88
586.032	305.88
586.242	277.88
586.452	297.88
586.662	290.88
586.872	270.88
587.082	282.88
587.292	280.88
587.502	297.88
587.713	290.88
587.923	308.88
588.133	285.88
588.343	280.88
588.553	296.88
588.762	296.88
588.972	317.88
589.182	310.88
589.392	290.88
589.602	290.88
589.812	308.88
590.022	266.88
590.232	292.88
590.441	277.88
590.651	299.88
590.861	300.88
591.071	300.88
591.281	288.88
591.49	315.88
591.7	294.88
591.91	308.88
592.119	297.88
592.329	313.88
592.539	307.88
592.748	320.88
592.958	313.88
593.167	327.88
593.377	330.88
593.587	336.88
593.796	322.88
594.006	326.88
594.215	316.88
594.424	334.88
594.634	321.88
594.843	312.88
595.053	301.88
595.262	323.88
595.472	296.88
595.681	290.88
595.89	274.88
596.1	281.88
596.309	288.88
596.518	269.88
596.727	275.88
596.937	264.88
597.146	270.88
597.355	291.88
597.564	267.88
597.774	277.88
597.983	258.88
598.192	267.88
598.401	270.88
598.61	258.88
598.819	252.88
599.028	259.88
599.237	251.88
599.446	258.88
599.655	260.88
599.864	257.88
600.073	263.88
600.282	266.88
600.491	266.88
600.7	248.88
600.909	260.88
601.118	260.88
601.327	250.88
601.536	236.88
601.745	250.88
601.953	248.88
602.162	265.88
602.371	244.88
602.58	258.88
602.789	252.88
602.997	240.88
603.206	247.88
603.415	245.88
603.623	249.88
603.832	231.88
604.041	237.88
604.249	257.88
604.458	245.88
604.666	238.88
604.875	248.88
605.084	240.88
605.292	234.88
605.501	223.88
605.709	225.88
605.918	225.88
606.126	234.88
606.334	242.88
606.543	242.88
606.751	227.88
606.96	235.88
607.168	224.88
607.376	231.88
607.585	231.88
607.793	246.88
608.001	248.88
608.21	242.88
608.418	237.88
608.626	224.88
608.834	235.88
609.043	228.88
609.251	224.88
609.459	245.88
609.667	233.88
609.875	249.88
610.083	237.88
610.291	230.88
610.499	229.88
610.707	225.88
610.916	242.88
611.124	233.88
611.332	242.88
611.54	246.88
611.748	221.88
611.955	242.88
612.163	237.88
612.371	247.88
612.579	234.88
612.787	235.88
612.995	255.88
613.203	236.88
613.411	244.88
613.618	224.88
613.826	236.88
614.034	235.88
614.242	233.88
614.449	236.88
614.657	235.88
614.865	231.88
615.072	226.88
615.28	241.88
615.488	209.88
615.695	224.88
615.903	249.88
616.111	235.88
616.318	233.88
616.526	233.88
616.733	238.88
616.941	228.88
617.148	230.88
617.356	219.88
617.563	235.88
617.771	228.88
617.978	226.88
618.185	236.88
618.393	219.88
618.6	238.88
618.807	228.88
619.015	226.88
619.222	205.88
619.429	226.88
619.637	199.88
619.844	228.88
620.051	215.88
620.258	230.88
620.466	212.88
620.673	193.88
620.88	204.88
621.087	216.88
621.294	222.88
621.501	205.88
621.708	209.88
621.915	208.88
622.122	211.88
622.329	216.88
622.536	226.88
622.743	224.88
622.95	226.88
623.157	217.88
623.364	211.88
623.571	205.88
623.778	202.88
623.985	204.88
624.192	200.88
624.399	218.88
624.606	211.88
624.812	201.88
625.019	199.88
625.226	212.88
625.433	212.88
625.639	193.88
625.846	215.88
626.053	205.88
626.259	204.88
626.466	214.88
626.673	217.88
626.879	197.88
627.086	220.88
627.293	201.88
627.499	216.88
627.706	205.88
627.912	190.88
628.119	193.88
628.325	209.88
628.532	196.88
628.738	182.88
628.945	197.88
629.151	184.88
629.357	204.88
629.564	171.88
629.77	190.88
629.976	186.88
630.183	188.88
630.389	190.88
630.595	189.88
630.802	211.88
631.008	199.88
631.214	180.88
631.42	201.88
631.627	182.88
631.833	179.88
632.039	179.88
632.245	179.88
632.451	169.88
632.657	190.88
632.863	182.88
633.069	197.88
633.275	187.88
633.481	192.88
633.688	165.88
633.893	188.88
634.099	184.88
634.305	166.88
634.511	180.88
634.717	176.88
634.923	180.88
635.129	176.88
635.335	173.88
635.541	166.88
635.747	178.88
635.952	176.88
636.158	168.88
636.364	159.88
636.57	176.88
636.775	180.88
636.981	176.88
637.187	174.88
637.392	175.88
637.598	172.88
637.804	192.88
638.009	184.88
638.215	181.88
638.421	179.88
638.626	155.88
638.832	168.88
639.037	176.88
639.243	163.88
639.448	182.88
639.654	170.88
639.859	160.88
640.065	175.88
640.27	197.88
640.475	169.88
640.681	173.88
640.886	162.88
641.091	179.88
641.297	172.88
641.502	164.88
641.707	179.88
641.913	172.88
642.118	170.88
642.323	161.88
642.528	166.88
642.733	178.88
642.939	165.88
643.144	159.88
643.349	186.88
643.554	156.88
643.759	161.88
643.964	157.88
644.169	172.88
644.374	162.88
644.579	171.88
644.784	171.88
644.989	155.88
645.194	140.88
645.399	169.88
645.604	161.88
645.809	188.88
646.014	168.88
646.219	148.88
646.423	156.88
646.628	169.88
646.833	161.88
647.038	163.88
647.243	161.88
647.447	175.88
647.652	179.88
647.857	180.88
648.062	158.88
648.266	183.88
648.471	164.88
648.676	185.88
648.88	174.88
649.085	156.88
649.289	169.88
649.494	176.88
649.698	176.88
649.903	182.88
650.107	172.88
650.312	172.88
650.516	164.88
650.721	156.88
650.925	141.88
651.13	148.88
651.334	160.88
651.539	145.88
651.743	137.88
651.947	140.88
652.152	135.88
652.356	158.88
652.56	132.88
652.764	152.88
652.969	143.88
653.173	141.88
653.377	132.88
653.581	134.88
653.785	139.88
653.99	130.88
654.194	142.88
654.398	138.88
654.602	119.88
654.806	131.88
655.01	144.88
655.214	151.88
655.418	125.88
655.622	132.88
655.826	152.88
656.03	142.88
656.234	145.88
656.438	142.88
656.642	138.88
656.846	148.88
657.049	139.88
657.253	118.88
657.457	133.88
657.661	114.88
657.865	115.88
658.068	120.88
658.272	109.88
658.476	98.88
658.68	107.88
658.883	97.88
659.087	103.88
659.291	115.88
659.494	117.88
659.698	107.88
659.901	116.88
660.105	93.88
660.309	80.88
660.512	94.88
660.716	92.88
660.919	85.88
661.123	99.88
661.326	107.88
661.53	99.88
661.733	100.88
661.936	84.88
662.14	86.88
662.343	98.88
662.546	88.88
662.75	87.88
662.953	97.88
663.156	85.88
663.36	90.88
663.563	89.88
663.766	83.88
663.969	87.88
664.173	76.88
664.376	95.88
664.579	85.88
664.782	90.88
664.985	80.88
665.188	86.88
665.391	82.88
665.594	75.88
665.797	98.88
666	82.88
666.203	91.88
666.406	82.88
666.609	81.88
666.812	85.88
667.015	80.88
667.218	92.88
667.421	84.88
667.624	99.88
667.827	74.88
668.03	73.88
668.232	82.88
668.435	76.88
668.638	82.88
668.841	82.88
669.043	84.88
669.246	87.88
669.449	83.88
669.651	90.88
669.854	105.88
670.057	80.88
670.259	76.88
670.462	86.88
670.665	85.88
670.867	71.88
671.07	86.88
671.272	74.88
671.475	91.88
671.677	98.88
671.88	87.88
672.082	90.88
672.284	84.88
672.487	78.88
672.689	77.88
672.892	89.88
