Data from 1985.PennyLincolnUp.Lamp.En5.5.200Scan.071819.P1_HRD10591_17-02-55-970.txt Node
Date: Thu Jul 18 17:02:55 EDT 2019
User: cochatt
Spectrometer: HR+D1059
Trigger mode: 1
Integration Time (sec): 1.000000E-1
Scans to average: 1
Electric dark correction enabled: true
Nonlinearity correction enabled: false
Boxcar width: 0
XAxis mode: Wavelengths
Number of Pixels in Spectrum: 2048
>>>>>Begin Spectral Data<<<<<
223.165	-10.19
223.4	-10.19
223.635	-10.19
223.869	-18.19
224.104	-18.19
224.338	-13.19
224.573	-24.19
224.808	-17.19
225.042	-12.19
225.277	7.81
225.511	-10.19
225.746	8.81
225.98	-3.19
226.215	13.81
226.449	19.81
226.683	14.81
226.918	35.81
227.152	25.81
227.387	38.81
227.621	28.81
227.856	51.81
228.09	56.81
228.324	44.81
228.559	53.81
228.793	64.81
229.027	99.81
229.262	94.81
229.496	104.81
229.73	126.81
229.964	144.81
230.199	128.81
230.433	116.81
230.667	106.81
230.901	100.81
231.136	116.81
231.37	116.81
231.604	123.81
231.838	123.81
232.072	123.81
232.306	119.81
232.541	118.81
232.775	99.81
233.009	119.81
233.243	109.81
233.477	128.81
233.711	122.81
233.945	122.81
234.179	112.81
234.413	101.81
234.647	127.81
234.881	118.81
235.115	119.81
235.349	125.81
235.583	117.81
235.817	134.81
236.051	117.81
236.285	119.81
236.519	129.81
236.753	124.81
236.987	125.81
237.221	156.81
237.455	195.81
237.689	172.81
237.922	151.81
238.156	136.81
238.39	135.81
238.624	115.81
238.858	133.81
239.091	128.81
239.325	122.81
239.559	106.81
239.793	128.81
240.027	134.81
240.26	135.81
240.494	151.81
240.728	148.81
240.961	150.81
241.195	134.81
241.429	130.81
241.662	140.81
241.896	134.81
242.13	131.81
242.363	141.81
242.597	143.81
242.83	139.81
243.064	140.81
243.298	143.81
243.531	143.81
243.765	127.81
243.998	155.81
244.232	148.81
244.465	140.81
244.699	139.81
244.932	146.81
245.166	142.81
245.399	148.81
245.633	148.81
245.866	149.81
246.099	159.81
246.333	152.81
246.566	145.81
246.8	156.81
247.033	142.81
247.266	167.81
247.5	158.81
247.733	164.81
247.966	180.81
248.2	179.81
248.433	167.81
248.666	174.81
248.899	186.81
249.133	190.81
249.366	191.81
249.599	186.81
249.832	176.81
250.066	180.81
250.299	182.81
250.532	175.81
250.765	187.81
250.998	225.81
251.231	221.81
251.465	213.81
251.698	208.81
251.931	197.81
252.164	193.81
252.397	190.81
252.63	204.81
252.863	218.81
253.096	213.81
253.329	214.81
253.562	222.81
253.795	212.81
254.028	201.81
254.261	214.81
254.494	213.81
254.727	245.81
254.96	276.81
255.193	269.81
255.426	235.81
255.659	224.81
255.892	213.81
256.124	229.81
256.357	228.81
256.59	216.81
256.823	205.81
257.056	194.81
257.289	206.81
257.521	199.81
257.754	197.81
257.987	219.81
258.22	202.81
258.452	200.81
258.685	194.81
258.918	211.81
259.151	229.81
259.383	236.81
259.616	213.81
259.849	214.81
260.081	249.81
260.314	252.81
260.547	248.81
260.779	249.81
261.012	230.81
261.244	228.81
261.477	208.81
261.71	221.81
261.942	235.81
262.175	236.81
262.407	236.81
262.64	217.81
262.872	205.81
263.105	219.81
263.337	216.81
263.57	221.81
263.802	242.81
264.035	217.81
264.267	240.81
264.499	240.81
264.732	243.81
264.964	216.81
265.197	218.81
265.429	225.81
265.661	227.81
265.894	238.81
266.126	221.81
266.358	235.81
266.591	240.81
266.823	228.81
267.055	227.81
267.287	243.81
267.52	227.81
267.752	244.81
267.984	230.81
268.216	229.81
268.448	239.81
268.681	244.81
268.913	243.81
269.145	279.81
269.377	279.81
269.609	272.81
269.841	273.81
270.073	294.81
270.306	310.81
270.538	342.81
270.77	349.81
271.002	299.81
271.234	308.81
271.466	300.81
271.698	317.81
271.93	344.81
272.162	322.81
272.394	311.81
272.626	296.81
272.858	297.81
273.09	290.81
273.322	288.81
273.553	274.81
273.785	276.81
274.017	284.81
274.249	280.81
274.481	250.81
274.713	255.81
274.945	269.81
275.176	277.81
275.408	283.81
275.64	290.81
275.872	284.81
276.104	299.81
276.335	278.81
276.567	298.81
276.799	304.81
277.031	318.81
277.262	348.81
277.494	326.81
277.726	312.81
277.957	323.81
278.189	287.81
278.421	285.81
278.652	292.81
278.884	271.81
279.115	287.81
279.347	276.81
279.579	285.81
279.81	280.81
280.042	297.81
280.273	288.81
280.505	289.81
280.736	280.81
280.968	285.81
281.199	284.81
281.431	302.81
281.662	286.81
281.894	281.81
282.125	293.81
282.356	311.81
282.588	320.81
282.819	311.81
283.051	285.81
283.282	298.81
283.513	311.81
283.745	312.81
283.976	301.81
284.207	303.81
284.439	320.81
284.67	316.81
284.901	324.81
285.132	319.81
285.364	317.81
285.595	292.81
285.826	294.81
286.057	309.81
286.288	317.81
286.52	315.81
286.751	296.81
286.982	316.81
287.213	306.81
287.444	308.81
287.675	325.81
287.906	322.81
288.138	314.81
288.369	327.81
288.6	343.81
288.831	327.81
289.062	339.81
289.293	334.81
289.524	316.81
289.755	321.81
289.986	327.81
290.217	313.81
290.448	331.81
290.679	308.81
290.91	325.81
291.141	319.81
291.371	318.81
291.602	334.81
291.833	333.81
292.064	318.81
292.295	315.81
292.526	328.81
292.757	338.81
292.987	327.81
293.218	314.81
293.449	314.81
293.68	323.81
293.91	333.81
294.141	333.81
294.372	339.81
294.603	324.81
294.833	321.81
295.064	337.81
295.295	326.81
295.525	316.81
295.756	335.81
295.987	345.81
296.217	375.81
296.448	375.81
296.679	343.81
296.909	314.81
297.14	331.81
297.37	335.81
297.601	351.81
297.831	340.81
298.062	324.81
298.292	344.81
298.523	336.81
298.753	343.81
298.984	350.81
299.214	351.81
299.445	332.81
299.675	367.81
299.905	346.81
300.136	358.81
300.366	363.81
300.597	351.81
300.827	376.81
301.057	375.81
301.288	373.81
301.518	359.81
301.748	366.81
301.979	361.81
302.209	374.81
302.439	378.81
302.669	375.81
302.9	379.81
303.13	352.81
303.36	359.81
303.59	365.81
303.82	375.81
304.051	378.81
304.281	354.81
304.511	351.81
304.741	374.81
304.971	353.81
305.201	368.81
305.431	355.81
305.661	350.81
305.891	364.81
306.121	384.81
306.352	368.81
306.582	383.81
306.812	382.81
307.042	374.81
307.272	366.81
307.502	368.81
307.731	389.81
307.961	366.81
308.191	348.81
308.421	367.81
308.651	382.81
308.881	375.81
309.111	382.81
309.341	375.81
309.571	392.81
309.8	382.81
310.03	424.81
310.26	401.81
310.49	398.81
310.72	408.81
310.949	414.81
311.179	429.81
311.409	403.81
311.639	403.81
311.868	396.81
312.098	406.81
312.328	411.81
312.557	412.81
312.787	445.81
313.017	439.81
313.246	432.81
313.476	406.81
313.706	424.81
313.935	431.81
314.165	415.81
314.394	432.81
314.624	425.81
314.853	425.81
315.083	409.81
315.312	422.81
315.542	435.81
315.771	422.81
316.001	398.81
316.23	399.81
316.46	407.81
316.689	422.81
316.919	427.81
317.148	418.81
317.377	415.81
317.607	434.81
317.836	431.81
318.065	429.81
318.295	435.81
318.524	398.81
318.753	395.81
318.983	414.81
319.212	414.81
319.441	424.81
319.67	426.81
319.9	415.81
320.129	413.81
320.358	439.81
320.587	412.81
320.816	437.81
321.046	437.81
321.275	429.81
321.504	403.81
321.733	429.81
321.962	451.81
322.191	467.81
322.42	463.81
322.649	480.81
322.878	494.81
323.108	516.81
323.337	495.81
323.566	495.81
323.795	550.81
324.024	582.81
324.253	698.81
324.482	974.81
324.71	1436.81
324.939	2066.81
325.168	1732.81
325.397	914.81
325.626	680.81
325.855	590.81
326.084	555.81
326.313	524.81
326.542	536.81
326.77	569.81
326.999	679.81
327.228	905.81
327.457	1289.81
327.686	1550.81
327.914	1054.81
328.143	685.81
328.372	626.81
328.6	591.81
328.829	564.81
329.058	596.81
329.287	598.81
329.515	582.81
329.744	552.81
329.972	522.81
330.201	524.81
330.43	557.81
330.658	601.81
330.887	616.81
331.115	621.81
331.344	560.81
331.572	547.81
331.801	533.81
332.03	544.81
332.258	529.81
332.486	490.81
332.715	491.81
332.943	525.81
333.172	514.81
333.4	517.81
333.629	534.81
333.857	526.81
334.085	523.81
334.314	540.81
334.542	539.81
334.771	545.81
334.999	535.81
335.227	527.81
335.455	514.81
335.684	506.81
335.912	532.81
336.14	479.81
336.369	475.81
336.597	499.81
336.825	495.81
337.053	516.81
337.281	478.81
337.51	506.81
337.738	501.81
337.966	512.81
338.194	500.81
338.422	516.81
338.65	482.81
338.878	464.81
339.106	458.81
339.334	473.81
339.562	466.81
339.79	461.81
340.018	475.81
340.246	463.81
340.474	479.81
340.702	468.81
340.93	472.81
341.158	473.81
341.386	482.81
341.614	468.81
341.842	493.81
342.07	482.81
342.298	468.81
342.526	458.81
342.754	447.81
342.981	461.81
343.209	465.81
343.437	459.81
343.665	480.81
343.893	488.81
344.12	495.81
344.348	494.81
344.576	471.81
344.804	480.81
345.031	484.81
345.259	511.81
345.487	475.81
345.714	490.81
345.942	473.81
346.17	443.81
346.397	443.81
346.625	432.81
346.853	456.81
347.08	452.81
347.308	465.81
347.535	461.81
347.763	461.81
347.99	457.81
348.218	446.81
348.445	468.81
348.673	448.81
348.9	438.81
349.128	451.81
349.355	429.81
349.583	432.81
349.81	438.81
350.037	426.81
350.265	445.81
350.492	426.81
350.72	452.81
350.947	432.81
351.174	465.81
351.402	457.81
351.629	473.81
351.856	461.81
352.083	441.81
352.311	459.81
352.538	451.81
352.765	464.81
352.992	471.81
353.22	432.81
353.447	454.81
353.674	434.81
353.901	418.81
354.128	436.81
354.355	418.81
354.583	433.81
354.81	421.81
355.037	445.81
355.264	414.81
355.491	413.81
355.718	423.81
355.945	412.81
356.172	406.81
356.399	406.81
356.626	412.81
356.853	438.81
357.08	443.81
357.307	425.81
357.534	438.81
357.761	407.81
357.988	415.81
358.215	422.81
358.441	445.81
358.668	428.81
358.895	421.81
359.122	424.81
359.349	416.81
359.576	430.81
359.802	464.81
360.029	496.81
360.256	479.81
360.483	477.81
360.709	432.81
360.936	439.81
361.163	450.81
361.39	449.81
361.616	447.81
361.843	449.81
362.07	434.81
362.296	482.81
362.523	454.81
362.749	434.81
362.976	437.81
363.203	434.81
363.429	432.81
363.656	434.81
363.882	428.81
364.109	427.81
364.335	415.81
364.562	426.81
364.788	444.81
365.015	427.81
365.241	424.81
365.468	434.81
365.694	428.81
365.92	421.81
366.147	434.81
366.373	408.81
366.599	410.81
366.826	422.81
367.052	392.81
367.278	422.81
367.505	439.81
367.731	434.81
367.957	428.81
368.184	438.81
368.41	422.81
368.636	445.81
368.862	438.81
369.089	442.81
369.315	458.81
369.541	445.81
369.767	416.81
369.993	430.81
370.219	442.81
370.445	425.81
370.672	430.81
370.898	424.81
371.124	424.81
371.35	427.81
371.576	448.81
371.802	438.81
372.028	414.81
372.254	441.81
372.48	414.81
372.706	417.81
372.932	417.81
373.158	439.81
373.384	443.81
373.61	444.81
373.835	454.81
374.061	434.81
374.287	442.81
374.513	438.81
374.739	447.81
374.965	450.81
375.191	445.81
375.416	424.81
375.642	428.81
375.868	444.81
376.094	409.81
376.319	434.81
376.545	428.81
376.771	419.81
376.997	419.81
377.222	429.81
377.448	416.81
377.674	438.81
377.899	420.81
378.125	426.81
378.35	419.81
378.576	404.81
378.802	421.81
379.027	415.81
379.253	416.81
379.478	432.81
379.704	421.81
379.929	419.81
380.155	431.81
380.38	434.81
380.606	435.81
380.831	427.81
381.057	439.81
381.282	411.81
381.507	423.81
381.733	427.81
381.958	426.81
382.184	428.81
382.409	443.81
382.634	443.81
382.86	430.81
383.085	435.81
383.31	419.81
383.535	442.81
383.761	440.81
383.986	450.81
384.211	450.81
384.436	435.81
384.662	462.81
384.887	460.81
385.112	451.81
385.337	469.81
385.562	469.81
385.787	481.81
386.013	481.81
386.238	479.81
386.463	459.81
386.688	498.81
386.913	465.81
387.138	480.81
387.363	470.81
387.588	457.81
387.813	464.81
388.038	486.81
388.263	468.81
388.488	485.81
388.713	478.81
388.938	466.81
389.163	469.81
389.387	475.81
389.612	467.81
389.837	468.81
390.062	472.81
390.287	478.81
390.512	458.81
390.736	468.81
390.961	476.81
391.186	475.81
391.411	479.81
391.636	473.81
391.86	486.81
392.085	504.81
392.31	491.81
392.534	493.81
392.759	493.81
392.984	476.81
393.208	478.81
393.433	490.81
393.658	471.81
393.882	467.81
394.107	492.81
394.331	476.81
394.556	490.81
394.78	475.81
395.005	475.81
395.229	500.81
395.454	514.81
395.678	508.81
395.903	515.81
396.127	534.81
396.352	493.81
396.576	491.81
396.801	488.81
397.025	511.81
397.249	505.81
397.474	506.81
397.698	494.81
397.922	522.81
398.147	504.81
398.371	532.81
398.595	555.81
398.82	548.81
399.044	591.81
399.268	601.81
399.492	641.81
399.717	686.81
399.941	669.81
400.165	711.81
400.389	680.81
400.613	617.81
400.837	580.81
401.062	551.81
401.286	532.81
401.51	534.81
401.734	549.81
401.958	558.81
402.182	548.81
402.406	567.81
402.63	564.81
402.854	575.81
403.078	573.81
403.302	566.81
403.526	592.81
403.75	582.81
403.974	580.81
404.198	566.81
404.422	596.81
404.645	604.81
404.869	585.81
405.093	616.81
405.317	644.81
405.541	664.81
405.765	596.81
405.988	593.81
406.212	623.81
406.436	612.81
406.66	630.81
406.883	625.81
407.107	666.81
407.331	700.81
407.555	734.81
407.778	735.81
408.002	687.81
408.226	639.81
408.449	650.81
408.673	636.81
408.896	637.81
409.12	671.81
409.344	633.81
409.567	608.81
409.791	613.81
410.014	575.81
410.238	567.81
410.461	574.81
410.685	584.81
410.908	590.81
411.132	595.81
411.355	646.81
411.578	602.81
411.802	546.81
412.025	550.81
412.249	581.81
412.472	566.81
412.695	600.81
412.919	592.81
413.142	549.81
413.365	534.81
413.589	535.81
413.812	533.81
414.035	542.81
414.258	518.81
414.482	538.81
414.705	529.81
414.928	540.81
415.151	534.81
415.374	534.81
415.597	535.81
415.821	526.81
416.044	519.81
416.267	526.81
416.49	524.81
416.713	511.81
416.936	527.81
417.159	518.81
417.382	544.81
417.605	535.81
417.828	528.81
418.051	550.81
418.274	546.81
418.497	520.81
418.72	526.81
418.943	542.81
419.166	562.81
419.389	600.81
419.611	585.81
419.834	566.81
420.057	556.81
420.28	556.81
420.503	552.81
420.726	557.81
420.948	545.81
421.171	602.81
421.394	608.81
421.617	564.81
421.839	549.81
422.062	573.81
422.285	558.81
422.507	597.81
422.73	687.81
422.953	649.81
423.175	580.81
423.398	580.81
423.621	578.81
423.843	589.81
424.066	592.81
424.288	592.81
424.511	622.81
424.733	649.81
424.956	741.81
425.178	648.81
425.401	675.81
425.623	694.81
425.846	626.81
426.068	598.81
426.291	574.81
426.513	572.81
426.735	558.81
426.958	614.81
427.18	694.81
427.402	804.81
427.625	882.81
427.847	772.81
428.069	641.81
428.292	586.81
428.514	562.81
428.736	553.81
428.958	535.81
429.181	523.81
429.403	522.81
429.625	534.81
429.847	541.81
430.069	617.81
430.292	609.81
430.514	555.81
430.736	526.81
430.958	525.81
431.18	496.81
431.402	498.81
431.624	498.81
431.846	507.81
432.068	494.81
432.29	510.81
432.512	515.81
432.734	530.81
432.956	517.81
433.178	527.81
433.4	509.81
433.622	521.81
433.844	497.81
434.066	492.81
434.287	516.81
434.509	523.81
434.731	538.81
434.953	542.81
435.175	556.81
435.397	577.81
435.618	564.81
435.84	626.81
436.062	690.81
436.284	711.81
436.505	621.81
436.727	581.81
436.949	538.81
437.17	512.81
437.392	528.81
437.614	540.81
437.835	574.81
438.057	641.81
438.278	747.81
438.5	743.81
438.721	790.81
438.943	787.81
439.165	616.81
439.386	587.81
439.608	572.81
439.829	550.81
440.05	590.81
440.272	621.81
440.493	589.81
440.715	555.81
440.936	540.81
441.158	533.81
441.379	518.81
441.6	580.81
441.822	558.81
442.043	614.81
442.264	675.81
442.486	722.81
442.707	617.81
442.928	557.81
443.149	604.81
443.371	610.81
443.592	670.81
443.813	743.81
444.034	783.81
444.255	676.81
444.476	610.81
444.698	601.81
444.919	621.81
445.14	733.81
445.361	663.81
445.582	643.81
445.803	669.81
446.024	784.81
446.245	751.81
446.466	686.81
446.687	615.81
446.908	557.81
447.129	551.81
447.35	527.81
447.571	525.81
447.792	514.81
448.013	512.81
448.234	555.81
448.455	598.81
448.675	668.81
448.896	785.81
449.117	652.81
449.338	612.81
449.559	736.81
449.779	842.81
450	666.81
450.221	572.81
450.442	532.81
450.662	498.81
450.883	503.81
451.104	536.81
451.324	524.81
451.545	471.81
451.766	489.81
451.986	466.81
452.207	462.81
452.428	473.81
452.648	461.81
452.869	464.81
453.089	486.81
453.31	490.81
453.53	485.81
453.751	458.81
453.971	462.81
454.192	503.81
454.412	474.81
454.633	463.81
454.853	458.81
455.073	468.81
455.294	483.81
455.514	532.81
455.734	526.81
455.955	465.81
456.175	426.81
456.395	438.81
456.616	435.81
456.836	444.81
457.056	450.81
457.276	434.81
457.497	433.81
457.717	442.81
457.937	441.81
458.157	454.81
458.377	475.81
458.598	483.81
458.818	542.81
459.038	619.81
459.258	602.81
459.478	541.81
459.698	523.81
459.918	499.81
460.138	532.81
460.358	525.81
460.578	536.81
460.798	551.81
461.018	533.81
461.238	513.81
461.458	525.81
461.678	539.81
461.898	522.81
462.118	544.81
462.338	563.81
462.558	568.81
462.777	578.81
462.997	599.81
463.217	607.81
463.437	614.81
463.657	614.81
463.876	580.81
464.096	583.81
464.316	567.81
464.536	579.81
464.755	580.81
464.975	576.81
465.195	602.81
465.414	681.81
465.634	572.81
465.854	548.81
466.073	511.81
466.293	487.81
466.512	489.81
466.732	493.81
466.951	488.81
467.171	485.81
467.391	495.81
467.61	478.81
467.829	480.81
468.049	507.81
468.268	482.81
468.488	469.81
468.707	479.81
468.927	456.81
469.146	474.81
469.365	476.81
469.585	474.81
469.804	484.81
470.023	503.81
470.243	502.81
470.462	498.81
470.681	514.81
470.901	506.81
471.12	508.81
471.339	491.81
471.558	499.81
471.777	490.81
471.997	494.81
472.216	476.81
472.435	500.81
472.654	470.81
472.873	483.81
473.092	469.81
473.311	479.81
473.53	491.81
473.749	487.81
473.968	526.81
474.187	619.81
474.406	627.81
474.625	511.81
474.844	503.81
475.063	472.81
475.282	488.81
475.501	480.81
475.72	517.81
475.939	490.81
476.158	502.81
476.377	467.81
476.596	483.81
476.814	489.81
477.033	502.81
477.252	514.81
477.471	521.81
477.69	533.81
477.908	517.81
478.127	540.81
478.346	551.81
478.564	542.81
478.783	562.81
479.002	555.81
479.22	560.81
479.439	570.81
479.658	618.81
479.876	609.81
480.095	583.81
480.313	623.81
480.532	611.81
480.751	603.81
480.969	611.81
481.188	618.81
481.406	591.81
481.624	600.81
481.843	580.81
482.061	586.81
482.28	581.81
482.498	570.81
482.717	542.81
482.935	568.81
483.153	564.81
483.372	541.81
483.59	568.81
483.808	553.81
484.027	562.81
484.245	562.81
484.463	545.81
484.681	591.81
484.9	566.81
485.118	565.81
485.336	579.81
485.554	572.81
485.772	602.81
485.99	590.81
486.209	591.81
486.427	573.81
486.645	588.81
486.863	603.81
487.081	629.81
487.299	607.81
487.517	600.81
487.735	609.81
487.953	603.81
488.171	575.81
488.389	604.81
488.607	613.81
488.825	612.81
489.043	600.81
489.261	594.81
489.479	591.81
489.696	630.81
489.914	621.81
490.132	611.81
490.35	631.81
490.568	610.81
490.786	634.81
491.003	629.81
491.221	664.81
491.439	663.81
491.657	667.81
491.874	682.81
492.092	662.81
492.31	660.81
492.527	673.81
492.745	671.81
492.963	679.81
493.18	686.81
493.398	684.81
493.615	697.81
493.833	704.81
494.05	703.81
494.268	690.81
494.485	712.81
494.703	699.81
494.92	671.81
495.138	691.81
495.355	690.81
495.573	709.81
495.79	726.81
496.008	702.81
496.225	699.81
496.442	706.81
496.66	735.81
496.877	689.81
497.094	710.81
497.312	745.81
497.529	747.81
497.746	762.81
497.963	758.81
498.181	797.81
498.398	796.81
498.615	828.81
498.832	848.81
499.049	878.81
499.267	893.81
499.484	951.81
499.701	1008.81
499.918	1008.81
500.135	1095.81
500.352	1190.81
500.569	1213.81
500.786	1236.81
501.003	1188.81
501.22	1115.81
501.437	1042.81
501.654	1005.81
501.871	974.81
502.088	936.81
502.305	898.81
502.522	854.81
502.739	813.81
502.956	812.81
503.172	790.81
503.389	771.81
503.606	750.81
503.823	764.81
504.04	756.81
504.256	759.81
504.473	757.81
504.69	743.81
504.907	737.81
505.123	707.81
505.34	719.81
505.557	714.81
505.773	708.81
505.99	673.81
506.207	663.81
506.423	666.81
506.64	666.81
506.856	675.81
507.073	659.81
507.289	671.81
507.506	640.81
507.722	678.81
507.939	686.81
508.155	688.81
508.372	653.81
508.588	625.81
508.805	615.81
509.021	616.81
509.238	630.81
509.454	638.81
509.67	628.81
509.887	623.81
510.103	610.81
510.319	640.81
510.536	734.81
510.752	1160.81
510.968	983.81
511.184	671.81
511.401	611.81
511.617	586.81
511.833	600.81
512.049	581.81
512.265	612.81
512.481	598.81
512.698	585.81
512.914	574.81
513.13	592.81
513.346	577.81
513.562	597.81
513.778	585.81
513.994	607.81
514.21	621.81
514.426	636.81
514.642	678.81
514.858	690.81
515.074	734.81
515.29	873.81
515.506	1285.81
515.721	1039.81
515.937	728.81
516.153	685.81
516.369	643.81
516.585	656.81
516.801	649.81
517.016	660.81
517.232	665.81
517.448	666.81
517.664	667.81
517.879	674.81
518.095	659.81
518.311	653.81
518.527	646.81
518.742	646.81
518.958	624.81
519.173	623.81
519.389	620.81
519.605	608.81
519.82	612.81
520.036	598.81
520.251	642.81
520.467	644.81
520.682	652.81
520.898	656.81
521.113	675.81
521.329	708.81
521.544	758.81
521.76	949.81
521.975	1621.81
522.19	1673.81
522.406	893.81
522.621	669.81
522.836	612.81
523.052	592.81
523.267	580.81
523.482	545.81
523.698	527.81
523.913	556.81
524.128	550.81
524.343	542.81
524.559	528.81
524.774	542.81
524.989	501.81
525.204	515.81
525.419	539.81
525.634	520.81
525.849	539.81
526.064	511.81
526.28	492.81
526.495	491.81
526.71	506.81
526.925	491.81
527.14	490.81
527.355	498.81
527.57	478.81
527.785	480.81
527.999	504.81
528.214	500.81
528.429	472.81
528.644	493.81
528.859	500.81
529.074	504.81
529.289	517.81
529.503	593.81
529.718	559.81
529.933	520.81
530.148	478.81
530.363	490.81
530.577	499.81
530.792	482.81
531.007	499.81
531.221	487.81
531.436	491.81
531.651	485.81
531.865	495.81
532.08	483.81
532.295	468.81
532.509	469.81
532.724	495.81
532.938	484.81
533.153	485.81
533.367	468.81
533.582	488.81
533.796	486.81
534.011	464.81
534.225	476.81
534.44	459.81
534.654	472.81
534.868	443.81
535.083	441.81
535.297	470.81
535.511	455.81
535.726	483.81
535.94	488.81
536.154	478.81
536.369	480.81
536.583	474.81
536.797	475.81
537.011	477.81
537.225	442.81
537.44	434.81
537.654	451.81
537.868	438.81
538.082	451.81
538.296	456.81
538.51	455.81
538.724	467.81
538.938	446.81
539.153	448.81
539.367	476.81
539.581	463.81
539.795	459.81
540.009	466.81
540.222	446.81
540.436	430.81
540.65	444.81
540.864	452.81
541.078	456.81
541.292	468.81
541.506	462.81
541.72	439.81
541.934	462.81
542.147	434.81
542.361	449.81
542.575	455.81
542.789	428.81
543.002	444.81
543.216	438.81
543.43	447.81
543.644	453.81
543.857	440.81
544.071	446.81
544.285	448.81
544.498	442.81
544.712	459.81
544.925	455.81
545.139	430.81
545.352	438.81
545.566	450.81
545.779	424.81
545.993	434.81
546.206	466.81
546.42	448.81
546.633	444.81
546.847	437.81
547.06	419.81
547.274	420.81
547.487	441.81
547.7	430.81
547.914	457.81
548.127	420.81
548.34	442.81
548.554	452.81
548.767	418.81
548.98	431.81
549.193	442.81
549.407	450.81
549.62	461.81
549.833	454.81
550.046	444.81
550.259	444.81
550.473	429.81
550.686	450.81
550.899	434.81
551.112	414.81
551.325	437.81
551.538	407.81
551.751	417.81
551.964	432.81
552.177	440.81
552.39	420.81
552.603	445.81
552.816	444.81
553.029	442.81
553.242	458.81
553.455	469.81
553.667	482.81
553.88	462.81
554.093	457.81
554.306	453.81
554.519	447.81
554.732	448.81
554.944	428.81
555.157	408.81
555.37	398.81
555.583	422.81
555.795	419.81
556.008	420.81
556.221	391.81
556.433	406.81
556.646	401.81
556.859	382.81
557.071	414.81
557.284	383.81
557.496	382.81
557.709	404.81
557.921	390.81
558.134	373.81
558.346	395.81
558.559	382.81
558.771	387.81
558.984	382.81
559.196	382.81
559.409	380.81
559.621	380.81
559.833	390.81
560.046	396.81
560.258	388.81
560.47	392.81
560.683	381.81
560.895	378.81
561.107	377.81
561.32	367.81
561.532	382.81
561.744	380.81
561.956	389.81
562.168	372.81
562.381	384.81
562.593	373.81
562.805	399.81
563.017	397.81
563.229	386.81
563.441	365.81
563.653	417.81
563.865	399.81
564.077	400.81
564.289	375.81
564.501	412.81
564.713	386.81
564.925	406.81
565.137	439.81
565.349	418.81
565.561	430.81
565.773	438.81
565.985	442.81
566.197	459.81
566.408	470.81
566.62	481.81
566.832	522.81
567.044	521.81
567.255	496.81
567.467	531.81
567.679	529.81
567.891	564.81
568.102	562.81
568.314	562.81
568.526	508.81
568.737	501.81
568.949	467.81
569.161	456.81
569.372	434.81
569.584	411.81
569.795	426.81
570.007	428.81
570.218	427.81
570.43	433.81
570.641	388.81
570.853	393.81
571.064	393.81
571.276	373.81
571.487	366.81
571.698	363.81
571.91	363.81
572.121	347.81
572.333	349.81
572.544	343.81
572.755	345.81
572.966	343.81
573.178	336.81
573.389	327.81
573.6	329.81
573.811	334.81
574.023	340.81
574.234	312.81
574.445	347.81
574.656	325.81
574.867	339.81
575.078	352.81
575.289	331.81
575.501	338.81
575.712	329.81
575.923	319.81
576.134	328.81
576.345	338.81
576.556	320.81
576.767	306.81
576.978	326.81
577.188	357.81
577.399	331.81
577.61	346.81
577.821	320.81
578.032	326.81
578.243	364.81
578.454	578.81
578.665	430.81
578.875	310.81
579.086	308.81
579.297	312.81
579.508	321.81
579.718	300.81
579.929	310.81
580.14	295.81
580.35	283.81
580.561	306.81
580.772	296.81
580.982	306.81
581.193	312.81
581.403	286.81
581.614	299.81
581.825	315.81
582.035	283.81
582.246	287.81
582.456	283.81
582.667	297.81
582.877	304.81
583.087	292.81
583.298	310.81
583.508	285.81
583.719	292.81
583.929	308.81
584.139	283.81
584.35	303.81
584.56	299.81
584.77	287.81
584.981	294.81
585.191	286.81
585.401	286.81
585.611	290.81
585.821	284.81
586.032	293.81
586.242	303.81
586.452	309.81
586.662	268.81
586.872	282.81
587.082	296.81
587.292	280.81
587.502	284.81
587.713	292.81
587.923	290.81
588.133	282.81
588.343	290.81
588.553	274.81
588.762	292.81
588.972	295.81
589.182	289.81
589.392	283.81
589.602	282.81
589.812	294.81
590.022	281.81
590.232	298.81
590.441	293.81
590.651	302.81
590.861	308.81
591.071	292.81
591.281	287.81
591.49	308.81
591.7	310.81
591.91	294.81
592.119	296.81
592.329	291.81
592.539	314.81
592.748	315.81
592.958	318.81
593.167	320.81
593.377	320.81
593.587	324.81
593.796	325.81
594.006	333.81
594.215	333.81
594.424	331.81
594.634	323.81
594.843	323.81
595.053	320.81
595.262	304.81
595.472	301.81
595.681	295.81
595.89	298.81
596.1	288.81
596.309	293.81
596.518	276.81
596.727	267.81
596.937	276.81
597.146	292.81
597.355	255.81
597.564	256.81
597.774	277.81
597.983	266.81
598.192	259.81
598.401	272.81
598.61	266.81
598.819	257.81
599.028	264.81
599.237	264.81
599.446	255.81
599.655	274.81
599.864	246.81
600.073	232.81
600.282	260.81
600.491	260.81
600.7	237.81
600.909	248.81
601.118	256.81
601.327	246.81
601.536	248.81
601.745	243.81
601.953	264.81
602.162	251.81
602.371	249.81
602.58	254.81
602.789	252.81
602.997	255.81
603.206	248.81
603.415	250.81
603.623	246.81
603.832	237.81
604.041	238.81
604.249	254.81
604.458	240.81
604.666	248.81
604.875	239.81
605.084	238.81
605.292	235.81
605.501	228.81
605.709	227.81
605.918	245.81
606.126	250.81
606.334	232.81
606.543	230.81
606.751	251.81
606.96	243.81
607.168	266.81
607.376	226.81
607.585	257.81
607.793	226.81
608.001	231.81
608.21	239.81
608.418	239.81
608.626	237.81
608.834	219.81
609.043	238.81
609.251	262.81
609.459	230.81
609.667	235.81
609.875	228.81
610.083	235.81
610.291	217.81
610.499	237.81
610.707	229.81
610.916	234.81
611.124	251.81
611.332	231.81
611.54	240.81
611.748	233.81
611.955	237.81
612.163	230.81
612.371	219.81
612.579	228.81
612.787	232.81
612.995	246.81
613.203	234.81
613.411	233.81
613.618	232.81
613.826	221.81
614.034	235.81
614.242	233.81
614.449	222.81
614.657	231.81
614.865	233.81
615.072	229.81
615.28	241.81
615.488	232.81
615.695	227.81
615.903	239.81
616.111	227.81
616.318	246.81
616.526	237.81
616.733	233.81
616.941	230.81
617.148	236.81
617.356	212.81
617.563	232.81
617.771	211.81
617.978	232.81
618.185	229.81
618.393	233.81
618.6	231.81
618.807	221.81
619.015	224.81
619.222	229.81
619.429	220.81
619.637	229.81
619.844	215.81
620.051	222.81
620.258	207.81
620.466	223.81
620.673	220.81
620.88	228.81
621.087	231.81
621.294	203.81
621.501	215.81
621.708	211.81
621.915	216.81
622.122	212.81
622.329	211.81
622.536	216.81
622.743	212.81
622.95	213.81
623.157	198.81
623.364	202.81
623.571	208.81
623.778	213.81
623.985	218.81
624.192	208.81
624.399	189.81
624.606	228.81
624.812	210.81
625.019	202.81
625.226	205.81
625.433	207.81
625.639	197.81
625.846	211.81
626.053	217.81
626.259	182.81
626.466	184.81
626.673	203.81
626.879	217.81
627.086	205.81
627.293	198.81
627.499	195.81
627.706	195.81
627.912	196.81
628.119	194.81
628.325	208.81
628.532	194.81
628.738	198.81
628.945	194.81
629.151	184.81
629.357	203.81
629.564	196.81
629.77	198.81
629.976	197.81
630.183	185.81
630.389	191.81
630.595	192.81
630.802	195.81
631.008	174.81
631.214	198.81
631.42	197.81
631.627	190.81
631.833	184.81
632.039	189.81
632.245	181.81
632.451	198.81
632.657	191.81
632.863	202.81
633.069	198.81
633.275	186.81
633.481	186.81
633.688	185.81
633.893	176.81
634.099	177.81
634.305	181.81
634.511	166.81
634.717	168.81
634.923	180.81
635.129	189.81
635.335	180.81
635.541	166.81
635.747	176.81
635.952	167.81
636.158	182.81
636.364	184.81
636.57	172.81
636.775	176.81
636.981	177.81
637.187	178.81
637.392	165.81
637.598	182.81
637.804	185.81
638.009	180.81
638.215	168.81
638.421	172.81
638.626	174.81
638.832	173.81
639.037	171.81
639.243	163.81
639.448	180.81
639.654	172.81
639.859	175.81
640.065	167.81
640.27	164.81
640.475	170.81
640.681	182.81
640.886	176.81
641.091	178.81
641.297	158.81
641.502	165.81
641.707	170.81
641.913	175.81
642.118	170.81
642.323	153.81
642.528	172.81
642.733	161.81
642.939	174.81
643.144	162.81
643.349	168.81
643.554	180.81
643.759	168.81
643.964	160.81
644.169	150.81
644.374	156.81
644.579	160.81
644.784	178.81
644.989	176.81
645.194	160.81
645.399	160.81
645.604	163.81
645.809	158.81
646.014	164.81
646.219	172.81
646.423	175.81
646.628	158.81
646.833	164.81
647.038	180.81
647.243	180.81
647.447	182.81
647.652	156.81
647.857	162.81
648.062	161.81
648.266	171.81
648.471	184.81
648.676	171.81
648.88	162.81
649.085	178.81
649.289	166.81
649.494	169.81
649.698	182.81
649.903	180.81
650.107	165.81
650.312	174.81
650.516	163.81
650.721	130.81
650.925	144.81
651.13	151.81
651.334	153.81
651.539	159.81
651.743	149.81
651.947	142.81
652.152	150.81
652.356	137.81
652.56	146.81
652.764	138.81
652.969	153.81
653.173	142.81
653.377	143.81
653.581	140.81
653.785	132.81
653.99	140.81
654.194	138.81
654.398	149.81
654.602	143.81
654.806	136.81
655.01	146.81
655.214	139.81
655.418	135.81
655.622	146.81
655.826	136.81
656.03	140.81
656.234	154.81
656.438	135.81
656.642	133.81
656.846	141.81
657.049	139.81
657.253	124.81
657.457	117.81
657.661	126.81
657.865	133.81
658.068	115.81
658.272	124.81
658.476	108.81
658.68	101.81
658.883	95.81
659.087	109.81
659.291	119.81
659.494	111.81
659.698	96.81
659.901	95.81
660.105	108.81
660.309	107.81
660.512	104.81
660.716	98.81
660.919	74.81
661.123	103.81
661.326	87.81
661.53	93.81
661.733	85.81
661.936	98.81
662.14	84.81
662.343	99.81
662.546	87.81
662.75	91.81
662.953	95.81
663.156	83.81
663.36	89.81
663.563	72.81
663.766	101.81
663.969	88.81
664.173	83.81
664.376	107.81
664.579	88.81
664.782	103.81
664.985	80.81
665.188	81.81
665.391	91.81
665.594	81.81
665.797	86.81
666	99.81
666.203	91.81
666.406	90.81
666.609	88.81
666.812	90.81
667.015	83.81
667.218	77.81
667.421	90.81
667.624	74.81
667.827	95.81
668.03	83.81
668.232	84.81
668.435	75.81
668.638	84.81
668.841	84.81
669.043	87.81
669.246	80.81
669.449	90.81
669.651	65.81
669.854	96.81
670.057	99.81
670.259	80.81
670.462	91.81
670.665	87.81
670.867	88.81
671.07	81.81
671.272	93.81
671.475	87.81
671.677	82.81
671.88	75.81
672.082	87.81
672.284	94.81
672.487	78.81
672.689	78.81
672.892	78.81
