Data from 1985.PennyLincolnUp.Lamp.En5.5.200Scan.071819.P1_HRD10591_17-01-20-970.txt Node
Date: Thu Jul 18 17:01:20 EDT 2019
User: cochatt
Spectrometer: HR+D1059
Trigger mode: 1
Integration Time (sec): 1.000000E-1
Scans to average: 1
Electric dark correction enabled: true
Nonlinearity correction enabled: false
Boxcar width: 0
XAxis mode: Wavelengths
Number of Pixels in Spectrum: 2048
>>>>>Begin Spectral Data<<<<<
223.165	-17.62
223.4	-17.62
223.635	-17.62
223.869	-8.62
224.104	-15.62
224.338	-13.62
224.573	-10.62
224.808	-19.62
225.042	-10.62
225.277	-9.62
225.511	-0.62
225.746	4.38
225.98	-4.62
226.215	9.38
226.449	26.38
226.683	21.38
226.918	23.38
227.152	26.38
227.387	33.38
227.621	47.38
227.856	49.38
228.09	50.38
228.324	60.38
228.559	57.38
228.793	62.38
229.027	99.38
229.262	104.38
229.496	107.38
229.73	125.38
229.964	129.38
230.199	119.38
230.433	104.38
230.667	104.38
230.901	94.38
231.136	118.38
231.37	112.38
231.604	113.38
231.838	98.38
232.072	121.38
232.306	109.38
232.541	128.38
232.775	128.38
233.009	111.38
233.243	122.38
233.477	116.38
233.711	121.38
233.945	117.38
234.179	118.38
234.413	96.38
234.647	115.38
234.881	113.38
235.115	122.38
235.349	113.38
235.583	129.38
235.817	126.38
236.051	103.38
236.285	132.38
236.519	126.38
236.753	130.38
236.987	144.38
237.221	172.38
237.455	173.38
237.689	171.38
237.922	143.38
238.156	136.38
238.39	120.38
238.624	118.38
238.858	125.38
239.091	124.38
239.325	123.38
239.559	122.38
239.793	113.38
240.027	120.38
240.26	138.38
240.494	134.38
240.728	142.38
240.961	133.38
241.195	132.38
241.429	134.38
241.662	128.38
241.896	119.38
242.13	124.38
242.363	143.38
242.597	126.38
242.83	140.38
243.064	133.38
243.298	146.38
243.531	145.38
243.765	124.38
243.998	132.38
244.232	127.38
244.465	143.38
244.699	146.38
244.932	123.38
245.166	137.38
245.399	140.38
245.633	130.38
245.866	145.38
246.099	140.38
246.333	146.38
246.566	146.38
246.8	144.38
247.033	151.38
247.266	144.38
247.5	151.38
247.733	144.38
247.966	156.38
248.2	159.38
248.433	163.38
248.666	155.38
248.899	164.38
249.133	170.38
249.366	187.38
249.599	158.38
249.832	177.38
250.066	184.38
250.299	172.38
250.532	166.38
250.765	182.38
250.998	200.38
251.231	185.38
251.465	188.38
251.698	187.38
251.931	181.38
252.164	186.38
252.397	180.38
252.63	190.38
252.863	207.38
253.096	199.38
253.329	182.38
253.562	209.38
253.795	205.38
254.028	210.38
254.261	182.38
254.494	206.38
254.727	211.38
254.96	258.38
255.193	228.38
255.426	216.38
255.659	199.38
255.892	200.38
256.124	208.38
256.357	191.38
256.59	187.38
256.823	183.38
257.056	190.38
257.289	184.38
257.521	181.38
257.754	202.38
257.987	199.38
258.22	189.38
258.452	210.38
258.685	187.38
258.918	204.38
259.151	200.38
259.383	208.38
259.616	204.38
259.849	217.38
260.081	204.38
260.314	229.38
260.547	229.38
260.779	224.38
261.012	227.38
261.244	208.38
261.477	214.38
261.71	208.38
261.942	214.38
262.175	214.38
262.407	196.38
262.64	198.38
262.872	191.38
263.105	218.38
263.337	198.38
263.57	209.38
263.802	216.38
264.035	208.38
264.267	219.38
264.499	220.38
264.732	220.38
264.964	220.38
265.197	199.38
265.429	217.38
265.661	210.38
265.894	219.38
266.126	224.38
266.358	221.38
266.591	212.38
266.823	224.38
267.055	223.38
267.287	223.38
267.52	226.38
267.752	236.38
267.984	230.38
268.216	223.38
268.448	245.38
268.681	218.38
268.913	222.38
269.145	248.38
269.377	257.38
269.609	248.38
269.841	253.38
270.073	242.38
270.306	282.38
270.538	292.38
270.77	277.38
271.002	278.38
271.234	278.38
271.466	265.38
271.698	265.38
271.93	282.38
272.162	286.38
272.394	293.38
272.626	275.38
272.858	273.38
273.09	245.38
273.322	271.38
273.553	241.38
273.785	249.38
274.017	256.38
274.249	256.38
274.481	254.38
274.713	241.38
274.945	279.38
275.176	254.38
275.408	258.38
275.64	265.38
275.872	272.38
276.104	260.38
276.335	264.38
276.567	276.38
276.799	276.38
277.031	283.38
277.262	295.38
277.494	296.38
277.726	277.38
277.957	282.38
278.189	280.38
278.421	267.38
278.652	273.38
278.884	260.38
279.115	261.38
279.347	268.38
279.579	274.38
279.81	283.38
280.042	271.38
280.273	255.38
280.505	264.38
280.736	281.38
280.968	269.38
281.199	272.38
281.431	272.38
281.662	270.38
281.894	287.38
282.125	286.38
282.356	298.38
282.588	287.38
282.819	287.38
283.051	289.38
283.282	279.38
283.513	278.38
283.745	280.38
283.976	272.38
284.207	295.38
284.439	287.38
284.67	285.38
284.901	291.38
285.132	277.38
285.364	302.38
285.595	285.38
285.826	288.38
286.057	280.38
286.288	301.38
286.52	282.38
286.751	292.38
286.982	288.38
287.213	299.38
287.444	302.38
287.675	290.38
287.906	300.38
288.138	295.38
288.369	317.38
288.6	314.38
288.831	313.38
289.062	288.38
289.293	319.38
289.524	322.38
289.755	312.38
289.986	280.38
290.217	308.38
290.448	304.38
290.679	296.38
290.91	297.38
291.141	294.38
291.371	305.38
291.602	315.38
291.833	311.38
292.064	298.38
292.295	315.38
292.526	295.38
292.757	284.38
292.987	280.38
293.218	301.38
293.449	310.38
293.68	311.38
293.91	316.38
294.141	316.38
294.372	304.38
294.603	312.38
294.833	299.38
295.064	296.38
295.295	297.38
295.525	300.38
295.756	312.38
295.987	314.38
296.217	332.38
296.448	328.38
296.679	311.38
296.909	306.38
297.14	297.38
297.37	312.38
297.601	318.38
297.831	303.38
298.062	313.38
298.292	320.38
298.523	327.38
298.753	318.38
298.984	326.38
299.214	321.38
299.445	322.38
299.675	320.38
299.905	332.38
300.136	334.38
300.366	326.38
300.597	329.38
300.827	338.38
301.057	338.38
301.288	351.38
301.518	352.38
301.748	335.38
301.979	337.38
302.209	339.38
302.439	342.38
302.669	336.38
302.9	354.38
303.13	349.38
303.36	349.38
303.59	328.38
303.82	376.38
304.051	346.38
304.281	353.38
304.511	339.38
304.741	336.38
304.971	319.38
305.201	333.38
305.431	349.38
305.661	350.38
305.891	337.38
306.121	338.38
306.352	360.38
306.582	344.38
306.812	349.38
307.042	354.38
307.272	351.38
307.502	333.38
307.731	335.38
307.961	348.38
308.191	362.38
308.421	335.38
308.651	341.38
308.881	356.38
309.111	354.38
309.341	342.38
309.571	354.38
309.8	353.38
310.03	361.38
310.26	385.38
310.49	377.38
310.72	378.38
310.949	357.38
311.179	380.38
311.409	360.38
311.639	367.38
311.868	374.38
312.098	382.38
312.328	387.38
312.557	390.38
312.787	381.38
313.017	388.38
313.246	380.38
313.476	383.38
313.706	388.38
313.935	390.38
314.165	386.38
314.394	390.38
314.624	388.38
314.853	365.38
315.083	386.38
315.312	380.38
315.542	388.38
315.771	381.38
316.001	369.38
316.23	377.38
316.46	393.38
316.689	393.38
316.919	388.38
317.148	387.38
317.377	375.38
317.607	398.38
317.836	384.38
318.065	405.38
318.295	390.38
318.524	389.38
318.753	376.38
318.983	372.38
319.212	372.38
319.441	391.38
319.67	396.38
319.9	370.38
320.129	388.38
320.358	384.38
320.587	385.38
320.816	389.38
321.046	392.38
321.275	410.38
321.504	393.38
321.733	386.38
321.962	411.38
322.191	415.38
322.42	394.38
322.649	406.38
322.878	402.38
323.108	424.38
323.337	432.38
323.566	447.38
323.795	456.38
324.024	488.38
324.253	550.38
324.482	692.38
324.71	983.38
324.939	1361.38
325.168	1190.38
325.397	678.38
325.626	511.38
325.855	469.38
326.084	468.38
326.313	441.38
326.542	453.38
326.77	464.38
326.999	537.38
327.228	653.38
327.457	917.38
327.686	1022.38
327.914	734.38
328.143	542.38
328.372	496.38
328.6	476.38
328.829	480.38
329.058	492.38
329.287	495.38
329.515	467.38
329.744	466.38
329.972	452.38
330.201	443.38
330.43	449.38
330.658	466.38
330.887	493.38
331.115	513.38
331.344	469.38
331.572	450.38
331.801	475.38
332.03	456.38
332.258	452.38
332.486	454.38
332.715	456.38
332.943	447.38
333.172	460.38
333.4	463.38
333.629	491.38
333.857	491.38
334.085	494.38
334.314	487.38
334.542	479.38
334.771	483.38
334.999	465.38
335.227	454.38
335.455	470.38
335.684	464.38
335.912	460.38
336.14	453.38
336.369	454.38
336.597	475.38
336.825	441.38
337.053	454.38
337.281	460.38
337.51	451.38
337.738	450.38
337.966	442.38
338.194	456.38
338.422	432.38
338.65	445.38
338.878	452.38
339.106	429.38
339.334	438.38
339.562	439.38
339.79	409.38
340.018	417.38
340.246	446.38
340.474	419.38
340.702	412.38
340.93	413.38
341.158	431.38
341.386	422.38
341.614	425.38
341.842	424.38
342.07	426.38
342.298	448.38
342.526	421.38
342.754	450.38
342.981	440.38
343.209	416.38
343.437	436.38
343.665	432.38
343.893	460.38
344.12	462.38
344.348	443.38
344.576	452.38
344.804	440.38
345.031	452.38
345.259	442.38
345.487	423.38
345.714	442.38
345.942	402.38
346.17	400.38
346.397	408.38
346.625	396.38
346.853	402.38
347.08	392.38
347.308	406.38
347.535	425.38
347.763	414.38
347.99	419.38
348.218	404.38
348.445	412.38
348.673	417.38
348.9	391.38
349.128	402.38
349.355	397.38
349.583	414.38
349.81	414.38
350.037	400.38
350.265	408.38
350.492	403.38
350.72	398.38
350.947	396.38
351.174	401.38
351.402	403.38
351.629	416.38
351.856	401.38
352.083	394.38
352.311	400.38
352.538	401.38
352.765	414.38
352.992	411.38
353.22	401.38
353.447	388.38
353.674	391.38
353.901	378.38
354.128	402.38
354.355	395.38
354.583	373.38
354.81	405.38
355.037	403.38
355.264	391.38
355.491	393.38
355.718	382.38
355.945	404.38
356.172	390.38
356.399	385.38
356.626	396.38
356.853	397.38
357.08	409.38
357.307	403.38
357.534	380.38
357.761	412.38
357.988	413.38
358.215	389.38
358.441	392.38
358.668	399.38
358.895	388.38
359.122	379.38
359.349	376.38
359.576	401.38
359.802	416.38
360.029	429.38
360.256	425.38
360.483	442.38
360.709	417.38
360.936	406.38
361.163	411.38
361.39	406.38
361.616	401.38
361.843	382.38
362.07	412.38
362.296	395.38
362.523	403.38
362.749	387.38
362.976	413.38
363.203	382.38
363.429	407.38
363.656	402.38
363.882	386.38
364.109	397.38
364.335	395.38
364.562	374.38
364.788	391.38
365.015	394.38
365.241	381.38
365.468	392.38
365.694	382.38
365.92	394.38
366.147	413.38
366.373	396.38
366.599	382.38
366.826	377.38
367.052	380.38
367.278	380.38
367.505	395.38
367.731	400.38
367.957	368.38
368.184	394.38
368.41	392.38
368.636	402.38
368.862	395.38
369.089	397.38
369.315	393.38
369.541	376.38
369.767	393.38
369.993	397.38
370.219	405.38
370.445	381.38
370.672	394.38
370.898	388.38
371.124	411.38
371.35	408.38
371.576	417.38
371.802	386.38
372.028	395.38
372.254	398.38
372.48	407.38
372.706	418.38
372.932	432.38
373.158	401.38
373.384	405.38
373.61	418.38
373.835	393.38
374.061	383.38
374.287	416.38
374.513	397.38
374.739	410.38
374.965	419.38
375.191	427.38
375.416	432.38
375.642	391.38
375.868	418.38
376.094	392.38
376.319	383.38
376.545	407.38
376.771	417.38
376.997	373.38
377.222	375.38
377.448	392.38
377.674	403.38
377.899	413.38
378.125	388.38
378.35	382.38
378.576	384.38
378.802	387.38
379.027	393.38
379.253	403.38
379.478	410.38
379.704	385.38
379.929	402.38
380.155	396.38
380.38	394.38
380.606	396.38
380.831	376.38
381.057	390.38
381.282	396.38
381.507	411.38
381.733	414.38
381.958	414.38
382.184	427.38
382.409	424.38
382.634	406.38
382.86	400.38
383.085	422.38
383.31	406.38
383.535	433.38
383.761	415.38
383.986	420.38
384.211	427.38
384.436	448.38
384.662	420.38
384.887	450.38
385.112	438.38
385.337	446.38
385.562	448.38
385.787	459.38
386.013	436.38
386.238	437.38
386.463	421.38
386.688	453.38
386.913	448.38
387.138	467.38
387.363	441.38
387.588	438.38
387.813	437.38
388.038	441.38
388.263	446.38
388.488	456.38
388.713	465.38
388.938	447.38
389.163	436.38
389.387	437.38
389.612	439.38
389.837	444.38
390.062	431.38
390.287	444.38
390.512	443.38
390.736	445.38
390.961	433.38
391.186	477.38
391.411	457.38
391.636	452.38
391.86	440.38
392.085	479.38
392.31	456.38
392.534	465.38
392.759	468.38
392.984	453.38
393.208	457.38
393.433	439.38
393.658	444.38
393.882	440.38
394.107	454.38
394.331	452.38
394.556	476.38
394.78	452.38
395.005	437.38
395.229	468.38
395.454	480.38
395.678	469.38
395.903	458.38
396.127	477.38
396.352	478.38
396.576	463.38
396.801	477.38
397.025	440.38
397.249	476.38
397.474	500.38
397.698	465.38
397.922	490.38
398.147	488.38
398.371	499.38
398.595	525.38
398.82	514.38
399.044	538.38
399.268	549.38
399.492	616.38
399.717	655.38
399.941	668.38
400.165	676.38
400.389	663.38
400.613	586.38
400.837	536.38
401.062	516.38
401.286	528.38
401.51	518.38
401.734	528.38
401.958	535.38
402.182	508.38
402.406	527.38
402.63	522.38
402.854	539.38
403.078	530.38
403.302	532.38
403.526	546.38
403.75	550.38
403.974	557.38
404.198	509.38
404.422	546.38
404.645	540.38
404.869	545.38
405.093	554.38
405.317	562.38
405.541	568.38
405.765	556.38
405.988	566.38
406.212	551.38
406.436	566.38
406.66	585.38
406.883	578.38
407.107	580.38
407.331	623.38
407.555	663.38
407.778	667.38
408.002	626.38
408.226	584.38
408.449	554.38
408.673	592.38
408.896	591.38
409.12	632.38
409.344	592.38
409.567	542.38
409.791	540.38
410.014	531.38
410.238	535.38
410.461	549.38
410.685	522.38
410.908	526.38
411.132	578.38
411.355	587.38
411.578	567.38
411.802	519.38
412.025	538.38
412.249	521.38
412.472	510.38
412.695	506.38
412.919	517.38
413.142	491.38
413.365	475.38
413.589	493.38
413.812	486.38
414.035	508.38
414.258	496.38
414.482	491.38
414.705	498.38
414.928	488.38
415.151	494.38
415.374	486.38
415.597	486.38
415.821	481.38
416.044	494.38
416.267	493.38
416.49	494.38
416.713	493.38
416.936	519.38
417.159	489.38
417.382	497.38
417.605	490.38
417.828	496.38
418.051	511.38
418.274	514.38
418.497	456.38
418.72	492.38
418.943	485.38
419.166	524.38
419.389	548.38
419.611	534.38
419.834	508.38
420.057	505.38
420.28	513.38
420.503	501.38
420.726	504.38
420.948	500.38
421.171	544.38
421.394	569.38
421.617	534.38
421.839	516.38
422.062	493.38
422.285	520.38
422.507	558.38
422.73	626.38
422.953	606.38
423.175	549.38
423.398	516.38
423.621	520.38
423.843	522.38
424.066	548.38
424.288	543.38
424.511	569.38
424.733	570.38
424.956	636.38
425.178	613.38
425.401	602.38
425.623	646.38
425.846	554.38
426.068	521.38
426.291	529.38
426.513	507.38
426.735	534.38
426.958	544.38
427.18	632.38
427.402	696.38
427.625	761.38
427.847	642.38
428.069	566.38
428.292	524.38
428.514	491.38
428.736	485.38
428.958	484.38
429.181	490.38
429.403	475.38
429.625	469.38
429.847	539.38
430.069	546.38
430.292	555.38
430.514	481.38
430.736	465.38
430.958	492.38
431.18	463.38
431.402	460.38
431.624	454.38
431.846	483.38
432.068	469.38
432.29	469.38
432.512	470.38
432.734	464.38
432.956	469.38
433.178	466.38
433.4	472.38
433.622	457.38
433.844	446.38
434.066	479.38
434.287	458.38
434.509	468.38
434.731	497.38
434.953	503.38
435.175	488.38
435.397	494.38
435.618	504.38
435.84	552.38
436.062	617.38
436.284	637.38
436.505	549.38
436.727	509.38
436.949	497.38
437.17	478.38
437.392	480.38
437.614	505.38
437.835	486.38
438.057	568.38
438.278	619.38
438.5	635.38
438.721	726.38
438.943	681.38
439.165	541.38
439.386	505.38
439.608	498.38
439.829	519.38
440.05	542.38
440.272	555.38
440.493	504.38
440.715	492.38
440.936	504.38
441.158	487.38
441.379	493.38
441.6	510.38
441.822	524.38
442.043	562.38
442.264	615.38
442.486	650.38
442.707	544.38
442.928	539.38
443.149	529.38
443.371	551.38
443.592	579.38
443.813	652.38
444.034	692.38
444.255	600.38
444.476	575.38
444.698	553.38
444.919	551.38
445.14	641.38
445.361	590.38
445.582	544.38
445.803	587.38
446.024	661.38
446.245	662.38
446.466	609.38
446.687	494.38
446.908	518.38
447.129	481.38
447.35	465.38
447.571	460.38
447.792	480.38
448.013	449.38
448.234	468.38
448.455	526.38
448.675	589.38
448.896	666.38
449.117	596.38
449.338	561.38
449.559	660.38
449.779	716.38
450	584.38
450.221	512.38
450.442	461.38
450.662	446.38
450.883	452.38
451.104	476.38
451.324	453.38
451.545	437.38
451.766	429.38
451.986	429.38
452.207	411.38
452.428	425.38
452.648	431.38
452.869	433.38
453.089	435.38
453.31	433.38
453.53	433.38
453.751	427.38
453.971	432.38
454.192	432.38
454.412	430.38
454.633	439.38
454.853	435.38
455.073	416.38
455.294	441.38
455.514	473.38
455.734	484.38
455.955	424.38
456.175	429.38
456.395	410.38
456.616	406.38
456.836	414.38
457.056	408.38
457.276	405.38
457.497	414.38
457.717	392.38
457.937	401.38
458.157	419.38
458.377	431.38
458.598	445.38
458.818	469.38
459.038	497.38
459.258	531.38
459.478	503.38
459.698	481.38
459.918	464.38
460.138	476.38
460.358	476.38
460.578	488.38
460.798	495.38
461.018	516.38
461.238	498.38
461.458	487.38
461.678	505.38
461.898	499.38
462.118	501.38
462.338	494.38
462.558	496.38
462.777	521.38
462.997	577.38
463.217	578.38
463.437	585.38
463.657	578.38
463.876	557.38
464.096	530.38
464.316	534.38
464.536	540.38
464.755	550.38
464.975	554.38
465.195	552.38
465.414	553.38
465.634	525.38
465.854	504.38
466.073	488.38
466.293	452.38
466.512	460.38
466.732	453.38
466.951	448.38
467.171	445.38
467.391	433.38
467.61	461.38
467.829	451.38
468.049	456.38
468.268	440.38
468.488	428.38
468.707	415.38
468.927	437.38
469.146	433.38
469.365	444.38
469.585	428.38
469.804	449.38
470.023	452.38
470.243	453.38
470.462	441.38
470.681	461.38
470.901	467.38
471.12	454.38
471.339	440.38
471.558	463.38
471.777	445.38
471.997	459.38
472.216	461.38
472.435	445.38
472.654	453.38
472.873	447.38
473.092	445.38
473.311	427.38
473.53	454.38
473.749	474.38
473.968	461.38
474.187	554.38
474.406	557.38
474.625	490.38
474.844	456.38
475.063	448.38
475.282	438.38
475.501	445.38
475.72	469.38
475.939	467.38
476.158	472.38
476.377	466.38
476.596	451.38
476.814	489.38
477.033	461.38
477.252	465.38
477.471	466.38
477.69	468.38
477.908	489.38
478.127	499.38
478.346	520.38
478.564	507.38
478.783	515.38
479.002	529.38
479.22	539.38
479.439	522.38
479.658	507.38
479.876	530.38
480.095	554.38
480.313	566.38
480.532	547.38
480.751	558.38
480.969	547.38
481.188	542.38
481.406	549.38
481.624	535.38
481.843	526.38
482.061	531.38
482.28	516.38
482.498	521.38
482.717	534.38
482.935	540.38
483.153	539.38
483.372	506.38
483.59	513.38
483.808	547.38
484.027	536.38
484.245	517.38
484.463	546.38
484.681	526.38
484.9	546.38
485.118	541.38
485.336	542.38
485.554	538.38
485.772	541.38
485.99	519.38
486.209	541.38
486.427	566.38
486.645	543.38
486.863	568.38
487.081	545.38
487.299	593.38
487.517	555.38
487.735	567.38
487.953	554.38
488.171	573.38
488.389	538.38
488.607	535.38
488.825	548.38
489.043	555.38
489.261	566.38
489.479	554.38
489.696	572.38
489.914	542.38
490.132	553.38
490.35	565.38
490.568	573.38
490.786	574.38
491.003	598.38
491.221	590.38
491.439	606.38
491.657	602.38
491.874	606.38
492.092	613.38
492.31	589.38
492.527	605.38
492.745	598.38
492.963	612.38
493.18	623.38
493.398	626.38
493.615	640.38
493.833	638.38
494.05	634.38
494.268	644.38
494.485	605.38
494.703	607.38
494.92	606.38
495.138	616.38
495.355	625.38
495.573	629.38
495.79	640.38
496.008	656.38
496.225	651.38
496.442	650.38
496.66	626.38
496.877	632.38
497.094	639.38
497.312	670.38
497.529	688.38
497.746	685.38
497.963	728.38
498.181	739.38
498.398	719.38
498.615	766.38
498.832	788.38
499.049	807.38
499.267	841.38
499.484	924.38
499.701	924.38
499.918	985.38
500.135	1026.38
500.352	1110.38
500.569	1137.38
500.786	1140.38
501.003	1082.38
501.22	1066.38
501.437	990.38
501.654	979.38
501.871	889.38
502.088	859.38
502.305	824.38
502.522	784.38
502.739	768.38
502.956	714.38
503.172	714.38
503.389	703.38
503.606	685.38
503.823	705.38
504.04	678.38
504.256	708.38
504.473	686.38
504.69	668.38
504.907	670.38
505.123	670.38
505.34	654.38
505.557	618.38
505.773	608.38
505.99	610.38
506.207	602.38
506.423	597.38
506.64	611.38
506.856	589.38
507.073	592.38
507.289	598.38
507.506	585.38
507.722	569.38
507.939	610.38
508.155	589.38
508.372	578.38
508.588	555.38
508.805	562.38
509.021	571.38
509.238	574.38
509.454	566.38
509.67	557.38
509.887	556.38
510.103	577.38
510.319	569.38
510.536	612.38
510.752	898.38
510.968	766.38
511.184	581.38
511.401	548.38
511.617	530.38
511.833	533.38
512.049	543.38
512.265	525.38
512.481	534.38
512.698	521.38
512.914	542.38
513.13	561.38
513.346	526.38
513.562	518.38
513.778	541.38
513.994	514.38
514.21	516.38
514.426	540.38
514.642	562.38
514.858	566.38
515.074	599.38
515.29	649.38
515.506	875.38
515.721	766.38
515.937	596.38
516.153	580.38
516.369	564.38
516.585	580.38
516.801	584.38
517.016	557.38
517.232	609.38
517.448	611.38
517.664	582.38
517.879	606.38
518.095	587.38
518.311	584.38
518.527	598.38
518.742	591.38
518.958	568.38
519.173	548.38
519.389	550.38
519.605	553.38
519.82	550.38
520.036	556.38
520.251	566.38
520.467	545.38
520.682	542.38
520.898	552.38
521.113	566.38
521.329	578.38
521.544	611.38
521.76	704.38
521.975	1029.38
522.19	1069.38
522.406	666.38
522.621	566.38
522.836	512.38
523.052	524.38
523.267	506.38
523.482	503.38
523.698	493.38
523.913	510.38
524.128	490.38
524.343	486.38
524.559	486.38
524.774	485.38
524.989	485.38
525.204	479.38
525.419	472.38
525.634	474.38
525.849	465.38
526.064	459.38
526.28	474.38
526.495	462.38
526.71	446.38
526.925	454.38
527.14	465.38
527.355	471.38
527.57	454.38
527.785	454.38
527.999	458.38
528.214	460.38
528.429	449.38
528.644	457.38
528.859	448.38
529.074	438.38
529.289	456.38
529.503	490.38
529.718	486.38
529.933	486.38
530.148	470.38
530.363	452.38
530.577	450.38
530.792	437.38
531.007	431.38
531.221	446.38
531.436	457.38
531.651	442.38
531.865	462.38
532.08	468.38
532.295	434.38
532.509	440.38
532.724	452.38
532.938	453.38
533.153	451.38
533.367	440.38
533.582	448.38
533.796	430.38
534.011	444.38
534.225	439.38
534.44	442.38
534.654	431.38
534.868	446.38
535.083	440.38
535.297	432.38
535.511	443.38
535.726	446.38
535.94	438.38
536.154	437.38
536.369	429.38
536.583	440.38
536.797	412.38
537.011	425.38
537.225	416.38
537.44	439.38
537.654	422.38
537.868	411.38
538.082	406.38
538.296	423.38
538.51	437.38
538.724	428.38
538.938	406.38
539.153	408.38
539.367	420.38
539.581	418.38
539.795	429.38
540.009	414.38
540.222	423.38
540.436	414.38
540.65	412.38
540.864	418.38
541.078	422.38
541.292	421.38
541.506	427.38
541.72	415.38
541.934	421.38
542.147	434.38
542.361	415.38
542.575	403.38
542.789	416.38
543.002	416.38
543.216	411.38
543.43	419.38
543.644	412.38
543.857	406.38
544.071	398.38
544.285	426.38
544.498	425.38
544.712	422.38
544.925	425.38
545.139	403.38
545.352	432.38
545.566	427.38
545.779	423.38
545.993	433.38
546.206	425.38
546.42	441.38
546.633	410.38
546.847	422.38
547.06	410.38
547.274	417.38
547.487	418.38
547.7	422.38
547.914	421.38
548.127	418.38
548.34	413.38
548.554	408.38
548.767	419.38
548.98	415.38
549.193	420.38
549.407	413.38
549.62	420.38
549.833	426.38
550.046	401.38
550.259	420.38
550.473	399.38
550.686	423.38
550.899	423.38
551.112	423.38
551.325	415.38
551.538	403.38
551.751	397.38
551.964	398.38
552.177	429.38
552.39	418.38
552.603	425.38
552.816	432.38
553.029	424.38
553.242	441.38
553.455	433.38
553.667	421.38
553.88	437.38
554.093	430.38
554.306	431.38
554.519	410.38
554.732	422.38
554.944	407.38
555.157	392.38
555.37	397.38
555.583	387.38
555.795	384.38
556.008	383.38
556.221	365.38
556.433	386.38
556.646	370.38
556.859	386.38
557.071	364.38
557.284	354.38
557.496	348.38
557.709	368.38
557.921	363.38
558.134	392.38
558.346	356.38
558.559	369.38
558.771	363.38
558.984	378.38
559.196	368.38
559.409	364.38
559.621	356.38
559.833	369.38
560.046	366.38
560.258	359.38
560.47	374.38
560.683	344.38
560.895	362.38
561.107	355.38
561.32	350.38
561.532	369.38
561.744	377.38
561.956	356.38
562.168	358.38
562.381	375.38
562.593	374.38
562.805	359.38
563.017	360.38
563.229	353.38
563.441	364.38
563.653	368.38
563.865	368.38
564.077	378.38
564.289	375.38
564.501	353.38
564.713	390.38
564.925	398.38
565.137	415.38
565.349	410.38
565.561	433.38
565.773	408.38
565.985	440.38
566.197	458.38
566.408	456.38
566.62	500.38
566.832	468.38
567.044	494.38
567.255	504.38
567.467	500.38
567.679	512.38
567.891	529.38
568.102	543.38
568.314	537.38
568.526	489.38
568.737	484.38
568.949	444.38
569.161	417.38
569.372	402.38
569.584	417.38
569.795	400.38
570.007	382.38
570.218	409.38
570.43	377.38
570.641	373.38
570.853	373.38
571.064	374.38
571.276	380.38
571.487	364.38
571.698	361.38
571.91	360.38
572.121	343.38
572.333	344.38
572.544	357.38
572.755	322.38
572.966	305.38
573.178	329.38
573.389	309.38
573.6	333.38
573.811	312.38
574.023	327.38
574.234	353.38
574.445	332.38
574.656	304.38
574.867	316.38
575.078	335.38
575.289	311.38
575.501	324.38
575.712	309.38
575.923	328.38
576.134	309.38
576.345	295.38
576.556	300.38
576.767	313.38
576.978	313.38
577.188	313.38
577.399	315.38
577.61	322.38
577.821	305.38
578.032	312.38
578.243	327.38
578.454	428.38
578.665	367.38
578.875	316.38
579.086	306.38
579.297	310.38
579.508	308.38
579.718	317.38
579.929	299.38
580.14	285.38
580.35	296.38
580.561	282.38
580.772	301.38
580.982	303.38
581.193	308.38
581.403	292.38
581.614	302.38
581.825	291.38
582.035	309.38
582.246	275.38
582.456	305.38
582.667	288.38
582.877	284.38
583.087	285.38
583.298	278.38
583.508	280.38
583.719	288.38
583.929	289.38
584.139	289.38
584.35	293.38
584.56	283.38
584.77	279.38
584.981	273.38
585.191	281.38
585.401	281.38
585.611	282.38
585.821	275.38
586.032	294.38
586.242	282.38
586.452	296.38
586.662	278.38
586.872	288.38
587.082	290.38
587.292	275.38
587.502	271.38
587.713	279.38
587.923	297.38
588.133	279.38
588.343	262.38
588.553	290.38
588.762	290.38
588.972	296.38
589.182	316.38
589.392	330.38
589.602	306.38
589.812	328.38
590.022	300.38
590.232	280.38
590.441	285.38
590.651	280.38
590.861	286.38
591.071	284.38
591.281	272.38
591.49	278.38
591.7	294.38
591.91	285.38
592.119	289.38
592.329	300.38
592.539	294.38
592.748	321.38
592.958	303.38
593.167	318.38
593.377	298.38
593.587	312.38
593.796	339.38
594.006	317.38
594.215	326.38
594.424	316.38
594.634	316.38
594.843	304.38
595.053	317.38
595.262	284.38
595.472	281.38
595.681	300.38
595.89	274.38
596.1	289.38
596.309	294.38
596.518	274.38
596.727	267.38
596.937	274.38
597.146	274.38
597.355	256.38
597.564	265.38
597.774	263.38
597.983	252.38
598.192	241.38
598.401	256.38
598.61	275.38
598.819	267.38
599.028	248.38
599.237	277.38
599.446	249.38
599.655	251.38
599.864	263.38
600.073	248.38
600.282	248.38
600.491	252.38
600.7	243.38
600.909	222.38
601.118	257.38
601.327	241.38
601.536	247.38
601.745	236.38
601.953	238.38
602.162	248.38
602.371	232.38
602.58	230.38
602.789	230.38
602.997	247.38
603.206	233.38
603.415	256.38
603.623	241.38
603.832	238.38
604.041	226.38
604.249	241.38
604.458	237.38
604.666	224.38
604.875	230.38
605.084	232.38
605.292	233.38
605.501	237.38
605.709	219.38
605.918	219.38
606.126	228.38
606.334	244.38
606.543	247.38
606.751	223.38
606.96	249.38
607.168	227.38
607.376	249.38
607.585	237.38
607.793	234.38
608.001	232.38
608.21	232.38
608.418	242.38
608.626	217.38
608.834	230.38
609.043	233.38
609.251	230.38
609.459	218.38
609.667	228.38
609.875	228.38
610.083	223.38
610.291	223.38
610.499	239.38
610.707	217.38
610.916	230.38
611.124	235.38
611.332	234.38
611.54	238.38
611.748	228.38
611.955	229.38
612.163	246.38
612.371	233.38
612.579	226.38
612.787	220.38
612.995	224.38
613.203	240.38
613.411	228.38
613.618	238.38
613.826	228.38
614.034	213.38
614.242	214.38
614.449	214.38
614.657	227.38
614.865	212.38
615.072	204.38
615.28	215.38
615.488	224.38
615.695	228.38
615.903	222.38
616.111	207.38
616.318	216.38
616.526	219.38
616.733	222.38
616.941	220.38
617.148	228.38
617.356	218.38
617.563	237.38
617.771	221.38
617.978	230.38
618.185	214.38
618.393	225.38
618.6	230.38
618.807	218.38
619.015	209.38
619.222	209.38
619.429	219.38
619.637	220.38
619.844	204.38
620.051	217.38
620.258	219.38
620.466	208.38
620.673	215.38
620.88	217.38
621.087	203.38
621.294	226.38
621.501	222.38
621.708	220.38
621.915	205.38
622.122	202.38
622.329	209.38
622.536	214.38
622.743	211.38
622.95	200.38
623.157	204.38
623.364	206.38
623.571	204.38
623.778	217.38
623.985	218.38
624.192	195.38
624.399	208.38
624.606	200.38
624.812	198.38
625.019	207.38
625.226	200.38
625.433	204.38
625.639	205.38
625.846	205.38
626.053	213.38
626.259	213.38
626.466	209.38
626.673	216.38
626.879	188.38
627.086	193.38
627.293	193.38
627.499	200.38
627.706	173.38
627.912	184.38
628.119	193.38
628.325	211.38
628.532	216.38
628.738	198.38
628.945	220.38
629.151	188.38
629.357	178.38
629.564	198.38
629.77	202.38
629.976	194.38
630.183	179.38
630.389	188.38
630.595	178.38
630.802	181.38
631.008	193.38
631.214	201.38
631.42	198.38
631.627	192.38
631.833	168.38
632.039	182.38
632.245	175.38
632.451	177.38
632.657	182.38
632.863	164.38
633.069	165.38
633.275	197.38
633.481	197.38
633.688	181.38
633.893	173.38
634.099	182.38
634.305	172.38
634.511	177.38
634.717	185.38
634.923	180.38
635.129	177.38
635.335	178.38
635.541	170.38
635.747	168.38
635.952	165.38
636.158	186.38
636.364	188.38
636.57	178.38
636.775	177.38
636.981	195.38
637.187	182.38
637.392	167.38
637.598	164.38
637.804	173.38
638.009	180.38
638.215	172.38
638.421	182.38
638.626	176.38
638.832	171.38
639.037	158.38
639.243	183.38
639.448	161.38
639.654	170.38
639.859	159.38
640.065	173.38
640.27	174.38
640.475	169.38
640.681	163.38
640.886	174.38
641.091	175.38
641.297	189.38
641.502	148.38
641.707	166.38
641.913	180.38
642.118	180.38
642.323	157.38
642.528	163.38
642.733	172.38
642.939	153.38
643.144	155.38
643.349	167.38
643.554	161.38
643.759	160.38
643.964	163.38
644.169	157.38
644.374	162.38
644.579	161.38
644.784	145.38
644.989	159.38
645.194	175.38
645.399	158.38
645.604	172.38
645.809	161.38
646.014	145.38
646.219	170.38
646.423	163.38
646.628	159.38
646.833	156.38
647.038	152.38
647.243	170.38
647.447	165.38
647.652	172.38
647.857	177.38
648.062	159.38
648.266	171.38
648.471	176.38
648.676	166.38
648.88	169.38
649.085	169.38
649.289	183.38
649.494	160.38
649.698	171.38
649.903	165.38
650.107	183.38
650.312	175.38
650.516	165.38
650.721	161.38
650.925	152.38
651.13	144.38
651.334	158.38
651.539	144.38
651.743	157.38
651.947	168.38
652.152	156.38
652.356	167.38
652.56	150.38
652.764	148.38
652.969	143.38
653.173	147.38
653.377	140.38
653.581	146.38
653.785	150.38
653.99	138.38
654.194	153.38
654.398	132.38
654.602	137.38
654.806	139.38
655.01	135.38
655.214	135.38
655.418	151.38
655.622	146.38
655.826	138.38
656.03	154.38
656.234	142.38
656.438	132.38
656.642	149.38
656.846	148.38
657.049	144.38
657.253	129.38
657.457	146.38
657.661	126.38
657.865	127.38
658.068	125.38
658.272	120.38
658.476	132.38
658.68	117.38
658.883	105.38
659.087	112.38
659.291	108.38
659.494	110.38
659.698	108.38
659.901	93.38
660.105	100.38
660.309	109.38
660.512	98.38
660.716	111.38
660.919	94.38
661.123	108.38
661.326	100.38
661.53	85.38
661.733	105.38
661.936	88.38
662.14	84.38
662.343	90.38
662.546	76.38
662.75	101.38
662.953	94.38
663.156	103.38
663.36	83.38
663.563	105.38
663.766	94.38
663.969	88.38
664.173	80.38
664.376	105.38
664.579	83.38
664.782	85.38
664.985	101.38
665.188	90.38
665.391	100.38
665.594	82.38
665.797	92.38
666	82.38
666.203	91.38
666.406	78.38
666.609	94.38
666.812	86.38
667.015	88.38
667.218	93.38
667.421	94.38
667.624	88.38
667.827	90.38
668.03	76.38
668.232	66.38
668.435	101.38
668.638	89.38
668.841	98.38
669.043	88.38
669.246	97.38
669.449	92.38
669.651	87.38
669.854	82.38
670.057	99.38
670.259	78.38
670.462	91.38
670.665	91.38
670.867	82.38
671.07	85.38
671.272	79.38
671.475	92.38
671.677	81.38
671.88	80.38
672.082	81.38
672.284	100.38
672.487	102.38
672.689	89.38
672.892	88.38
