Data from 1985.PennyLincolnUp.Lamp.En5.5.200Scan.071819.P1_HRD10591_17-02-11-970.txt Node
Date: Thu Jul 18 17:02:11 EDT 2019
User: cochatt
Spectrometer: HR+D1059
Trigger mode: 1
Integration Time (sec): 1.000000E-1
Scans to average: 1
Electric dark correction enabled: true
Nonlinearity correction enabled: false
Boxcar width: 0
XAxis mode: Wavelengths
Number of Pixels in Spectrum: 2048
>>>>>Begin Spectral Data<<<<<
223.165	-21.12
223.4	-21.12
223.635	-21.12
223.869	-14.12
224.104	-20.12
224.338	-12.12
224.573	-21.12
224.808	-18.12
225.042	-5.12
225.277	-6.12
225.511	-4.12
225.746	7.88
225.98	0.88
226.215	11.88
226.449	22.88
226.683	33.88
226.918	17.88
227.152	26.88
227.387	41.88
227.621	28.88
227.856	46.88
228.09	37.88
228.324	51.88
228.559	54.88
228.793	79.88
229.027	89.88
229.262	102.88
229.496	91.88
229.73	129.88
229.964	143.88
230.199	114.88
230.433	105.88
230.667	106.88
230.901	121.88
231.136	123.88
231.37	110.88
231.604	110.88
231.838	107.88
232.072	109.88
232.306	114.88
232.541	125.88
232.775	111.88
233.009	121.88
233.243	117.88
233.477	102.88
233.711	114.88
233.945	112.88
234.179	118.88
234.413	116.88
234.647	105.88
234.881	113.88
235.115	93.88
235.349	126.88
235.583	125.88
235.817	109.88
236.051	108.88
236.285	123.88
236.519	137.88
236.753	116.88
236.987	138.88
237.221	168.88
237.455	192.88
237.689	184.88
237.922	136.88
238.156	125.88
238.39	127.88
238.624	121.88
238.858	109.88
239.091	137.88
239.325	127.88
239.559	119.88
239.793	138.88
240.027	133.88
240.26	136.88
240.494	151.88
240.728	149.88
240.961	149.88
241.195	127.88
241.429	149.88
241.662	133.88
241.896	133.88
242.13	149.88
242.363	129.88
242.597	133.88
242.83	124.88
243.064	132.88
243.298	134.88
243.531	140.88
243.765	136.88
243.998	146.88
244.232	142.88
244.465	152.88
244.699	142.88
244.932	146.88
245.166	150.88
245.399	155.88
245.633	141.88
245.866	130.88
246.099	133.88
246.333	134.88
246.566	147.88
246.8	137.88
247.033	140.88
247.266	158.88
247.5	153.88
247.733	159.88
247.966	147.88
248.2	172.88
248.433	173.88
248.666	166.88
248.899	165.88
249.133	172.88
249.366	201.88
249.599	197.88
249.832	177.88
250.066	179.88
250.299	184.88
250.532	181.88
250.765	190.88
250.998	204.88
251.231	222.88
251.465	202.88
251.698	192.88
251.931	177.88
252.164	180.88
252.397	178.88
252.63	190.88
252.863	202.88
253.096	195.88
253.329	226.88
253.562	216.88
253.795	205.88
254.028	210.88
254.261	218.88
254.494	221.88
254.727	230.88
254.96	257.88
255.193	238.88
255.426	247.88
255.659	207.88
255.892	196.88
256.124	189.88
256.357	202.88
256.59	202.88
256.823	193.88
257.056	208.88
257.289	195.88
257.521	206.88
257.754	191.88
257.987	185.88
258.22	196.88
258.452	205.88
258.685	224.88
258.918	200.88
259.151	206.88
259.383	208.88
259.616	205.88
259.849	217.88
260.081	227.88
260.314	253.88
260.547	243.88
260.779	247.88
261.012	214.88
261.244	233.88
261.477	217.88
261.71	221.88
261.942	206.88
262.175	210.88
262.407	217.88
262.64	220.88
262.872	214.88
263.105	199.88
263.337	217.88
263.57	246.88
263.802	226.88
264.035	209.88
264.267	216.88
264.499	206.88
264.732	217.88
264.964	226.88
265.197	207.88
265.429	218.88
265.661	197.88
265.894	212.88
266.126	228.88
266.358	213.88
266.591	200.88
266.823	221.88
267.055	216.88
267.287	221.88
267.52	210.88
267.752	234.88
267.984	235.88
268.216	237.88
268.448	222.88
268.681	237.88
268.913	237.88
269.145	251.88
269.377	284.88
269.609	249.88
269.841	270.88
270.073	271.88
270.306	276.88
270.538	317.88
270.77	315.88
271.002	292.88
271.234	289.88
271.466	302.88
271.698	311.88
271.93	326.88
272.162	300.88
272.394	323.88
272.626	290.88
272.858	290.88
273.09	273.88
273.322	259.88
273.553	254.88
273.785	258.88
274.017	269.88
274.249	266.88
274.481	262.88
274.713	259.88
274.945	285.88
275.176	257.88
275.408	262.88
275.64	266.88
275.872	267.88
276.104	267.88
276.335	268.88
276.567	270.88
276.799	293.88
277.031	308.88
277.262	314.88
277.494	297.88
277.726	292.88
277.957	280.88
278.189	287.88
278.421	273.88
278.652	280.88
278.884	273.88
279.115	286.88
279.347	298.88
279.579	280.88
279.81	277.88
280.042	272.88
280.273	269.88
280.505	276.88
280.736	270.88
280.968	286.88
281.199	286.88
281.431	296.88
281.662	284.88
281.894	277.88
282.125	294.88
282.356	299.88
282.588	316.88
282.819	301.88
283.051	296.88
283.282	294.88
283.513	294.88
283.745	285.88
283.976	285.88
284.207	295.88
284.439	288.88
284.67	285.88
284.901	298.88
285.132	287.88
285.364	285.88
285.595	305.88
285.826	298.88
286.057	299.88
286.288	301.88
286.52	302.88
286.751	300.88
286.982	316.88
287.213	305.88
287.444	287.88
287.675	305.88
287.906	316.88
288.138	316.88
288.369	326.88
288.6	306.88
288.831	324.88
289.062	302.88
289.293	297.88
289.524	300.88
289.755	305.88
289.986	323.88
290.217	285.88
290.448	331.88
290.679	313.88
290.91	325.88
291.141	313.88
291.371	300.88
291.602	318.88
291.833	316.88
292.064	314.88
292.295	309.88
292.526	298.88
292.757	311.88
292.987	299.88
293.218	303.88
293.449	328.88
293.68	311.88
293.91	314.88
294.141	322.88
294.372	326.88
294.603	321.88
294.833	313.88
295.064	331.88
295.295	319.88
295.525	324.88
295.756	301.88
295.987	318.88
296.217	333.88
296.448	338.88
296.679	335.88
296.909	313.88
297.14	329.88
297.37	328.88
297.601	329.88
297.831	317.88
298.062	330.88
298.292	338.88
298.523	321.88
298.753	329.88
298.984	341.88
299.214	330.88
299.445	329.88
299.675	340.88
299.905	343.88
300.136	334.88
300.366	348.88
300.597	348.88
300.827	354.88
301.057	347.88
301.288	369.88
301.518	344.88
301.748	347.88
301.979	374.88
302.209	357.88
302.439	370.88
302.669	350.88
302.9	341.88
303.13	365.88
303.36	357.88
303.59	354.88
303.82	346.88
304.051	377.88
304.281	375.88
304.511	361.88
304.741	359.88
304.971	341.88
305.201	332.88
305.431	358.88
305.661	357.88
305.891	364.88
306.121	376.88
306.352	361.88
306.582	377.88
306.812	372.88
307.042	379.88
307.272	369.88
307.502	364.88
307.731	354.88
307.961	362.88
308.191	356.88
308.421	351.88
308.651	375.88
308.881	363.88
309.111	376.88
309.341	369.88
309.571	389.88
309.8	373.88
310.03	373.88
310.26	403.88
310.49	381.88
310.72	393.88
310.949	401.88
311.179	404.88
311.409	395.88
311.639	389.88
311.868	405.88
312.098	390.88
312.328	390.88
312.557	407.88
312.787	421.88
313.017	414.88
313.246	420.88
313.476	407.88
313.706	395.88
313.935	424.88
314.165	403.88
314.394	397.88
314.624	412.88
314.853	411.88
315.083	410.88
315.312	397.88
315.542	378.88
315.771	394.88
316.001	389.88
316.23	387.88
316.46	396.88
316.689	408.88
316.919	399.88
317.148	414.88
317.377	428.88
317.607	414.88
317.836	410.88
318.065	410.88
318.295	393.88
318.524	395.88
318.753	405.88
318.983	419.88
319.212	393.88
319.441	399.88
319.67	431.88
319.9	435.88
320.129	401.88
320.358	403.88
320.587	396.88
320.816	421.88
321.046	405.88
321.275	437.88
321.504	403.88
321.733	417.88
321.962	422.88
322.191	439.88
322.42	437.88
322.649	472.88
322.878	459.88
323.108	478.88
323.337	485.88
323.566	480.88
323.795	533.88
324.024	570.88
324.253	665.88
324.482	856.88
324.71	1313.88
324.939	1849.88
325.168	1539.88
325.397	849.88
325.626	603.88
325.855	547.88
326.084	518.88
326.313	499.88
326.542	523.88
326.77	550.88
326.999	620.88
327.228	799.88
327.457	1143.88
327.686	1373.88
327.914	935.88
328.143	666.88
328.372	593.88
328.6	543.88
328.829	547.88
329.058	536.88
329.287	574.88
329.515	536.88
329.744	503.88
329.972	481.88
330.201	490.88
330.43	521.88
330.658	542.88
330.887	581.88
331.115	575.88
331.344	518.88
331.572	505.88
331.801	477.88
332.03	517.88
332.258	465.88
332.486	469.88
332.715	507.88
332.943	493.88
333.172	505.88
333.4	487.88
333.629	511.88
333.857	524.88
334.085	515.88
334.314	508.88
334.542	512.88
334.771	505.88
334.999	514.88
335.227	499.88
335.455	468.88
335.684	478.88
335.912	496.88
336.14	469.88
336.369	479.88
336.597	485.88
336.825	473.88
337.053	476.88
337.281	471.88
337.51	462.88
337.738	488.88
337.966	477.88
338.194	478.88
338.422	453.88
338.65	449.88
338.878	474.88
339.106	447.88
339.334	473.88
339.562	462.88
339.79	451.88
340.018	450.88
340.246	467.88
340.474	457.88
340.702	452.88
340.93	445.88
341.158	456.88
341.386	435.88
341.614	477.88
341.842	441.88
342.07	449.88
342.298	451.88
342.526	455.88
342.754	451.88
342.981	473.88
343.209	435.88
343.437	441.88
343.665	464.88
343.893	477.88
344.12	490.88
344.348	471.88
344.576	461.88
344.804	480.88
345.031	455.88
345.259	478.88
345.487	461.88
345.714	456.88
345.942	450.88
346.17	449.88
346.397	426.88
346.625	443.88
346.853	426.88
347.08	419.88
347.308	434.88
347.535	434.88
347.763	462.88
347.99	448.88
348.218	471.88
348.445	444.88
348.673	449.88
348.9	439.88
349.128	414.88
349.355	414.88
349.583	427.88
349.81	410.88
350.037	417.88
350.265	422.88
350.492	403.88
350.72	417.88
350.947	423.88
351.174	425.88
351.402	433.88
351.629	435.88
351.856	423.88
352.083	430.88
352.311	438.88
352.538	431.88
352.765	456.88
352.992	444.88
353.22	429.88
353.447	407.88
353.674	413.88
353.901	428.88
354.128	415.88
354.355	415.88
354.583	410.88
354.81	422.88
355.037	411.88
355.264	416.88
355.491	394.88
355.718	417.88
355.945	409.88
356.172	395.88
356.399	403.88
356.626	417.88
356.853	422.88
357.08	418.88
357.307	411.88
357.534	408.88
357.761	414.88
357.988	410.88
358.215	404.88
358.441	420.88
358.668	422.88
358.895	411.88
359.122	405.88
359.349	404.88
359.576	403.88
359.802	448.88
360.029	469.88
360.256	465.88
360.483	458.88
360.709	428.88
360.936	443.88
361.163	415.88
361.39	418.88
361.616	403.88
361.843	431.88
362.07	418.88
362.296	424.88
362.523	424.88
362.749	421.88
362.976	441.88
363.203	431.88
363.429	409.88
363.656	390.88
363.882	403.88
364.109	392.88
364.335	407.88
364.562	410.88
364.788	403.88
365.015	405.88
365.241	406.88
365.468	413.88
365.694	422.88
365.92	411.88
366.147	413.88
366.373	403.88
366.599	409.88
366.826	419.88
367.052	412.88
367.278	423.88
367.505	400.88
367.731	414.88
367.957	408.88
368.184	403.88
368.41	421.88
368.636	413.88
368.862	420.88
369.089	418.88
369.315	424.88
369.541	392.88
369.767	423.88
369.993	409.88
370.219	417.88
370.445	408.88
370.672	397.88
370.898	401.88
371.124	410.88
371.35	423.88
371.576	422.88
371.802	397.88
372.028	405.88
372.254	422.88
372.48	411.88
372.706	411.88
372.932	421.88
373.158	405.88
373.384	428.88
373.61	435.88
373.835	419.88
374.061	416.88
374.287	422.88
374.513	440.88
374.739	412.88
374.965	405.88
375.191	428.88
375.416	433.88
375.642	430.88
375.868	443.88
376.094	412.88
376.319	395.88
376.545	420.88
376.771	409.88
376.997	391.88
377.222	390.88
377.448	426.88
377.674	380.88
377.899	412.88
378.125	406.88
378.35	406.88
378.576	406.88
378.802	384.88
379.027	401.88
379.253	423.88
379.478	395.88
379.704	412.88
379.929	410.88
380.155	409.88
380.38	409.88
380.606	412.88
380.831	421.88
381.057	414.88
381.282	412.88
381.507	385.88
381.733	407.88
381.958	418.88
382.184	425.88
382.409	428.88
382.634	404.88
382.86	430.88
383.085	411.88
383.31	426.88
383.535	436.88
383.761	428.88
383.986	445.88
384.211	435.88
384.436	449.88
384.662	460.88
384.887	435.88
385.112	440.88
385.337	454.88
385.562	456.88
385.787	451.88
386.013	457.88
386.238	460.88
386.463	451.88
386.688	461.88
386.913	453.88
387.138	468.88
387.363	462.88
387.588	453.88
387.813	457.88
388.038	466.88
388.263	449.88
388.488	434.88
388.713	451.88
388.938	462.88
389.163	475.88
389.387	458.88
389.612	449.88
389.837	458.88
390.062	451.88
390.287	453.88
390.512	455.88
390.736	457.88
390.961	469.88
391.186	447.88
391.411	469.88
391.636	468.88
391.86	478.88
392.085	462.88
392.31	476.88
392.534	444.88
392.759	476.88
392.984	470.88
393.208	435.88
393.433	464.88
393.658	468.88
393.882	442.88
394.107	451.88
394.331	465.88
394.556	472.88
394.78	464.88
395.005	471.88
395.229	474.88
395.454	502.88
395.678	471.88
395.903	501.88
396.127	489.88
396.352	477.88
396.576	466.88
396.801	490.88
397.025	475.88
397.249	476.88
397.474	489.88
397.698	512.88
397.922	516.88
398.147	493.88
398.371	515.88
398.595	500.88
398.82	520.88
399.044	547.88
399.268	593.88
399.492	622.88
399.717	673.88
399.941	685.88
400.165	669.88
400.389	674.88
400.613	587.88
400.837	571.88
401.062	566.88
401.286	543.88
401.51	534.88
401.734	506.88
401.958	547.88
402.182	545.88
402.406	529.88
402.63	558.88
402.854	548.88
403.078	534.88
403.302	587.88
403.526	554.88
403.75	558.88
403.974	583.88
404.198	545.88
404.422	575.88
404.645	581.88
404.869	551.88
405.093	581.88
405.317	571.88
405.541	620.88
405.765	585.88
405.988	559.88
406.212	570.88
406.436	609.88
406.66	611.88
406.883	606.88
407.107	637.88
407.331	663.88
407.555	718.88
407.778	693.88
408.002	656.88
408.226	612.88
408.449	609.88
408.673	596.88
408.896	621.88
409.12	661.88
409.344	625.88
409.567	569.88
409.791	577.88
410.014	576.88
410.238	555.88
410.461	545.88
410.685	561.88
410.908	555.88
411.132	588.88
411.355	606.88
411.578	596.88
411.802	535.88
412.025	523.88
412.249	547.88
412.472	552.88
412.695	537.88
412.919	555.88
413.142	518.88
413.365	529.88
413.589	524.88
413.812	515.88
414.035	547.88
414.258	522.88
414.482	525.88
414.705	539.88
414.928	513.88
415.151	511.88
415.374	517.88
415.597	507.88
415.821	520.88
416.044	517.88
416.267	507.88
416.49	512.88
416.713	497.88
416.936	524.88
417.159	473.88
417.382	510.88
417.605	520.88
417.828	503.88
418.051	528.88
418.274	532.88
418.497	507.88
418.72	526.88
418.943	505.88
419.166	543.88
419.389	581.88
419.611	542.88
419.834	545.88
420.057	537.88
420.28	525.88
420.503	506.88
420.726	530.88
420.948	527.88
421.171	549.88
421.394	615.88
421.617	546.88
421.839	527.88
422.062	524.88
422.285	565.88
422.507	596.88
422.73	668.88
422.953	611.88
423.175	563.88
423.398	570.88
423.621	545.88
423.843	581.88
424.066	545.88
424.288	584.88
424.511	570.88
424.733	622.88
424.956	697.88
425.178	661.88
425.401	670.88
425.623	673.88
425.846	602.88
426.068	563.88
426.291	528.88
426.513	543.88
426.735	563.88
426.958	595.88
427.18	667.88
427.402	760.88
427.625	853.88
427.847	714.88
428.069	574.88
428.292	554.88
428.514	537.88
428.736	509.88
428.958	513.88
429.181	502.88
429.403	468.88
429.625	515.88
429.847	537.88
430.069	585.88
430.292	591.88
430.514	528.88
430.736	495.88
430.958	502.88
431.18	509.88
431.402	480.88
431.624	482.88
431.846	479.88
432.068	492.88
432.29	487.88
432.512	482.88
432.734	497.88
432.956	504.88
433.178	473.88
433.4	507.88
433.622	493.88
433.844	478.88
434.066	484.88
434.287	495.88
434.509	495.88
434.731	508.88
434.953	510.88
435.175	531.88
435.397	575.88
435.618	544.88
435.84	589.88
436.062	659.88
436.284	705.88
436.505	601.88
436.727	545.88
436.949	509.88
437.17	506.88
437.392	515.88
437.614	506.88
437.835	521.88
438.057	618.88
438.278	722.88
438.5	682.88
438.721	750.88
438.943	731.88
439.165	614.88
439.386	547.88
439.608	548.88
439.829	540.88
440.05	569.88
440.272	629.88
440.493	574.88
440.715	533.88
440.936	511.88
441.158	510.88
441.379	495.88
441.6	539.88
441.822	545.88
442.043	613.88
442.264	678.88
442.486	682.88
442.707	581.88
442.928	569.88
443.149	563.88
443.371	596.88
443.592	615.88
443.813	714.88
444.034	740.88
444.255	637.88
444.476	590.88
444.698	581.88
444.919	575.88
445.14	691.88
445.361	632.88
445.582	602.88
445.803	636.88
446.024	729.88
446.245	730.88
446.466	670.88
446.687	570.88
446.908	546.88
447.129	516.88
447.35	497.88
447.571	515.88
447.792	498.88
448.013	494.88
448.234	501.88
448.455	551.88
448.675	666.88
448.896	763.88
449.117	617.88
449.338	614.88
449.559	694.88
449.779	777.88
450	615.88
450.221	535.88
450.442	486.88
450.662	475.88
450.883	510.88
451.104	491.88
451.324	504.88
451.545	463.88
451.766	475.88
451.986	454.88
452.207	422.88
452.428	447.88
452.648	462.88
452.869	460.88
453.089	473.88
453.31	443.88
453.53	447.88
453.751	451.88
453.971	466.88
454.192	467.88
454.412	462.88
454.633	437.88
454.853	444.88
455.073	452.88
455.294	482.88
455.514	522.88
455.734	503.88
455.955	438.88
456.175	431.88
456.395	438.88
456.616	425.88
456.836	433.88
457.056	427.88
457.276	413.88
457.497	427.88
457.717	424.88
457.937	418.88
458.157	456.88
458.377	446.88
458.598	464.88
458.818	517.88
459.038	571.88
459.258	595.88
459.478	495.88
459.698	511.88
459.918	497.88
460.138	505.88
460.358	509.88
460.578	529.88
460.798	527.88
461.018	505.88
461.238	518.88
461.458	510.88
461.678	527.88
461.898	526.88
462.118	525.88
462.338	551.88
462.558	552.88
462.777	548.88
462.997	581.88
463.217	622.88
463.437	597.88
463.657	604.88
463.876	572.88
464.096	561.88
464.316	562.88
464.536	549.88
464.755	575.88
464.975	533.88
465.195	595.88
465.414	610.88
465.634	565.88
465.854	513.88
466.073	483.88
466.293	474.88
466.512	465.88
466.732	473.88
466.951	491.88
467.171	473.88
467.391	477.88
467.61	482.88
467.829	483.88
468.049	473.88
468.268	478.88
468.488	436.88
468.707	469.88
468.927	468.88
469.146	466.88
469.365	455.88
469.585	469.88
469.804	457.88
470.023	483.88
470.243	476.88
470.462	467.88
470.681	491.88
470.901	501.88
471.12	462.88
471.339	464.88
471.558	472.88
471.777	465.88
471.997	484.88
472.216	466.88
472.435	472.88
472.654	451.88
472.873	461.88
473.092	475.88
473.311	453.88
473.53	458.88
473.749	486.88
473.968	495.88
474.187	574.88
474.406	599.88
474.625	515.88
474.844	480.88
475.063	485.88
475.282	460.88
475.501	490.88
475.72	474.88
475.939	474.88
476.158	493.88
476.377	474.88
476.596	473.88
476.814	474.88
477.033	500.88
477.252	492.88
477.471	502.88
477.69	517.88
477.908	504.88
478.127	509.88
478.346	519.88
478.564	519.88
478.783	547.88
479.002	543.88
479.22	555.88
479.439	557.88
479.658	571.88
479.876	569.88
480.095	585.88
480.313	595.88
480.532	594.88
480.751	583.88
480.969	577.88
481.188	588.88
481.406	589.88
481.624	548.88
481.843	541.88
482.061	541.88
482.28	502.88
482.498	510.88
482.717	548.88
482.935	530.88
483.153	514.88
483.372	531.88
483.59	534.88
483.808	537.88
484.027	548.88
484.245	523.88
484.463	541.88
484.681	543.88
484.9	546.88
485.118	570.88
485.336	552.88
485.554	574.88
485.772	565.88
485.99	536.88
486.209	577.88
486.427	561.88
486.645	552.88
486.863	574.88
487.081	582.88
487.299	571.88
487.517	594.88
487.735	575.88
487.953	577.88
488.171	564.88
488.389	576.88
488.607	577.88
488.825	590.88
489.043	587.88
489.261	554.88
489.479	573.88
489.696	589.88
489.914	574.88
490.132	602.88
490.35	609.88
490.568	600.88
490.786	589.88
491.003	635.88
491.221	606.88
491.439	637.88
491.657	647.88
491.874	631.88
492.092	656.88
492.31	663.88
492.527	660.88
492.745	651.88
492.963	637.88
493.18	663.88
493.398	669.88
493.615	654.88
493.833	650.88
494.05	680.88
494.268	657.88
494.485	653.88
494.703	674.88
494.92	649.88
495.138	675.88
495.355	660.88
495.573	683.88
495.79	684.88
496.008	668.88
496.225	665.88
496.442	700.88
496.66	697.88
496.877	689.88
497.094	725.88
497.312	695.88
497.529	699.88
497.746	724.88
497.963	755.88
498.181	773.88
498.398	772.88
498.615	801.88
498.832	822.88
499.049	840.88
499.267	858.88
499.484	906.88
499.701	975.88
499.918	1053.88
500.135	1087.88
500.352	1141.88
500.569	1157.88
500.786	1174.88
501.003	1126.88
501.22	1087.88
501.437	1037.88
501.654	995.88
501.871	939.88
502.088	890.88
502.305	853.88
502.522	813.88
502.739	785.88
502.956	742.88
503.172	746.88
503.389	737.88
503.606	741.88
503.823	715.88
504.04	711.88
504.256	701.88
504.473	715.88
504.69	700.88
504.907	706.88
505.123	679.88
505.34	673.88
505.557	645.88
505.773	654.88
505.99	663.88
506.207	663.88
506.423	669.88
506.64	659.88
506.856	623.88
507.073	627.88
507.289	637.88
507.506	645.88
507.722	622.88
507.939	649.88
508.155	618.88
508.372	625.88
508.588	606.88
508.805	597.88
509.021	601.88
509.238	619.88
509.454	621.88
509.67	604.88
509.887	591.88
510.103	603.88
510.319	596.88
510.536	662.88
510.752	1089.88
510.968	920.88
511.184	629.88
511.401	576.88
511.617	563.88
511.833	579.88
512.049	569.88
512.265	545.88
512.481	582.88
512.698	570.88
512.914	585.88
513.13	561.88
513.346	581.88
513.562	565.88
513.778	549.88
513.994	572.88
514.21	569.88
514.426	620.88
514.642	625.88
514.858	663.88
515.074	685.88
515.29	796.88
515.506	1182.88
515.721	1026.88
515.937	705.88
516.153	641.88
516.369	646.88
516.585	615.88
516.801	587.88
517.016	604.88
517.232	617.88
517.448	618.88
517.664	641.88
517.879	637.88
518.095	650.88
518.311	643.88
518.527	610.88
518.742	641.88
518.958	597.88
519.173	620.88
519.389	586.88
519.605	573.88
519.82	589.88
520.036	596.88
520.251	607.88
520.467	626.88
520.682	618.88
520.898	610.88
521.113	613.88
521.329	667.88
521.544	758.88
521.76	905.88
521.975	1477.88
522.19	1517.88
522.406	823.88
522.621	644.88
522.836	577.88
523.052	574.88
523.267	563.88
523.482	534.88
523.698	538.88
523.913	530.88
524.128	534.88
524.343	509.88
524.559	507.88
524.774	526.88
524.989	501.88
525.204	522.88
525.419	528.88
525.634	506.88
525.849	493.88
526.064	497.88
526.28	507.88
526.495	496.88
526.71	466.88
526.925	461.88
527.14	497.88
527.355	478.88
527.57	477.88
527.785	468.88
527.999	478.88
528.214	468.88
528.429	464.88
528.644	475.88
528.859	469.88
529.074	477.88
529.289	491.88
529.503	569.88
529.718	538.88
529.933	507.88
530.148	498.88
530.363	498.88
530.577	468.88
530.792	445.88
531.007	467.88
531.221	476.88
531.436	463.88
531.651	439.88
531.865	450.88
532.08	447.88
532.295	467.88
532.509	453.88
532.724	460.88
532.938	457.88
533.153	458.88
533.367	470.88
533.582	453.88
533.796	460.88
534.011	454.88
534.225	444.88
534.44	460.88
534.654	455.88
534.868	449.88
535.083	459.88
535.297	448.88
535.511	476.88
535.726	448.88
535.94	469.88
536.154	450.88
536.369	437.88
536.583	457.88
536.797	449.88
537.011	450.88
537.225	447.88
537.44	451.88
537.654	438.88
537.868	425.88
538.082	436.88
538.296	441.88
538.51	452.88
538.724	440.88
538.938	436.88
539.153	424.88
539.367	460.88
539.581	454.88
539.795	468.88
540.009	452.88
540.222	441.88
540.436	415.88
540.65	423.88
540.864	452.88
541.078	440.88
541.292	444.88
541.506	427.88
541.72	433.88
541.934	406.88
542.147	425.88
542.361	419.88
542.575	440.88
542.789	424.88
543.002	419.88
543.216	430.88
543.43	433.88
543.644	441.88
543.857	445.88
544.071	438.88
544.285	449.88
544.498	429.88
544.712	453.88
544.925	418.88
545.139	414.88
545.352	420.88
545.566	424.88
545.779	437.88
545.993	440.88
546.206	421.88
546.42	443.88
546.633	429.88
546.847	413.88
547.06	409.88
547.274	438.88
547.487	433.88
547.7	422.88
547.914	425.88
548.127	432.88
548.34	434.88
548.554	428.88
548.767	426.88
548.98	413.88
549.193	437.88
549.407	428.88
549.62	446.88
549.833	421.88
550.046	447.88
550.259	435.88
550.473	418.88
550.686	418.88
550.899	403.88
551.112	393.88
551.325	395.88
551.538	421.88
551.751	427.88
551.964	402.88
552.177	418.88
552.39	411.88
552.603	439.88
552.816	433.88
553.029	448.88
553.242	436.88
553.455	438.88
553.667	447.88
553.88	442.88
554.093	447.88
554.306	423.88
554.519	437.88
554.732	430.88
554.944	405.88
555.157	402.88
555.37	382.88
555.583	407.88
555.795	405.88
556.008	391.88
556.221	381.88
556.433	390.88
556.646	390.88
556.859	394.88
557.071	374.88
557.284	371.88
557.496	392.88
557.709	378.88
557.921	381.88
558.134	375.88
558.346	386.88
558.559	378.88
558.771	365.88
558.984	381.88
559.196	378.88
559.409	382.88
559.621	367.88
559.833	364.88
560.046	357.88
560.258	361.88
560.47	379.88
560.683	384.88
560.895	366.88
561.107	373.88
561.32	362.88
561.532	379.88
561.744	361.88
561.956	378.88
562.168	375.88
562.381	387.88
562.593	380.88
562.805	372.88
563.017	368.88
563.229	385.88
563.441	366.88
563.653	380.88
563.865	384.88
564.077	407.88
564.289	391.88
564.501	381.88
564.713	395.88
564.925	396.88
565.137	402.88
565.349	417.88
565.561	413.88
565.773	395.88
565.985	454.88
566.197	452.88
566.408	453.88
566.62	467.88
566.832	482.88
567.044	494.88
567.255	487.88
567.467	524.88
567.679	539.88
567.891	540.88
568.102	549.88
568.314	544.88
568.526	516.88
568.737	492.88
568.949	455.88
569.161	420.88
569.372	435.88
569.584	418.88
569.795	405.88
570.007	375.88
570.218	441.88
570.43	399.88
570.641	388.88
570.853	373.88
571.064	387.88
571.276	379.88
571.487	382.88
571.698	376.88
571.91	362.88
572.121	357.88
572.333	355.88
572.544	346.88
572.755	342.88
572.966	345.88
573.178	329.88
573.389	325.88
573.6	366.88
573.811	348.88
574.023	318.88
574.234	317.88
574.445	313.88
574.656	330.88
574.867	338.88
575.078	326.88
575.289	334.88
575.501	323.88
575.712	296.88
575.923	319.88
576.134	294.88
576.345	337.88
576.556	315.88
576.767	325.88
576.978	317.88
577.188	307.88
577.399	324.88
577.61	325.88
577.821	302.88
578.032	301.88
578.243	345.88
578.454	544.88
578.665	390.88
578.875	315.88
579.086	280.88
579.297	306.88
579.508	311.88
579.718	307.88
579.929	289.88
580.14	310.88
580.35	307.88
580.561	300.88
580.772	311.88
580.982	295.88
581.193	297.88
581.403	295.88
581.614	296.88
581.825	305.88
582.035	308.88
582.246	277.88
582.456	281.88
582.667	298.88
582.877	279.88
583.087	284.88
583.298	291.88
583.508	291.88
583.719	287.88
583.929	281.88
584.139	264.88
584.35	284.88
584.56	283.88
584.77	277.88
584.981	292.88
585.191	286.88
585.401	296.88
585.611	289.88
585.821	286.88
586.032	285.88
586.242	274.88
586.452	271.88
586.662	282.88
586.872	279.88
587.082	298.88
587.292	291.88
587.502	285.88
587.713	294.88
587.923	279.88
588.133	277.88
588.343	276.88
588.553	287.88
588.762	287.88
588.972	308.88
589.182	295.88
589.392	311.88
589.602	292.88
589.812	286.88
590.022	271.88
590.232	271.88
590.441	274.88
590.651	275.88
590.861	278.88
591.071	288.88
591.281	296.88
591.49	286.88
591.7	278.88
591.91	282.88
592.119	300.88
592.329	290.88
592.539	293.88
592.748	317.88
592.958	327.88
593.167	307.88
593.377	298.88
593.587	324.88
593.796	317.88
594.006	309.88
594.215	331.88
594.424	317.88
594.634	309.88
594.843	308.88
595.053	291.88
595.262	303.88
595.472	301.88
595.681	272.88
595.89	289.88
596.1	266.88
596.309	279.88
596.518	287.88
596.727	271.88
596.937	296.88
597.146	266.88
597.355	275.88
597.564	268.88
597.774	253.88
597.983	253.88
598.192	263.88
598.401	234.88
598.61	256.88
598.819	244.88
599.028	248.88
599.237	258.88
599.446	261.88
599.655	251.88
599.864	255.88
600.073	261.88
600.282	255.88
600.491	268.88
600.7	257.88
600.909	231.88
601.118	246.88
601.327	245.88
601.536	253.88
601.745	241.88
601.953	254.88
602.162	233.88
602.371	261.88
602.58	237.88
602.789	234.88
602.997	242.88
603.206	246.88
603.415	245.88
603.623	231.88
603.832	242.88
604.041	244.88
604.249	255.88
604.458	237.88
604.666	238.88
604.875	239.88
605.084	221.88
605.292	235.88
605.501	243.88
605.709	215.88
605.918	218.88
606.126	220.88
606.334	226.88
606.543	252.88
606.751	223.88
606.96	220.88
607.168	236.88
607.376	233.88
607.585	243.88
607.793	237.88
608.001	229.88
608.21	233.88
608.418	229.88
608.626	226.88
608.834	245.88
609.043	238.88
609.251	228.88
609.459	215.88
609.667	227.88
609.875	230.88
610.083	236.88
610.291	247.88
610.499	218.88
610.707	245.88
610.916	213.88
611.124	227.88
611.332	229.88
611.54	248.88
611.748	239.88
611.955	243.88
612.163	228.88
612.371	246.88
612.579	229.88
612.787	210.88
612.995	229.88
613.203	238.88
613.411	225.88
613.618	227.88
613.826	229.88
614.034	225.88
614.242	225.88
614.449	235.88
614.657	233.88
614.865	224.88
615.072	224.88
615.28	221.88
615.488	221.88
615.695	222.88
615.903	222.88
616.111	208.88
616.318	226.88
616.526	226.88
616.733	213.88
616.941	222.88
617.148	213.88
617.356	230.88
617.563	234.88
617.771	220.88
617.978	213.88
618.185	226.88
618.393	233.88
618.6	225.88
618.807	222.88
619.015	229.88
619.222	196.88
619.429	219.88
619.637	221.88
619.844	219.88
620.051	215.88
620.258	209.88
620.466	220.88
620.673	226.88
620.88	201.88
621.087	210.88
621.294	209.88
621.501	218.88
621.708	211.88
621.915	209.88
622.122	207.88
622.329	210.88
622.536	202.88
622.743	192.88
622.95	199.88
623.157	217.88
623.364	207.88
623.571	197.88
623.778	213.88
623.985	200.88
624.192	209.88
624.399	187.88
624.606	203.88
624.812	199.88
625.019	212.88
625.226	212.88
625.433	198.88
625.639	203.88
625.846	204.88
626.053	220.88
626.259	218.88
626.466	200.88
626.673	204.88
626.879	180.88
627.086	206.88
627.293	206.88
627.499	210.88
627.706	202.88
627.912	214.88
628.119	193.88
628.325	207.88
628.532	203.88
628.738	186.88
628.945	180.88
629.151	188.88
629.357	202.88
629.564	194.88
629.77	183.88
629.976	189.88
630.183	187.88
630.389	189.88
630.595	194.88
630.802	177.88
631.008	187.88
631.214	173.88
631.42	188.88
631.627	189.88
631.833	189.88
632.039	193.88
632.245	181.88
632.451	193.88
632.657	193.88
632.863	186.88
633.069	189.88
633.275	181.88
633.481	180.88
633.688	185.88
633.893	201.88
634.099	185.88
634.305	164.88
634.511	165.88
634.717	174.88
634.923	171.88
635.129	184.88
635.335	171.88
635.541	150.88
635.747	190.88
635.952	180.88
636.158	175.88
636.364	168.88
636.57	181.88
636.775	182.88
636.981	161.88
637.187	173.88
637.392	174.88
637.598	163.88
637.804	174.88
638.009	190.88
638.215	161.88
638.421	180.88
638.626	177.88
638.832	160.88
639.037	160.88
639.243	165.88
639.448	171.88
639.654	187.88
639.859	165.88
640.065	153.88
640.27	178.88
640.475	167.88
640.681	162.88
640.886	145.88
641.091	171.88
641.297	172.88
641.502	161.88
641.707	158.88
641.913	150.88
642.118	160.88
642.323	169.88
642.528	180.88
642.733	179.88
642.939	168.88
643.144	177.88
643.349	169.88
643.554	155.88
643.759	141.88
643.964	155.88
644.169	162.88
644.374	161.88
644.579	162.88
644.784	164.88
644.989	152.88
645.194	154.88
645.399	157.88
645.604	160.88
645.809	164.88
646.014	161.88
646.219	151.88
646.423	167.88
646.628	169.88
646.833	177.88
647.038	160.88
647.243	170.88
647.447	162.88
647.652	159.88
647.857	157.88
648.062	165.88
648.266	164.88
648.471	151.88
648.676	170.88
648.88	179.88
649.085	170.88
649.289	179.88
649.494	153.88
649.698	183.88
649.903	167.88
650.107	153.88
650.312	159.88
650.516	137.88
650.721	140.88
650.925	155.88
651.13	151.88
651.334	146.88
651.539	129.88
651.743	132.88
651.947	123.88
652.152	149.88
652.356	141.88
652.56	137.88
652.764	140.88
652.969	147.88
653.173	139.88
653.377	143.88
653.581	127.88
653.785	140.88
653.99	139.88
654.194	151.88
654.398	127.88
654.602	121.88
654.806	143.88
655.01	142.88
655.214	147.88
655.418	123.88
655.622	117.88
655.826	135.88
656.03	131.88
656.234	156.88
656.438	149.88
656.642	144.88
656.846	152.88
657.049	119.88
657.253	133.88
657.457	129.88
657.661	125.88
657.865	127.88
658.068	106.88
658.272	115.88
658.476	108.88
658.68	94.88
658.883	108.88
659.087	114.88
659.291	105.88
659.494	113.88
659.698	88.88
659.901	104.88
660.105	98.88
660.309	90.88
660.512	84.88
660.716	97.88
660.919	102.88
661.123	109.88
661.326	97.88
661.53	94.88
661.733	92.88
661.936	89.88
662.14	91.88
662.343	91.88
662.546	84.88
662.75	93.88
662.953	79.88
663.156	80.88
663.36	87.88
663.563	81.88
663.766	70.88
663.969	78.88
664.173	69.88
664.376	78.88
664.579	79.88
664.782	84.88
664.985	93.88
665.188	104.88
665.391	73.88
665.594	81.88
665.797	79.88
666	75.88
666.203	79.88
666.406	76.88
666.609	83.88
666.812	85.88
667.015	86.88
667.218	93.88
667.421	95.88
667.624	90.88
667.827	86.88
668.03	94.88
668.232	89.88
668.435	80.88
668.638	81.88
668.841	92.88
669.043	77.88
669.246	72.88
669.449	81.88
669.651	86.88
669.854	87.88
670.057	87.88
670.259	86.88
670.462	83.88
670.665	80.88
670.867	87.88
671.07	87.88
671.272	76.88
671.475	101.88
671.677	76.88
671.88	80.88
672.082	81.88
672.284	87.88
672.487	79.88
672.689	79.88
672.892	87.88
