Data from 1985.PennyLincolnUp.Lamp.En5.5.200Scan.071819.P1_HRD10591_17-04-24-971.txt Node
Date: Thu Jul 18 17:04:24 EDT 2019
User: cochatt
Spectrometer: HR+D1059
Trigger mode: 1
Integration Time (sec): 1.000000E-1
Scans to average: 1
Electric dark correction enabled: true
Nonlinearity correction enabled: false
Boxcar width: 0
XAxis mode: Wavelengths
Number of Pixels in Spectrum: 2048
>>>>>Begin Spectral Data<<<<<
223.165	-22.19
223.4	-22.19
223.635	-22.19
223.869	-8.19
224.104	-17.19
224.338	-15.19
224.573	-17.19
224.808	-23.19
225.042	-6.19
225.277	-11.19
225.511	0.81
225.746	8.81
225.98	4.81
226.215	10.81
226.449	21.81
226.683	18.81
226.918	21.81
227.152	32.81
227.387	43.81
227.621	27.81
227.856	26.81
228.09	38.81
228.324	55.81
228.559	60.81
228.793	67.81
229.027	85.81
229.262	104.81
229.496	119.81
229.73	116.81
229.964	144.81
230.199	128.81
230.433	116.81
230.667	94.81
230.901	106.81
231.136	120.81
231.37	99.81
231.604	104.81
231.838	113.81
232.072	112.81
232.306	105.81
232.541	112.81
232.775	118.81
233.009	115.81
233.243	119.81
233.477	115.81
233.711	123.81
233.945	132.81
234.179	109.81
234.413	112.81
234.647	117.81
234.881	117.81
235.115	120.81
235.349	124.81
235.583	113.81
235.817	117.81
236.051	130.81
236.285	126.81
236.519	135.81
236.753	126.81
236.987	134.81
237.221	176.81
237.455	211.81
237.689	178.81
237.922	141.81
238.156	145.81
238.39	109.81
238.624	114.81
238.858	109.81
239.091	116.81
239.325	127.81
239.559	123.81
239.793	126.81
240.027	127.81
240.26	153.81
240.494	163.81
240.728	142.81
240.961	157.81
241.195	146.81
241.429	126.81
241.662	135.81
241.896	135.81
242.13	141.81
242.363	139.81
242.597	148.81
242.83	142.81
243.064	129.81
243.298	149.81
243.531	152.81
243.765	140.81
243.998	128.81
244.232	145.81
244.465	155.81
244.699	146.81
244.932	150.81
245.166	143.81
245.399	137.81
245.633	152.81
245.866	141.81
246.099	145.81
246.333	150.81
246.566	152.81
246.8	168.81
247.033	161.81
247.266	164.81
247.5	165.81
247.733	167.81
247.966	161.81
248.2	179.81
248.433	172.81
248.666	178.81
248.899	186.81
249.133	191.81
249.366	209.81
249.599	192.81
249.832	181.81
250.066	173.81
250.299	183.81
250.532	191.81
250.765	226.81
250.998	225.81
251.231	240.81
251.465	212.81
251.698	215.81
251.931	185.81
252.164	209.81
252.397	192.81
252.63	202.81
252.863	210.81
253.096	196.81
253.329	223.81
253.562	228.81
253.795	226.81
254.028	227.81
254.261	216.81
254.494	211.81
254.727	238.81
254.96	288.81
255.193	258.81
255.426	261.81
255.659	237.81
255.892	229.81
256.124	265.81
256.357	268.81
256.59	253.81
256.823	220.81
257.056	211.81
257.289	211.81
257.521	228.81
257.754	226.81
257.987	200.81
258.22	209.81
258.452	213.81
258.685	193.81
258.918	215.81
259.151	219.81
259.383	227.81
259.616	211.81
259.849	215.81
260.081	249.81
260.314	244.81
260.547	270.81
260.779	260.81
261.012	240.81
261.244	223.81
261.477	242.81
261.71	231.81
261.942	235.81
262.175	230.81
262.407	257.81
262.64	220.81
262.872	235.81
263.105	237.81
263.337	211.81
263.57	232.81
263.802	213.81
264.035	219.81
264.267	217.81
264.499	227.81
264.732	220.81
264.964	218.81
265.197	242.81
265.429	241.81
265.661	227.81
265.894	233.81
266.126	230.81
266.358	228.81
266.591	229.81
266.823	237.81
267.055	230.81
267.287	227.81
267.52	232.81
267.752	254.81
267.984	238.81
268.216	257.81
268.448	252.81
268.681	259.81
268.913	276.81
269.145	261.81
269.377	272.81
269.609	296.81
269.841	283.81
270.073	297.81
270.306	296.81
270.538	324.81
270.77	337.81
271.002	306.81
271.234	310.81
271.466	312.81
271.698	334.81
271.93	337.81
272.162	349.81
272.394	330.81
272.626	320.81
272.858	300.81
273.09	289.81
273.322	271.81
273.553	288.81
273.785	289.81
274.017	297.81
274.249	276.81
274.481	301.81
274.713	300.81
274.945	282.81
275.176	292.81
275.408	283.81
275.64	276.81
275.872	278.81
276.104	282.81
276.335	284.81
276.567	298.81
276.799	322.81
277.031	332.81
277.262	333.81
277.494	324.81
277.726	324.81
277.957	302.81
278.189	300.81
278.421	294.81
278.652	302.81
278.884	293.81
279.115	306.81
279.347	283.81
279.579	296.81
279.81	293.81
280.042	296.81
280.273	274.81
280.505	296.81
280.736	308.81
280.968	281.81
281.199	289.81
281.431	302.81
281.662	288.81
281.894	304.81
282.125	292.81
282.356	320.81
282.588	341.81
282.819	331.81
283.051	318.81
283.282	303.81
283.513	312.81
283.745	315.81
283.976	325.81
284.207	344.81
284.439	317.81
284.67	327.81
284.901	322.81
285.132	317.81
285.364	306.81
285.595	306.81
285.826	309.81
286.057	302.81
286.288	308.81
286.52	298.81
286.751	324.81
286.982	316.81
287.213	315.81
287.444	313.81
287.675	312.81
287.906	319.81
288.138	336.81
288.369	340.81
288.6	329.81
288.831	330.81
289.062	329.81
289.293	339.81
289.524	326.81
289.755	348.81
289.986	309.81
290.217	332.81
290.448	323.81
290.679	332.81
290.91	322.81
291.141	346.81
291.371	322.81
291.602	332.81
291.833	326.81
292.064	345.81
292.295	336.81
292.526	341.81
292.757	320.81
292.987	326.81
293.218	321.81
293.449	337.81
293.68	340.81
293.91	320.81
294.141	315.81
294.372	316.81
294.603	315.81
294.833	338.81
295.064	327.81
295.295	333.81
295.525	328.81
295.756	338.81
295.987	341.81
296.217	354.81
296.448	380.81
296.679	344.81
296.909	323.81
297.14	337.81
297.37	346.81
297.601	333.81
297.831	331.81
298.062	351.81
298.292	330.81
298.523	356.81
298.753	357.81
298.984	345.81
299.214	360.81
299.445	345.81
299.675	331.81
299.905	363.81
300.136	360.81
300.366	349.81
300.597	360.81
300.827	375.81
301.057	357.81
301.288	404.81
301.518	393.81
301.748	386.81
301.979	363.81
302.209	350.81
302.439	355.81
302.669	385.81
302.9	380.81
303.13	359.81
303.36	374.81
303.59	382.81
303.82	391.81
304.051	384.81
304.281	384.81
304.511	385.81
304.741	370.81
304.971	374.81
305.201	385.81
305.431	379.81
305.661	372.81
305.891	366.81
306.121	376.81
306.352	365.81
306.582	386.81
306.812	374.81
307.042	358.81
307.272	362.81
307.502	370.81
307.731	394.81
307.961	372.81
308.191	366.81
308.421	382.81
308.651	413.81
308.881	381.81
309.111	406.81
309.341	378.81
309.571	402.81
309.8	394.81
310.03	423.81
310.26	413.81
310.49	395.81
310.72	410.81
310.949	432.81
311.179	430.81
311.409	414.81
311.639	426.81
311.868	440.81
312.098	424.81
312.328	416.81
312.557	438.81
312.787	445.81
313.017	438.81
313.246	445.81
313.476	433.81
313.706	406.81
313.935	439.81
314.165	424.81
314.394	438.81
314.624	422.81
314.853	439.81
315.083	456.81
315.312	409.81
315.542	410.81
315.771	416.81
316.001	428.81
316.23	427.81
316.46	434.81
316.689	427.81
316.919	444.81
317.148	429.81
317.377	420.81
317.607	411.81
317.836	433.81
318.065	435.81
318.295	424.81
318.524	414.81
318.753	414.81
318.983	413.81
319.212	425.81
319.441	444.81
319.67	443.81
319.9	428.81
320.129	443.81
320.358	428.81
320.587	445.81
320.816	398.81
321.046	431.81
321.275	426.81
321.504	475.81
321.733	457.81
321.962	452.81
322.191	485.81
322.42	474.81
322.649	488.81
322.878	497.81
323.108	505.81
323.337	529.81
323.566	534.81
323.795	540.81
324.024	599.81
324.253	715.81
324.482	967.81
324.71	1480.81
324.939	2043.81
325.168	1700.81
325.397	942.81
325.626	700.81
325.855	580.81
326.084	546.81
326.313	549.81
326.542	538.81
326.77	586.81
326.999	654.81
327.228	913.81
327.457	1312.81
327.686	1556.81
327.914	1028.81
328.143	745.81
328.372	658.81
328.6	633.81
328.829	622.81
329.058	645.81
329.287	624.81
329.515	612.81
329.744	579.81
329.972	545.81
330.201	587.81
330.43	648.81
330.658	666.81
330.887	668.81
331.115	621.81
331.344	566.81
331.572	550.81
331.801	564.81
332.03	560.81
332.258	555.81
332.486	533.81
332.715	530.81
332.943	536.81
333.172	553.81
333.4	553.81
333.629	569.81
333.857	578.81
334.085	593.81
334.314	621.81
334.542	654.81
334.771	668.81
334.999	610.81
335.227	582.81
335.455	540.81
335.684	536.81
335.912	526.81
336.14	521.81
336.369	516.81
336.597	511.81
336.825	517.81
337.053	523.81
337.281	496.81
337.51	514.81
337.738	509.81
337.966	507.81
338.194	519.81
338.422	484.81
338.65	497.81
338.878	485.81
339.106	496.81
339.334	495.81
339.562	490.81
339.79	489.81
340.018	477.81
340.246	483.81
340.474	476.81
340.702	492.81
340.93	477.81
341.158	476.81
341.386	489.81
341.614	496.81
341.842	480.81
342.07	497.81
342.298	484.81
342.526	471.81
342.754	468.81
342.981	453.81
343.209	476.81
343.437	487.81
343.665	489.81
343.893	528.81
344.12	514.81
344.348	517.81
344.576	502.81
344.804	510.81
345.031	505.81
345.259	494.81
345.487	482.81
345.714	487.81
345.942	480.81
346.17	466.81
346.397	457.81
346.625	458.81
346.853	449.81
347.08	453.81
347.308	450.81
347.535	467.81
347.763	464.81
347.99	459.81
348.218	474.81
348.445	459.81
348.673	484.81
348.9	472.81
349.128	450.81
349.355	434.81
349.583	451.81
349.81	457.81
350.037	445.81
350.265	444.81
350.492	449.81
350.72	443.81
350.947	477.81
351.174	454.81
351.402	466.81
351.629	455.81
351.856	465.81
352.083	462.81
352.311	460.81
352.538	469.81
352.765	460.81
352.992	462.81
353.22	454.81
353.447	468.81
353.674	445.81
353.901	450.81
354.128	436.81
354.355	444.81
354.583	418.81
354.81	417.81
355.037	434.81
355.264	423.81
355.491	436.81
355.718	406.81
355.945	423.81
356.172	434.81
356.399	426.81
356.626	425.81
356.853	434.81
357.08	432.81
357.307	420.81
357.534	426.81
357.761	433.81
357.988	442.81
358.215	420.81
358.441	432.81
358.668	422.81
358.895	429.81
359.122	424.81
359.349	462.81
359.576	432.81
359.802	474.81
360.029	481.81
360.256	501.81
360.483	468.81
360.709	461.81
360.936	440.81
361.163	468.81
361.39	441.81
361.616	446.81
361.843	438.81
362.07	454.81
362.296	436.81
362.523	467.81
362.749	435.81
362.976	432.81
363.203	442.81
363.429	452.81
363.656	438.81
363.882	432.81
364.109	427.81
364.335	436.81
364.562	433.81
364.788	422.81
365.015	419.81
365.241	441.81
365.468	445.81
365.694	445.81
365.92	454.81
366.147	419.81
366.373	433.81
366.599	437.81
366.826	433.81
367.052	440.81
367.278	429.81
367.505	436.81
367.731	432.81
367.957	435.81
368.184	428.81
368.41	440.81
368.636	456.81
368.862	448.81
369.089	449.81
369.315	414.81
369.541	428.81
369.767	409.81
369.993	431.81
370.219	428.81
370.445	445.81
370.672	437.81
370.898	419.81
371.124	458.81
371.35	444.81
371.576	409.81
371.802	438.81
372.028	432.81
372.254	453.81
372.48	409.81
372.706	420.81
372.932	439.81
373.158	430.81
373.384	434.81
373.61	412.81
373.835	446.81
374.061	429.81
374.287	446.81
374.513	434.81
374.739	448.81
374.965	459.81
375.191	460.81
375.416	440.81
375.642	428.81
375.868	442.81
376.094	423.81
376.319	445.81
376.545	438.81
376.771	455.81
376.997	420.81
377.222	422.81
377.448	414.81
377.674	443.81
377.899	427.81
378.125	414.81
378.35	425.81
378.576	410.81
378.802	433.81
379.027	402.81
379.253	425.81
379.478	409.81
379.704	434.81
379.929	435.81
380.155	442.81
380.38	419.81
380.606	433.81
380.831	421.81
381.057	445.81
381.282	448.81
381.507	436.81
381.733	455.81
381.958	439.81
382.184	438.81
382.409	442.81
382.634	441.81
382.86	443.81
383.085	449.81
383.31	456.81
383.535	449.81
383.761	446.81
383.986	450.81
384.211	458.81
384.436	441.81
384.662	447.81
384.887	470.81
385.112	477.81
385.337	466.81
385.562	467.81
385.787	455.81
386.013	488.81
386.238	486.81
386.463	474.81
386.688	472.81
386.913	452.81
387.138	461.81
387.363	480.81
387.588	472.81
387.813	471.81
388.038	472.81
388.263	488.81
388.488	478.81
388.713	487.81
388.938	484.81
389.163	468.81
389.387	488.81
389.612	469.81
389.837	464.81
390.062	467.81
390.287	483.81
390.512	487.81
390.736	454.81
390.961	494.81
391.186	475.81
391.411	465.81
391.636	481.81
391.86	507.81
392.085	488.81
392.31	502.81
392.534	520.81
392.759	503.81
392.984	485.81
393.208	479.81
393.433	484.81
393.658	483.81
393.882	492.81
394.107	481.81
394.331	481.81
394.556	479.81
394.78	515.81
395.005	499.81
395.229	485.81
395.454	488.81
395.678	521.81
395.903	536.81
396.127	541.81
396.352	532.81
396.576	518.81
396.801	499.81
397.025	488.81
397.249	531.81
397.474	535.81
397.698	525.81
397.922	528.81
398.147	565.81
398.371	557.81
398.595	562.81
398.82	549.81
399.044	550.81
399.268	603.81
399.492	654.81
399.717	690.81
399.941	696.81
400.165	726.81
400.389	698.81
400.613	630.81
400.837	609.81
401.062	599.81
401.286	564.81
401.51	557.81
401.734	546.81
401.958	546.81
402.182	570.81
402.406	590.81
402.63	577.81
402.854	570.81
403.078	590.81
403.302	587.81
403.526	591.81
403.75	582.81
403.974	584.81
404.198	585.81
404.422	601.81
404.645	597.81
404.869	610.81
405.093	632.81
405.317	667.81
405.541	696.81
405.765	650.81
405.988	604.81
406.212	613.81
406.436	629.81
406.66	635.81
406.883	614.81
407.107	666.81
407.331	691.81
407.555	789.81
407.778	742.81
408.002	666.81
408.226	646.81
408.449	637.81
408.673	638.81
408.896	653.81
409.12	697.81
409.344	632.81
409.567	629.81
409.791	587.81
410.014	586.81
410.238	577.81
410.461	599.81
410.685	568.81
410.908	577.81
411.132	596.81
411.355	632.81
411.578	592.81
411.802	589.81
412.025	566.81
412.249	580.81
412.472	630.81
412.695	677.81
412.919	635.81
413.142	619.81
413.365	584.81
413.589	566.81
413.812	550.81
414.035	560.81
414.258	552.81
414.482	567.81
414.705	544.81
414.928	530.81
415.151	551.81
415.374	539.81
415.597	536.81
415.821	530.81
416.044	554.81
416.267	535.81
416.49	522.81
416.713	534.81
416.936	526.81
417.159	544.81
417.382	549.81
417.605	550.81
417.828	547.81
418.051	577.81
418.274	583.81
418.497	541.81
418.72	571.81
418.943	552.81
419.166	557.81
419.389	590.81
419.611	604.81
419.834	585.81
420.057	591.81
420.28	585.81
420.503	586.81
420.726	555.81
420.948	564.81
421.171	594.81
421.394	636.81
421.617	587.81
421.839	573.81
422.062	552.81
422.285	560.81
422.507	611.81
422.73	685.81
422.953	669.81
423.175	612.81
423.398	574.81
423.621	569.81
423.843	601.81
424.066	597.81
424.288	583.81
424.511	601.81
424.733	663.81
424.956	724.81
425.178	706.81
425.401	686.81
425.623	705.81
425.846	614.81
426.068	577.81
426.291	561.81
426.513	577.81
426.735	565.81
426.958	628.81
427.18	688.81
427.402	813.81
427.625	896.81
427.847	776.81
428.069	695.81
428.292	616.81
428.514	569.81
428.736	544.81
428.958	536.81
429.181	549.81
429.403	536.81
429.625	528.81
429.847	583.81
430.069	612.81
430.292	618.81
430.514	547.81
430.736	521.81
430.958	501.81
431.18	504.81
431.402	524.81
431.624	504.81
431.846	498.81
432.068	502.81
432.29	523.81
432.512	512.81
432.734	526.81
432.956	527.81
433.178	522.81
433.4	534.81
433.622	514.81
433.844	515.81
434.066	496.81
434.287	509.81
434.509	518.81
434.731	524.81
434.953	544.81
435.175	539.81
435.397	560.81
435.618	557.81
435.84	617.81
436.062	696.81
436.284	753.81
436.505	665.81
436.727	579.81
436.949	540.81
437.17	526.81
437.392	528.81
437.614	541.81
437.835	579.81
438.057	666.81
438.278	758.81
438.5	726.81
438.721	796.81
438.943	776.81
439.165	640.81
439.386	550.81
439.608	576.81
439.829	560.81
440.05	589.81
440.272	635.81
440.493	621.81
440.715	547.81
440.936	568.81
441.158	546.81
441.379	571.81
441.6	556.81
441.822	578.81
442.043	610.81
442.264	682.81
442.486	689.81
442.707	627.81
442.928	604.81
443.149	581.81
443.371	600.81
443.592	678.81
443.813	740.81
444.034	773.81
444.255	655.81
444.476	634.81
444.698	619.81
444.919	625.81
445.14	730.81
445.361	664.81
445.582	624.81
445.803	670.81
446.024	746.81
446.245	772.81
446.466	708.81
446.687	624.81
446.908	571.81
447.129	541.81
447.35	556.81
447.571	505.81
447.792	489.81
448.013	546.81
448.234	541.81
448.455	588.81
448.675	695.81
448.896	781.81
449.117	679.81
449.338	638.81
449.559	728.81
449.779	830.81
450	670.81
450.221	555.81
450.442	518.81
450.662	514.81
450.883	509.81
451.104	537.81
451.324	498.81
451.545	524.81
451.766	490.81
451.986	477.81
452.207	459.81
452.428	467.81
452.648	449.81
452.869	466.81
453.089	497.81
453.31	491.81
453.53	473.81
453.751	462.81
453.971	476.81
454.192	487.81
454.412	482.81
454.633	470.81
454.853	461.81
455.073	457.81
455.294	475.81
455.514	546.81
455.734	537.81
455.955	458.81
456.175	478.81
456.395	423.81
456.616	425.81
456.836	441.81
457.056	441.81
457.276	426.81
457.497	444.81
457.717	440.81
457.937	434.81
458.157	469.81
458.377	461.81
458.598	472.81
458.818	538.81
459.038	603.81
459.258	618.81
459.478	557.81
459.698	533.81
459.918	512.81
460.138	522.81
460.358	544.81
460.578	527.81
460.798	555.81
461.018	547.81
461.238	537.81
461.458	523.81
461.678	529.81
461.898	542.81
462.118	533.81
462.338	563.81
462.558	568.81
462.777	585.81
462.997	604.81
463.217	626.81
463.437	634.81
463.657	580.81
463.876	587.81
464.096	565.81
464.316	570.81
464.536	604.81
464.755	571.81
464.975	592.81
465.195	573.81
465.414	699.81
465.634	610.81
465.854	564.81
466.073	527.81
466.293	496.81
466.512	509.81
466.732	509.81
466.951	489.81
467.171	485.81
467.391	496.81
467.61	508.81
467.829	491.81
468.049	526.81
468.268	506.81
468.488	517.81
468.707	479.81
468.927	487.81
469.146	480.81
469.365	483.81
469.585	502.81
469.804	496.81
470.023	521.81
470.243	497.81
470.462	496.81
470.681	536.81
470.901	534.81
471.12	518.81
471.339	513.81
471.558	502.81
471.777	483.81
471.997	503.81
472.216	520.81
472.435	537.81
472.654	535.81
472.873	510.81
473.092	509.81
473.311	487.81
473.53	493.81
473.749	498.81
473.968	531.81
474.187	628.81
474.406	640.81
474.625	550.81
474.844	522.81
475.063	478.81
475.282	476.81
475.501	509.81
475.72	515.81
475.939	523.81
476.158	532.81
476.377	530.81
476.596	499.81
476.814	523.81
477.033	542.81
477.252	516.81
477.471	524.81
477.69	538.81
477.908	551.81
478.127	547.81
478.346	534.81
478.564	577.81
478.783	562.81
479.002	580.81
479.22	604.81
479.439	580.81
479.658	572.81
479.876	616.81
480.095	604.81
480.313	617.81
480.532	630.81
480.751	624.81
480.969	638.81
481.188	693.81
481.406	779.81
481.624	669.81
481.843	603.81
482.061	589.81
482.28	590.81
482.498	570.81
482.717	571.81
482.935	589.81
483.153	594.81
483.372	561.81
483.59	576.81
483.808	581.81
484.027	560.81
484.245	603.81
484.463	586.81
484.681	582.81
484.9	566.81
485.118	632.81
485.336	573.81
485.554	604.81
485.772	584.81
485.99	594.81
486.209	602.81
486.427	590.81
486.645	597.81
486.863	634.81
487.081	602.81
487.299	602.81
487.517	616.81
487.735	590.81
487.953	595.81
488.171	624.81
488.389	610.81
488.607	605.81
488.825	612.81
489.043	651.81
489.261	621.81
489.479	609.81
489.696	632.81
489.914	632.81
490.132	645.81
490.35	641.81
490.568	658.81
490.786	668.81
491.003	672.81
491.221	679.81
491.439	706.81
491.657	712.81
491.874	697.81
492.092	706.81
492.31	742.81
492.527	704.81
492.745	712.81
492.963	739.81
493.18	739.81
493.398	737.81
493.615	731.81
493.833	742.81
494.05	738.81
494.268	731.81
494.485	714.81
494.703	746.81
494.92	726.81
495.138	732.81
495.355	723.81
495.573	730.81
495.79	728.81
496.008	721.81
496.225	747.81
496.442	739.81
496.66	721.81
496.877	745.81
497.094	729.81
497.312	758.81
497.529	754.81
497.746	749.81
497.963	784.81
498.181	857.81
498.398	858.81
498.615	863.81
498.832	893.81
499.049	885.81
499.267	939.81
499.484	1010.81
499.701	1035.81
499.918	1074.81
500.135	1139.81
500.352	1194.81
500.569	1244.81
500.786	1242.81
501.003	1216.81
501.22	1123.81
501.437	1067.81
501.654	1033.81
501.871	995.81
502.088	940.81
502.305	893.81
502.522	867.81
502.739	828.81
502.956	804.81
503.172	820.81
503.389	787.81
503.606	788.81
503.823	784.81
504.04	775.81
504.256	758.81
504.473	755.81
504.69	770.81
504.907	756.81
505.123	714.81
505.34	693.81
505.557	682.81
505.773	716.81
505.99	678.81
506.207	676.81
506.423	720.81
506.64	673.81
506.856	691.81
507.073	648.81
507.289	674.81
507.506	647.81
507.722	681.81
507.939	674.81
508.155	656.81
508.372	632.81
508.588	650.81
508.805	632.81
509.021	628.81
509.238	642.81
509.454	629.81
509.67	654.81
509.887	630.81
510.103	619.81
510.319	645.81
510.536	737.81
510.752	1150.81
510.968	970.81
511.184	686.81
511.401	642.81
511.617	619.81
511.833	626.81
512.049	606.81
512.265	605.81
512.481	617.81
512.698	602.81
512.914	607.81
513.13	605.81
513.346	611.81
513.562	600.81
513.778	609.81
513.994	604.81
514.21	600.81
514.426	627.81
514.642	701.81
514.858	679.81
515.074	712.81
515.29	831.81
515.506	1231.81
515.721	1032.81
515.937	757.81
516.153	663.81
516.369	675.81
516.585	655.81
516.801	648.81
517.016	670.81
517.232	661.81
517.448	679.81
517.664	665.81
517.879	664.81
518.095	690.81
518.311	633.81
518.527	655.81
518.742	663.81
518.958	636.81
519.173	632.81
519.389	631.81
519.605	617.81
519.82	618.81
520.036	637.81
520.251	650.81
520.467	678.81
520.682	669.81
520.898	648.81
521.113	662.81
521.329	691.81
521.544	772.81
521.76	959.81
521.975	1545.81
522.19	1558.81
522.406	887.81
522.621	657.81
522.836	635.81
523.052	578.81
523.267	572.81
523.482	560.81
523.698	588.81
523.913	566.81
524.128	568.81
524.343	538.81
524.559	531.81
524.774	541.81
524.989	557.81
525.204	549.81
525.419	531.81
525.634	515.81
525.849	526.81
526.064	532.81
526.28	538.81
526.495	520.81
526.71	516.81
526.925	509.81
527.14	482.81
527.355	523.81
527.57	503.81
527.785	483.81
527.999	478.81
528.214	490.81
528.429	508.81
528.644	496.81
528.859	510.81
529.074	512.81
529.289	525.81
529.503	576.81
529.718	566.81
529.933	545.81
530.148	531.81
530.363	498.81
530.577	508.81
530.792	487.81
531.007	493.81
531.221	468.81
531.436	498.81
531.651	473.81
531.865	498.81
532.08	477.81
532.295	506.81
532.509	492.81
532.724	474.81
532.938	512.81
533.153	484.81
533.367	476.81
533.582	488.81
533.796	458.81
534.011	476.81
534.225	479.81
534.44	468.81
534.654	455.81
534.868	470.81
535.083	474.81
535.297	488.81
535.511	484.81
535.726	476.81
535.94	481.81
536.154	459.81
536.369	479.81
536.583	476.81
536.797	466.81
537.011	449.81
537.225	466.81
537.44	450.81
537.654	460.81
537.868	449.81
538.082	452.81
538.296	458.81
538.51	479.81
538.724	482.81
538.938	449.81
539.153	450.81
539.367	469.81
539.581	469.81
539.795	466.81
540.009	443.81
540.222	490.81
540.436	458.81
540.65	455.81
540.864	446.81
541.078	452.81
541.292	462.81
541.506	457.81
541.72	438.81
541.934	454.81
542.147	443.81
542.361	454.81
542.575	451.81
542.789	439.81
543.002	432.81
543.216	455.81
543.43	447.81
543.644	457.81
543.857	458.81
544.071	452.81
544.285	466.81
544.498	456.81
544.712	467.81
544.925	456.81
545.139	453.81
545.352	448.81
545.566	475.81
545.779	438.81
545.993	420.81
546.206	459.81
546.42	462.81
546.633	430.81
546.847	448.81
547.06	455.81
547.274	439.81
547.487	433.81
547.7	449.81
547.914	435.81
548.127	447.81
548.34	428.81
548.554	421.81
548.767	448.81
548.98	436.81
549.193	457.81
549.407	440.81
549.62	449.81
549.833	450.81
550.046	437.81
550.259	432.81
550.473	436.81
550.686	421.81
550.899	431.81
551.112	436.81
551.325	440.81
551.538	429.81
551.751	435.81
551.964	450.81
552.177	440.81
552.39	452.81
552.603	451.81
552.816	462.81
553.029	446.81
553.242	453.81
553.455	451.81
553.667	462.81
553.88	478.81
554.093	466.81
554.306	474.81
554.519	461.81
554.732	436.81
554.944	424.81
555.157	410.81
555.37	421.81
555.583	410.81
555.795	422.81
556.008	399.81
556.221	402.81
556.433	401.81
556.646	416.81
556.859	419.81
557.071	395.81
557.284	427.81
557.496	398.81
557.709	389.81
557.921	388.81
558.134	419.81
558.346	397.81
558.559	388.81
558.771	382.81
558.984	390.81
559.196	379.81
559.409	382.81
559.621	381.81
559.833	388.81
560.046	378.81
560.258	378.81
560.47	395.81
560.683	386.81
560.895	380.81
561.107	369.81
561.32	359.81
561.532	375.81
561.744	398.81
561.956	377.81
562.168	383.81
562.381	387.81
562.593	386.81
562.805	384.81
563.017	398.81
563.229	398.81
563.441	385.81
563.653	394.81
563.865	416.81
564.077	403.81
564.289	410.81
564.501	410.81
564.713	413.81
564.925	426.81
565.137	424.81
565.349	414.81
565.561	423.81
565.773	452.81
565.985	440.81
566.197	442.81
566.408	490.81
566.62	484.81
566.832	515.81
567.044	493.81
567.255	522.81
567.467	527.81
567.679	533.81
567.891	574.81
568.102	575.81
568.314	552.81
568.526	525.81
568.737	499.81
568.949	462.81
569.161	455.81
569.372	446.81
569.584	426.81
569.795	397.81
570.007	402.81
570.218	454.81
570.43	438.81
570.641	394.81
570.853	377.81
571.064	393.81
571.276	398.81
571.487	390.81
571.698	397.81
571.91	374.81
572.121	361.81
572.333	370.81
572.544	356.81
572.755	350.81
572.966	352.81
573.178	354.81
573.389	334.81
573.6	340.81
573.811	322.81
574.023	343.81
574.234	354.81
574.445	337.81
574.656	339.81
574.867	341.81
575.078	344.81
575.289	334.81
575.501	320.81
575.712	345.81
575.923	313.81
576.134	341.81
576.345	347.81
576.556	330.81
576.767	336.81
576.978	334.81
577.188	331.81
577.399	323.81
577.61	310.81
577.821	318.81
578.032	333.81
578.243	368.81
578.454	573.81
578.665	411.81
578.875	315.81
579.086	301.81
579.297	322.81
579.508	308.81
579.718	312.81
579.929	303.81
580.14	320.81
580.35	296.81
580.561	317.81
580.772	308.81
580.982	315.81
581.193	301.81
581.403	324.81
581.614	318.81
581.825	314.81
582.035	297.81
582.246	298.81
582.456	295.81
582.667	299.81
582.877	299.81
583.087	301.81
583.298	285.81
583.508	308.81
583.719	293.81
583.929	304.81
584.139	280.81
584.35	281.81
584.56	289.81
584.77	288.81
584.981	295.81
585.191	281.81
585.401	288.81
585.611	284.81
585.821	294.81
586.032	282.81
586.242	292.81
586.452	299.81
586.662	291.81
586.872	311.81
587.082	297.81
587.292	297.81
587.502	300.81
587.713	294.81
587.923	302.81
588.133	293.81
588.343	291.81
588.553	288.81
588.762	290.81
588.972	286.81
589.182	313.81
589.392	299.81
589.602	299.81
589.812	276.81
590.022	304.81
590.232	296.81
590.441	295.81
590.651	310.81
590.861	304.81
591.071	289.81
591.281	302.81
591.49	306.81
591.7	324.81
591.91	317.81
592.119	293.81
592.329	319.81
592.539	311.81
592.748	315.81
592.958	302.81
593.167	345.81
593.377	337.81
593.587	338.81
593.796	345.81
594.006	326.81
594.215	336.81
594.424	324.81
594.634	325.81
594.843	329.81
595.053	298.81
595.262	316.81
595.472	315.81
595.681	298.81
595.89	299.81
596.1	289.81
596.309	291.81
596.518	283.81
596.727	286.81
596.937	270.81
597.146	282.81
597.355	266.81
597.564	269.81
597.774	280.81
597.983	260.81
598.192	280.81
598.401	265.81
598.61	273.81
598.819	270.81
599.028	271.81
599.237	240.81
599.446	239.81
599.655	258.81
599.864	240.81
600.073	260.81
600.282	266.81
600.491	252.81
600.7	244.81
600.909	263.81
601.118	231.81
601.327	260.81
601.536	257.81
601.745	253.81
601.953	263.81
602.162	259.81
602.371	247.81
602.58	233.81
602.789	253.81
602.997	256.81
603.206	246.81
603.415	252.81
603.623	254.81
603.832	248.81
604.041	232.81
604.249	229.81
604.458	253.81
604.666	249.81
604.875	228.81
605.084	248.81
605.292	242.81
605.501	233.81
605.709	254.81
605.918	240.81
606.126	236.81
606.334	236.81
606.543	243.81
606.751	224.81
606.96	220.81
607.168	221.81
607.376	226.81
607.585	229.81
607.793	234.81
608.001	225.81
608.21	221.81
608.418	247.81
608.626	229.81
608.834	231.81
609.043	236.81
609.251	232.81
609.459	220.81
609.667	246.81
609.875	242.81
610.083	240.81
610.291	227.81
610.499	237.81
610.707	249.81
610.916	226.81
611.124	229.81
611.332	232.81
611.54	232.81
611.748	257.81
611.955	216.81
612.163	247.81
612.371	232.81
612.579	235.81
612.787	256.81
612.995	221.81
613.203	216.81
613.411	219.81
613.618	246.81
613.826	226.81
614.034	228.81
614.242	227.81
614.449	226.81
614.657	245.81
614.865	226.81
615.072	248.81
615.28	224.81
615.488	222.81
615.695	229.81
615.903	244.81
616.111	240.81
616.318	219.81
616.526	213.81
616.733	230.81
616.941	239.81
617.148	242.81
617.356	225.81
617.563	240.81
617.771	225.81
617.978	239.81
618.185	215.81
618.393	220.81
618.6	243.81
618.807	224.81
619.015	219.81
619.222	235.81
619.429	235.81
619.637	221.81
619.844	214.81
620.051	242.81
620.258	232.81
620.466	215.81
620.673	206.81
620.88	211.81
621.087	214.81
621.294	218.81
621.501	222.81
621.708	224.81
621.915	232.81
622.122	213.81
622.329	218.81
622.536	227.81
622.743	226.81
622.95	232.81
623.157	227.81
623.364	214.81
623.571	223.81
623.778	223.81
623.985	220.81
624.192	207.81
624.399	215.81
624.606	199.81
624.812	194.81
625.019	214.81
625.226	206.81
625.433	216.81
625.639	203.81
625.846	215.81
626.053	214.81
626.259	210.81
626.466	196.81
626.673	216.81
626.879	195.81
627.086	203.81
627.293	216.81
627.499	197.81
627.706	201.81
627.912	203.81
628.119	197.81
628.325	191.81
628.532	198.81
628.738	201.81
628.945	204.81
629.151	204.81
629.357	180.81
629.564	182.81
629.77	196.81
629.976	181.81
630.183	186.81
630.389	193.81
630.595	187.81
630.802	196.81
631.008	187.81
631.214	170.81
631.42	205.81
631.627	203.81
631.833	194.81
632.039	204.81
632.245	193.81
632.451	180.81
632.657	195.81
632.863	195.81
633.069	181.81
633.275	186.81
633.481	191.81
633.688	200.81
633.893	188.81
634.099	185.81
634.305	186.81
634.511	184.81
634.717	193.81
634.923	180.81
635.129	176.81
635.335	188.81
635.541	170.81
635.747	173.81
635.952	168.81
636.158	187.81
636.364	169.81
636.57	180.81
636.775	186.81
636.981	180.81
637.187	188.81
637.392	179.81
637.598	187.81
637.804	184.81
638.009	178.81
638.215	172.81
638.421	198.81
638.626	167.81
638.832	163.81
639.037	173.81
639.243	165.81
639.448	176.81
639.654	173.81
639.859	170.81
640.065	178.81
640.27	188.81
640.475	176.81
640.681	170.81
640.886	190.81
641.091	152.81
641.297	170.81
641.502	169.81
641.707	161.81
641.913	168.81
642.118	165.81
642.323	146.81
642.528	160.81
642.733	166.81
642.939	165.81
643.144	169.81
643.349	167.81
643.554	171.81
643.759	172.81
643.964	167.81
644.169	161.81
644.374	176.81
644.579	176.81
644.784	158.81
644.989	178.81
645.194	160.81
645.399	165.81
645.604	170.81
645.809	160.81
646.014	168.81
646.219	173.81
646.423	162.81
646.628	152.81
646.833	177.81
647.038	176.81
647.243	160.81
647.447	161.81
647.652	174.81
647.857	181.81
648.062	168.81
648.266	175.81
648.471	190.81
648.676	176.81
648.88	176.81
649.085	164.81
649.289	155.81
649.494	186.81
649.698	187.81
649.903	169.81
650.107	182.81
650.312	161.81
650.516	166.81
650.721	164.81
650.925	169.81
651.13	158.81
651.334	156.81
651.539	153.81
651.743	154.81
651.947	135.81
652.152	137.81
652.356	159.81
652.56	143.81
652.764	132.81
652.969	125.81
653.173	140.81
653.377	135.81
653.581	153.81
653.785	137.81
653.99	147.81
654.194	150.81
654.398	138.81
654.602	129.81
654.806	122.81
655.01	146.81
655.214	130.81
655.418	146.81
655.622	140.81
655.826	130.81
656.03	143.81
656.234	157.81
656.438	148.81
656.642	152.81
656.846	134.81
657.049	140.81
657.253	138.81
657.457	131.81
657.661	110.81
657.865	128.81
658.068	119.81
658.272	118.81
658.476	104.81
658.68	96.81
658.883	93.81
659.087	110.81
659.291	106.81
659.494	104.81
659.698	115.81
659.901	103.81
660.105	92.81
660.309	86.81
660.512	88.81
660.716	104.81
660.919	105.81
661.123	85.81
661.326	100.81
661.53	92.81
661.733	81.81
661.936	103.81
662.14	92.81
662.343	88.81
662.546	97.81
662.75	108.81
662.953	87.81
663.156	89.81
663.36	84.81
663.563	93.81
663.766	88.81
663.969	86.81
664.173	88.81
664.376	102.81
664.579	84.81
664.782	68.81
664.985	94.81
665.188	89.81
665.391	74.81
665.594	88.81
665.797	85.81
666	86.81
666.203	78.81
666.406	83.81
666.609	79.81
666.812	86.81
667.015	74.81
667.218	96.81
667.421	100.81
667.624	91.81
667.827	81.81
668.03	80.81
668.232	96.81
668.435	76.81
668.638	76.81
668.841	96.81
669.043	83.81
669.246	91.81
669.449	82.81
669.651	91.81
669.854	81.81
670.057	87.81
670.259	75.81
670.462	85.81
670.665	76.81
670.867	84.81
671.07	84.81
671.272	88.81
671.475	90.81
671.677	78.81
671.88	83.81
672.082	87.81
672.284	85.81
672.487	97.81
672.689	82.81
672.892	87.81
