Data from 1985.PennyLincolnUp.Lamp.En5.5.200Scan.071819.P1_HRD10591_17-02-10-970.txt Node
Date: Thu Jul 18 17:02:10 EDT 2019
User: cochatt
Spectrometer: HR+D1059
Trigger mode: 1
Integration Time (sec): 1.000000E-1
Scans to average: 1
Electric dark correction enabled: true
Nonlinearity correction enabled: false
Boxcar width: 0
XAxis mode: Wavelengths
Number of Pixels in Spectrum: 2048
>>>>>Begin Spectral Data<<<<<
223.165	-28.5
223.4	-28.5
223.635	-28.5
223.869	-17.5
224.104	-23.5
224.338	-19.5
224.573	-11.5
224.808	-12.5
225.042	3.5
225.277	7.5
225.511	4.5
225.746	-0.5
225.98	5.5
226.215	-6.5
226.449	26.5
226.683	18.5
226.918	31.5
227.152	22.5
227.387	40.5
227.621	33.5
227.856	49.5
228.09	43.5
228.324	47.5
228.559	57.5
228.793	79.5
229.027	105.5
229.262	121.5
229.496	112.5
229.73	125.5
229.964	157.5
230.199	122.5
230.433	127.5
230.667	106.5
230.901	113.5
231.136	117.5
231.37	97.5
231.604	107.5
231.838	115.5
232.072	103.5
232.306	122.5
232.541	104.5
232.775	123.5
233.009	101.5
233.243	135.5
233.477	125.5
233.711	121.5
233.945	115.5
234.179	131.5
234.413	137.5
234.647	118.5
234.881	121.5
235.115	105.5
235.349	127.5
235.583	108.5
235.817	118.5
236.051	131.5
236.285	137.5
236.519	123.5
236.753	132.5
236.987	139.5
237.221	175.5
237.455	215.5
237.689	184.5
237.922	139.5
238.156	137.5
238.39	141.5
238.624	138.5
238.858	143.5
239.091	133.5
239.325	112.5
239.559	131.5
239.793	131.5
240.027	119.5
240.26	153.5
240.494	165.5
240.728	155.5
240.961	155.5
241.195	134.5
241.429	146.5
241.662	146.5
241.896	131.5
242.13	151.5
242.363	126.5
242.597	139.5
242.83	155.5
243.064	157.5
243.298	152.5
243.531	135.5
243.765	137.5
243.998	144.5
244.232	131.5
244.465	145.5
244.699	145.5
244.932	141.5
245.166	158.5
245.399	154.5
245.633	142.5
245.866	157.5
246.099	170.5
246.333	154.5
246.566	157.5
246.8	167.5
247.033	159.5
247.266	166.5
247.5	171.5
247.733	171.5
247.966	174.5
248.2	166.5
248.433	163.5
248.666	166.5
248.899	181.5
249.133	200.5
249.366	200.5
249.599	200.5
249.832	190.5
250.066	182.5
250.299	185.5
250.532	173.5
250.765	213.5
250.998	219.5
251.231	231.5
251.465	200.5
251.698	194.5
251.931	189.5
252.164	216.5
252.397	195.5
252.63	214.5
252.863	197.5
253.096	223.5
253.329	229.5
253.562	224.5
253.795	206.5
254.028	202.5
254.261	217.5
254.494	237.5
254.727	237.5
254.96	263.5
255.193	261.5
255.426	256.5
255.659	226.5
255.892	232.5
256.124	221.5
256.357	212.5
256.59	213.5
256.823	210.5
257.056	210.5
257.289	208.5
257.521	206.5
257.754	213.5
257.987	222.5
258.22	217.5
258.452	224.5
258.685	200.5
258.918	206.5
259.151	224.5
259.383	213.5
259.616	221.5
259.849	214.5
260.081	235.5
260.314	257.5
260.547	247.5
260.779	233.5
261.012	262.5
261.244	230.5
261.477	234.5
261.71	233.5
261.942	218.5
262.175	237.5
262.407	233.5
262.64	223.5
262.872	217.5
263.105	226.5
263.337	217.5
263.57	234.5
263.802	231.5
264.035	215.5
264.267	222.5
264.499	232.5
264.732	221.5
264.964	217.5
265.197	235.5
265.429	214.5
265.661	218.5
265.894	223.5
266.126	220.5
266.358	236.5
266.591	215.5
266.823	239.5
267.055	240.5
267.287	241.5
267.52	235.5
267.752	228.5
267.984	235.5
268.216	229.5
268.448	249.5
268.681	263.5
268.913	254.5
269.145	280.5
269.377	278.5
269.609	275.5
269.841	274.5
270.073	288.5
270.306	311.5
270.538	302.5
270.77	317.5
271.002	300.5
271.234	290.5
271.466	311.5
271.698	299.5
271.93	317.5
272.162	331.5
272.394	316.5
272.626	329.5
272.858	313.5
273.09	289.5
273.322	285.5
273.553	264.5
273.785	294.5
274.017	289.5
274.249	271.5
274.481	271.5
274.713	279.5
274.945	278.5
275.176	279.5
275.408	267.5
275.64	264.5
275.872	286.5
276.104	273.5
276.335	264.5
276.567	286.5
276.799	298.5
277.031	320.5
277.262	333.5
277.494	318.5
277.726	307.5
277.957	293.5
278.189	298.5
278.421	294.5
278.652	289.5
278.884	294.5
279.115	300.5
279.347	302.5
279.579	309.5
279.81	285.5
280.042	290.5
280.273	293.5
280.505	300.5
280.736	280.5
280.968	289.5
281.199	275.5
281.431	293.5
281.662	287.5
281.894	294.5
282.125	293.5
282.356	319.5
282.588	327.5
282.819	338.5
283.051	290.5
283.282	303.5
283.513	286.5
283.745	302.5
283.976	313.5
284.207	297.5
284.439	288.5
284.67	299.5
284.901	313.5
285.132	314.5
285.364	302.5
285.595	309.5
285.826	315.5
286.057	306.5
286.288	312.5
286.52	319.5
286.751	305.5
286.982	306.5
287.213	321.5
287.444	332.5
287.675	316.5
287.906	333.5
288.138	349.5
288.369	331.5
288.6	321.5
288.831	311.5
289.062	325.5
289.293	330.5
289.524	319.5
289.755	331.5
289.986	335.5
290.217	321.5
290.448	332.5
290.679	313.5
290.91	325.5
291.141	331.5
291.371	316.5
291.602	318.5
291.833	327.5
292.064	303.5
292.295	327.5
292.526	318.5
292.757	313.5
292.987	315.5
293.218	332.5
293.449	331.5
293.68	314.5
293.91	319.5
294.141	319.5
294.372	323.5
294.603	318.5
294.833	331.5
295.064	319.5
295.295	335.5
295.525	311.5
295.756	336.5
295.987	329.5
296.217	354.5
296.448	376.5
296.679	336.5
296.909	350.5
297.14	356.5
297.37	343.5
297.601	357.5
297.831	337.5
298.062	340.5
298.292	342.5
298.523	333.5
298.753	343.5
298.984	339.5
299.214	351.5
299.445	351.5
299.675	347.5
299.905	346.5
300.136	345.5
300.366	351.5
300.597	365.5
300.827	341.5
301.057	348.5
301.288	391.5
301.518	362.5
301.748	359.5
301.979	380.5
302.209	358.5
302.439	373.5
302.669	381.5
302.9	373.5
303.13	391.5
303.36	381.5
303.59	376.5
303.82	385.5
304.051	376.5
304.281	363.5
304.511	379.5
304.741	366.5
304.971	364.5
305.201	368.5
305.431	370.5
305.661	353.5
305.891	368.5
306.121	362.5
306.352	381.5
306.582	380.5
306.812	371.5
307.042	359.5
307.272	369.5
307.502	365.5
307.731	387.5
307.961	365.5
308.191	375.5
308.421	389.5
308.651	378.5
308.881	392.5
309.111	373.5
309.341	373.5
309.571	383.5
309.8	381.5
310.03	391.5
310.26	410.5
310.49	391.5
310.72	403.5
310.949	428.5
311.179	450.5
311.409	426.5
311.639	402.5
311.868	426.5
312.098	413.5
312.328	414.5
312.557	431.5
312.787	450.5
313.017	448.5
313.246	430.5
313.476	425.5
313.706	421.5
313.935	401.5
314.165	435.5
314.394	448.5
314.624	446.5
314.853	425.5
315.083	419.5
315.312	427.5
315.542	393.5
315.771	404.5
316.001	391.5
316.23	412.5
316.46	404.5
316.689	406.5
316.919	421.5
317.148	428.5
317.377	429.5
317.607	438.5
317.836	418.5
318.065	439.5
318.295	411.5
318.524	411.5
318.753	414.5
318.983	423.5
319.212	427.5
319.441	431.5
319.67	443.5
319.9	405.5
320.129	409.5
320.358	421.5
320.587	421.5
320.816	423.5
321.046	447.5
321.275	437.5
321.504	423.5
321.733	452.5
321.962	450.5
322.191	472.5
322.42	456.5
322.649	472.5
322.878	463.5
323.108	485.5
323.337	522.5
323.566	511.5
323.795	558.5
324.024	576.5
324.253	701.5
324.482	917.5
324.71	1352.5
324.939	1913.5
325.168	1637.5
325.397	894.5
325.626	639.5
325.855	580.5
326.084	523.5
326.313	512.5
326.542	507.5
326.77	565.5
326.999	643.5
327.228	825.5
327.457	1229.5
327.686	1459.5
327.914	995.5
328.143	673.5
328.372	620.5
328.6	570.5
328.829	551.5
329.058	566.5
329.287	565.5
329.515	550.5
329.744	528.5
329.972	511.5
330.201	526.5
330.43	525.5
330.658	567.5
330.887	604.5
331.115	605.5
331.344	551.5
331.572	517.5
331.801	529.5
332.03	548.5
332.258	512.5
332.486	468.5
332.715	510.5
332.943	510.5
333.172	491.5
333.4	519.5
333.629	501.5
333.857	484.5
334.085	522.5
334.314	521.5
334.542	526.5
334.771	544.5
334.999	542.5
335.227	513.5
335.455	490.5
335.684	492.5
335.912	493.5
336.14	497.5
336.369	491.5
336.597	510.5
336.825	479.5
337.053	498.5
337.281	510.5
337.51	502.5
337.738	496.5
337.966	470.5
338.194	466.5
338.422	479.5
338.65	484.5
338.878	475.5
339.106	484.5
339.334	472.5
339.562	455.5
339.79	485.5
340.018	490.5
340.246	466.5
340.474	471.5
340.702	459.5
340.93	446.5
341.158	471.5
341.386	470.5
341.614	501.5
341.842	451.5
342.07	453.5
342.298	458.5
342.526	482.5
342.754	466.5
342.981	458.5
343.209	470.5
343.437	479.5
343.665	487.5
343.893	513.5
344.12	502.5
344.348	503.5
344.576	505.5
344.804	487.5
345.031	494.5
345.259	502.5
345.487	484.5
345.714	473.5
345.942	471.5
346.17	451.5
346.397	458.5
346.625	461.5
346.853	447.5
347.08	451.5
347.308	461.5
347.535	446.5
347.763	464.5
347.99	439.5
348.218	457.5
348.445	482.5
348.673	478.5
348.9	443.5
349.128	462.5
349.355	425.5
349.583	431.5
349.81	422.5
350.037	422.5
350.265	438.5
350.492	424.5
350.72	437.5
350.947	445.5
351.174	446.5
351.402	461.5
351.629	461.5
351.856	447.5
352.083	467.5
352.311	433.5
352.538	476.5
352.765	472.5
352.992	454.5
353.22	446.5
353.447	440.5
353.674	443.5
353.901	430.5
354.128	438.5
354.355	432.5
354.583	447.5
354.81	413.5
355.037	433.5
355.264	423.5
355.491	420.5
355.718	423.5
355.945	431.5
356.172	416.5
356.399	406.5
356.626	416.5
356.853	418.5
357.08	429.5
357.307	393.5
357.534	417.5
357.761	417.5
357.988	421.5
358.215	402.5
358.441	441.5
358.668	415.5
358.895	443.5
359.122	415.5
359.349	443.5
359.576	445.5
359.802	464.5
360.029	488.5
360.256	501.5
360.483	466.5
360.709	437.5
360.936	439.5
361.163	451.5
361.39	443.5
361.616	431.5
361.843	455.5
362.07	458.5
362.296	453.5
362.523	428.5
362.749	432.5
362.976	445.5
363.203	433.5
363.429	413.5
363.656	442.5
363.882	441.5
364.109	430.5
364.335	441.5
364.562	417.5
364.788	425.5
365.015	435.5
365.241	429.5
365.468	436.5
365.694	436.5
365.92	431.5
366.147	433.5
366.373	419.5
366.599	441.5
366.826	425.5
367.052	414.5
367.278	425.5
367.505	425.5
367.731	426.5
367.957	428.5
368.184	423.5
368.41	432.5
368.636	441.5
368.862	433.5
369.089	414.5
369.315	426.5
369.541	417.5
369.767	424.5
369.993	409.5
370.219	446.5
370.445	422.5
370.672	416.5
370.898	396.5
371.124	422.5
371.35	441.5
371.576	437.5
371.802	428.5
372.028	446.5
372.254	424.5
372.48	406.5
372.706	441.5
372.932	428.5
373.158	423.5
373.384	435.5
373.61	430.5
373.835	440.5
374.061	417.5
374.287	429.5
374.513	439.5
374.739	467.5
374.965	454.5
375.191	442.5
375.416	463.5
375.642	434.5
375.868	449.5
376.094	440.5
376.319	434.5
376.545	421.5
376.771	424.5
376.997	406.5
377.222	433.5
377.448	430.5
377.674	442.5
377.899	430.5
378.125	417.5
378.35	414.5
378.576	413.5
378.802	417.5
379.027	401.5
379.253	412.5
379.478	410.5
379.704	418.5
379.929	419.5
380.155	414.5
380.38	425.5
380.606	416.5
380.831	425.5
381.057	403.5
381.282	412.5
381.507	423.5
381.733	425.5
381.958	416.5
382.184	416.5
382.409	424.5
382.634	438.5
382.86	433.5
383.085	443.5
383.31	427.5
383.535	423.5
383.761	443.5
383.986	474.5
384.211	463.5
384.436	462.5
384.662	454.5
384.887	471.5
385.112	458.5
385.337	475.5
385.562	462.5
385.787	477.5
386.013	514.5
386.238	490.5
386.463	494.5
386.688	473.5
386.913	471.5
387.138	479.5
387.363	472.5
387.588	468.5
387.813	465.5
388.038	464.5
388.263	474.5
388.488	486.5
388.713	459.5
388.938	454.5
389.163	471.5
389.387	489.5
389.612	481.5
389.837	473.5
390.062	457.5
390.287	479.5
390.512	474.5
390.736	454.5
390.961	460.5
391.186	450.5
391.411	477.5
391.636	480.5
391.86	490.5
392.085	510.5
392.31	501.5
392.534	489.5
392.759	479.5
392.984	503.5
393.208	504.5
393.433	466.5
393.658	471.5
393.882	471.5
394.107	476.5
394.331	489.5
394.556	484.5
394.78	489.5
395.005	477.5
395.229	484.5
395.454	504.5
395.678	497.5
395.903	508.5
396.127	514.5
396.352	522.5
396.576	488.5
396.801	485.5
397.025	478.5
397.249	514.5
397.474	490.5
397.698	507.5
397.922	512.5
398.147	513.5
398.371	548.5
398.595	539.5
398.82	529.5
399.044	585.5
399.268	602.5
399.492	621.5
399.717	685.5
399.941	708.5
400.165	689.5
400.389	688.5
400.613	621.5
400.837	580.5
401.062	558.5
401.286	553.5
401.51	560.5
401.734	553.5
401.958	541.5
402.182	557.5
402.406	579.5
402.63	571.5
402.854	585.5
403.078	567.5
403.302	590.5
403.526	580.5
403.75	571.5
403.974	579.5
404.198	570.5
404.422	602.5
404.645	581.5
404.869	575.5
405.093	602.5
405.317	625.5
405.541	635.5
405.765	589.5
405.988	600.5
406.212	593.5
406.436	649.5
406.66	611.5
406.883	610.5
407.107	658.5
407.331	674.5
407.555	734.5
407.778	743.5
408.002	685.5
408.226	636.5
408.449	635.5
408.673	614.5
408.896	647.5
409.12	698.5
409.344	657.5
409.567	589.5
409.791	615.5
410.014	572.5
410.238	583.5
410.461	567.5
410.685	557.5
410.908	586.5
411.132	598.5
411.355	624.5
411.578	602.5
411.802	587.5
412.025	540.5
412.249	541.5
412.472	578.5
412.695	542.5
412.919	561.5
413.142	551.5
413.365	547.5
413.589	536.5
413.812	525.5
414.035	505.5
414.258	515.5
414.482	514.5
414.705	539.5
414.928	530.5
415.151	546.5
415.374	525.5
415.597	532.5
415.821	537.5
416.044	530.5
416.267	555.5
416.49	508.5
416.713	505.5
416.936	527.5
417.159	528.5
417.382	494.5
417.605	521.5
417.828	543.5
418.051	550.5
418.274	546.5
418.497	533.5
418.72	531.5
418.943	514.5
419.166	574.5
419.389	567.5
419.611	574.5
419.834	550.5
420.057	571.5
420.28	579.5
420.503	530.5
420.726	526.5
420.948	576.5
421.171	585.5
421.394	609.5
421.617	579.5
421.839	532.5
422.062	539.5
422.285	556.5
422.507	629.5
422.73	669.5
422.953	659.5
423.175	574.5
423.398	572.5
423.621	566.5
423.843	582.5
424.066	587.5
424.288	575.5
424.511	591.5
424.733	650.5
424.956	743.5
425.178	666.5
425.401	689.5
425.623	705.5
425.846	611.5
426.068	591.5
426.291	555.5
426.513	569.5
426.735	583.5
426.958	590.5
427.18	684.5
427.402	793.5
427.625	859.5
427.847	727.5
428.069	653.5
428.292	584.5
428.514	557.5
428.736	543.5
428.958	537.5
429.181	538.5
429.403	532.5
429.625	533.5
429.847	560.5
430.069	601.5
430.292	584.5
430.514	542.5
430.736	515.5
430.958	520.5
431.18	513.5
431.402	500.5
431.624	472.5
431.846	492.5
432.068	497.5
432.29	508.5
432.512	481.5
432.734	516.5
432.956	526.5
433.178	536.5
433.4	515.5
433.622	501.5
433.844	503.5
434.066	507.5
434.287	519.5
434.509	526.5
434.731	542.5
434.953	537.5
435.175	544.5
435.397	573.5
435.618	565.5
435.84	603.5
436.062	681.5
436.284	744.5
436.505	608.5
436.727	554.5
436.949	529.5
437.17	522.5
437.392	505.5
437.614	554.5
437.835	559.5
438.057	635.5
438.278	722.5
438.5	718.5
438.721	780.5
438.943	775.5
439.165	626.5
439.386	565.5
439.608	561.5
439.829	555.5
440.05	559.5
440.272	626.5
440.493	593.5
440.715	545.5
440.936	538.5
441.158	523.5
441.379	517.5
441.6	554.5
441.822	569.5
442.043	592.5
442.264	688.5
442.486	709.5
442.707	606.5
442.928	581.5
443.149	579.5
443.371	610.5
443.592	634.5
443.813	726.5
444.034	768.5
444.255	669.5
444.476	612.5
444.698	599.5
444.919	583.5
445.14	706.5
445.361	641.5
445.582	621.5
445.803	678.5
446.024	749.5
446.245	739.5
446.466	677.5
446.687	595.5
446.908	575.5
447.129	554.5
447.35	531.5
447.571	534.5
447.792	517.5
448.013	496.5
448.234	530.5
448.455	587.5
448.675	690.5
448.896	813.5
449.117	663.5
449.338	609.5
449.559	711.5
449.779	808.5
450	651.5
450.221	554.5
450.442	538.5
450.662	517.5
450.883	502.5
451.104	525.5
451.324	523.5
451.545	501.5
451.766	483.5
451.986	455.5
452.207	467.5
452.428	472.5
452.648	462.5
452.869	457.5
453.089	489.5
453.31	474.5
453.53	456.5
453.751	460.5
453.971	466.5
454.192	488.5
454.412	468.5
454.633	478.5
454.853	459.5
455.073	465.5
455.294	501.5
455.514	550.5
455.734	534.5
455.955	461.5
456.175	449.5
456.395	434.5
456.616	447.5
456.836	456.5
457.056	457.5
457.276	426.5
457.497	433.5
457.717	456.5
457.937	450.5
458.157	447.5
458.377	444.5
458.598	465.5
458.818	534.5
459.038	603.5
459.258	631.5
459.478	566.5
459.698	521.5
459.918	529.5
460.138	527.5
460.358	498.5
460.578	519.5
460.798	537.5
461.018	555.5
461.238	544.5
461.458	553.5
461.678	567.5
461.898	533.5
462.118	541.5
462.338	558.5
462.558	567.5
462.777	573.5
462.997	620.5
463.217	631.5
463.437	599.5
463.657	599.5
463.876	591.5
464.096	597.5
464.316	602.5
464.536	614.5
464.755	593.5
464.975	570.5
465.195	613.5
465.414	658.5
465.634	575.5
465.854	543.5
466.073	507.5
466.293	513.5
466.512	497.5
466.732	488.5
466.951	495.5
467.171	480.5
467.391	490.5
467.61	481.5
467.829	511.5
468.049	505.5
468.268	497.5
468.488	473.5
468.707	456.5
468.927	450.5
469.146	481.5
469.365	475.5
469.585	484.5
469.804	487.5
470.023	496.5
470.243	496.5
470.462	520.5
470.681	506.5
470.901	528.5
471.12	489.5
471.339	503.5
471.558	485.5
471.777	487.5
471.997	489.5
472.216	467.5
472.435	482.5
472.654	495.5
472.873	477.5
473.092	498.5
473.311	489.5
473.53	489.5
473.749	484.5
473.968	525.5
474.187	599.5
474.406	629.5
474.625	524.5
474.844	490.5
475.063	455.5
475.282	459.5
475.501	457.5
475.72	499.5
475.939	509.5
476.158	480.5
476.377	498.5
476.596	493.5
476.814	503.5
477.033	510.5
477.252	519.5
477.471	530.5
477.69	522.5
477.908	530.5
478.127	542.5
478.346	536.5
478.564	549.5
478.783	551.5
479.002	539.5
479.22	583.5
479.439	570.5
479.658	594.5
479.876	566.5
480.095	612.5
480.313	642.5
480.532	635.5
480.751	630.5
480.969	594.5
481.188	584.5
481.406	603.5
481.624	576.5
481.843	570.5
482.061	577.5
482.28	558.5
482.498	543.5
482.717	567.5
482.935	562.5
483.153	556.5
483.372	541.5
483.59	583.5
483.808	539.5
484.027	553.5
484.245	575.5
484.463	571.5
484.681	582.5
484.9	575.5
485.118	565.5
485.336	583.5
485.554	601.5
485.772	578.5
485.99	585.5
486.209	569.5
486.427	594.5
486.645	603.5
486.863	599.5
487.081	607.5
487.299	571.5
487.517	583.5
487.735	589.5
487.953	602.5
488.171	593.5
488.389	595.5
488.607	621.5
488.825	601.5
489.043	599.5
489.261	613.5
489.479	585.5
489.696	615.5
489.914	617.5
490.132	623.5
490.35	625.5
490.568	618.5
490.786	634.5
491.003	652.5
491.221	647.5
491.439	638.5
491.657	654.5
491.874	664.5
492.092	669.5
492.31	673.5
492.527	667.5
492.745	683.5
492.963	679.5
493.18	652.5
493.398	688.5
493.615	704.5
493.833	681.5
494.05	690.5
494.268	699.5
494.485	684.5
494.703	689.5
494.92	709.5
495.138	674.5
495.355	703.5
495.573	683.5
495.79	706.5
496.008	714.5
496.225	702.5
496.442	711.5
496.66	715.5
496.877	689.5
497.094	706.5
497.312	733.5
497.529	714.5
497.746	753.5
497.963	783.5
498.181	807.5
498.398	806.5
498.615	834.5
498.832	843.5
499.049	909.5
499.267	908.5
499.484	932.5
499.701	980.5
499.918	1038.5
500.135	1107.5
500.352	1174.5
500.569	1251.5
500.786	1202.5
501.003	1212.5
501.22	1118.5
501.437	1065.5
501.654	1001.5
501.871	1003.5
502.088	937.5
502.305	885.5
502.522	842.5
502.739	835.5
502.956	790.5
503.172	764.5
503.389	779.5
503.606	753.5
503.823	742.5
504.04	747.5
504.256	742.5
504.473	732.5
504.69	732.5
504.907	718.5
505.123	728.5
505.34	695.5
505.557	673.5
505.773	680.5
505.99	683.5
506.207	691.5
506.423	669.5
506.64	667.5
506.856	665.5
507.073	649.5
507.289	661.5
507.506	650.5
507.722	649.5
507.939	673.5
508.155	656.5
508.372	616.5
508.588	631.5
508.805	620.5
509.021	623.5
509.238	624.5
509.454	663.5
509.67	632.5
509.887	624.5
510.103	614.5
510.319	631.5
510.536	702.5
510.752	1157.5
510.968	938.5
511.184	606.5
511.401	607.5
511.617	602.5
511.833	589.5
512.049	579.5
512.265	590.5
512.481	571.5
512.698	585.5
512.914	580.5
513.13	582.5
513.346	590.5
513.562	565.5
513.778	580.5
513.994	584.5
514.21	625.5
514.426	617.5
514.642	651.5
514.858	687.5
515.074	707.5
515.29	849.5
515.506	1219.5
515.721	1034.5
515.937	706.5
516.153	665.5
516.369	639.5
516.585	651.5
516.801	619.5
517.016	663.5
517.232	651.5
517.448	657.5
517.664	667.5
517.879	655.5
518.095	672.5
518.311	645.5
518.527	639.5
518.742	609.5
518.958	608.5
519.173	634.5
519.389	615.5
519.605	627.5
519.82	621.5
520.036	638.5
520.251	618.5
520.467	635.5
520.682	643.5
520.898	643.5
521.113	661.5
521.329	703.5
521.544	747.5
521.76	941.5
521.975	1569.5
522.19	1548.5
522.406	860.5
522.621	669.5
522.836	617.5
523.052	586.5
523.267	569.5
523.482	546.5
523.698	563.5
523.913	545.5
524.128	545.5
524.343	530.5
524.559	529.5
524.774	532.5
524.989	525.5
525.204	540.5
525.419	540.5
525.634	530.5
525.849	510.5
526.064	488.5
526.28	521.5
526.495	502.5
526.71	485.5
526.925	505.5
527.14	457.5
527.355	482.5
527.57	472.5
527.785	492.5
527.999	483.5
528.214	485.5
528.429	498.5
528.644	497.5
528.859	497.5
529.074	494.5
529.289	525.5
529.503	561.5
529.718	565.5
529.933	527.5
530.148	511.5
530.363	503.5
530.577	503.5
530.792	483.5
531.007	480.5
531.221	513.5
531.436	450.5
531.651	489.5
531.865	484.5
532.08	468.5
532.295	473.5
532.509	472.5
532.724	482.5
532.938	490.5
533.153	465.5
533.367	466.5
533.582	487.5
533.796	469.5
534.011	474.5
534.225	471.5
534.44	482.5
534.654	464.5
534.868	456.5
535.083	471.5
535.297	486.5
535.511	493.5
535.726	486.5
535.94	482.5
536.154	451.5
536.369	457.5
536.583	460.5
536.797	466.5
537.011	464.5
537.225	461.5
537.44	454.5
537.654	466.5
537.868	472.5
538.082	442.5
538.296	462.5
538.51	448.5
538.724	469.5
538.938	443.5
539.153	472.5
539.367	461.5
539.581	459.5
539.795	441.5
540.009	434.5
540.222	451.5
540.436	461.5
540.65	462.5
540.864	472.5
541.078	441.5
541.292	466.5
541.506	463.5
541.72	458.5
541.934	426.5
542.147	443.5
542.361	428.5
542.575	430.5
542.789	459.5
543.002	445.5
543.216	457.5
543.43	442.5
543.644	463.5
543.857	448.5
544.071	445.5
544.285	470.5
544.498	431.5
544.712	434.5
544.925	443.5
545.139	447.5
545.352	455.5
545.566	453.5
545.779	437.5
545.993	439.5
546.206	458.5
546.42	434.5
546.633	430.5
546.847	451.5
547.06	450.5
547.274	447.5
547.487	453.5
547.7	446.5
547.914	442.5
548.127	431.5
548.34	422.5
548.554	448.5
548.767	448.5
548.98	419.5
549.193	430.5
549.407	459.5
549.62	445.5
549.833	450.5
550.046	423.5
550.259	440.5
550.473	434.5
550.686	453.5
550.899	435.5
551.112	425.5
551.325	439.5
551.538	434.5
551.751	406.5
551.964	421.5
552.177	451.5
552.39	441.5
552.603	432.5
552.816	434.5
553.029	455.5
553.242	439.5
553.455	469.5
553.667	477.5
553.88	453.5
554.093	466.5
554.306	453.5
554.519	431.5
554.732	441.5
554.944	419.5
555.157	416.5
555.37	428.5
555.583	415.5
555.795	406.5
556.008	415.5
556.221	398.5
556.433	405.5
556.646	406.5
556.859	397.5
557.071	398.5
557.284	408.5
557.496	381.5
557.709	391.5
557.921	370.5
558.134	387.5
558.346	382.5
558.559	397.5
558.771	373.5
558.984	375.5
559.196	399.5
559.409	389.5
559.621	383.5
559.833	383.5
560.046	380.5
560.258	380.5
560.47	381.5
560.683	384.5
560.895	369.5
561.107	360.5
561.32	403.5
561.532	379.5
561.744	379.5
561.956	373.5
562.168	394.5
562.381	375.5
562.593	398.5
562.805	388.5
563.017	381.5
563.229	386.5
563.441	387.5
563.653	386.5
563.865	390.5
564.077	406.5
564.289	391.5
564.501	396.5
564.713	389.5
564.925	414.5
565.137	421.5
565.349	429.5
565.561	419.5
565.773	452.5
565.985	431.5
566.197	458.5
566.408	469.5
566.62	485.5
566.832	510.5
567.044	549.5
567.255	512.5
567.467	529.5
567.679	542.5
567.891	584.5
568.102	562.5
568.314	545.5
568.526	519.5
568.737	494.5
568.949	469.5
569.161	459.5
569.372	441.5
569.584	424.5
569.795	430.5
570.007	410.5
570.218	430.5
570.43	435.5
570.641	391.5
570.853	393.5
571.064	389.5
571.276	398.5
571.487	349.5
571.698	391.5
571.91	373.5
572.121	366.5
572.333	337.5
572.544	353.5
572.755	361.5
572.966	343.5
573.178	354.5
573.389	341.5
573.6	354.5
573.811	344.5
574.023	332.5
574.234	339.5
574.445	319.5
574.656	335.5
574.867	335.5
575.078	330.5
575.289	324.5
575.501	315.5
575.712	329.5
575.923	339.5
576.134	326.5
576.345	346.5
576.556	311.5
576.767	316.5
576.978	329.5
577.188	315.5
577.399	322.5
577.61	316.5
577.821	322.5
578.032	329.5
578.243	351.5
578.454	514.5
578.665	409.5
578.875	320.5
579.086	311.5
579.297	319.5
579.508	304.5
579.718	323.5
579.929	323.5
580.14	276.5
580.35	320.5
580.561	302.5
580.772	310.5
580.982	300.5
581.193	291.5
581.403	307.5
581.614	313.5
581.825	310.5
582.035	293.5
582.246	307.5
582.456	311.5
582.667	314.5
582.877	293.5
583.087	311.5
583.298	304.5
583.508	287.5
583.719	304.5
583.929	313.5
584.139	290.5
584.35	310.5
584.56	301.5
584.77	296.5
584.981	285.5
585.191	298.5
585.401	305.5
585.611	285.5
585.821	293.5
586.032	282.5
586.242	286.5
586.452	288.5
586.662	295.5
586.872	283.5
587.082	292.5
587.292	293.5
587.502	294.5
587.713	309.5
587.923	296.5
588.133	295.5
588.343	301.5
588.553	287.5
588.762	285.5
588.972	301.5
589.182	313.5
589.392	300.5
589.602	279.5
589.812	302.5
590.022	298.5
590.232	290.5
590.441	294.5
590.651	290.5
590.861	271.5
591.071	303.5
591.281	282.5
591.49	290.5
591.7	329.5
591.91	290.5
592.119	311.5
592.329	321.5
592.539	321.5
592.748	330.5
592.958	325.5
593.167	329.5
593.377	323.5
593.587	337.5
593.796	341.5
594.006	330.5
594.215	326.5
594.424	322.5
594.634	317.5
594.843	325.5
595.053	302.5
595.262	299.5
595.472	301.5
595.681	299.5
595.89	305.5
596.1	291.5
596.309	284.5
596.518	283.5
596.727	277.5
596.937	282.5
597.146	272.5
597.355	291.5
597.564	274.5
597.774	270.5
597.983	278.5
598.192	282.5
598.401	264.5
598.61	250.5
598.819	286.5
599.028	270.5
599.237	266.5
599.446	265.5
599.655	262.5
599.864	263.5
600.073	273.5
600.282	245.5
600.491	245.5
600.7	257.5
600.909	252.5
601.118	259.5
601.327	249.5
601.536	248.5
601.745	242.5
601.953	248.5
602.162	253.5
602.371	255.5
602.58	256.5
602.789	247.5
602.997	238.5
603.206	235.5
603.415	250.5
603.623	245.5
603.832	237.5
604.041	237.5
604.249	261.5
604.458	244.5
604.666	238.5
604.875	247.5
605.084	237.5
605.292	227.5
605.501	232.5
605.709	269.5
605.918	237.5
606.126	234.5
606.334	246.5
606.543	245.5
606.751	221.5
606.96	245.5
607.168	252.5
607.376	245.5
607.585	253.5
607.793	230.5
608.001	227.5
608.21	233.5
608.418	239.5
608.626	236.5
608.834	224.5
609.043	227.5
609.251	234.5
609.459	230.5
609.667	242.5
609.875	251.5
610.083	229.5
610.291	240.5
610.499	232.5
610.707	234.5
610.916	223.5
611.124	251.5
611.332	248.5
611.54	241.5
611.748	247.5
611.955	245.5
612.163	225.5
612.371	242.5
612.579	238.5
612.787	227.5
612.995	239.5
613.203	242.5
613.411	231.5
613.618	232.5
613.826	237.5
614.034	241.5
614.242	242.5
614.449	229.5
614.657	229.5
614.865	236.5
615.072	234.5
615.28	229.5
615.488	238.5
615.695	231.5
615.903	235.5
616.111	236.5
616.318	226.5
616.526	256.5
616.733	240.5
616.941	239.5
617.148	223.5
617.356	214.5
617.563	211.5
617.771	235.5
617.978	242.5
618.185	217.5
618.393	219.5
618.6	242.5
618.807	239.5
619.015	241.5
619.222	227.5
619.429	228.5
619.637	229.5
619.844	215.5
620.051	228.5
620.258	208.5
620.466	213.5
620.673	197.5
620.88	215.5
621.087	216.5
621.294	222.5
621.501	213.5
621.708	210.5
621.915	224.5
622.122	214.5
622.329	218.5
622.536	214.5
622.743	209.5
622.95	219.5
623.157	207.5
623.364	208.5
623.571	214.5
623.778	234.5
623.985	211.5
624.192	210.5
624.399	207.5
624.606	219.5
624.812	209.5
625.019	205.5
625.226	213.5
625.433	204.5
625.639	214.5
625.846	197.5
626.053	198.5
626.259	206.5
626.466	206.5
626.673	196.5
626.879	199.5
627.086	206.5
627.293	218.5
627.499	210.5
627.706	210.5
627.912	199.5
628.119	211.5
628.325	211.5
628.532	193.5
628.738	217.5
628.945	187.5
629.151	205.5
629.357	178.5
629.564	197.5
629.77	190.5
629.976	211.5
630.183	201.5
630.389	192.5
630.595	190.5
630.802	191.5
631.008	193.5
631.214	184.5
631.42	194.5
631.627	207.5
631.833	183.5
632.039	183.5
632.245	201.5
632.451	175.5
632.657	194.5
632.863	200.5
633.069	187.5
633.275	203.5
633.481	196.5
633.688	173.5
633.893	201.5
634.099	199.5
634.305	189.5
634.511	177.5
634.717	185.5
634.923	181.5
635.129	182.5
635.335	176.5
635.541	172.5
635.747	178.5
635.952	177.5
636.158	193.5
636.364	175.5
636.57	190.5
636.775	193.5
636.981	183.5
637.187	183.5
637.392	163.5
637.598	176.5
637.804	172.5
638.009	168.5
638.215	184.5
638.421	175.5
638.626	174.5
638.832	190.5
639.037	176.5
639.243	170.5
639.448	175.5
639.654	169.5
639.859	175.5
640.065	170.5
640.27	170.5
640.475	164.5
640.681	162.5
640.886	177.5
641.091	172.5
641.297	182.5
641.502	173.5
641.707	169.5
641.913	171.5
642.118	175.5
642.323	172.5
642.528	169.5
642.733	166.5
642.939	160.5
643.144	158.5
643.349	185.5
643.554	167.5
643.759	167.5
643.964	162.5
644.169	155.5
644.374	158.5
644.579	170.5
644.784	158.5
644.989	171.5
645.194	173.5
645.399	156.5
645.604	160.5
645.809	167.5
646.014	166.5
646.219	174.5
646.423	175.5
646.628	156.5
646.833	157.5
647.038	177.5
647.243	155.5
647.447	169.5
647.652	169.5
647.857	163.5
648.062	172.5
648.266	181.5
648.471	168.5
648.676	195.5
648.88	174.5
649.085	159.5
649.289	177.5
649.494	163.5
649.698	172.5
649.903	174.5
650.107	173.5
650.312	168.5
650.516	166.5
650.721	152.5
650.925	159.5
651.13	161.5
651.334	140.5
651.539	156.5
651.743	153.5
651.947	153.5
652.152	143.5
652.356	143.5
652.56	141.5
652.764	151.5
652.969	144.5
653.173	152.5
653.377	137.5
653.581	148.5
653.785	153.5
653.99	154.5
654.194	152.5
654.398	139.5
654.602	143.5
654.806	142.5
655.01	148.5
655.214	149.5
655.418	146.5
655.622	147.5
655.826	147.5
656.03	151.5
656.234	137.5
656.438	145.5
656.642	153.5
656.846	147.5
657.049	138.5
657.253	125.5
657.457	112.5
657.661	114.5
657.865	125.5
658.068	111.5
658.272	102.5
658.476	123.5
658.68	122.5
658.883	117.5
659.087	122.5
659.291	112.5
659.494	114.5
659.698	103.5
659.901	116.5
660.105	105.5
660.309	101.5
660.512	80.5
660.716	107.5
660.919	101.5
661.123	104.5
661.326	86.5
661.53	105.5
661.733	119.5
661.936	96.5
662.14	82.5
662.343	94.5
662.546	98.5
662.75	89.5
662.953	85.5
663.156	100.5
663.36	107.5
663.563	105.5
663.766	90.5
663.969	96.5
664.173	91.5
664.376	98.5
664.579	101.5
664.782	82.5
664.985	93.5
665.188	101.5
665.391	96.5
665.594	87.5
665.797	70.5
666	81.5
666.203	83.5
666.406	88.5
666.609	83.5
666.812	94.5
667.015	73.5
667.218	86.5
667.421	98.5
667.624	87.5
667.827	88.5
668.03	81.5
668.232	85.5
668.435	93.5
668.638	90.5
668.841	84.5
669.043	87.5
669.246	88.5
669.449	93.5
669.651	79.5
669.854	89.5
670.057	79.5
670.259	106.5
670.462	87.5
670.665	95.5
670.867	107.5
671.07	81.5
671.272	83.5
671.475	97.5
671.677	72.5
671.88	89.5
672.082	82.5
672.284	87.5
672.487	77.5
672.689	95.5
672.892	80.5
