Data from 1985.PennyLincolnUp.Lamp.En5.5.200Scan.071819.P1_HRD10591_17-02-21-970.txt Node
Date: Thu Jul 18 17:02:21 EDT 2019
User: cochatt
Spectrometer: HR+D1059
Trigger mode: 1
Integration Time (sec): 1.000000E-1
Scans to average: 1
Electric dark correction enabled: true
Nonlinearity correction enabled: false
Boxcar width: 0
XAxis mode: Wavelengths
Number of Pixels in Spectrum: 2048
>>>>>Begin Spectral Data<<<<<
223.165	-12.31
223.4	-12.31
223.635	-12.31
223.869	-25.31
224.104	-4.31
224.338	-9.31
224.573	-5.31
224.808	7.69
225.042	-16.31
225.277	4.69
225.511	1.69
225.746	0.69
225.98	-0.31
226.215	1.69
226.449	17.69
226.683	2.69
226.918	17.69
227.152	18.69
227.387	21.69
227.621	36.69
227.856	51.69
228.09	32.69
228.324	45.69
228.559	58.69
228.793	62.69
229.027	94.69
229.262	100.69
229.496	112.69
229.73	100.69
229.964	138.69
230.199	129.69
230.433	118.69
230.667	111.69
230.901	123.69
231.136	111.69
231.37	116.69
231.604	91.69
231.838	114.69
232.072	115.69
232.306	102.69
232.541	111.69
232.775	92.69
233.009	105.69
233.243	108.69
233.477	108.69
233.711	110.69
233.945	114.69
234.179	108.69
234.413	115.69
234.647	107.69
234.881	116.69
235.115	124.69
235.349	110.69
235.583	125.69
235.817	111.69
236.051	114.69
236.285	118.69
236.519	117.69
236.753	127.69
236.987	143.69
237.221	167.69
237.455	210.69
237.689	176.69
237.922	129.69
238.156	121.69
238.39	118.69
238.624	112.69
238.858	131.69
239.091	131.69
239.325	119.69
239.559	119.69
239.793	122.69
240.027	133.69
240.26	140.69
240.494	145.69
240.728	139.69
240.961	148.69
241.195	136.69
241.429	125.69
241.662	114.69
241.896	133.69
242.13	129.69
242.363	133.69
242.597	126.69
242.83	127.69
243.064	126.69
243.298	137.69
243.531	133.69
243.765	133.69
243.998	149.69
244.232	133.69
244.465	144.69
244.699	145.69
244.932	140.69
245.166	143.69
245.399	154.69
245.633	148.69
245.866	151.69
246.099	150.69
246.333	146.69
246.566	146.69
246.8	152.69
247.033	158.69
247.266	146.69
247.5	152.69
247.733	147.69
247.966	167.69
248.2	153.69
248.433	158.69
248.666	164.69
248.899	186.69
249.133	181.69
249.366	196.69
249.599	175.69
249.832	178.69
250.066	184.69
250.299	187.69
250.532	182.69
250.765	195.69
250.998	209.69
251.231	208.69
251.465	200.69
251.698	197.69
251.931	200.69
252.164	197.69
252.397	210.69
252.63	211.69
252.863	183.69
253.096	210.69
253.329	224.69
253.562	210.69
253.795	227.69
254.028	197.69
254.261	200.69
254.494	224.69
254.727	272.69
254.96	273.69
255.193	260.69
255.426	254.69
255.659	234.69
255.892	214.69
256.124	212.69
256.357	204.69
256.59	215.69
256.823	203.69
257.056	211.69
257.289	210.69
257.521	210.69
257.754	207.69
257.987	226.69
258.22	214.69
258.452	217.69
258.685	225.69
258.918	222.69
259.151	212.69
259.383	216.69
259.616	221.69
259.849	228.69
260.081	240.69
260.314	263.69
260.547	264.69
260.779	231.69
261.012	230.69
261.244	243.69
261.477	223.69
261.71	217.69
261.942	229.69
262.175	222.69
262.407	238.69
262.64	203.69
262.872	207.69
263.105	238.69
263.337	216.69
263.57	222.69
263.802	213.69
264.035	214.69
264.267	195.69
264.499	228.69
264.732	214.69
264.964	216.69
265.197	229.69
265.429	220.69
265.661	225.69
265.894	213.69
266.126	221.69
266.358	233.69
266.591	223.69
266.823	232.69
267.055	230.69
267.287	249.69
267.52	235.69
267.752	226.69
267.984	240.69
268.216	223.69
268.448	249.69
268.681	236.69
268.913	254.69
269.145	282.69
269.377	293.69
269.609	276.69
269.841	280.69
270.073	277.69
270.306	296.69
270.538	344.69
270.77	334.69
271.002	297.69
271.234	293.69
271.466	311.69
271.698	333.69
271.93	310.69
272.162	329.69
272.394	329.69
272.626	324.69
272.858	295.69
273.09	298.69
273.322	293.69
273.553	282.69
273.785	272.69
274.017	267.69
274.249	259.69
274.481	275.69
274.713	276.69
274.945	261.69
275.176	289.69
275.408	299.69
275.64	268.69
275.872	280.69
276.104	282.69
276.335	281.69
276.567	280.69
276.799	299.69
277.031	312.69
277.262	302.69
277.494	337.69
277.726	320.69
277.957	296.69
278.189	294.69
278.421	302.69
278.652	280.69
278.884	292.69
279.115	281.69
279.347	286.69
279.579	282.69
279.81	293.69
280.042	303.69
280.273	283.69
280.505	286.69
280.736	275.69
280.968	265.69
281.199	287.69
281.431	295.69
281.662	305.69
281.894	284.69
282.125	301.69
282.356	320.69
282.588	324.69
282.819	310.69
283.051	307.69
283.282	302.69
283.513	297.69
283.745	301.69
283.976	295.69
284.207	297.69
284.439	291.69
284.67	298.69
284.901	319.69
285.132	296.69
285.364	296.69
285.595	282.69
285.826	312.69
286.057	313.69
286.288	314.69
286.52	295.69
286.751	295.69
286.982	318.69
287.213	303.69
287.444	328.69
287.675	310.69
287.906	311.69
288.138	315.69
288.369	341.69
288.6	338.69
288.831	339.69
289.062	338.69
289.293	321.69
289.524	320.69
289.755	274.69
289.986	308.69
290.217	313.69
290.448	315.69
290.679	317.69
290.91	308.69
291.141	321.69
291.371	317.69
291.602	312.69
291.833	317.69
292.064	333.69
292.295	322.69
292.526	304.69
292.757	325.69
292.987	323.69
293.218	324.69
293.449	325.69
293.68	332.69
293.91	305.69
294.141	298.69
294.372	321.69
294.603	319.69
294.833	331.69
295.064	319.69
295.295	306.69
295.525	322.69
295.756	341.69
295.987	335.69
296.217	367.69
296.448	348.69
296.679	331.69
296.909	333.69
297.14	321.69
297.37	331.69
297.601	332.69
297.831	352.69
298.062	328.69
298.292	347.69
298.523	336.69
298.753	348.69
298.984	353.69
299.214	356.69
299.445	350.69
299.675	346.69
299.905	350.69
300.136	335.69
300.366	361.69
300.597	363.69
300.827	369.69
301.057	359.69
301.288	374.69
301.518	386.69
301.748	367.69
301.979	379.69
302.209	377.69
302.439	363.69
302.669	352.69
302.9	373.69
303.13	367.69
303.36	357.69
303.59	375.69
303.82	378.69
304.051	384.69
304.281	377.69
304.511	367.69
304.741	359.69
304.971	369.69
305.201	349.69
305.431	351.69
305.661	355.69
305.891	359.69
306.121	377.69
306.352	379.69
306.582	370.69
306.812	379.69
307.042	369.69
307.272	354.69
307.502	369.69
307.731	365.69
307.961	365.69
308.191	366.69
308.421	353.69
308.651	377.69
308.881	376.69
309.111	367.69
309.341	375.69
309.571	386.69
309.8	383.69
310.03	397.69
310.26	415.69
310.49	408.69
310.72	425.69
310.949	422.69
311.179	456.69
311.409	407.69
311.639	425.69
311.868	418.69
312.098	431.69
312.328	435.69
312.557	413.69
312.787	444.69
313.017	419.69
313.246	431.69
313.476	408.69
313.706	410.69
313.935	404.69
314.165	413.69
314.394	429.69
314.624	433.69
314.853	430.69
315.083	431.69
315.312	403.69
315.542	425.69
315.771	423.69
316.001	400.69
316.23	411.69
316.46	388.69
316.689	413.69
316.919	435.69
317.148	423.69
317.377	418.69
317.607	422.69
317.836	445.69
318.065	429.69
318.295	410.69
318.524	405.69
318.753	417.69
318.983	409.69
319.212	423.69
319.441	415.69
319.67	444.69
319.9	420.69
320.129	401.69
320.358	407.69
320.587	439.69
320.816	433.69
321.046	441.69
321.275	433.69
321.504	447.69
321.733	424.69
321.962	436.69
322.191	442.69
322.42	451.69
322.649	471.69
322.878	474.69
323.108	482.69
323.337	501.69
323.566	528.69
323.795	561.69
324.024	576.69
324.253	687.69
324.482	984.69
324.71	1453.69
324.939	2047.69
325.168	1773.69
325.397	895.69
325.626	641.69
325.855	570.69
326.084	554.69
326.313	523.69
326.542	529.69
326.77	564.69
326.999	648.69
327.228	865.69
327.457	1289.69
327.686	1529.69
327.914	1046.69
328.143	722.69
328.372	629.69
328.6	577.69
328.829	576.69
329.058	591.69
329.287	566.69
329.515	576.69
329.744	545.69
329.972	530.69
330.201	530.69
330.43	531.69
330.658	613.69
330.887	634.69
331.115	601.69
331.344	549.69
331.572	517.69
331.801	525.69
332.03	511.69
332.258	523.69
332.486	496.69
332.715	512.69
332.943	503.69
333.172	519.69
333.4	537.69
333.629	527.69
333.857	535.69
334.085	522.69
334.314	545.69
334.542	533.69
334.771	545.69
334.999	530.69
335.227	533.69
335.455	540.69
335.684	514.69
335.912	500.69
336.14	513.69
336.369	507.69
336.597	527.69
336.825	509.69
337.053	491.69
337.281	498.69
337.51	466.69
337.738	491.69
337.966	491.69
338.194	474.69
338.422	500.69
338.65	469.69
338.878	483.69
339.106	473.69
339.334	475.69
339.562	454.69
339.79	469.69
340.018	472.69
340.246	466.69
340.474	467.69
340.702	472.69
340.93	460.69
341.158	440.69
341.386	460.69
341.614	471.69
341.842	472.69
342.07	460.69
342.298	470.69
342.526	473.69
342.754	467.69
342.981	448.69
343.209	466.69
343.437	460.69
343.665	478.69
343.893	486.69
344.12	500.69
344.348	495.69
344.576	477.69
344.804	490.69
345.031	505.69
345.259	493.69
345.487	466.69
345.714	455.69
345.942	468.69
346.17	432.69
346.397	440.69
346.625	436.69
346.853	457.69
347.08	451.69
347.308	448.69
347.535	465.69
347.763	465.69
347.99	463.69
348.218	452.69
348.445	457.69
348.673	485.69
348.9	454.69
349.128	423.69
349.355	424.69
349.583	413.69
349.81	424.69
350.037	433.69
350.265	439.69
350.492	439.69
350.72	439.69
350.947	458.69
351.174	455.69
351.402	452.69
351.629	456.69
351.856	452.69
352.083	435.69
352.311	464.69
352.538	463.69
352.765	443.69
352.992	447.69
353.22	447.69
353.447	426.69
353.674	438.69
353.901	431.69
354.128	426.69
354.355	437.69
354.583	420.69
354.81	404.69
355.037	422.69
355.264	419.69
355.491	420.69
355.718	444.69
355.945	416.69
356.172	399.69
356.399	417.69
356.626	400.69
356.853	429.69
357.08	409.69
357.307	394.69
357.534	416.69
357.761	436.69
357.988	427.69
358.215	416.69
358.441	406.69
358.668	431.69
358.895	433.69
359.122	429.69
359.349	429.69
359.576	448.69
359.802	480.69
360.029	499.69
360.256	495.69
360.483	473.69
360.709	442.69
360.936	435.69
361.163	465.69
361.39	450.69
361.616	439.69
361.843	435.69
362.07	445.69
362.296	466.69
362.523	437.69
362.749	458.69
362.976	421.69
363.203	402.69
363.429	439.69
363.656	422.69
363.882	415.69
364.109	405.69
364.335	398.69
364.562	428.69
364.788	411.69
365.015	429.69
365.241	430.69
365.468	431.69
365.694	432.69
365.92	434.69
366.147	437.69
366.373	435.69
366.599	415.69
366.826	414.69
367.052	403.69
367.278	429.69
367.505	403.69
367.731	418.69
367.957	428.69
368.184	439.69
368.41	438.69
368.636	447.69
368.862	431.69
369.089	437.69
369.315	419.69
369.541	422.69
369.767	405.69
369.993	417.69
370.219	414.69
370.445	429.69
370.672	413.69
370.898	421.69
371.124	393.69
371.35	422.69
371.576	421.69
371.802	435.69
372.028	441.69
372.254	414.69
372.48	436.69
372.706	433.69
372.932	426.69
373.158	427.69
373.384	426.69
373.61	421.69
373.835	410.69
374.061	425.69
374.287	431.69
374.513	451.69
374.739	438.69
374.965	448.69
375.191	444.69
375.416	443.69
375.642	429.69
375.868	428.69
376.094	414.69
376.319	407.69
376.545	425.69
376.771	418.69
376.997	423.69
377.222	432.69
377.448	409.69
377.674	429.69
377.899	429.69
378.125	403.69
378.35	413.69
378.576	404.69
378.802	403.69
379.027	410.69
379.253	409.69
379.478	440.69
379.704	417.69
379.929	412.69
380.155	421.69
380.38	412.69
380.606	429.69
380.831	419.69
381.057	432.69
381.282	417.69
381.507	439.69
381.733	431.69
381.958	427.69
382.184	442.69
382.409	411.69
382.634	439.69
382.86	401.69
383.085	434.69
383.31	446.69
383.535	442.69
383.761	436.69
383.986	426.69
384.211	457.69
384.436	464.69
384.662	467.69
384.887	481.69
385.112	450.69
385.337	455.69
385.562	472.69
385.787	487.69
386.013	481.69
386.238	457.69
386.463	488.69
386.688	486.69
386.913	466.69
387.138	476.69
387.363	477.69
387.588	460.69
387.813	463.69
388.038	459.69
388.263	466.69
388.488	481.69
388.713	455.69
388.938	476.69
389.163	456.69
389.387	474.69
389.612	458.69
389.837	466.69
390.062	454.69
390.287	453.69
390.512	469.69
390.736	482.69
390.961	489.69
391.186	464.69
391.411	511.69
391.636	491.69
391.86	509.69
392.085	513.69
392.31	490.69
392.534	483.69
392.759	480.69
392.984	489.69
393.208	480.69
393.433	504.69
393.658	476.69
393.882	477.69
394.107	473.69
394.331	471.69
394.556	467.69
394.78	462.69
395.005	469.69
395.229	496.69
395.454	503.69
395.678	496.69
395.903	507.69
396.127	538.69
396.352	503.69
396.576	499.69
396.801	484.69
397.025	509.69
397.249	510.69
397.474	495.69
397.698	526.69
397.922	485.69
398.147	521.69
398.371	535.69
398.595	536.69
398.82	546.69
399.044	562.69
399.268	595.69
399.492	642.69
399.717	698.69
399.941	697.69
400.165	716.69
400.389	672.69
400.613	643.69
400.837	577.69
401.062	571.69
401.286	542.69
401.51	561.69
401.734	552.69
401.958	550.69
402.182	563.69
402.406	577.69
402.63	587.69
402.854	586.69
403.078	581.69
403.302	563.69
403.526	566.69
403.75	573.69
403.974	595.69
404.198	580.69
404.422	575.69
404.645	589.69
404.869	591.69
405.093	593.69
405.317	636.69
405.541	633.69
405.765	595.69
405.988	578.69
406.212	609.69
406.436	629.69
406.66	638.69
406.883	634.69
407.107	672.69
407.331	703.69
407.555	770.69
407.778	751.69
408.002	703.69
408.226	662.69
408.449	641.69
408.673	657.69
408.896	677.69
409.12	661.69
409.344	650.69
409.567	595.69
409.791	582.69
410.014	585.69
410.238	562.69
410.461	569.69
410.685	573.69
410.908	582.69
411.132	607.69
411.355	630.69
411.578	624.69
411.802	563.69
412.025	570.69
412.249	555.69
412.472	570.69
412.695	585.69
412.919	568.69
413.142	549.69
413.365	531.69
413.589	551.69
413.812	534.69
414.035	509.69
414.258	518.69
414.482	552.69
414.705	555.69
414.928	523.69
415.151	535.69
415.374	533.69
415.597	549.69
415.821	523.69
416.044	558.69
416.267	527.69
416.49	519.69
416.713	521.69
416.936	549.69
417.159	518.69
417.382	526.69
417.605	544.69
417.828	561.69
418.051	567.69
418.274	541.69
418.497	535.69
418.72	553.69
418.943	530.69
419.166	551.69
419.389	586.69
419.611	576.69
419.834	552.69
420.057	570.69
420.28	568.69
420.503	528.69
420.726	538.69
420.948	574.69
421.171	587.69
421.394	625.69
421.617	582.69
421.839	551.69
422.062	569.69
422.285	557.69
422.507	616.69
422.73	665.69
422.953	672.69
423.175	598.69
423.398	577.69
423.621	574.69
423.843	589.69
424.066	607.69
424.288	596.69
424.511	597.69
424.733	642.69
424.956	725.69
425.178	676.69
425.401	687.69
425.623	718.69
425.846	609.69
426.068	569.69
426.291	582.69
426.513	571.69
426.735	587.69
426.958	611.69
427.18	706.69
427.402	828.69
427.625	874.69
427.847	776.69
428.069	641.69
428.292	595.69
428.514	556.69
428.736	521.69
428.958	541.69
429.181	522.69
429.403	515.69
429.625	531.69
429.847	558.69
430.069	634.69
430.292	614.69
430.514	532.69
430.736	529.69
430.958	523.69
431.18	503.69
431.402	525.69
431.624	507.69
431.846	511.69
432.068	504.69
432.29	491.69
432.512	508.69
432.734	519.69
432.956	536.69
433.178	526.69
433.4	515.69
433.622	505.69
433.844	512.69
434.066	507.69
434.287	515.69
434.509	518.69
434.731	533.69
434.953	545.69
435.175	567.69
435.397	577.69
435.618	573.69
435.84	609.69
436.062	693.69
436.284	763.69
436.505	621.69
436.727	563.69
436.949	527.69
437.17	536.69
437.392	528.69
437.614	541.69
437.835	569.69
438.057	653.69
438.278	730.69
438.5	744.69
438.721	811.69
438.943	770.69
439.165	614.69
439.386	568.69
439.608	559.69
439.829	565.69
440.05	590.69
440.272	657.69
440.493	587.69
440.715	557.69
440.936	521.69
441.158	529.69
441.379	548.69
441.6	567.69
441.822	590.69
442.043	620.69
442.264	687.69
442.486	726.69
442.707	642.69
442.928	582.69
443.149	625.69
443.371	625.69
443.592	653.69
443.813	731.69
444.034	794.69
444.255	667.69
444.476	625.69
444.698	612.69
444.919	618.69
445.14	727.69
445.361	641.69
445.582	615.69
445.803	695.69
446.024	785.69
446.245	780.69
446.466	710.69
446.687	612.69
446.908	575.69
447.129	546.69
447.35	521.69
447.571	529.69
447.792	490.69
448.013	517.69
448.234	541.69
448.455	575.69
448.675	682.69
448.896	802.69
449.117	663.69
449.338	629.69
449.559	729.69
449.779	830.69
450	674.69
450.221	563.69
450.442	506.69
450.662	479.69
450.883	500.69
451.104	513.69
451.324	527.69
451.545	485.69
451.766	455.69
451.986	475.69
452.207	463.69
452.428	456.69
452.648	487.69
452.869	454.69
453.089	474.69
453.31	495.69
453.53	475.69
453.751	460.69
453.971	486.69
454.192	483.69
454.412	470.69
454.633	455.69
454.853	439.69
455.073	456.69
455.294	497.69
455.514	522.69
455.734	554.69
455.955	477.69
456.175	450.69
456.395	463.69
456.616	431.69
456.836	441.69
457.056	422.69
457.276	425.69
457.497	450.69
457.717	431.69
457.937	452.69
458.157	439.69
458.377	461.69
458.598	490.69
458.818	520.69
459.038	608.69
459.258	636.69
459.478	551.69
459.698	534.69
459.918	523.69
460.138	519.69
460.358	534.69
460.578	524.69
460.798	539.69
461.018	541.69
461.238	510.69
461.458	536.69
461.678	542.69
461.898	531.69
462.118	562.69
462.338	571.69
462.558	562.69
462.777	575.69
462.997	603.69
463.217	634.69
463.437	628.69
463.657	597.69
463.876	599.69
464.096	592.69
464.316	566.69
464.536	590.69
464.755	562.69
464.975	574.69
465.195	609.69
465.414	657.69
465.634	595.69
465.854	552.69
466.073	520.69
466.293	537.69
466.512	497.69
466.732	486.69
466.951	472.69
467.171	481.69
467.391	509.69
467.61	503.69
467.829	511.69
468.049	491.69
468.268	487.69
468.488	475.69
468.707	487.69
468.927	475.69
469.146	480.69
469.365	478.69
469.585	475.69
469.804	498.69
470.023	505.69
470.243	510.69
470.462	505.69
470.681	502.69
470.901	518.69
471.12	502.69
471.339	491.69
471.558	520.69
471.777	479.69
471.997	480.69
472.216	477.69
472.435	470.69
472.654	484.69
472.873	483.69
473.092	465.69
473.311	463.69
473.53	487.69
473.749	471.69
473.968	529.69
474.187	610.69
474.406	631.69
474.625	529.69
474.844	502.69
475.063	496.69
475.282	459.69
475.501	476.69
475.72	497.69
475.939	497.69
476.158	502.69
476.377	472.69
476.596	496.69
476.814	515.69
477.033	534.69
477.252	488.69
477.471	505.69
477.69	539.69
477.908	549.69
478.127	531.69
478.346	557.69
478.564	561.69
478.783	547.69
479.002	563.69
479.22	548.69
479.439	577.69
479.658	602.69
479.876	601.69
480.095	600.69
480.313	632.69
480.532	625.69
480.751	611.69
480.969	617.69
481.188	621.69
481.406	615.69
481.624	591.69
481.843	565.69
482.061	546.69
482.28	553.69
482.498	577.69
482.717	557.69
482.935	544.69
483.153	553.69
483.372	565.69
483.59	563.69
483.808	540.69
484.027	565.69
484.245	563.69
484.463	573.69
484.681	573.69
484.9	587.69
485.118	590.69
485.336	565.69
485.554	596.69
485.772	584.69
485.99	568.69
486.209	595.69
486.427	591.69
486.645	593.69
486.863	613.69
487.081	617.69
487.299	617.69
487.517	599.69
487.735	602.69
487.953	602.69
488.171	587.69
488.389	587.69
488.607	596.69
488.825	608.69
489.043	614.69
489.261	611.69
489.479	614.69
489.696	610.69
489.914	599.69
490.132	611.69
490.35	636.69
490.568	616.69
490.786	635.69
491.003	671.69
491.221	671.69
491.439	658.69
491.657	666.69
491.874	638.69
492.092	673.69
492.31	675.69
492.527	683.69
492.745	667.69
492.963	676.69
493.18	679.69
493.398	701.69
493.615	719.69
493.833	685.69
494.05	705.69
494.268	679.69
494.485	691.69
494.703	697.69
494.92	729.69
495.138	711.69
495.355	726.69
495.573	706.69
495.79	725.69
496.008	707.69
496.225	697.69
496.442	673.69
496.66	733.69
496.877	713.69
497.094	734.69
497.312	721.69
497.529	741.69
497.746	765.69
497.963	756.69
498.181	806.69
498.398	803.69
498.615	829.69
498.832	843.69
499.049	878.69
499.267	908.69
499.484	953.69
499.701	1031.69
499.918	1070.69
500.135	1146.69
500.352	1243.69
500.569	1249.69
500.786	1215.69
501.003	1214.69
501.22	1140.69
501.437	1069.69
501.654	1029.69
501.871	984.69
502.088	961.69
502.305	895.69
502.522	856.69
502.739	832.69
502.956	805.69
503.172	763.69
503.389	779.69
503.606	795.69
503.823	755.69
504.04	774.69
504.256	740.69
504.473	736.69
504.69	721.69
504.907	749.69
505.123	740.69
505.34	695.69
505.557	674.69
505.773	690.69
505.99	671.69
506.207	695.69
506.423	689.69
506.64	669.69
506.856	663.69
507.073	663.69
507.289	679.69
507.506	639.69
507.722	670.69
507.939	669.69
508.155	669.69
508.372	651.69
508.588	602.69
508.805	625.69
509.021	644.69
509.238	650.69
509.454	651.69
509.67	641.69
509.887	639.69
510.103	624.69
510.319	654.69
510.536	736.69
510.752	1178.69
510.968	977.69
511.184	633.69
511.401	595.69
511.617	604.69
511.833	591.69
512.049	591.69
512.265	599.69
512.481	590.69
512.698	601.69
512.914	586.69
513.13	605.69
513.346	594.69
513.562	605.69
513.778	583.69
513.994	602.69
514.21	601.69
514.426	622.69
514.642	654.69
514.858	702.69
515.074	740.69
515.29	835.69
515.506	1289.69
515.721	1078.69
515.937	752.69
516.153	672.69
516.369	674.69
516.585	638.69
516.801	652.69
517.016	672.69
517.232	659.69
517.448	676.69
517.664	701.69
517.879	685.69
518.095	686.69
518.311	663.69
518.527	665.69
518.742	664.69
518.958	633.69
519.173	625.69
519.389	636.69
519.605	601.69
519.82	608.69
520.036	623.69
520.251	647.69
520.467	675.69
520.682	659.69
520.898	679.69
521.113	687.69
521.329	692.69
521.544	793.69
521.76	963.69
521.975	1638.69
522.19	1669.69
522.406	899.69
522.621	680.69
522.836	613.69
523.052	583.69
523.267	584.69
523.482	548.69
523.698	549.69
523.913	557.69
524.128	565.69
524.343	544.69
524.559	533.69
524.774	533.69
524.989	535.69
525.204	534.69
525.419	537.69
525.634	536.69
525.849	499.69
526.064	512.69
526.28	488.69
526.495	500.69
526.71	482.69
526.925	509.69
527.14	490.69
527.355	494.69
527.57	488.69
527.785	481.69
527.999	489.69
528.214	488.69
528.429	510.69
528.644	509.69
528.859	475.69
529.074	505.69
529.289	511.69
529.503	585.69
529.718	573.69
529.933	516.69
530.148	513.69
530.363	515.69
530.577	503.69
530.792	500.69
531.007	493.69
531.221	460.69
531.436	497.69
531.651	487.69
531.865	468.69
532.08	476.69
532.295	481.69
532.509	477.69
532.724	472.69
532.938	475.69
533.153	455.69
533.367	467.69
533.582	465.69
533.796	486.69
534.011	472.69
534.225	468.69
534.44	477.69
534.654	471.69
534.868	468.69
535.083	463.69
535.297	473.69
535.511	477.69
535.726	500.69
535.94	470.69
536.154	471.69
536.369	453.69
536.583	466.69
536.797	465.69
537.011	465.69
537.225	466.69
537.44	437.69
537.654	469.69
537.868	459.69
538.082	467.69
538.296	453.69
538.51	426.69
538.724	471.69
538.938	457.69
539.153	446.69
539.367	489.69
539.581	471.69
539.795	453.69
540.009	457.69
540.222	438.69
540.436	446.69
540.65	441.69
540.864	443.69
541.078	463.69
541.292	482.69
541.506	464.69
541.72	443.69
541.934	434.69
542.147	451.69
542.361	433.69
542.575	447.69
542.789	426.69
543.002	454.69
543.216	460.69
543.43	459.69
543.644	439.69
543.857	445.69
544.071	426.69
544.285	459.69
544.498	463.69
544.712	445.69
544.925	435.69
545.139	445.69
545.352	439.69
545.566	448.69
545.779	441.69
545.993	440.69
546.206	454.69
546.42	443.69
546.633	454.69
546.847	445.69
547.06	399.69
547.274	448.69
547.487	461.69
547.7	419.69
547.914	435.69
548.127	439.69
548.34	446.69
548.554	429.69
548.767	434.69
548.98	434.69
549.193	451.69
549.407	433.69
549.62	450.69
549.833	429.69
550.046	426.69
550.259	429.69
550.473	426.69
550.686	415.69
550.899	438.69
551.112	424.69
551.325	427.69
551.538	433.69
551.751	446.69
551.964	442.69
552.177	429.69
552.39	442.69
552.603	429.69
552.816	443.69
553.029	446.69
553.242	446.69
553.455	464.69
553.667	467.69
553.88	467.69
554.093	465.69
554.306	444.69
554.519	457.69
554.732	453.69
554.944	438.69
555.157	408.69
555.37	415.69
555.583	402.69
555.795	403.69
556.008	412.69
556.221	398.69
556.433	420.69
556.646	413.69
556.859	395.69
557.071	385.69
557.284	387.69
557.496	390.69
557.709	369.69
557.921	381.69
558.134	373.69
558.346	375.69
558.559	395.69
558.771	390.69
558.984	377.69
559.196	373.69
559.409	395.69
559.621	380.69
559.833	382.69
560.046	371.69
560.258	381.69
560.47	391.69
560.683	390.69
560.895	393.69
561.107	373.69
561.32	375.69
561.532	393.69
561.744	373.69
561.956	395.69
562.168	377.69
562.381	362.69
562.593	386.69
562.805	383.69
563.017	386.69
563.229	393.69
563.441	377.69
563.653	379.69
563.865	387.69
564.077	395.69
564.289	393.69
564.501	399.69
564.713	407.69
564.925	409.69
565.137	420.69
565.349	422.69
565.561	422.69
565.773	426.69
565.985	435.69
566.197	451.69
566.408	481.69
566.62	486.69
566.832	510.69
567.044	529.69
567.255	515.69
567.467	533.69
567.679	544.69
567.891	565.69
568.102	545.69
568.314	542.69
568.526	518.69
568.737	494.69
568.949	461.69
569.161	441.69
569.372	451.69
569.584	413.69
569.795	403.69
570.007	410.69
570.218	449.69
570.43	419.69
570.641	401.69
570.853	391.69
571.064	393.69
571.276	393.69
571.487	399.69
571.698	379.69
571.91	371.69
572.121	373.69
572.333	357.69
572.544	343.69
572.755	335.69
572.966	334.69
573.178	336.69
573.389	341.69
573.6	327.69
573.811	341.69
574.023	328.69
574.234	327.69
574.445	347.69
574.656	328.69
574.867	306.69
575.078	351.69
575.289	335.69
575.501	342.69
575.712	347.69
575.923	322.69
576.134	324.69
576.345	319.69
576.556	322.69
576.767	322.69
576.978	331.69
577.188	318.69
577.399	317.69
577.61	303.69
577.821	303.69
578.032	314.69
578.243	337.69
578.454	543.69
578.665	430.69
578.875	320.69
579.086	303.69
579.297	305.69
579.508	282.69
579.718	315.69
579.929	289.69
580.14	307.69
580.35	305.69
580.561	288.69
580.772	301.69
580.982	309.69
581.193	282.69
581.403	297.69
581.614	295.69
581.825	281.69
582.035	301.69
582.246	304.69
582.456	296.69
582.667	298.69
582.877	278.69
583.087	295.69
583.298	299.69
583.508	293.69
583.719	281.69
583.929	314.69
584.139	295.69
584.35	312.69
584.56	293.69
584.77	283.69
584.981	281.69
585.191	283.69
585.401	282.69
585.611	280.69
585.821	291.69
586.032	292.69
586.242	277.69
586.452	282.69
586.662	276.69
586.872	287.69
587.082	306.69
587.292	303.69
587.502	303.69
587.713	282.69
587.923	289.69
588.133	283.69
588.343	282.69
588.553	274.69
588.762	289.69
588.972	293.69
589.182	303.69
589.392	314.69
589.602	282.69
589.812	296.69
590.022	283.69
590.232	273.69
590.441	295.69
590.651	303.69
590.861	290.69
591.071	285.69
591.281	282.69
591.49	293.69
591.7	330.69
591.91	301.69
592.119	319.69
592.329	304.69
592.539	298.69
592.748	308.69
592.958	303.69
593.167	333.69
593.377	326.69
593.587	340.69
593.796	311.69
594.006	312.69
594.215	309.69
594.424	315.69
594.634	321.69
594.843	308.69
595.053	302.69
595.262	314.69
595.472	291.69
595.681	297.69
595.89	283.69
596.1	287.69
596.309	273.69
596.518	287.69
596.727	279.69
596.937	271.69
597.146	273.69
597.355	281.69
597.564	261.69
597.774	276.69
597.983	260.69
598.192	260.69
598.401	249.69
598.61	269.69
598.819	256.69
599.028	254.69
599.237	266.69
599.446	271.69
599.655	258.69
599.864	246.69
600.073	253.69
600.282	252.69
600.491	251.69
600.7	244.69
600.909	245.69
601.118	243.69
601.327	251.69
601.536	241.69
601.745	258.69
601.953	235.69
602.162	244.69
602.371	222.69
602.58	236.69
602.789	228.69
602.997	241.69
603.206	245.69
603.415	244.69
603.623	258.69
603.832	245.69
604.041	242.69
604.249	257.69
604.458	258.69
604.666	221.69
604.875	214.69
605.084	218.69
605.292	247.69
605.501	227.69
605.709	224.69
605.918	219.69
606.126	226.69
606.334	249.69
606.543	224.69
606.751	225.69
606.96	240.69
607.168	241.69
607.376	245.69
607.585	229.69
607.793	236.69
608.001	233.69
608.21	239.69
608.418	228.69
608.626	221.69
608.834	222.69
609.043	222.69
609.251	233.69
609.459	223.69
609.667	231.69
609.875	225.69
610.083	224.69
610.291	234.69
610.499	238.69
610.707	218.69
610.916	219.69
611.124	238.69
611.332	223.69
611.54	239.69
611.748	223.69
611.955	223.69
612.163	231.69
612.371	220.69
612.579	219.69
612.787	221.69
612.995	230.69
613.203	222.69
613.411	257.69
613.618	233.69
613.826	225.69
614.034	227.69
614.242	230.69
614.449	224.69
614.657	220.69
614.865	240.69
615.072	232.69
615.28	236.69
615.488	231.69
615.695	217.69
615.903	223.69
616.111	222.69
616.318	223.69
616.526	234.69
616.733	220.69
616.941	222.69
617.148	205.69
617.356	233.69
617.563	250.69
617.771	227.69
617.978	217.69
618.185	224.69
618.393	231.69
618.6	222.69
618.807	229.69
619.015	210.69
619.222	216.69
619.429	216.69
619.637	218.69
619.844	215.69
620.051	209.69
620.258	213.69
620.466	217.69
620.673	203.69
620.88	203.69
621.087	220.69
621.294	220.69
621.501	205.69
621.708	216.69
621.915	202.69
622.122	211.69
622.329	217.69
622.536	222.69
622.743	217.69
622.95	202.69
623.157	190.69
623.364	237.69
623.571	205.69
623.778	215.69
623.985	200.69
624.192	193.69
624.399	210.69
624.606	184.69
624.812	198.69
625.019	198.69
625.226	195.69
625.433	197.69
625.639	185.69
625.846	217.69
626.053	202.69
626.259	207.69
626.466	203.69
626.673	199.69
626.879	198.69
627.086	213.69
627.293	210.69
627.499	195.69
627.706	190.69
627.912	205.69
628.119	212.69
628.325	207.69
628.532	181.69
628.738	219.69
628.945	191.69
629.151	198.69
629.357	185.69
629.564	185.69
629.77	188.69
629.976	197.69
630.183	188.69
630.389	173.69
630.595	192.69
630.802	182.69
631.008	184.69
631.214	185.69
631.42	191.69
631.627	185.69
631.833	185.69
632.039	187.69
632.245	186.69
632.451	182.69
632.657	182.69
632.863	174.69
633.069	178.69
633.275	191.69
633.481	168.69
633.688	184.69
633.893	177.69
634.099	178.69
634.305	182.69
634.511	164.69
634.717	182.69
634.923	172.69
635.129	185.69
635.335	168.69
635.541	187.69
635.747	178.69
635.952	158.69
636.158	167.69
636.364	183.69
636.57	187.69
636.775	175.69
636.981	171.69
637.187	169.69
637.392	181.69
637.598	177.69
637.804	153.69
638.009	173.69
638.215	157.69
638.421	166.69
638.626	158.69
638.832	160.69
639.037	170.69
639.243	158.69
639.448	180.69
639.654	165.69
639.859	159.69
640.065	146.69
640.27	158.69
640.475	174.69
640.681	158.69
640.886	155.69
641.091	161.69
641.297	163.69
641.502	148.69
641.707	175.69
641.913	168.69
642.118	157.69
642.323	151.69
642.528	152.69
642.733	174.69
642.939	155.69
643.144	161.69
643.349	165.69
643.554	175.69
643.759	151.69
643.964	167.69
644.169	170.69
644.374	158.69
644.579	154.69
644.784	155.69
644.989	160.69
645.194	160.69
645.399	160.69
645.604	160.69
645.809	153.69
646.014	164.69
646.219	152.69
646.423	151.69
646.628	156.69
646.833	163.69
647.038	166.69
647.243	148.69
647.447	159.69
647.652	159.69
647.857	154.69
648.062	154.69
648.266	165.69
648.471	169.69
648.676	175.69
648.88	167.69
649.085	175.69
649.289	170.69
649.494	171.69
649.698	185.69
649.903	178.69
650.107	168.69
650.312	153.69
650.516	161.69
650.721	141.69
650.925	145.69
651.13	138.69
651.334	149.69
651.539	144.69
651.743	146.69
651.947	134.69
652.152	148.69
652.356	154.69
652.56	127.69
652.764	145.69
652.969	143.69
653.173	147.69
653.377	133.69
653.581	136.69
653.785	129.69
653.99	140.69
654.194	135.69
654.398	136.69
654.602	118.69
654.806	143.69
655.01	147.69
655.214	151.69
655.418	147.69
655.622	123.69
655.826	131.69
656.03	132.69
656.234	146.69
656.438	135.69
656.642	125.69
656.846	122.69
657.049	140.69
657.253	135.69
657.457	127.69
657.661	128.69
657.865	121.69
658.068	117.69
658.272	111.69
658.476	105.69
658.68	107.69
658.883	104.69
659.087	97.69
659.291	95.69
659.494	107.69
659.698	92.69
659.901	107.69
660.105	95.69
660.309	94.69
660.512	97.69
660.716	92.69
660.919	78.69
661.123	99.69
661.326	81.69
661.53	93.69
661.733	95.69
661.936	71.69
662.14	86.69
662.343	80.69
662.546	71.69
662.75	81.69
662.953	90.69
663.156	77.69
663.36	80.69
663.563	69.69
663.766	77.69
663.969	76.69
664.173	83.69
664.376	71.69
664.579	82.69
664.782	87.69
664.985	69.69
665.188	93.69
665.391	77.69
665.594	79.69
665.797	83.69
666	69.69
666.203	78.69
666.406	71.69
666.609	87.69
666.812	95.69
667.015	74.69
667.218	68.69
667.421	80.69
667.624	75.69
667.827	70.69
668.03	72.69
668.232	75.69
668.435	93.69
668.638	75.69
668.841	93.69
669.043	70.69
669.246	73.69
669.449	90.69
669.651	71.69
669.854	75.69
670.057	82.69
670.259	94.69
670.462	79.69
670.665	71.69
670.867	79.69
671.07	72.69
671.272	64.69
671.475	87.69
671.677	88.69
671.88	79.69
672.082	59.69
672.284	88.69
672.487	69.69
672.689	86.69
672.892	86.69
