Data from 1985.PennyLincolnUp.Lamp.En5.5.200Scan.071819.P1_HRD10591_17-03-50-971.txt Node
Date: Thu Jul 18 17:03:50 EDT 2019
User: cochatt
Spectrometer: HR+D1059
Trigger mode: 1
Integration Time (sec): 1.000000E-1
Scans to average: 1
Electric dark correction enabled: true
Nonlinearity correction enabled: false
Boxcar width: 0
XAxis mode: Wavelengths
Number of Pixels in Spectrum: 2048
>>>>>Begin Spectral Data<<<<<
223.165	-8.94
223.4	-8.94
223.635	-8.94
223.869	2.06
224.104	-15.94
224.338	-13.94
224.573	-22.94
224.808	-7.94
225.042	-12.94
225.277	-3.94
225.511	-18.94
225.746	7.06
225.98	-5.94
226.215	16.06
226.449	16.06
226.683	7.06
226.918	30.06
227.152	33.06
227.387	32.06
227.621	42.06
227.856	37.06
228.09	33.06
228.324	57.06
228.559	49.06
228.793	61.06
229.027	89.06
229.262	107.06
229.496	107.06
229.73	112.06
229.964	144.06
230.199	120.06
230.433	106.06
230.667	106.06
230.901	107.06
231.136	98.06
231.37	110.06
231.604	111.06
231.838	112.06
232.072	96.06
232.306	100.06
232.541	108.06
232.775	107.06
233.009	106.06
233.243	105.06
233.477	112.06
233.711	112.06
233.945	121.06
234.179	119.06
234.413	117.06
234.647	116.06
234.881	126.06
235.115	120.06
235.349	121.06
235.583	126.06
235.817	124.06
236.051	119.06
236.285	113.06
236.519	108.06
236.753	136.06
236.987	133.06
237.221	177.06
237.455	212.06
237.689	174.06
237.922	133.06
238.156	130.06
238.39	139.06
238.624	132.06
238.858	135.06
239.091	109.06
239.325	120.06
239.559	122.06
239.793	121.06
240.027	132.06
240.26	156.06
240.494	143.06
240.728	141.06
240.961	136.06
241.195	142.06
241.429	135.06
241.662	148.06
241.896	128.06
242.13	154.06
242.363	137.06
242.597	128.06
242.83	150.06
243.064	139.06
243.298	158.06
243.531	155.06
243.765	134.06
243.998	143.06
244.232	132.06
244.465	153.06
244.699	144.06
244.932	156.06
245.166	149.06
245.399	158.06
245.633	157.06
245.866	145.06
246.099	146.06
246.333	142.06
246.566	148.06
246.8	162.06
247.033	150.06
247.266	148.06
247.5	164.06
247.733	174.06
247.966	187.06
248.2	173.06
248.433	164.06
248.666	172.06
248.899	173.06
249.133	172.06
249.366	216.06
249.599	199.06
249.832	184.06
250.066	182.06
250.299	178.06
250.532	191.06
250.765	221.06
250.998	217.06
251.231	211.06
251.465	198.06
251.698	205.06
251.931	197.06
252.164	206.06
252.397	201.06
252.63	200.06
252.863	204.06
253.096	212.06
253.329	237.06
253.562	220.06
253.795	219.06
254.028	220.06
254.261	217.06
254.494	219.06
254.727	250.06
254.96	274.06
255.193	260.06
255.426	232.06
255.659	241.06
255.892	232.06
256.124	256.06
256.357	263.06
256.59	233.06
256.823	214.06
257.056	214.06
257.289	222.06
257.521	220.06
257.754	210.06
257.987	210.06
258.22	218.06
258.452	213.06
258.685	214.06
258.918	229.06
259.151	228.06
259.383	221.06
259.616	220.06
259.849	232.06
260.081	221.06
260.314	236.06
260.547	240.06
260.779	223.06
261.012	239.06
261.244	242.06
261.477	238.06
261.71	216.06
261.942	228.06
262.175	231.06
262.407	226.06
262.64	227.06
262.872	224.06
263.105	233.06
263.337	221.06
263.57	218.06
263.802	211.06
264.035	226.06
264.267	216.06
264.499	226.06
264.732	227.06
264.964	224.06
265.197	212.06
265.429	227.06
265.661	222.06
265.894	231.06
266.126	225.06
266.358	235.06
266.591	222.06
266.823	245.06
267.055	238.06
267.287	231.06
267.52	234.06
267.752	240.06
267.984	231.06
268.216	240.06
268.448	248.06
268.681	228.06
268.913	256.06
269.145	249.06
269.377	277.06
269.609	281.06
269.841	270.06
270.073	289.06
270.306	315.06
270.538	321.06
270.77	325.06
271.002	284.06
271.234	309.06
271.466	301.06
271.698	329.06
271.93	327.06
272.162	329.06
272.394	327.06
272.626	307.06
272.858	292.06
273.09	280.06
273.322	290.06
273.553	274.06
273.785	272.06
274.017	278.06
274.249	283.06
274.481	297.06
274.713	288.06
274.945	292.06
275.176	276.06
275.408	306.06
275.64	285.06
275.872	276.06
276.104	281.06
276.335	283.06
276.567	283.06
276.799	298.06
277.031	322.06
277.262	328.06
277.494	338.06
277.726	321.06
277.957	288.06
278.189	313.06
278.421	288.06
278.652	287.06
278.884	277.06
279.115	302.06
279.347	305.06
279.579	295.06
279.81	295.06
280.042	288.06
280.273	278.06
280.505	300.06
280.736	288.06
280.968	309.06
281.199	287.06
281.431	296.06
281.662	299.06
281.894	313.06
282.125	309.06
282.356	319.06
282.588	343.06
282.819	331.06
283.051	322.06
283.282	302.06
283.513	311.06
283.745	317.06
283.976	314.06
284.207	321.06
284.439	308.06
284.67	298.06
284.901	290.06
285.132	312.06
285.364	294.06
285.595	300.06
285.826	314.06
286.057	312.06
286.288	307.06
286.52	304.06
286.751	304.06
286.982	306.06
287.213	301.06
287.444	315.06
287.675	311.06
287.906	322.06
288.138	322.06
288.369	320.06
288.6	333.06
288.831	340.06
289.062	324.06
289.293	310.06
289.524	325.06
289.755	324.06
289.986	337.06
290.217	308.06
290.448	326.06
290.679	321.06
290.91	324.06
291.141	314.06
291.371	309.06
291.602	344.06
291.833	308.06
292.064	308.06
292.295	331.06
292.526	340.06
292.757	321.06
292.987	315.06
293.218	321.06
293.449	339.06
293.68	308.06
293.91	325.06
294.141	339.06
294.372	306.06
294.603	326.06
294.833	316.06
295.064	327.06
295.295	329.06
295.525	338.06
295.756	355.06
295.987	328.06
296.217	352.06
296.448	363.06
296.679	348.06
296.909	329.06
297.14	329.06
297.37	333.06
297.601	332.06
297.831	330.06
298.062	340.06
298.292	328.06
298.523	361.06
298.753	352.06
298.984	326.06
299.214	329.06
299.445	336.06
299.675	342.06
299.905	366.06
300.136	356.06
300.366	337.06
300.597	361.06
300.827	360.06
301.057	371.06
301.288	359.06
301.518	376.06
301.748	376.06
301.979	370.06
302.209	357.06
302.439	370.06
302.669	362.06
302.9	369.06
303.13	359.06
303.36	376.06
303.59	364.06
303.82	384.06
304.051	396.06
304.281	382.06
304.511	380.06
304.741	371.06
304.971	370.06
305.201	369.06
305.431	376.06
305.661	372.06
305.891	387.06
306.121	379.06
306.352	377.06
306.582	384.06
306.812	373.06
307.042	370.06
307.272	374.06
307.502	369.06
307.731	380.06
307.961	384.06
308.191	384.06
308.421	370.06
308.651	364.06
308.881	368.06
309.111	370.06
309.341	387.06
309.571	365.06
309.8	386.06
310.03	399.06
310.26	404.06
310.49	403.06
310.72	416.06
310.949	421.06
311.179	416.06
311.409	426.06
311.639	423.06
311.868	403.06
312.098	416.06
312.328	413.06
312.557	437.06
312.787	436.06
313.017	420.06
313.246	416.06
313.476	408.06
313.706	407.06
313.935	427.06
314.165	420.06
314.394	436.06
314.624	429.06
314.853	427.06
315.083	434.06
315.312	440.06
315.542	417.06
315.771	425.06
316.001	428.06
316.23	404.06
316.46	420.06
316.689	427.06
316.919	435.06
317.148	425.06
317.377	434.06
317.607	424.06
317.836	416.06
318.065	427.06
318.295	416.06
318.524	429.06
318.753	411.06
318.983	419.06
319.212	414.06
319.441	434.06
319.67	430.06
319.9	419.06
320.129	426.06
320.358	416.06
320.587	440.06
320.816	446.06
321.046	425.06
321.275	452.06
321.504	468.06
321.733	436.06
321.962	439.06
322.191	456.06
322.42	482.06
322.649	458.06
322.878	481.06
323.108	473.06
323.337	502.06
323.566	537.06
323.795	553.06
324.024	601.06
324.253	697.06
324.482	956.06
324.71	1461.06
324.939	2049.06
325.168	1761.06
325.397	928.06
325.626	654.06
325.855	571.06
326.084	546.06
326.313	538.06
326.542	563.06
326.77	581.06
326.999	639.06
327.228	884.06
327.457	1322.06
327.686	1515.06
327.914	1032.06
328.143	717.06
328.372	650.06
328.6	630.06
328.829	593.06
329.058	589.06
329.287	611.06
329.515	596.06
329.744	564.06
329.972	548.06
330.201	602.06
330.43	626.06
330.658	612.06
330.887	642.06
331.115	636.06
331.344	566.06
331.572	548.06
331.801	539.06
332.03	548.06
332.258	502.06
332.486	525.06
332.715	501.06
332.943	491.06
333.172	518.06
333.4	527.06
333.629	562.06
333.857	546.06
334.085	572.06
334.314	572.06
334.542	635.06
334.771	634.06
334.999	587.06
335.227	532.06
335.455	537.06
335.684	518.06
335.912	510.06
336.14	505.06
336.369	515.06
336.597	509.06
336.825	505.06
337.053	489.06
337.281	482.06
337.51	485.06
337.738	489.06
337.966	485.06
338.194	500.06
338.422	486.06
338.65	458.06
338.878	484.06
339.106	486.06
339.334	473.06
339.562	465.06
339.79	476.06
340.018	472.06
340.246	501.06
340.474	468.06
340.702	443.06
340.93	468.06
341.158	444.06
341.386	473.06
341.614	458.06
341.842	469.06
342.07	478.06
342.298	453.06
342.526	445.06
342.754	467.06
342.981	446.06
343.209	454.06
343.437	447.06
343.665	479.06
343.893	460.06
344.12	490.06
344.348	497.06
344.576	475.06
344.804	501.06
345.031	496.06
345.259	500.06
345.487	485.06
345.714	485.06
345.942	453.06
346.17	455.06
346.397	456.06
346.625	452.06
346.853	469.06
347.08	461.06
347.308	435.06
347.535	434.06
347.763	444.06
347.99	459.06
348.218	479.06
348.445	465.06
348.673	466.06
348.9	453.06
349.128	432.06
349.355	424.06
349.583	429.06
349.81	445.06
350.037	435.06
350.265	415.06
350.492	444.06
350.72	448.06
350.947	435.06
351.174	433.06
351.402	458.06
351.629	452.06
351.856	448.06
352.083	456.06
352.311	459.06
352.538	457.06
352.765	437.06
352.992	453.06
353.22	438.06
353.447	466.06
353.674	432.06
353.901	422.06
354.128	424.06
354.355	444.06
354.583	436.06
354.81	427.06
355.037	426.06
355.264	422.06
355.491	427.06
355.718	401.06
355.945	412.06
356.172	420.06
356.399	422.06
356.626	410.06
356.853	419.06
357.08	430.06
357.307	423.06
357.534	416.06
357.761	438.06
357.988	420.06
358.215	445.06
358.441	417.06
358.668	414.06
358.895	423.06
359.122	425.06
359.349	420.06
359.576	448.06
359.802	442.06
360.029	460.06
360.256	484.06
360.483	471.06
360.709	460.06
360.936	422.06
361.163	450.06
361.39	440.06
361.616	449.06
361.843	447.06
362.07	454.06
362.296	447.06
362.523	419.06
362.749	465.06
362.976	459.06
363.203	437.06
363.429	415.06
363.656	447.06
363.882	418.06
364.109	426.06
364.335	417.06
364.562	424.06
364.788	410.06
365.015	442.06
365.241	424.06
365.468	427.06
365.694	424.06
365.92	444.06
366.147	427.06
366.373	430.06
366.599	426.06
366.826	416.06
367.052	428.06
367.278	404.06
367.505	416.06
367.731	426.06
367.957	436.06
368.184	412.06
368.41	439.06
368.636	438.06
368.862	427.06
369.089	420.06
369.315	424.06
369.541	429.06
369.767	430.06
369.993	412.06
370.219	437.06
370.445	422.06
370.672	418.06
370.898	416.06
371.124	410.06
371.35	433.06
371.576	428.06
371.802	429.06
372.028	414.06
372.254	413.06
372.48	402.06
372.706	436.06
372.932	439.06
373.158	449.06
373.384	425.06
373.61	423.06
373.835	434.06
374.061	432.06
374.287	453.06
374.513	445.06
374.739	424.06
374.965	436.06
375.191	447.06
375.416	443.06
375.642	452.06
375.868	443.06
376.094	427.06
376.319	408.06
376.545	434.06
376.771	442.06
376.997	424.06
377.222	422.06
377.448	423.06
377.674	412.06
377.899	412.06
378.125	413.06
378.35	407.06
378.576	408.06
378.802	402.06
379.027	410.06
379.253	411.06
379.478	394.06
379.704	408.06
379.929	433.06
380.155	419.06
380.38	418.06
380.606	408.06
380.831	417.06
381.057	426.06
381.282	407.06
381.507	437.06
381.733	420.06
381.958	435.06
382.184	420.06
382.409	405.06
382.634	439.06
382.86	456.06
383.085	438.06
383.31	438.06
383.535	451.06
383.761	458.06
383.986	466.06
384.211	436.06
384.436	459.06
384.662	438.06
384.887	448.06
385.112	454.06
385.337	460.06
385.562	463.06
385.787	456.06
386.013	461.06
386.238	466.06
386.463	472.06
386.688	468.06
386.913	472.06
387.138	467.06
387.363	450.06
387.588	458.06
387.813	469.06
388.038	454.06
388.263	477.06
388.488	470.06
388.713	462.06
388.938	471.06
389.163	459.06
389.387	479.06
389.612	467.06
389.837	452.06
390.062	477.06
390.287	489.06
390.512	472.06
390.736	437.06
390.961	485.06
391.186	474.06
391.411	497.06
391.636	474.06
391.86	494.06
392.085	482.06
392.31	484.06
392.534	488.06
392.759	488.06
392.984	481.06
393.208	454.06
393.433	474.06
393.658	472.06
393.882	483.06
394.107	469.06
394.331	466.06
394.556	464.06
394.78	480.06
395.005	480.06
395.229	468.06
395.454	495.06
395.678	477.06
395.903	513.06
396.127	536.06
396.352	541.06
396.576	490.06
396.801	481.06
397.025	498.06
397.249	514.06
397.474	501.06
397.698	520.06
397.922	523.06
398.147	548.06
398.371	523.06
398.595	536.06
398.82	535.06
399.044	550.06
399.268	571.06
399.492	644.06
399.717	664.06
399.941	676.06
400.165	675.06
400.389	684.06
400.613	653.06
400.837	593.06
401.062	578.06
401.286	552.06
401.51	550.06
401.734	546.06
401.958	570.06
402.182	544.06
402.406	558.06
402.63	563.06
402.854	555.06
403.078	569.06
403.302	555.06
403.526	568.06
403.75	574.06
403.974	589.06
404.198	586.06
404.422	578.06
404.645	586.06
404.869	588.06
405.093	637.06
405.317	669.06
405.541	710.06
405.765	642.06
405.988	615.06
406.212	602.06
406.436	616.06
406.66	634.06
406.883	613.06
407.107	650.06
407.331	698.06
407.555	763.06
407.778	738.06
408.002	681.06
408.226	634.06
408.449	629.06
408.673	633.06
408.896	634.06
409.12	683.06
409.344	640.06
409.567	586.06
409.791	573.06
410.014	566.06
410.238	557.06
410.461	558.06
410.685	573.06
410.908	587.06
411.132	604.06
411.355	643.06
411.578	617.06
411.802	576.06
412.025	590.06
412.249	572.06
412.472	590.06
412.695	626.06
412.919	621.06
413.142	591.06
413.365	564.06
413.589	548.06
413.812	546.06
414.035	539.06
414.258	550.06
414.482	541.06
414.705	547.06
414.928	525.06
415.151	549.06
415.374	538.06
415.597	533.06
415.821	548.06
416.044	509.06
416.267	522.06
416.49	527.06
416.713	536.06
416.936	533.06
417.159	522.06
417.382	536.06
417.605	524.06
417.828	544.06
418.051	562.06
418.274	534.06
418.497	535.06
418.72	542.06
418.943	520.06
419.166	540.06
419.389	571.06
419.611	570.06
419.834	581.06
420.057	567.06
420.28	555.06
420.503	576.06
420.726	557.06
420.948	552.06
421.171	605.06
421.394	620.06
421.617	581.06
421.839	541.06
422.062	546.06
422.285	556.06
422.507	614.06
422.73	689.06
422.953	658.06
423.175	620.06
423.398	591.06
423.621	544.06
423.843	595.06
424.066	595.06
424.288	577.06
424.511	606.06
424.733	657.06
424.956	697.06
425.178	704.06
425.401	702.06
425.623	702.06
425.846	610.06
426.068	562.06
426.291	590.06
426.513	572.06
426.735	604.06
426.958	597.06
427.18	660.06
427.402	824.06
427.625	872.06
427.847	750.06
428.069	682.06
428.292	585.06
428.514	564.06
428.736	539.06
428.958	537.06
429.181	527.06
429.403	532.06
429.625	531.06
429.847	562.06
430.069	612.06
430.292	585.06
430.514	544.06
430.736	525.06
430.958	530.06
431.18	482.06
431.402	504.06
431.624	500.06
431.846	516.06
432.068	500.06
432.29	507.06
432.512	505.06
432.734	523.06
432.956	497.06
433.178	506.06
433.4	523.06
433.622	500.06
433.844	487.06
434.066	504.06
434.287	522.06
434.509	514.06
434.731	504.06
434.953	518.06
435.175	539.06
435.397	567.06
435.618	578.06
435.84	625.06
436.062	674.06
436.284	748.06
436.505	633.06
436.727	572.06
436.949	526.06
437.17	529.06
437.392	514.06
437.614	492.06
437.835	541.06
438.057	644.06
438.278	762.06
438.5	690.06
438.721	791.06
438.943	752.06
439.165	600.06
439.386	565.06
439.608	576.06
439.829	567.06
440.05	594.06
440.272	650.06
440.493	589.06
440.715	564.06
440.936	558.06
441.158	529.06
441.379	545.06
441.6	572.06
441.822	566.06
442.043	612.06
442.264	685.06
442.486	729.06
442.707	617.06
442.928	608.06
443.149	588.06
443.371	608.06
443.592	653.06
443.813	745.06
444.034	776.06
444.255	646.06
444.476	603.06
444.698	617.06
444.919	594.06
445.14	722.06
445.361	659.06
445.582	622.06
445.803	668.06
446.024	761.06
446.245	762.06
446.466	706.06
446.687	598.06
446.908	572.06
447.129	544.06
447.35	523.06
447.571	538.06
447.792	500.06
448.013	519.06
448.234	511.06
448.455	581.06
448.675	680.06
448.896	786.06
449.117	662.06
449.338	617.06
449.559	719.06
449.779	820.06
450	658.06
450.221	562.06
450.442	509.06
450.662	500.06
450.883	500.06
451.104	532.06
451.324	510.06
451.545	482.06
451.766	479.06
451.986	454.06
452.207	470.06
452.428	478.06
452.648	480.06
452.869	473.06
453.089	477.06
453.31	472.06
453.53	487.06
453.751	462.06
453.971	466.06
454.192	459.06
454.412	483.06
454.633	414.06
454.853	440.06
455.073	428.06
455.294	490.06
455.514	560.06
455.734	526.06
455.955	473.06
456.175	455.06
456.395	432.06
456.616	433.06
456.836	427.06
457.056	419.06
457.276	426.06
457.497	444.06
457.717	446.06
457.937	454.06
458.157	456.06
458.377	473.06
458.598	496.06
458.818	552.06
459.038	603.06
459.258	633.06
459.478	555.06
459.698	518.06
459.918	525.06
460.138	524.06
460.358	501.06
460.578	536.06
460.798	541.06
461.018	543.06
461.238	544.06
461.458	545.06
461.678	523.06
461.898	541.06
462.118	537.06
462.338	556.06
462.558	564.06
462.777	566.06
462.997	591.06
463.217	612.06
463.437	631.06
463.657	572.06
463.876	572.06
464.096	574.06
464.316	578.06
464.536	580.06
464.755	565.06
464.975	586.06
465.195	610.06
465.414	646.06
465.634	596.06
465.854	544.06
466.073	504.06
466.293	501.06
466.512	493.06
466.732	475.06
466.951	495.06
467.171	488.06
467.391	494.06
467.61	505.06
467.829	516.06
468.049	512.06
468.268	493.06
468.488	465.06
468.707	469.06
468.927	459.06
469.146	472.06
469.365	467.06
469.585	473.06
469.804	497.06
470.023	495.06
470.243	492.06
470.462	473.06
470.681	506.06
470.901	508.06
471.12	505.06
471.339	499.06
471.558	504.06
471.777	475.06
471.997	493.06
472.216	473.06
472.435	533.06
472.654	522.06
472.873	519.06
473.092	477.06
473.311	500.06
473.53	487.06
473.749	487.06
473.968	531.06
474.187	613.06
474.406	654.06
474.625	526.06
474.844	487.06
475.063	484.06
475.282	479.06
475.501	501.06
475.72	486.06
475.939	491.06
476.158	491.06
476.377	499.06
476.596	506.06
476.814	506.06
477.033	513.06
477.252	540.06
477.471	493.06
477.69	526.06
477.908	522.06
478.127	526.06
478.346	518.06
478.564	533.06
478.783	537.06
479.002	579.06
479.22	573.06
479.439	590.06
479.658	561.06
479.876	600.06
480.095	599.06
480.313	631.06
480.532	630.06
480.751	599.06
480.969	624.06
481.188	672.06
481.406	725.06
481.624	629.06
481.843	588.06
482.061	568.06
482.28	570.06
482.498	594.06
482.717	582.06
482.935	584.06
483.153	574.06
483.372	562.06
483.59	573.06
483.808	565.06
484.027	554.06
484.245	566.06
484.463	577.06
484.681	578.06
484.9	569.06
485.118	566.06
485.336	578.06
485.554	575.06
485.772	584.06
485.99	590.06
486.209	591.06
486.427	593.06
486.645	591.06
486.863	584.06
487.081	596.06
487.299	600.06
487.517	610.06
487.735	620.06
487.953	605.06
488.171	598.06
488.389	596.06
488.607	602.06
488.825	616.06
489.043	588.06
489.261	596.06
489.479	605.06
489.696	618.06
489.914	619.06
490.132	640.06
490.35	620.06
490.568	656.06
490.786	651.06
491.003	634.06
491.221	648.06
491.439	675.06
491.657	678.06
491.874	718.06
492.092	704.06
492.31	683.06
492.527	681.06
492.745	698.06
492.963	716.06
493.18	700.06
493.398	710.06
493.615	728.06
493.833	739.06
494.05	705.06
494.268	706.06
494.485	713.06
494.703	721.06
494.92	706.06
495.138	711.06
495.355	717.06
495.573	706.06
495.79	730.06
496.008	714.06
496.225	721.06
496.442	708.06
496.66	718.06
496.877	729.06
497.094	731.06
497.312	730.06
497.529	755.06
497.746	755.06
497.963	778.06
498.181	798.06
498.398	819.06
498.615	846.06
498.832	877.06
499.049	877.06
499.267	892.06
499.484	948.06
499.701	954.06
499.918	1042.06
500.135	1139.06
500.352	1182.06
500.569	1198.06
500.786	1223.06
501.003	1186.06
501.22	1078.06
501.437	1082.06
501.654	996.06
501.871	985.06
502.088	948.06
502.305	881.06
502.522	848.06
502.739	849.06
502.956	805.06
503.172	790.06
503.389	765.06
503.606	761.06
503.823	776.06
504.04	758.06
504.256	709.06
504.473	729.06
504.69	737.06
504.907	722.06
505.123	725.06
505.34	709.06
505.557	701.06
505.773	688.06
505.99	686.06
506.207	692.06
506.423	682.06
506.64	650.06
506.856	648.06
507.073	662.06
507.289	667.06
507.506	627.06
507.722	666.06
507.939	683.06
508.155	630.06
508.372	638.06
508.588	616.06
508.805	629.06
509.021	623.06
509.238	660.06
509.454	657.06
509.67	620.06
509.887	647.06
510.103	640.06
510.319	645.06
510.536	713.06
510.752	1180.06
510.968	969.06
511.184	654.06
511.401	630.06
511.617	591.06
511.833	626.06
512.049	618.06
512.265	592.06
512.481	581.06
512.698	589.06
512.914	585.06
513.13	598.06
513.346	604.06
513.562	600.06
513.778	611.06
513.994	606.06
514.21	609.06
514.426	617.06
514.642	638.06
514.858	680.06
515.074	709.06
515.29	834.06
515.506	1218.06
515.721	1032.06
515.937	746.06
516.153	656.06
516.369	644.06
516.585	661.06
516.801	640.06
517.016	637.06
517.232	620.06
517.448	652.06
517.664	667.06
517.879	668.06
518.095	665.06
518.311	692.06
518.527	664.06
518.742	662.06
518.958	618.06
519.173	642.06
519.389	638.06
519.605	615.06
519.82	602.06
520.036	609.06
520.251	622.06
520.467	653.06
520.682	663.06
520.898	670.06
521.113	639.06
521.329	694.06
521.544	786.06
521.76	944.06
521.975	1544.06
522.19	1596.06
522.406	893.06
522.621	670.06
522.836	605.06
523.052	584.06
523.267	558.06
523.482	567.06
523.698	539.06
523.913	558.06
524.128	566.06
524.343	544.06
524.559	500.06
524.774	514.06
524.989	532.06
525.204	523.06
525.419	506.06
525.634	499.06
525.849	498.06
526.064	514.06
526.28	517.06
526.495	497.06
526.71	483.06
526.925	472.06
527.14	482.06
527.355	502.06
527.57	494.06
527.785	470.06
527.999	484.06
528.214	496.06
528.429	510.06
528.644	491.06
528.859	496.06
529.074	485.06
529.289	526.06
529.503	602.06
529.718	555.06
529.933	526.06
530.148	523.06
530.363	508.06
530.577	487.06
530.792	480.06
531.007	468.06
531.221	498.06
531.436	476.06
531.651	474.06
531.865	482.06
532.08	480.06
532.295	490.06
532.509	471.06
532.724	465.06
532.938	470.06
533.153	486.06
533.367	474.06
533.582	505.06
533.796	482.06
534.011	474.06
534.225	463.06
534.44	466.06
534.654	466.06
534.868	446.06
535.083	467.06
535.297	474.06
535.511	457.06
535.726	476.06
535.94	460.06
536.154	465.06
536.369	461.06
536.583	474.06
536.797	468.06
537.011	437.06
537.225	452.06
537.44	463.06
537.654	436.06
537.868	437.06
538.082	466.06
538.296	468.06
538.51	445.06
538.724	462.06
538.938	453.06
539.153	442.06
539.367	433.06
539.581	465.06
539.795	465.06
540.009	435.06
540.222	440.06
540.436	465.06
540.65	464.06
540.864	462.06
541.078	457.06
541.292	468.06
541.506	458.06
541.72	464.06
541.934	476.06
542.147	447.06
542.361	456.06
542.575	433.06
542.789	450.06
543.002	460.06
543.216	458.06
543.43	444.06
543.644	462.06
543.857	462.06
544.071	443.06
544.285	445.06
544.498	447.06
544.712	444.06
544.925	453.06
545.139	450.06
545.352	428.06
545.566	429.06
545.779	440.06
545.993	449.06
546.206	459.06
546.42	440.06
546.633	436.06
546.847	429.06
547.06	450.06
547.274	425.06
547.487	462.06
547.7	427.06
547.914	417.06
548.127	430.06
548.34	444.06
548.554	442.06
548.767	421.06
548.98	440.06
549.193	429.06
549.407	434.06
549.62	446.06
549.833	437.06
550.046	450.06
550.259	437.06
550.473	443.06
550.686	443.06
550.899	435.06
551.112	412.06
551.325	427.06
551.538	425.06
551.751	402.06
551.964	439.06
552.177	436.06
552.39	435.06
552.603	442.06
552.816	453.06
553.029	436.06
553.242	458.06
553.455	459.06
553.667	481.06
553.88	452.06
554.093	459.06
554.306	451.06
554.519	444.06
554.732	432.06
554.944	423.06
555.157	424.06
555.37	432.06
555.583	405.06
555.795	432.06
556.008	417.06
556.221	397.06
556.433	399.06
556.646	408.06
556.859	405.06
557.071	387.06
557.284	392.06
557.496	380.06
557.709	395.06
557.921	391.06
558.134	382.06
558.346	395.06
558.559	407.06
558.771	397.06
558.984	396.06
559.196	379.06
559.409	383.06
559.621	375.06
559.833	389.06
560.046	374.06
560.258	378.06
560.47	388.06
560.683	379.06
560.895	394.06
561.107	378.06
561.32	380.06
561.532	388.06
561.744	389.06
561.956	381.06
562.168	386.06
562.381	394.06
562.593	377.06
562.805	363.06
563.017	381.06
563.229	396.06
563.441	385.06
563.653	403.06
563.865	388.06
564.077	385.06
564.289	390.06
564.501	388.06
564.713	410.06
564.925	412.06
565.137	416.06
565.349	423.06
565.561	420.06
565.773	452.06
565.985	429.06
566.197	448.06
566.408	454.06
566.62	496.06
566.832	522.06
567.044	509.06
567.255	505.06
567.467	529.06
567.679	548.06
567.891	534.06
568.102	561.06
568.314	550.06
568.526	513.06
568.737	488.06
568.949	483.06
569.161	444.06
569.372	455.06
569.584	425.06
569.795	412.06
570.007	409.06
570.218	461.06
570.43	434.06
570.641	408.06
570.853	385.06
571.064	394.06
571.276	390.06
571.487	370.06
571.698	362.06
571.91	366.06
572.121	357.06
572.333	353.06
572.544	351.06
572.755	343.06
572.966	364.06
573.178	354.06
573.389	340.06
573.6	324.06
573.811	333.06
574.023	322.06
574.234	331.06
574.445	348.06
574.656	317.06
574.867	315.06
575.078	344.06
575.289	337.06
575.501	336.06
575.712	348.06
575.923	331.06
576.134	321.06
576.345	321.06
576.556	319.06
576.767	334.06
576.978	318.06
577.188	311.06
577.399	335.06
577.61	333.06
577.821	322.06
578.032	324.06
578.243	356.06
578.454	554.06
578.665	402.06
578.875	307.06
579.086	308.06
579.297	296.06
579.508	318.06
579.718	312.06
579.929	304.06
580.14	295.06
580.35	305.06
580.561	308.06
580.772	295.06
580.982	309.06
581.193	288.06
581.403	299.06
581.614	288.06
581.825	292.06
582.035	292.06
582.246	300.06
582.456	292.06
582.667	294.06
582.877	301.06
583.087	276.06
583.298	283.06
583.508	289.06
583.719	301.06
583.929	294.06
584.139	286.06
584.35	285.06
584.56	288.06
584.77	296.06
584.981	284.06
585.191	298.06
585.401	285.06
585.611	276.06
585.821	271.06
586.032	315.06
586.242	292.06
586.452	302.06
586.662	273.06
586.872	285.06
587.082	270.06
587.292	278.06
587.502	290.06
587.713	273.06
587.923	299.06
588.133	300.06
588.343	271.06
588.553	278.06
588.762	283.06
588.972	292.06
589.182	296.06
589.392	296.06
589.602	281.06
589.812	289.06
590.022	289.06
590.232	300.06
590.441	276.06
590.651	305.06
590.861	290.06
591.071	289.06
591.281	282.06
591.49	297.06
591.7	310.06
591.91	314.06
592.119	309.06
592.329	332.06
592.539	311.06
592.748	325.06
592.958	319.06
593.167	300.06
593.377	320.06
593.587	314.06
593.796	318.06
594.006	311.06
594.215	320.06
594.424	315.06
594.634	329.06
594.843	318.06
595.053	307.06
595.262	297.06
595.472	272.06
595.681	295.06
595.89	293.06
596.1	289.06
596.309	274.06
596.518	280.06
596.727	272.06
596.937	282.06
597.146	295.06
597.355	279.06
597.564	259.06
597.774	267.06
597.983	266.06
598.192	259.06
598.401	259.06
598.61	258.06
598.819	246.06
599.028	269.06
599.237	259.06
599.446	252.06
599.655	257.06
599.864	256.06
600.073	249.06
600.282	237.06
600.491	264.06
600.7	256.06
600.909	266.06
601.118	256.06
601.327	250.06
601.536	235.06
601.745	240.06
601.953	242.06
602.162	247.06
602.371	244.06
602.58	249.06
602.789	242.06
602.997	244.06
603.206	247.06
603.415	242.06
603.623	251.06
603.832	242.06
604.041	252.06
604.249	232.06
604.458	232.06
604.666	247.06
604.875	245.06
605.084	230.06
605.292	229.06
605.501	240.06
605.709	235.06
605.918	239.06
606.126	225.06
606.334	233.06
606.543	248.06
606.751	229.06
606.96	227.06
607.168	231.06
607.376	218.06
607.585	224.06
607.793	220.06
608.001	227.06
608.21	232.06
608.418	231.06
608.626	226.06
608.834	237.06
609.043	236.06
609.251	218.06
609.459	227.06
609.667	227.06
609.875	230.06
610.083	222.06
610.291	240.06
610.499	247.06
610.707	233.06
610.916	242.06
611.124	247.06
611.332	229.06
611.54	244.06
611.748	228.06
611.955	230.06
612.163	212.06
612.371	240.06
612.579	231.06
612.787	229.06
612.995	224.06
613.203	225.06
613.411	222.06
613.618	248.06
613.826	226.06
614.034	233.06
614.242	249.06
614.449	229.06
614.657	226.06
614.865	231.06
615.072	216.06
615.28	220.06
615.488	217.06
615.695	219.06
615.903	227.06
616.111	218.06
616.318	224.06
616.526	215.06
616.733	233.06
616.941	235.06
617.148	225.06
617.356	240.06
617.563	223.06
617.771	227.06
617.978	232.06
618.185	236.06
618.393	234.06
618.6	236.06
618.807	242.06
619.015	214.06
619.222	216.06
619.429	223.06
619.637	244.06
619.844	212.06
620.051	224.06
620.258	227.06
620.466	214.06
620.673	214.06
620.88	203.06
621.087	218.06
621.294	214.06
621.501	215.06
621.708	201.06
621.915	209.06
622.122	206.06
622.329	217.06
622.536	204.06
622.743	210.06
622.95	217.06
623.157	216.06
623.364	222.06
623.571	211.06
623.778	218.06
623.985	216.06
624.192	203.06
624.399	214.06
624.606	211.06
624.812	220.06
625.019	210.06
625.226	188.06
625.433	218.06
625.639	211.06
625.846	202.06
626.053	192.06
626.259	204.06
626.466	193.06
626.673	195.06
626.879	203.06
627.086	205.06
627.293	198.06
627.499	182.06
627.706	212.06
627.912	202.06
628.119	200.06
628.325	206.06
628.532	206.06
628.738	205.06
628.945	189.06
629.151	193.06
629.357	186.06
629.564	201.06
629.77	204.06
629.976	190.06
630.183	201.06
630.389	179.06
630.595	176.06
630.802	196.06
631.008	214.06
631.214	191.06
631.42	177.06
631.627	181.06
631.833	174.06
632.039	194.06
632.245	202.06
632.451	179.06
632.657	187.06
632.863	173.06
633.069	185.06
633.275	189.06
633.481	175.06
633.688	180.06
633.893	192.06
634.099	169.06
634.305	166.06
634.511	187.06
634.717	177.06
634.923	162.06
635.129	205.06
635.335	174.06
635.541	171.06
635.747	169.06
635.952	166.06
636.158	186.06
636.364	168.06
636.57	176.06
636.775	179.06
636.981	180.06
637.187	176.06
637.392	171.06
637.598	176.06
637.804	184.06
638.009	176.06
638.215	165.06
638.421	171.06
638.626	174.06
638.832	157.06
639.037	181.06
639.243	166.06
639.448	152.06
639.654	169.06
639.859	166.06
640.065	164.06
640.27	169.06
640.475	161.06
640.681	148.06
640.886	155.06
641.091	163.06
641.297	172.06
641.502	170.06
641.707	171.06
641.913	178.06
642.118	162.06
642.323	155.06
642.528	166.06
642.733	162.06
642.939	146.06
643.144	164.06
643.349	162.06
643.554	168.06
643.759	171.06
643.964	158.06
644.169	169.06
644.374	155.06
644.579	161.06
644.784	158.06
644.989	149.06
645.194	158.06
645.399	156.06
645.604	147.06
645.809	145.06
646.014	164.06
646.219	155.06
646.423	164.06
646.628	164.06
646.833	172.06
647.038	154.06
647.243	169.06
647.447	154.06
647.652	155.06
647.857	149.06
648.062	170.06
648.266	167.06
648.471	177.06
648.676	178.06
648.88	164.06
649.085	148.06
649.289	160.06
649.494	155.06
649.698	180.06
649.903	165.06
650.107	180.06
650.312	150.06
650.516	153.06
650.721	143.06
650.925	151.06
651.13	156.06
651.334	143.06
651.539	148.06
651.743	130.06
651.947	148.06
652.152	152.06
652.356	145.06
652.56	145.06
652.764	141.06
652.969	145.06
653.173	147.06
653.377	137.06
653.581	130.06
653.785	138.06
653.99	139.06
654.194	124.06
654.398	126.06
654.602	122.06
654.806	140.06
655.01	140.06
655.214	145.06
655.418	132.06
655.622	132.06
655.826	149.06
656.03	136.06
656.234	130.06
656.438	148.06
656.642	145.06
656.846	142.06
657.049	138.06
657.253	108.06
657.457	116.06
657.661	109.06
657.865	116.06
658.068	104.06
658.272	100.06
658.476	115.06
658.68	114.06
658.883	105.06
659.087	99.06
659.291	112.06
659.494	106.06
659.698	96.06
659.901	103.06
660.105	91.06
660.309	95.06
660.512	91.06
660.716	89.06
660.919	94.06
661.123	97.06
661.326	95.06
661.53	100.06
661.733	94.06
661.936	109.06
662.14	99.06
662.343	82.06
662.546	82.06
662.75	81.06
662.953	95.06
663.156	91.06
663.36	87.06
663.563	99.06
663.766	98.06
663.969	92.06
664.173	70.06
664.376	73.06
664.579	78.06
664.782	79.06
664.985	84.06
665.188	80.06
665.391	90.06
665.594	82.06
665.797	81.06
666	75.06
666.203	81.06
666.406	72.06
666.609	75.06
666.812	76.06
667.015	84.06
667.218	69.06
667.421	77.06
667.624	81.06
667.827	77.06
668.03	84.06
668.232	69.06
668.435	69.06
668.638	81.06
668.841	79.06
669.043	89.06
669.246	98.06
669.449	83.06
669.651	85.06
669.854	92.06
670.057	70.06
670.259	79.06
670.462	69.06
670.665	68.06
670.867	86.06
671.07	78.06
671.272	71.06
671.475	75.06
671.677	99.06
671.88	86.06
672.082	75.06
672.284	69.06
672.487	82.06
672.689	88.06
672.892	92.06
