Data from 1985.PennyLincolnUp.Lamp.En5.5.200Scan.071819.P1_HRD10591_17-03-32-971.txt Node
Date: Thu Jul 18 17:03:32 EDT 2019
User: cochatt
Spectrometer: HR+D1059
Trigger mode: 1
Integration Time (sec): 1.000000E-1
Scans to average: 1
Electric dark correction enabled: true
Nonlinearity correction enabled: false
Boxcar width: 0
XAxis mode: Wavelengths
Number of Pixels in Spectrum: 2048
>>>>>Begin Spectral Data<<<<<
223.165	-29.94
223.4	-29.94
223.635	-29.94
223.869	-10.94
224.104	-14.94
224.338	-11.94
224.573	-14.94
224.808	-15.94
225.042	2.06
225.277	-15.94
225.511	6.06
225.746	-11.94
225.98	14.06
226.215	5.06
226.449	15.06
226.683	22.06
226.918	30.06
227.152	32.06
227.387	30.06
227.621	39.06
227.856	33.06
228.09	46.06
228.324	64.06
228.559	58.06
228.793	82.06
229.027	96.06
229.262	107.06
229.496	124.06
229.73	125.06
229.964	149.06
230.199	127.06
230.433	126.06
230.667	112.06
230.901	101.06
231.136	100.06
231.37	113.06
231.604	109.06
231.838	113.06
232.072	129.06
232.306	100.06
232.541	109.06
232.775	110.06
233.009	124.06
233.243	106.06
233.477	124.06
233.711	116.06
233.945	122.06
234.179	111.06
234.413	114.06
234.647	127.06
234.881	126.06
235.115	122.06
235.349	123.06
235.583	129.06
235.817	110.06
236.051	121.06
236.285	130.06
236.519	130.06
236.753	146.06
236.987	144.06
237.221	173.06
237.455	238.06
237.689	190.06
237.922	152.06
238.156	142.06
238.39	136.06
238.624	132.06
238.858	128.06
239.091	148.06
239.325	124.06
239.559	123.06
239.793	129.06
240.027	138.06
240.26	136.06
240.494	156.06
240.728	152.06
240.961	164.06
241.195	137.06
241.429	137.06
241.662	144.06
241.896	140.06
242.13	145.06
242.363	144.06
242.597	143.06
242.83	151.06
243.064	143.06
243.298	142.06
243.531	157.06
243.765	155.06
243.998	144.06
244.232	169.06
244.465	156.06
244.699	156.06
244.932	146.06
245.166	136.06
245.399	150.06
245.633	144.06
245.866	159.06
246.099	145.06
246.333	161.06
246.566	147.06
246.8	146.06
247.033	158.06
247.266	167.06
247.5	174.06
247.733	173.06
247.966	182.06
248.2	182.06
248.433	178.06
248.666	198.06
248.899	191.06
249.133	204.06
249.366	208.06
249.599	198.06
249.832	181.06
250.066	183.06
250.299	210.06
250.532	204.06
250.765	217.06
250.998	221.06
251.231	240.06
251.465	228.06
251.698	206.06
251.931	201.06
252.164	207.06
252.397	191.06
252.63	192.06
252.863	199.06
253.096	232.06
253.329	231.06
253.562	219.06
253.795	211.06
254.028	223.06
254.261	206.06
254.494	222.06
254.727	258.06
254.96	301.06
255.193	270.06
255.426	253.06
255.659	248.06
255.892	246.06
256.124	239.06
256.357	253.06
256.59	234.06
256.823	221.06
257.056	221.06
257.289	218.06
257.521	221.06
257.754	201.06
257.987	215.06
258.22	219.06
258.452	206.06
258.685	232.06
258.918	213.06
259.151	218.06
259.383	227.06
259.616	220.06
259.849	225.06
260.081	239.06
260.314	269.06
260.547	266.06
260.779	250.06
261.012	232.06
261.244	237.06
261.477	247.06
261.71	224.06
261.942	232.06
262.175	245.06
262.407	238.06
262.64	238.06
262.872	227.06
263.105	240.06
263.337	230.06
263.57	231.06
263.802	234.06
264.035	231.06
264.267	225.06
264.499	217.06
264.732	218.06
264.964	245.06
265.197	231.06
265.429	232.06
265.661	248.06
265.894	225.06
266.126	238.06
266.358	235.06
266.591	241.06
266.823	238.06
267.055	241.06
267.287	254.06
267.52	237.06
267.752	251.06
267.984	256.06
268.216	247.06
268.448	259.06
268.681	265.06
268.913	264.06
269.145	288.06
269.377	303.06
269.609	280.06
269.841	293.06
270.073	301.06
270.306	290.06
270.538	335.06
270.77	325.06
271.002	316.06
271.234	325.06
271.466	327.06
271.698	340.06
271.93	331.06
272.162	316.06
272.394	326.06
272.626	323.06
272.858	332.06
273.09	312.06
273.322	298.06
273.553	301.06
273.785	270.06
274.017	281.06
274.249	294.06
274.481	289.06
274.713	280.06
274.945	286.06
275.176	295.06
275.408	301.06
275.64	297.06
275.872	288.06
276.104	310.06
276.335	293.06
276.567	289.06
276.799	311.06
277.031	344.06
277.262	336.06
277.494	346.06
277.726	335.06
277.957	351.06
278.189	304.06
278.421	301.06
278.652	299.06
278.884	313.06
279.115	309.06
279.347	290.06
279.579	304.06
279.81	296.06
280.042	294.06
280.273	304.06
280.505	297.06
280.736	297.06
280.968	305.06
281.199	304.06
281.431	300.06
281.662	301.06
281.894	313.06
282.125	315.06
282.356	314.06
282.588	345.06
282.819	332.06
283.051	329.06
283.282	315.06
283.513	322.06
283.745	318.06
283.976	324.06
284.207	338.06
284.439	329.06
284.67	314.06
284.901	320.06
285.132	316.06
285.364	304.06
285.595	329.06
285.826	315.06
286.057	320.06
286.288	339.06
286.52	341.06
286.751	307.06
286.982	324.06
287.213	327.06
287.444	330.06
287.675	341.06
287.906	334.06
288.138	338.06
288.369	342.06
288.6	330.06
288.831	332.06
289.062	342.06
289.293	338.06
289.524	344.06
289.755	329.06
289.986	335.06
290.217	328.06
290.448	322.06
290.679	341.06
290.91	324.06
291.141	334.06
291.371	345.06
291.602	318.06
291.833	330.06
292.064	339.06
292.295	321.06
292.526	315.06
292.757	346.06
292.987	331.06
293.218	303.06
293.449	335.06
293.68	334.06
293.91	359.06
294.141	333.06
294.372	358.06
294.603	353.06
294.833	332.06
295.064	337.06
295.295	338.06
295.525	332.06
295.756	357.06
295.987	354.06
296.217	386.06
296.448	377.06
296.679	370.06
296.909	364.06
297.14	337.06
297.37	337.06
297.601	341.06
297.831	349.06
298.062	366.06
298.292	349.06
298.523	352.06
298.753	354.06
298.984	352.06
299.214	356.06
299.445	356.06
299.675	364.06
299.905	368.06
300.136	361.06
300.366	340.06
300.597	361.06
300.827	368.06
301.057	386.06
301.288	385.06
301.518	385.06
301.748	393.06
301.979	377.06
302.209	390.06
302.439	384.06
302.669	396.06
302.9	394.06
303.13	366.06
303.36	394.06
303.59	386.06
303.82	383.06
304.051	379.06
304.281	383.06
304.511	389.06
304.741	387.06
304.971	382.06
305.201	370.06
305.431	377.06
305.661	373.06
305.891	365.06
306.121	372.06
306.352	399.06
306.582	380.06
306.812	374.06
307.042	386.06
307.272	390.06
307.502	389.06
307.731	379.06
307.961	378.06
308.191	380.06
308.421	378.06
308.651	387.06
308.881	401.06
309.111	396.06
309.341	397.06
309.571	408.06
309.8	388.06
310.03	411.06
310.26	436.06
310.49	433.06
310.72	421.06
310.949	465.06
311.179	425.06
311.409	432.06
311.639	417.06
311.868	447.06
312.098	428.06
312.328	442.06
312.557	444.06
312.787	485.06
313.017	455.06
313.246	423.06
313.476	438.06
313.706	462.06
313.935	456.06
314.165	461.06
314.394	448.06
314.624	458.06
314.853	444.06
315.083	442.06
315.312	424.06
315.542	428.06
315.771	414.06
316.001	416.06
316.23	423.06
316.46	436.06
316.689	442.06
316.919	434.06
317.148	443.06
317.377	433.06
317.607	449.06
317.836	453.06
318.065	438.06
318.295	440.06
318.524	428.06
318.753	422.06
318.983	426.06
319.212	432.06
319.441	443.06
319.67	448.06
319.9	454.06
320.129	422.06
320.358	450.06
320.587	434.06
320.816	444.06
321.046	458.06
321.275	457.06
321.504	468.06
321.733	473.06
321.962	477.06
322.191	456.06
322.42	489.06
322.649	489.06
322.878	481.06
323.108	518.06
323.337	516.06
323.566	522.06
323.795	560.06
324.024	629.06
324.253	743.06
324.482	1003.06
324.71	1534.06
324.939	2160.06
325.168	1839.06
325.397	970.06
325.626	698.06
325.855	606.06
326.084	568.06
326.313	538.06
326.542	557.06
326.77	596.06
326.999	699.06
327.228	916.06
327.457	1352.06
327.686	1644.06
327.914	1083.06
328.143	746.06
328.372	686.06
328.6	617.06
328.829	618.06
329.058	636.06
329.287	642.06
329.515	608.06
329.744	555.06
329.972	553.06
330.201	591.06
330.43	598.06
330.658	629.06
330.887	654.06
331.115	676.06
331.344	581.06
331.572	555.06
331.801	545.06
332.03	569.06
332.258	554.06
332.486	527.06
332.715	528.06
332.943	546.06
333.172	534.06
333.4	560.06
333.629	562.06
333.857	575.06
334.085	572.06
334.314	585.06
334.542	616.06
334.771	620.06
334.999	573.06
335.227	539.06
335.455	544.06
335.684	529.06
335.912	530.06
336.14	526.06
336.369	531.06
336.597	526.06
336.825	538.06
337.053	511.06
337.281	516.06
337.51	510.06
337.738	504.06
337.966	510.06
338.194	498.06
338.422	515.06
338.65	516.06
338.878	520.06
339.106	490.06
339.334	505.06
339.562	470.06
339.79	485.06
340.018	496.06
340.246	470.06
340.474	495.06
340.702	485.06
340.93	485.06
341.158	478.06
341.386	498.06
341.614	517.06
341.842	487.06
342.07	470.06
342.298	492.06
342.526	487.06
342.754	464.06
342.981	461.06
343.209	478.06
343.437	486.06
343.665	505.06
343.893	529.06
344.12	527.06
344.348	520.06
344.576	520.06
344.804	492.06
345.031	506.06
345.259	512.06
345.487	480.06
345.714	502.06
345.942	473.06
346.17	478.06
346.397	456.06
346.625	475.06
346.853	472.06
347.08	441.06
347.308	464.06
347.535	472.06
347.763	463.06
347.99	481.06
348.218	480.06
348.445	507.06
348.673	463.06
348.9	447.06
349.128	470.06
349.355	448.06
349.583	466.06
349.81	445.06
350.037	460.06
350.265	461.06
350.492	456.06
350.72	457.06
350.947	475.06
351.174	480.06
351.402	485.06
351.629	463.06
351.856	478.06
352.083	452.06
352.311	470.06
352.538	473.06
352.765	476.06
352.992	473.06
353.22	467.06
353.447	457.06
353.674	461.06
353.901	429.06
354.128	468.06
354.355	440.06
354.583	434.06
354.81	459.06
355.037	437.06
355.264	436.06
355.491	432.06
355.718	434.06
355.945	422.06
356.172	423.06
356.399	438.06
356.626	415.06
356.853	446.06
357.08	446.06
357.307	424.06
357.534	440.06
357.761	433.06
357.988	460.06
358.215	429.06
358.441	427.06
358.668	433.06
358.895	430.06
359.122	448.06
359.349	433.06
359.576	461.06
359.802	491.06
360.029	503.06
360.256	530.06
360.483	490.06
360.709	471.06
360.936	474.06
361.163	474.06
361.39	456.06
361.616	482.06
361.843	437.06
362.07	455.06
362.296	456.06
362.523	452.06
362.749	454.06
362.976	445.06
363.203	446.06
363.429	422.06
363.656	431.06
363.882	471.06
364.109	464.06
364.335	423.06
364.562	439.06
364.788	440.06
365.015	425.06
365.241	454.06
365.468	464.06
365.694	458.06
365.92	443.06
366.147	425.06
366.373	445.06
366.599	446.06
366.826	431.06
367.052	426.06
367.278	444.06
367.505	447.06
367.731	437.06
367.957	448.06
368.184	447.06
368.41	432.06
368.636	460.06
368.862	462.06
369.089	457.06
369.315	437.06
369.541	438.06
369.767	427.06
369.993	434.06
370.219	427.06
370.445	442.06
370.672	471.06
370.898	440.06
371.124	453.06
371.35	444.06
371.576	461.06
371.802	442.06
372.028	418.06
372.254	436.06
372.48	458.06
372.706	434.06
372.932	432.06
373.158	452.06
373.384	452.06
373.61	449.06
373.835	429.06
374.061	440.06
374.287	460.06
374.513	449.06
374.739	458.06
374.965	458.06
375.191	451.06
375.416	460.06
375.642	444.06
375.868	454.06
376.094	453.06
376.319	432.06
376.545	440.06
376.771	437.06
376.997	423.06
377.222	425.06
377.448	429.06
377.674	432.06
377.899	437.06
378.125	427.06
378.35	436.06
378.576	427.06
378.802	436.06
379.027	419.06
379.253	444.06
379.478	436.06
379.704	442.06
379.929	431.06
380.155	431.06
380.38	450.06
380.606	444.06
380.831	425.06
381.057	464.06
381.282	454.06
381.507	442.06
381.733	449.06
381.958	446.06
382.184	429.06
382.409	442.06
382.634	454.06
382.86	460.06
383.085	452.06
383.31	474.06
383.535	446.06
383.761	484.06
383.986	462.06
384.211	471.06
384.436	500.06
384.662	478.06
384.887	471.06
385.112	469.06
385.337	470.06
385.562	474.06
385.787	483.06
386.013	506.06
386.238	498.06
386.463	485.06
386.688	481.06
386.913	473.06
387.138	491.06
387.363	477.06
387.588	471.06
387.813	477.06
388.038	478.06
388.263	503.06
388.488	500.06
388.713	482.06
388.938	497.06
389.163	491.06
389.387	492.06
389.612	492.06
389.837	479.06
390.062	484.06
390.287	479.06
390.512	485.06
390.736	478.06
390.961	494.06
391.186	479.06
391.411	481.06
391.636	473.06
391.86	514.06
392.085	522.06
392.31	518.06
392.534	491.06
392.759	502.06
392.984	486.06
393.208	498.06
393.433	483.06
393.658	500.06
393.882	493.06
394.107	480.06
394.331	493.06
394.556	486.06
394.78	514.06
395.005	500.06
395.229	487.06
395.454	511.06
395.678	516.06
395.903	534.06
396.127	540.06
396.352	521.06
396.576	516.06
396.801	514.06
397.025	500.06
397.249	523.06
397.474	537.06
397.698	529.06
397.922	569.06
398.147	556.06
398.371	575.06
398.595	548.06
398.82	564.06
399.044	581.06
399.268	606.06
399.492	667.06
399.717	706.06
399.941	719.06
400.165	712.06
400.389	723.06
400.613	643.06
400.837	586.06
401.062	576.06
401.286	597.06
401.51	564.06
401.734	568.06
401.958	602.06
402.182	587.06
402.406	598.06
402.63	573.06
402.854	584.06
403.078	591.06
403.302	622.06
403.526	616.06
403.75	605.06
403.974	621.06
404.198	641.06
404.422	606.06
404.645	607.06
404.869	614.06
405.093	647.06
405.317	676.06
405.541	713.06
405.765	642.06
405.988	630.06
406.212	598.06
406.436	642.06
406.66	656.06
406.883	634.06
407.107	694.06
407.331	684.06
407.555	798.06
407.778	786.06
408.002	713.06
408.226	653.06
408.449	645.06
408.673	672.06
408.896	672.06
409.12	703.06
409.344	666.06
409.567	612.06
409.791	588.06
410.014	583.06
410.238	574.06
410.461	570.06
410.685	607.06
410.908	604.06
411.132	623.06
411.355	690.06
411.578	639.06
411.802	579.06
412.025	576.06
412.249	599.06
412.472	632.06
412.695	655.06
412.919	640.06
413.142	594.06
413.365	568.06
413.589	565.06
413.812	557.06
414.035	556.06
414.258	539.06
414.482	553.06
414.705	552.06
414.928	561.06
415.151	557.06
415.374	539.06
415.597	550.06
415.821	542.06
416.044	538.06
416.267	551.06
416.49	534.06
416.713	544.06
416.936	556.06
417.159	539.06
417.382	553.06
417.605	569.06
417.828	575.06
418.051	603.06
418.274	566.06
418.497	550.06
418.72	573.06
418.943	574.06
419.166	577.06
419.389	587.06
419.611	575.06
419.834	584.06
420.057	581.06
420.28	592.06
420.503	572.06
420.726	580.06
420.948	600.06
421.171	598.06
421.394	637.06
421.617	594.06
421.839	576.06
422.062	575.06
422.285	578.06
422.507	638.06
422.73	701.06
422.953	688.06
423.175	608.06
423.398	628.06
423.621	586.06
423.843	631.06
424.066	637.06
424.288	598.06
424.511	629.06
424.733	679.06
424.956	745.06
425.178	713.06
425.401	695.06
425.623	728.06
425.846	633.06
426.068	588.06
426.291	591.06
426.513	586.06
426.735	593.06
426.958	633.06
427.18	731.06
427.402	836.06
427.625	937.06
427.847	794.06
428.069	721.06
428.292	610.06
428.514	580.06
428.736	555.06
428.958	568.06
429.181	556.06
429.403	528.06
429.625	541.06
429.847	588.06
430.069	642.06
430.292	630.06
430.514	562.06
430.736	548.06
430.958	548.06
431.18	526.06
431.402	502.06
431.624	500.06
431.846	523.06
432.068	533.06
432.29	541.06
432.512	527.06
432.734	541.06
432.956	527.06
433.178	562.06
433.4	538.06
433.622	528.06
433.844	548.06
434.066	524.06
434.287	517.06
434.509	535.06
434.731	541.06
434.953	565.06
435.175	555.06
435.397	611.06
435.618	587.06
435.84	629.06
436.062	704.06
436.284	766.06
436.505	651.06
436.727	586.06
436.949	557.06
437.17	567.06
437.392	545.06
437.614	532.06
437.835	579.06
438.057	681.06
438.278	762.06
438.5	759.06
438.721	846.06
438.943	779.06
439.165	645.06
439.386	594.06
439.608	568.06
439.829	583.06
440.05	610.06
440.272	644.06
440.493	623.06
440.715	590.06
440.936	559.06
441.158	540.06
441.379	526.06
441.6	554.06
441.822	576.06
442.043	621.06
442.264	730.06
442.486	775.06
442.707	603.06
442.928	593.06
443.149	616.06
443.371	662.06
443.592	674.06
443.813	794.06
444.034	823.06
444.255	697.06
444.476	641.06
444.698	635.06
444.919	609.06
445.14	742.06
445.361	670.06
445.582	674.06
445.803	723.06
446.024	807.06
446.245	784.06
446.466	730.06
446.687	630.06
446.908	581.06
447.129	542.06
447.35	548.06
447.571	529.06
447.792	510.06
448.013	540.06
448.234	570.06
448.455	630.06
448.675	741.06
448.896	822.06
449.117	702.06
449.338	640.06
449.559	767.06
449.779	856.06
450	671.06
450.221	568.06
450.442	549.06
450.662	520.06
450.883	521.06
451.104	535.06
451.324	528.06
451.545	513.06
451.766	505.06
451.986	482.06
452.207	462.06
452.428	455.06
452.648	474.06
452.869	531.06
453.089	492.06
453.31	500.06
453.53	463.06
453.751	494.06
453.971	479.06
454.192	518.06
454.412	492.06
454.633	482.06
454.853	485.06
455.073	483.06
455.294	496.06
455.514	589.06
455.734	539.06
455.955	477.06
456.175	462.06
456.395	442.06
456.616	450.06
456.836	458.06
457.056	447.06
457.276	424.06
457.497	462.06
457.717	462.06
457.937	458.06
458.157	497.06
458.377	489.06
458.598	493.06
458.818	571.06
459.038	641.06
459.258	645.06
459.478	559.06
459.698	540.06
459.918	530.06
460.138	527.06
460.358	554.06
460.578	561.06
460.798	551.06
461.018	541.06
461.238	556.06
461.458	555.06
461.678	551.06
461.898	555.06
462.118	550.06
462.338	583.06
462.558	568.06
462.777	587.06
462.997	611.06
463.217	637.06
463.437	630.06
463.657	615.06
463.876	641.06
464.096	596.06
464.316	592.06
464.536	603.06
464.755	608.06
464.975	604.06
465.195	621.06
465.414	715.06
465.634	580.06
465.854	555.06
466.073	537.06
466.293	509.06
466.512	524.06
466.732	496.06
466.951	501.06
467.171	521.06
467.391	507.06
467.61	519.06
467.829	526.06
468.049	501.06
468.268	530.06
468.488	504.06
468.707	472.06
468.927	493.06
469.146	480.06
469.365	492.06
469.585	503.06
469.804	500.06
470.023	505.06
470.243	516.06
470.462	512.06
470.681	535.06
470.901	533.06
471.12	519.06
471.339	496.06
471.558	502.06
471.777	505.06
471.997	501.06
472.216	525.06
472.435	537.06
472.654	503.06
472.873	492.06
473.092	489.06
473.311	501.06
473.53	476.06
473.749	511.06
473.968	552.06
474.187	642.06
474.406	681.06
474.625	566.06
474.844	544.06
475.063	495.06
475.282	483.06
475.501	460.06
475.72	496.06
475.939	508.06
476.158	514.06
476.377	536.06
476.596	499.06
476.814	526.06
477.033	537.06
477.252	534.06
477.471	534.06
477.69	555.06
477.908	545.06
478.127	543.06
478.346	567.06
478.564	562.06
478.783	562.06
479.002	589.06
479.22	596.06
479.439	589.06
479.658	619.06
479.876	604.06
480.095	644.06
480.313	658.06
480.532	645.06
480.751	618.06
480.969	632.06
481.188	671.06
481.406	717.06
481.624	636.06
481.843	599.06
482.061	604.06
482.28	569.06
482.498	582.06
482.717	567.06
482.935	607.06
483.153	612.06
483.372	586.06
483.59	581.06
483.808	562.06
484.027	570.06
484.245	590.06
484.463	593.06
484.681	624.06
484.9	600.06
485.118	606.06
485.336	612.06
485.554	630.06
485.772	605.06
485.99	620.06
486.209	621.06
486.427	630.06
486.645	620.06
486.863	670.06
487.081	639.06
487.299	620.06
487.517	633.06
487.735	639.06
487.953	608.06
488.171	619.06
488.389	628.06
488.607	605.06
488.825	631.06
489.043	610.06
489.261	619.06
489.479	636.06
489.696	630.06
489.914	611.06
490.132	650.06
490.35	656.06
490.568	634.06
490.786	675.06
491.003	655.06
491.221	674.06
491.439	696.06
491.657	694.06
491.874	714.06
492.092	700.06
492.31	725.06
492.527	734.06
492.745	731.06
492.963	739.06
493.18	726.06
493.398	743.06
493.615	727.06
493.833	731.06
494.05	734.06
494.268	736.06
494.485	725.06
494.703	749.06
494.92	749.06
495.138	748.06
495.355	740.06
495.573	749.06
495.79	747.06
496.008	738.06
496.225	760.06
496.442	744.06
496.66	758.06
496.877	759.06
497.094	745.06
497.312	732.06
497.529	784.06
497.746	802.06
497.963	796.06
498.181	839.06
498.398	856.06
498.615	862.06
498.832	904.06
499.049	926.06
499.267	931.06
499.484	974.06
499.701	1032.06
499.918	1083.06
500.135	1170.06
500.352	1257.06
500.569	1285.06
500.786	1258.06
501.003	1236.06
501.22	1144.06
501.437	1080.06
501.654	1048.06
501.871	996.06
502.088	967.06
502.305	942.06
502.522	908.06
502.739	862.06
502.956	849.06
503.172	819.06
503.389	809.06
503.606	806.06
503.823	815.06
504.04	768.06
504.256	773.06
504.473	760.06
504.69	771.06
504.907	762.06
505.123	742.06
505.34	734.06
505.557	694.06
505.773	714.06
505.99	692.06
506.207	695.06
506.423	710.06
506.64	685.06
506.856	693.06
507.073	678.06
507.289	673.06
507.506	683.06
507.722	671.06
507.939	688.06
508.155	686.06
508.372	659.06
508.588	638.06
508.805	632.06
509.021	644.06
509.238	667.06
509.454	642.06
509.67	651.06
509.887	666.06
510.103	668.06
510.319	673.06
510.536	744.06
510.752	1241.06
510.968	1018.06
511.184	666.06
511.401	638.06
511.617	634.06
511.833	627.06
512.049	625.06
512.265	616.06
512.481	628.06
512.698	619.06
512.914	613.06
513.13	612.06
513.346	620.06
513.562	610.06
513.778	618.06
513.994	648.06
514.21	630.06
514.426	641.06
514.642	675.06
514.858	714.06
515.074	772.06
515.29	870.06
515.506	1309.06
515.721	1112.06
515.937	742.06
516.153	708.06
516.369	668.06
516.585	681.06
516.801	683.06
517.016	674.06
517.232	676.06
517.448	677.06
517.664	699.06
517.879	715.06
518.095	674.06
518.311	689.06
518.527	664.06
518.742	668.06
518.958	676.06
519.173	625.06
519.389	630.06
519.605	630.06
519.82	637.06
520.036	646.06
520.251	672.06
520.467	656.06
520.682	709.06
520.898	665.06
521.113	674.06
521.329	728.06
521.544	812.06
521.76	991.06
521.975	1628.06
522.19	1664.06
522.406	923.06
522.621	715.06
522.836	649.06
523.052	611.06
523.267	604.06
523.482	574.06
523.698	593.06
523.913	576.06
524.128	564.06
524.343	554.06
524.559	538.06
524.774	540.06
524.989	536.06
525.204	535.06
525.419	551.06
525.634	558.06
525.849	542.06
526.064	533.06
526.28	536.06
526.495	521.06
526.71	520.06
526.925	513.06
527.14	540.06
527.355	534.06
527.57	509.06
527.785	519.06
527.999	527.06
528.214	507.06
528.429	529.06
528.644	521.06
528.859	532.06
529.074	530.06
529.289	536.06
529.503	624.06
529.718	594.06
529.933	558.06
530.148	537.06
530.363	510.06
530.577	503.06
530.792	497.06
531.007	497.06
531.221	500.06
531.436	527.06
531.651	502.06
531.865	495.06
532.08	483.06
532.295	484.06
532.509	484.06
532.724	522.06
532.938	493.06
533.153	501.06
533.367	498.06
533.582	487.06
533.796	487.06
534.011	505.06
534.225	474.06
534.44	496.06
534.654	503.06
534.868	469.06
535.083	502.06
535.297	484.06
535.511	477.06
535.726	487.06
535.94	493.06
536.154	485.06
536.369	476.06
536.583	478.06
536.797	472.06
537.011	476.06
537.225	464.06
537.44	470.06
537.654	475.06
537.868	438.06
538.082	476.06
538.296	462.06
538.51	474.06
538.724	454.06
538.938	471.06
539.153	483.06
539.367	507.06
539.581	478.06
539.795	484.06
540.009	474.06
540.222	464.06
540.436	457.06
540.65	444.06
540.864	480.06
541.078	487.06
541.292	481.06
541.506	470.06
541.72	460.06
541.934	448.06
542.147	455.06
542.361	472.06
542.575	447.06
542.789	474.06
543.002	448.06
543.216	463.06
543.43	461.06
543.644	466.06
543.857	451.06
544.071	463.06
544.285	458.06
544.498	459.06
544.712	473.06
544.925	458.06
545.139	470.06
545.352	462.06
545.566	464.06
545.779	473.06
545.993	452.06
546.206	451.06
546.42	469.06
546.633	454.06
546.847	434.06
547.06	460.06
547.274	468.06
547.487	446.06
547.7	457.06
547.914	458.06
548.127	459.06
548.34	457.06
548.554	472.06
548.767	443.06
548.98	453.06
549.193	461.06
549.407	455.06
549.62	455.06
549.833	459.06
550.046	454.06
550.259	466.06
550.473	436.06
550.686	465.06
550.899	440.06
551.112	451.06
551.325	453.06
551.538	453.06
551.751	464.06
551.964	439.06
552.177	450.06
552.39	455.06
552.603	442.06
552.816	448.06
553.029	452.06
553.242	460.06
553.455	466.06
553.667	481.06
553.88	496.06
554.093	472.06
554.306	462.06
554.519	458.06
554.732	461.06
554.944	452.06
555.157	429.06
555.37	447.06
555.583	437.06
555.795	440.06
556.008	431.06
556.221	416.06
556.433	421.06
556.646	420.06
556.859	423.06
557.071	409.06
557.284	405.06
557.496	427.06
557.709	396.06
557.921	406.06
558.134	414.06
558.346	418.06
558.559	379.06
558.771	388.06
558.984	390.06
559.196	392.06
559.409	393.06
559.621	397.06
559.833	397.06
560.046	398.06
560.258	414.06
560.47	397.06
560.683	387.06
560.895	378.06
561.107	375.06
561.32	409.06
561.532	386.06
561.744	397.06
561.956	374.06
562.168	396.06
562.381	380.06
562.593	384.06
562.805	400.06
563.017	398.06
563.229	389.06
563.441	396.06
563.653	408.06
563.865	413.06
564.077	425.06
564.289	397.06
564.501	436.06
564.713	400.06
564.925	410.06
565.137	419.06
565.349	441.06
565.561	452.06
565.773	464.06
565.985	456.06
566.197	485.06
566.408	475.06
566.62	493.06
566.832	530.06
567.044	537.06
567.255	543.06
567.467	541.06
567.679	558.06
567.891	563.06
568.102	567.06
568.314	565.06
568.526	532.06
568.737	503.06
568.949	496.06
569.161	446.06
569.372	444.06
569.584	436.06
569.795	432.06
570.007	389.06
570.218	440.06
570.43	456.06
570.641	412.06
570.853	413.06
571.064	406.06
571.276	394.06
571.487	388.06
571.698	380.06
571.91	369.06
572.121	378.06
572.333	374.06
572.544	360.06
572.755	366.06
572.966	373.06
573.178	348.06
573.389	356.06
573.6	351.06
573.811	359.06
574.023	352.06
574.234	344.06
574.445	346.06
574.656	335.06
574.867	334.06
575.078	351.06
575.289	343.06
575.501	348.06
575.712	333.06
575.923	332.06
576.134	349.06
576.345	334.06
576.556	337.06
576.767	324.06
576.978	338.06
577.188	350.06
577.399	334.06
577.61	325.06
577.821	310.06
578.032	340.06
578.243	361.06
578.454	584.06
578.665	439.06
578.875	353.06
579.086	314.06
579.297	327.06
579.508	340.06
579.718	322.06
579.929	317.06
580.14	317.06
580.35	323.06
580.561	321.06
580.772	308.06
580.982	320.06
581.193	298.06
581.403	303.06
581.614	285.06
581.825	310.06
582.035	290.06
582.246	319.06
582.456	304.06
582.667	305.06
582.877	296.06
583.087	310.06
583.298	299.06
583.508	310.06
583.719	296.06
583.929	317.06
584.139	304.06
584.35	287.06
584.56	310.06
584.77	289.06
584.981	305.06
585.191	314.06
585.401	308.06
585.611	308.06
585.821	297.06
586.032	312.06
586.242	312.06
586.452	297.06
586.662	303.06
586.872	300.06
587.082	299.06
587.292	286.06
587.502	293.06
587.713	296.06
587.923	300.06
588.133	303.06
588.343	301.06
588.553	308.06
588.762	299.06
588.972	303.06
589.182	299.06
589.392	310.06
589.602	300.06
589.812	314.06
590.022	322.06
590.232	295.06
590.441	294.06
590.651	303.06
590.861	308.06
591.071	310.06
591.281	309.06
591.49	314.06
591.7	311.06
591.91	298.06
592.119	294.06
592.329	316.06
592.539	331.06
592.748	342.06
592.958	327.06
593.167	334.06
593.377	347.06
593.587	343.06
593.796	322.06
594.006	338.06
594.215	337.06
594.424	348.06
594.634	341.06
594.843	330.06
595.053	324.06
595.262	319.06
595.472	305.06
595.681	293.06
595.89	302.06
596.1	296.06
596.309	288.06
596.518	276.06
596.727	280.06
596.937	278.06
597.146	297.06
597.355	294.06
597.564	280.06
597.774	275.06
597.983	266.06
598.192	289.06
598.401	264.06
598.61	264.06
598.819	265.06
599.028	292.06
599.237	275.06
599.446	251.06
599.655	269.06
599.864	253.06
600.073	262.06
600.282	274.06
600.491	258.06
600.7	257.06
600.909	254.06
601.118	252.06
601.327	263.06
601.536	267.06
601.745	275.06
601.953	256.06
602.162	262.06
602.371	261.06
602.58	260.06
602.789	253.06
602.997	250.06
603.206	261.06
603.415	261.06
603.623	254.06
603.832	244.06
604.041	251.06
604.249	277.06
604.458	244.06
604.666	231.06
604.875	231.06
605.084	238.06
605.292	251.06
605.501	247.06
605.709	252.06
605.918	260.06
606.126	243.06
606.334	232.06
606.543	240.06
606.751	228.06
606.96	214.06
607.168	242.06
607.376	253.06
607.585	247.06
607.793	251.06
608.001	237.06
608.21	240.06
608.418	237.06
608.626	252.06
608.834	246.06
609.043	232.06
609.251	234.06
609.459	229.06
609.667	236.06
609.875	228.06
610.083	248.06
610.291	231.06
610.499	248.06
610.707	229.06
610.916	239.06
611.124	239.06
611.332	239.06
611.54	253.06
611.748	243.06
611.955	246.06
612.163	235.06
612.371	246.06
612.579	246.06
612.787	248.06
612.995	241.06
613.203	250.06
613.411	225.06
613.618	246.06
613.826	230.06
614.034	220.06
614.242	236.06
614.449	248.06
614.657	236.06
614.865	248.06
615.072	244.06
615.28	228.06
615.488	251.06
615.695	242.06
615.903	230.06
616.111	239.06
616.318	235.06
616.526	241.06
616.733	241.06
616.941	245.06
617.148	248.06
617.356	232.06
617.563	225.06
617.771	232.06
617.978	222.06
618.185	236.06
618.393	220.06
618.6	230.06
618.807	231.06
619.015	245.06
619.222	236.06
619.429	228.06
619.637	240.06
619.844	253.06
620.051	224.06
620.258	231.06
620.466	234.06
620.673	216.06
620.88	216.06
621.087	222.06
621.294	222.06
621.501	220.06
621.708	234.06
621.915	216.06
622.122	220.06
622.329	236.06
622.536	241.06
622.743	233.06
622.95	212.06
623.157	228.06
623.364	230.06
623.571	206.06
623.778	213.06
623.985	224.06
624.192	220.06
624.399	201.06
624.606	220.06
624.812	191.06
625.019	216.06
625.226	216.06
625.433	198.06
625.639	206.06
625.846	209.06
626.053	212.06
626.259	205.06
626.466	219.06
626.673	216.06
626.879	201.06
627.086	195.06
627.293	202.06
627.499	210.06
627.706	197.06
627.912	207.06
628.119	204.06
628.325	203.06
628.532	200.06
628.738	200.06
628.945	200.06
629.151	197.06
629.357	213.06
629.564	202.06
629.77	205.06
629.976	177.06
630.183	201.06
630.389	205.06
630.595	202.06
630.802	202.06
631.008	184.06
631.214	190.06
631.42	189.06
631.627	204.06
631.833	202.06
632.039	198.06
632.245	201.06
632.451	184.06
632.657	177.06
632.863	202.06
633.069	184.06
633.275	186.06
633.481	180.06
633.688	187.06
633.893	208.06
634.099	197.06
634.305	180.06
634.511	196.06
634.717	187.06
634.923	188.06
635.129	192.06
635.335	170.06
635.541	170.06
635.747	171.06
635.952	190.06
636.158	180.06
636.364	191.06
636.57	201.06
636.775	198.06
636.981	188.06
637.187	158.06
637.392	180.06
637.598	172.06
637.804	187.06
638.009	182.06
638.215	178.06
638.421	182.06
638.626	187.06
638.832	199.06
639.037	164.06
639.243	184.06
639.448	178.06
639.654	177.06
639.859	165.06
640.065	157.06
640.27	185.06
640.475	179.06
640.681	185.06
640.886	181.06
641.091	187.06
641.297	168.06
641.502	188.06
641.707	180.06
641.913	174.06
642.118	173.06
642.323	162.06
642.528	170.06
642.733	173.06
642.939	167.06
643.144	167.06
643.349	175.06
643.554	165.06
643.759	164.06
643.964	170.06
644.169	168.06
644.374	162.06
644.579	176.06
644.784	168.06
644.989	166.06
645.194	172.06
645.399	171.06
645.604	165.06
645.809	165.06
646.014	164.06
646.219	177.06
646.423	178.06
646.628	162.06
646.833	163.06
647.038	174.06
647.243	165.06
647.447	181.06
647.652	173.06
647.857	161.06
648.062	169.06
648.266	188.06
648.471	183.06
648.676	164.06
648.88	180.06
649.085	182.06
649.289	182.06
649.494	171.06
649.698	180.06
649.903	190.06
650.107	162.06
650.312	169.06
650.516	162.06
650.721	169.06
650.925	160.06
651.13	166.06
651.334	140.06
651.539	175.06
651.743	138.06
651.947	150.06
652.152	159.06
652.356	142.06
652.56	154.06
652.764	144.06
652.969	139.06
653.173	145.06
653.377	159.06
653.581	142.06
653.785	129.06
653.99	142.06
654.194	151.06
654.398	136.06
654.602	133.06
654.806	136.06
655.01	147.06
655.214	139.06
655.418	118.06
655.622	133.06
655.826	141.06
656.03	141.06
656.234	143.06
656.438	132.06
656.642	124.06
656.846	142.06
657.049	131.06
657.253	128.06
657.457	127.06
657.661	125.06
657.865	122.06
658.068	122.06
658.272	110.06
658.476	126.06
658.68	120.06
658.883	120.06
659.087	97.06
659.291	104.06
659.494	95.06
659.698	95.06
659.901	110.06
660.105	91.06
660.309	95.06
660.512	111.06
660.716	94.06
660.919	102.06
661.123	98.06
661.326	89.06
661.53	96.06
661.733	82.06
661.936	89.06
662.14	91.06
662.343	96.06
662.546	98.06
662.75	91.06
662.953	97.06
663.156	84.06
663.36	69.06
663.563	88.06
663.766	84.06
663.969	87.06
664.173	87.06
664.376	87.06
664.579	82.06
664.782	87.06
664.985	95.06
665.188	88.06
665.391	94.06
665.594	95.06
665.797	100.06
666	88.06
666.203	74.06
666.406	87.06
666.609	90.06
666.812	91.06
667.015	71.06
667.218	98.06
667.421	87.06
667.624	89.06
667.827	81.06
668.03	86.06
668.232	89.06
668.435	96.06
668.638	96.06
668.841	89.06
669.043	91.06
669.246	82.06
669.449	73.06
669.651	95.06
669.854	100.06
670.057	100.06
670.259	106.06
670.462	90.06
670.665	82.06
670.867	85.06
671.07	79.06
671.272	89.06
671.475	88.06
671.677	75.06
671.88	79.06
672.082	89.06
672.284	97.06
672.487	90.06
672.689	80.06
672.892	85.06
