Data from 1985.PennyLincolnUp.Lamp.En5.5.200Scan.071819.P1_HRD10591_17-03-29-971.txt Node
Date: Thu Jul 18 17:03:29 EDT 2019
User: cochatt
Spectrometer: HR+D1059
Trigger mode: 1
Integration Time (sec): 1.000000E-1
Scans to average: 1
Electric dark correction enabled: true
Nonlinearity correction enabled: false
Boxcar width: 0
XAxis mode: Wavelengths
Number of Pixels in Spectrum: 2048
>>>>>Begin Spectral Data<<<<<
223.165	0.81
223.4	0.81
223.635	0.81
223.869	-23.19
224.104	-23.19
224.338	-16.19
224.573	-13.19
224.808	-7.19
225.042	-20.19
225.277	-9.19
225.511	-7.19
225.746	-5.19
225.98	8.81
226.215	21.81
226.449	16.81
226.683	18.81
226.918	24.81
227.152	32.81
227.387	37.81
227.621	42.81
227.856	42.81
228.09	42.81
228.324	51.81
228.559	52.81
228.793	64.81
229.027	91.81
229.262	105.81
229.496	131.81
229.73	122.81
229.964	148.81
230.199	126.81
230.433	114.81
230.667	101.81
230.901	110.81
231.136	115.81
231.37	109.81
231.604	111.81
231.838	136.81
232.072	117.81
232.306	134.81
232.541	115.81
232.775	117.81
233.009	107.81
233.243	118.81
233.477	121.81
233.711	125.81
233.945	113.81
234.179	128.81
234.413	121.81
234.647	122.81
234.881	116.81
235.115	126.81
235.349	122.81
235.583	118.81
235.817	137.81
236.051	136.81
236.285	129.81
236.519	137.81
236.753	130.81
236.987	159.81
237.221	187.81
237.455	224.81
237.689	171.81
237.922	147.81
238.156	150.81
238.39	122.81
238.624	116.81
238.858	138.81
239.091	128.81
239.325	124.81
239.559	135.81
239.793	142.81
240.027	144.81
240.26	148.81
240.494	151.81
240.728	165.81
240.961	155.81
241.195	138.81
241.429	147.81
241.662	137.81
241.896	136.81
242.13	140.81
242.363	131.81
242.597	134.81
242.83	142.81
243.064	135.81
243.298	150.81
243.531	148.81
243.765	149.81
243.998	144.81
244.232	150.81
244.465	148.81
244.699	158.81
244.932	171.81
245.166	150.81
245.399	158.81
245.633	149.81
245.866	144.81
246.099	143.81
246.333	158.81
246.566	166.81
246.8	149.81
247.033	146.81
247.266	147.81
247.5	156.81
247.733	173.81
247.966	183.81
248.2	182.81
248.433	179.81
248.666	170.81
248.899	205.81
249.133	201.81
249.366	219.81
249.599	206.81
249.832	195.81
250.066	201.81
250.299	165.81
250.532	215.81
250.765	226.81
250.998	237.81
251.231	225.81
251.465	243.81
251.698	218.81
251.931	195.81
252.164	202.81
252.397	211.81
252.63	217.81
252.863	213.81
253.096	216.81
253.329	230.81
253.562	225.81
253.795	224.81
254.028	245.81
254.261	213.81
254.494	228.81
254.727	252.81
254.96	288.81
255.193	295.81
255.426	258.81
255.659	262.81
255.892	247.81
256.124	259.81
256.357	245.81
256.59	237.81
256.823	220.81
257.056	217.81
257.289	223.81
257.521	219.81
257.754	213.81
257.987	217.81
258.22	206.81
258.452	231.81
258.685	231.81
258.918	220.81
259.151	212.81
259.383	220.81
259.616	229.81
259.849	216.81
260.081	242.81
260.314	277.81
260.547	269.81
260.779	258.81
261.012	250.81
261.244	226.81
261.477	239.81
261.71	236.81
261.942	229.81
262.175	239.81
262.407	247.81
262.64	218.81
262.872	220.81
263.105	231.81
263.337	222.81
263.57	229.81
263.802	221.81
264.035	230.81
264.267	217.81
264.499	221.81
264.732	207.81
264.964	242.81
265.197	236.81
265.429	230.81
265.661	247.81
265.894	239.81
266.126	221.81
266.358	227.81
266.591	248.81
266.823	236.81
267.055	247.81
267.287	237.81
267.52	255.81
267.752	238.81
267.984	237.81
268.216	252.81
268.448	237.81
268.681	264.81
268.913	262.81
269.145	293.81
269.377	307.81
269.609	301.81
269.841	284.81
270.073	276.81
270.306	309.81
270.538	334.81
270.77	304.81
271.002	303.81
271.234	319.81
271.466	314.81
271.698	330.81
271.93	336.81
272.162	327.81
272.394	341.81
272.626	323.81
272.858	324.81
273.09	296.81
273.322	298.81
273.553	288.81
273.785	277.81
274.017	294.81
274.249	275.81
274.481	284.81
274.713	297.81
274.945	310.81
275.176	292.81
275.408	284.81
275.64	289.81
275.872	282.81
276.104	296.81
276.335	299.81
276.567	295.81
276.799	316.81
277.031	332.81
277.262	361.81
277.494	346.81
277.726	348.81
277.957	310.81
278.189	303.81
278.421	305.81
278.652	318.81
278.884	316.81
279.115	306.81
279.347	300.81
279.579	288.81
279.81	299.81
280.042	312.81
280.273	315.81
280.505	313.81
280.736	302.81
280.968	301.81
281.199	314.81
281.431	304.81
281.662	320.81
281.894	297.81
282.125	310.81
282.356	308.81
282.588	339.81
282.819	339.81
283.051	322.81
283.282	315.81
283.513	310.81
283.745	330.81
283.976	314.81
284.207	326.81
284.439	310.81
284.67	304.81
284.901	320.81
285.132	330.81
285.364	308.81
285.595	313.81
285.826	321.81
286.057	324.81
286.288	324.81
286.52	327.81
286.751	324.81
286.982	326.81
287.213	320.81
287.444	342.81
287.675	325.81
287.906	340.81
288.138	339.81
288.369	363.81
288.6	364.81
288.831	343.81
289.062	324.81
289.293	346.81
289.524	322.81
289.755	330.81
289.986	334.81
290.217	329.81
290.448	349.81
290.679	343.81
290.91	331.81
291.141	355.81
291.371	340.81
291.602	341.81
291.833	330.81
292.064	326.81
292.295	347.81
292.526	344.81
292.757	343.81
292.987	351.81
293.218	348.81
293.449	332.81
293.68	335.81
293.91	320.81
294.141	340.81
294.372	328.81
294.603	330.81
294.833	352.81
295.064	334.81
295.295	349.81
295.525	332.81
295.756	348.81
295.987	358.81
296.217	378.81
296.448	371.81
296.679	362.81
296.909	335.81
297.14	336.81
297.37	336.81
297.601	329.81
297.831	339.81
298.062	352.81
298.292	345.81
298.523	375.81
298.753	348.81
298.984	348.81
299.214	362.81
299.445	355.81
299.675	366.81
299.905	372.81
300.136	379.81
300.366	364.81
300.597	372.81
300.827	366.81
301.057	382.81
301.288	376.81
301.518	372.81
301.748	382.81
301.979	380.81
302.209	388.81
302.439	382.81
302.669	387.81
302.9	396.81
303.13	357.81
303.36	396.81
303.59	372.81
303.82	394.81
304.051	390.81
304.281	386.81
304.511	376.81
304.741	375.81
304.971	385.81
305.201	386.81
305.431	375.81
305.661	367.81
305.891	357.81
306.121	375.81
306.352	384.81
306.582	375.81
306.812	367.81
307.042	380.81
307.272	359.81
307.502	374.81
307.731	384.81
307.961	384.81
308.191	379.81
308.421	406.81
308.651	408.81
308.881	380.81
309.111	401.81
309.341	380.81
309.571	409.81
309.8	412.81
310.03	416.81
310.26	401.81
310.49	440.81
310.72	427.81
310.949	428.81
311.179	440.81
311.409	424.81
311.639	427.81
311.868	415.81
312.098	418.81
312.328	446.81
312.557	449.81
312.787	473.81
313.017	448.81
313.246	446.81
313.476	428.81
313.706	410.81
313.935	435.81
314.165	444.81
314.394	455.81
314.624	458.81
314.853	451.81
315.083	446.81
315.312	438.81
315.542	418.81
315.771	425.81
316.001	418.81
316.23	432.81
316.46	413.81
316.689	424.81
316.919	447.81
317.148	462.81
317.377	442.81
317.607	422.81
317.836	443.81
318.065	442.81
318.295	448.81
318.524	413.81
318.753	400.81
318.983	440.81
319.212	439.81
319.441	440.81
319.67	443.81
319.9	439.81
320.129	429.81
320.358	437.81
320.587	432.81
320.816	423.81
321.046	451.81
321.275	461.81
321.504	446.81
321.733	450.81
321.962	483.81
322.191	475.81
322.42	484.81
322.649	484.81
322.878	483.81
323.108	522.81
323.337	517.81
323.566	544.81
323.795	570.81
324.024	629.81
324.253	707.81
324.482	1026.81
324.71	1526.81
324.939	2180.81
325.168	1839.81
325.397	964.81
325.626	671.81
325.855	594.81
326.084	581.81
326.313	549.81
326.542	552.81
326.77	607.81
326.999	694.81
327.228	932.81
327.457	1336.81
327.686	1635.81
327.914	1066.81
328.143	710.81
328.372	674.81
328.6	619.81
328.829	586.81
329.058	616.81
329.287	636.81
329.515	585.81
329.744	580.81
329.972	558.81
330.201	570.81
330.43	628.81
330.658	640.81
330.887	660.81
331.115	642.81
331.344	586.81
331.572	538.81
331.801	550.81
332.03	563.81
332.258	531.81
332.486	546.81
332.715	520.81
332.943	543.81
333.172	550.81
333.4	548.81
333.629	578.81
333.857	558.81
334.085	592.81
334.314	610.81
334.542	609.81
334.771	624.81
334.999	594.81
335.227	575.81
335.455	558.81
335.684	540.81
335.912	532.81
336.14	526.81
336.369	529.81
336.597	535.81
336.825	503.81
337.053	514.81
337.281	498.81
337.51	504.81
337.738	525.81
337.966	509.81
338.194	519.81
338.422	522.81
338.65	499.81
338.878	505.81
339.106	488.81
339.334	484.81
339.562	493.81
339.79	500.81
340.018	482.81
340.246	485.81
340.474	489.81
340.702	499.81
340.93	483.81
341.158	482.81
341.386	487.81
341.614	505.81
341.842	470.81
342.07	471.81
342.298	480.81
342.526	471.81
342.754	485.81
342.981	500.81
343.209	468.81
343.437	482.81
343.665	493.81
343.893	491.81
344.12	529.81
344.348	504.81
344.576	494.81
344.804	516.81
345.031	510.81
345.259	504.81
345.487	514.81
345.714	480.81
345.942	490.81
346.17	469.81
346.397	483.81
346.625	476.81
346.853	482.81
347.08	475.81
347.308	488.81
347.535	474.81
347.763	466.81
347.99	476.81
348.218	466.81
348.445	491.81
348.673	494.81
348.9	476.81
349.128	480.81
349.355	454.81
349.583	470.81
349.81	443.81
350.037	452.81
350.265	453.81
350.492	452.81
350.72	431.81
350.947	434.81
351.174	466.81
351.402	459.81
351.629	466.81
351.856	476.81
352.083	482.81
352.311	490.81
352.538	494.81
352.765	476.81
352.992	453.81
353.22	445.81
353.447	468.81
353.674	458.81
353.901	437.81
354.128	433.81
354.355	440.81
354.583	423.81
354.81	430.81
355.037	439.81
355.264	444.81
355.491	418.81
355.718	443.81
355.945	430.81
356.172	410.81
356.399	424.81
356.626	431.81
356.853	413.81
357.08	431.81
357.307	430.81
357.534	415.81
357.761	425.81
357.988	461.81
358.215	450.81
358.441	421.81
358.668	446.81
358.895	433.81
359.122	434.81
359.349	443.81
359.576	455.81
359.802	469.81
360.029	516.81
360.256	500.81
360.483	477.81
360.709	455.81
360.936	445.81
361.163	461.81
361.39	458.81
361.616	451.81
361.843	457.81
362.07	467.81
362.296	450.81
362.523	476.81
362.749	470.81
362.976	446.81
363.203	452.81
363.429	415.81
363.656	454.81
363.882	437.81
364.109	445.81
364.335	425.81
364.562	449.81
364.788	430.81
365.015	414.81
365.241	438.81
365.468	459.81
365.694	448.81
365.92	448.81
366.147	431.81
366.373	436.81
366.599	432.81
366.826	417.81
367.052	434.81
367.278	441.81
367.505	435.81
367.731	427.81
367.957	441.81
368.184	439.81
368.41	444.81
368.636	472.81
368.862	472.81
369.089	463.81
369.315	417.81
369.541	460.81
369.767	432.81
369.993	406.81
370.219	446.81
370.445	444.81
370.672	448.81
370.898	443.81
371.124	434.81
371.35	424.81
371.576	436.81
371.802	456.81
372.028	436.81
372.254	423.81
372.48	430.81
372.706	452.81
372.932	458.81
373.158	450.81
373.384	435.81
373.61	430.81
373.835	442.81
374.061	452.81
374.287	460.81
374.513	452.81
374.739	458.81
374.965	475.81
375.191	448.81
375.416	449.81
375.642	448.81
375.868	446.81
376.094	435.81
376.319	438.81
376.545	408.81
376.771	457.81
376.997	459.81
377.222	426.81
377.448	441.81
377.674	427.81
377.899	414.81
378.125	440.81
378.35	420.81
378.576	434.81
378.802	434.81
379.027	430.81
379.253	439.81
379.478	442.81
379.704	411.81
379.929	449.81
380.155	434.81
380.38	435.81
380.606	449.81
380.831	456.81
381.057	446.81
381.282	421.81
381.507	420.81
381.733	429.81
381.958	433.81
382.184	440.81
382.409	443.81
382.634	428.81
382.86	449.81
383.085	452.81
383.31	459.81
383.535	464.81
383.761	446.81
383.986	468.81
384.211	475.81
384.436	468.81
384.662	451.81
384.887	469.81
385.112	471.81
385.337	491.81
385.562	488.81
385.787	493.81
386.013	476.81
386.238	487.81
386.463	518.81
386.688	482.81
386.913	473.81
387.138	482.81
387.363	480.81
387.588	505.81
387.813	478.81
388.038	472.81
388.263	486.81
388.488	479.81
388.713	479.81
388.938	482.81
389.163	474.81
389.387	489.81
389.612	470.81
389.837	489.81
390.062	460.81
390.287	474.81
390.512	468.81
390.736	494.81
390.961	473.81
391.186	485.81
391.411	535.81
391.636	503.81
391.86	504.81
392.085	505.81
392.31	504.81
392.534	504.81
392.759	497.81
392.984	500.81
393.208	484.81
393.433	485.81
393.658	483.81
393.882	492.81
394.107	492.81
394.331	478.81
394.556	473.81
394.78	486.81
395.005	486.81
395.229	496.81
395.454	512.81
395.678	518.81
395.903	537.81
396.127	538.81
396.352	531.81
396.576	528.81
396.801	480.81
397.025	483.81
397.249	528.81
397.474	529.81
397.698	488.81
397.922	536.81
398.147	548.81
398.371	555.81
398.595	573.81
398.82	562.81
399.044	586.81
399.268	597.81
399.492	675.81
399.717	700.81
399.941	739.81
400.165	722.81
400.389	692.81
400.613	652.81
400.837	589.81
401.062	592.81
401.286	581.81
401.51	577.81
401.734	568.81
401.958	581.81
402.182	574.81
402.406	594.81
402.63	590.81
402.854	570.81
403.078	574.81
403.302	582.81
403.526	606.81
403.75	607.81
403.974	601.81
404.198	582.81
404.422	605.81
404.645	615.81
404.869	624.81
405.093	642.81
405.317	686.81
405.541	693.81
405.765	658.81
405.988	623.81
406.212	635.81
406.436	675.81
406.66	663.81
406.883	640.81
407.107	676.81
407.331	701.81
407.555	757.81
407.778	787.81
408.002	724.81
408.226	664.81
408.449	637.81
408.673	652.81
408.896	678.81
409.12	704.81
409.344	674.81
409.567	599.81
409.791	592.81
410.014	584.81
410.238	583.81
410.461	581.81
410.685	588.81
410.908	598.81
411.132	648.81
411.355	653.81
411.578	649.81
411.802	565.81
412.025	566.81
412.249	576.81
412.472	583.81
412.695	652.81
412.919	614.81
413.142	592.81
413.365	582.81
413.589	588.81
413.812	543.81
414.035	539.81
414.258	549.81
414.482	528.81
414.705	551.81
414.928	562.81
415.151	530.81
415.374	549.81
415.597	553.81
415.821	542.81
416.044	537.81
416.267	547.81
416.49	548.81
416.713	547.81
416.936	528.81
417.159	552.81
417.382	561.81
417.605	557.81
417.828	562.81
418.051	575.81
418.274	557.81
418.497	571.81
418.72	544.81
418.943	523.81
419.166	570.81
419.389	590.81
419.611	598.81
419.834	594.81
420.057	598.81
420.28	573.81
420.503	588.81
420.726	559.81
420.948	568.81
421.171	618.81
421.394	639.81
421.617	602.81
421.839	566.81
422.062	570.81
422.285	575.81
422.507	661.81
422.73	722.81
422.953	662.81
423.175	611.81
423.398	574.81
423.621	606.81
423.843	627.81
424.066	632.81
424.288	609.81
424.511	624.81
424.733	667.81
424.956	740.81
425.178	701.81
425.401	722.81
425.623	712.81
425.846	624.81
426.068	613.81
426.291	566.81
426.513	598.81
426.735	592.81
426.958	653.81
427.18	758.81
427.402	823.81
427.625	910.81
427.847	768.81
428.069	696.81
428.292	652.81
428.514	586.81
428.736	548.81
428.958	551.81
429.181	526.81
429.403	532.81
429.625	538.81
429.847	570.81
430.069	643.81
430.292	642.81
430.514	560.81
430.736	553.81
430.958	538.81
431.18	516.81
431.402	500.81
431.624	522.81
431.846	523.81
432.068	527.81
432.29	532.81
432.512	506.81
432.734	528.81
432.956	522.81
433.178	546.81
433.4	542.81
433.622	514.81
433.844	517.81
434.066	512.81
434.287	518.81
434.509	523.81
434.731	522.81
434.953	562.81
435.175	599.81
435.397	580.81
435.618	572.81
435.84	627.81
436.062	692.81
436.284	767.81
436.505	650.81
436.727	598.81
436.949	550.81
437.17	558.81
437.392	536.81
437.614	543.81
437.835	574.81
438.057	672.81
438.278	759.81
438.5	754.81
438.721	829.81
438.943	800.81
439.165	642.81
439.386	587.81
439.608	579.81
439.829	578.81
440.05	618.81
440.272	653.81
440.493	615.81
440.715	582.81
440.936	580.81
441.158	553.81
441.379	550.81
441.6	565.81
441.822	578.81
442.043	648.81
442.264	718.81
442.486	736.81
442.707	648.81
442.928	602.81
443.149	601.81
443.371	636.81
443.592	666.81
443.813	766.81
444.034	818.81
444.255	683.81
444.476	600.81
444.698	650.81
444.919	607.81
445.14	776.81
445.361	660.81
445.582	642.81
445.803	687.81
446.024	759.81
446.245	791.81
446.466	685.81
446.687	612.81
446.908	592.81
447.129	544.81
447.35	550.81
447.571	544.81
447.792	522.81
448.013	525.81
448.234	557.81
448.455	591.81
448.675	718.81
448.896	830.81
449.117	703.81
449.338	654.81
449.559	738.81
449.779	865.81
450	678.81
450.221	596.81
450.442	538.81
450.662	521.81
450.883	516.81
451.104	540.81
451.324	515.81
451.545	500.81
451.766	508.81
451.986	477.81
452.207	470.81
452.428	507.81
452.648	481.81
452.869	466.81
453.089	499.81
453.31	527.81
453.53	489.81
453.751	475.81
453.971	492.81
454.192	503.81
454.412	485.81
454.633	466.81
454.853	484.81
455.073	482.81
455.294	496.81
455.514	574.81
455.734	552.81
455.955	450.81
456.175	444.81
456.395	462.81
456.616	450.81
456.836	460.81
457.056	448.81
457.276	424.81
457.497	448.81
457.717	468.81
457.937	473.81
458.157	486.81
458.377	463.81
458.598	489.81
458.818	562.81
459.038	634.81
459.258	641.81
459.478	551.81
459.698	528.81
459.918	520.81
460.138	531.81
460.358	551.81
460.578	569.81
460.798	538.81
461.018	557.81
461.238	542.81
461.458	559.81
461.678	542.81
461.898	570.81
462.118	548.81
462.338	552.81
462.558	574.81
462.777	575.81
462.997	602.81
463.217	629.81
463.437	644.81
463.657	618.81
463.876	603.81
464.096	603.81
464.316	583.81
464.536	596.81
464.755	587.81
464.975	586.81
465.195	625.81
465.414	707.81
465.634	604.81
465.854	554.81
466.073	521.81
466.293	519.81
466.512	521.81
466.732	502.81
466.951	514.81
467.171	483.81
467.391	494.81
467.61	516.81
467.829	522.81
468.049	500.81
468.268	502.81
468.488	486.81
468.707	468.81
468.927	517.81
469.146	476.81
469.365	489.81
469.585	470.81
469.804	495.81
470.023	502.81
470.243	534.81
470.462	507.81
470.681	546.81
470.901	521.81
471.12	520.81
471.339	482.81
471.558	505.81
471.777	500.81
471.997	502.81
472.216	494.81
472.435	514.81
472.654	522.81
472.873	518.81
473.092	514.81
473.311	519.81
473.53	501.81
473.749	489.81
473.968	551.81
474.187	648.81
474.406	671.81
474.625	548.81
474.844	494.81
475.063	491.81
475.282	496.81
475.501	507.81
475.72	503.81
475.939	512.81
476.158	490.81
476.377	512.81
476.596	510.81
476.814	525.81
477.033	553.81
477.252	528.81
477.471	533.81
477.69	529.81
477.908	568.81
478.127	538.81
478.346	549.81
478.564	540.81
478.783	537.81
479.002	581.81
479.22	612.81
479.439	606.81
479.658	605.81
479.876	588.81
480.095	611.81
480.313	633.81
480.532	644.81
480.751	623.81
480.969	621.81
481.188	670.81
481.406	710.81
481.624	646.81
481.843	626.81
482.061	596.81
482.28	573.81
482.498	575.81
482.717	580.81
482.935	578.81
483.153	587.81
483.372	592.81
483.59	578.81
483.808	587.81
484.027	591.81
484.245	576.81
484.463	580.81
484.681	590.81
484.9	605.81
485.118	599.81
485.336	593.81
485.554	578.81
485.772	600.81
485.99	595.81
486.209	591.81
486.427	599.81
486.645	602.81
486.863	621.81
487.081	621.81
487.299	618.81
487.517	612.81
487.735	638.81
487.953	646.81
488.171	651.81
488.389	631.81
488.607	617.81
488.825	621.81
489.043	610.81
489.261	642.81
489.479	634.81
489.696	620.81
489.914	637.81
490.132	658.81
490.35	644.81
490.568	648.81
490.786	667.81
491.003	686.81
491.221	684.81
491.439	700.81
491.657	691.81
491.874	713.81
492.092	740.81
492.31	757.81
492.527	743.81
492.745	724.81
492.963	719.81
493.18	714.81
493.398	739.81
493.615	756.81
493.833	715.81
494.05	739.81
494.268	725.81
494.485	742.81
494.703	765.81
494.92	751.81
495.138	748.81
495.355	711.81
495.573	716.81
495.79	743.81
496.008	750.81
496.225	742.81
496.442	766.81
496.66	762.81
496.877	743.81
497.094	776.81
497.312	750.81
497.529	761.81
497.746	804.81
497.963	806.81
498.181	836.81
498.398	815.81
498.615	870.81
498.832	902.81
499.049	920.81
499.267	933.81
499.484	989.81
499.701	1007.81
499.918	1069.81
500.135	1156.81
500.352	1243.81
500.569	1281.81
500.786	1267.81
501.003	1244.81
501.22	1132.81
501.437	1055.81
501.654	1068.81
501.871	1033.81
502.088	982.81
502.305	916.81
502.522	869.81
502.739	874.81
502.956	840.81
503.172	806.81
503.389	803.81
503.606	804.81
503.823	772.81
504.04	782.81
504.256	791.81
504.473	775.81
504.69	743.81
504.907	766.81
505.123	755.81
505.34	743.81
505.557	713.81
505.773	714.81
505.99	694.81
506.207	691.81
506.423	735.81
506.64	684.81
506.856	674.81
507.073	685.81
507.289	676.81
507.506	673.81
507.722	702.81
507.939	703.81
508.155	666.81
508.372	648.81
508.588	678.81
508.805	652.81
509.021	647.81
509.238	668.81
509.454	670.81
509.67	645.81
509.887	664.81
510.103	638.81
510.319	667.81
510.536	741.81
510.752	1233.81
510.968	1024.81
511.184	680.81
511.401	655.81
511.617	644.81
511.833	616.81
512.049	615.81
512.265	634.81
512.481	602.81
512.698	621.81
512.914	627.81
513.13	630.81
513.346	616.81
513.562	631.81
513.778	618.81
513.994	629.81
514.21	628.81
514.426	673.81
514.642	688.81
514.858	709.81
515.074	728.81
515.29	868.81
515.506	1276.81
515.721	1098.81
515.937	751.81
516.153	684.81
516.369	671.81
516.585	664.81
516.801	644.81
517.016	662.81
517.232	663.81
517.448	670.81
517.664	706.81
517.879	703.81
518.095	678.81
518.311	676.81
518.527	691.81
518.742	646.81
518.958	630.81
519.173	630.81
519.389	625.81
519.605	636.81
519.82	622.81
520.036	637.81
520.251	672.81
520.467	655.81
520.682	654.81
520.898	677.81
521.113	702.81
521.329	718.81
521.544	792.81
521.76	986.81
521.975	1652.81
522.19	1709.81
522.406	926.81
522.621	676.81
522.836	624.81
523.052	638.81
523.267	586.81
523.482	576.81
523.698	564.81
523.913	571.81
524.128	578.81
524.343	539.81
524.559	550.81
524.774	536.81
524.989	533.81
525.204	529.81
525.419	538.81
525.634	539.81
525.849	513.81
526.064	544.81
526.28	538.81
526.495	547.81
526.71	527.81
526.925	517.81
527.14	486.81
527.355	512.81
527.57	504.81
527.785	515.81
527.999	488.81
528.214	524.81
528.429	532.81
528.644	526.81
528.859	503.81
529.074	504.81
529.289	527.81
529.503	600.81
529.718	579.81
529.933	548.81
530.148	513.81
530.363	495.81
530.577	503.81
530.792	510.81
531.007	495.81
531.221	512.81
531.436	504.81
531.651	486.81
531.865	486.81
532.08	480.81
532.295	508.81
532.509	482.81
532.724	504.81
532.938	496.81
533.153	491.81
533.367	496.81
533.582	511.81
533.796	478.81
534.011	490.81
534.225	482.81
534.44	478.81
534.654	483.81
534.868	479.81
535.083	505.81
535.297	468.81
535.511	480.81
535.726	462.81
535.94	493.81
536.154	487.81
536.369	470.81
536.583	470.81
536.797	492.81
537.011	454.81
537.225	474.81
537.44	469.81
537.654	494.81
537.868	461.81
538.082	455.81
538.296	449.81
538.51	492.81
538.724	486.81
538.938	472.81
539.153	466.81
539.367	475.81
539.581	483.81
539.795	477.81
540.009	470.81
540.222	458.81
540.436	468.81
540.65	465.81
540.864	481.81
541.078	472.81
541.292	475.81
541.506	469.81
541.72	451.81
541.934	448.81
542.147	476.81
542.361	475.81
542.575	458.81
542.789	452.81
543.002	466.81
543.216	462.81
543.43	480.81
543.644	478.81
543.857	465.81
544.071	446.81
544.285	436.81
544.498	449.81
544.712	453.81
544.925	478.81
545.139	472.81
545.352	460.81
545.566	428.81
545.779	477.81
545.993	438.81
546.206	468.81
546.42	469.81
546.633	458.81
546.847	470.81
547.06	471.81
547.274	465.81
547.487	448.81
547.7	470.81
547.914	459.81
548.127	460.81
548.34	451.81
548.554	452.81
548.767	454.81
548.98	449.81
549.193	443.81
549.407	453.81
549.62	478.81
549.833	464.81
550.046	454.81
550.259	452.81
550.473	435.81
550.686	452.81
550.899	434.81
551.112	439.81
551.325	435.81
551.538	438.81
551.751	456.81
551.964	453.81
552.177	443.81
552.39	431.81
552.603	450.81
552.816	452.81
553.029	458.81
553.242	447.81
553.455	464.81
553.667	499.81
553.88	484.81
554.093	471.81
554.306	469.81
554.519	460.81
554.732	454.81
554.944	459.81
555.157	423.81
555.37	440.81
555.583	446.81
555.795	434.81
556.008	427.81
556.221	422.81
556.433	410.81
556.646	418.81
556.859	404.81
557.071	393.81
557.284	410.81
557.496	400.81
557.709	390.81
557.921	391.81
558.134	414.81
558.346	390.81
558.559	401.81
558.771	392.81
558.984	393.81
559.196	396.81
559.409	395.81
559.621	384.81
559.833	386.81
560.046	403.81
560.258	394.81
560.47	392.81
560.683	383.81
560.895	383.81
561.107	379.81
561.32	384.81
561.532	381.81
561.744	381.81
561.956	399.81
562.168	396.81
562.381	416.81
562.593	391.81
562.805	379.81
563.017	385.81
563.229	391.81
563.441	404.81
563.653	414.81
563.865	401.81
564.077	422.81
564.289	406.81
564.501	396.81
564.713	426.81
564.925	425.81
565.137	433.81
565.349	422.81
565.561	438.81
565.773	432.81
565.985	451.81
566.197	471.81
566.408	484.81
566.62	510.81
566.832	522.81
567.044	533.81
567.255	516.81
567.467	536.81
567.679	584.81
567.891	585.81
568.102	571.81
568.314	555.81
568.526	530.81
568.737	498.81
568.949	464.81
569.161	457.81
569.372	453.81
569.584	440.81
569.795	431.81
570.007	412.81
570.218	462.81
570.43	444.81
570.641	396.81
570.853	380.81
571.064	387.81
571.276	388.81
571.487	398.81
571.698	372.81
571.91	383.81
572.121	362.81
572.333	379.81
572.544	358.81
572.755	380.81
572.966	345.81
573.178	357.81
573.389	346.81
573.6	358.81
573.811	338.81
574.023	351.81
574.234	361.81
574.445	355.81
574.656	339.81
574.867	343.81
575.078	350.81
575.289	359.81
575.501	340.81
575.712	326.81
575.923	348.81
576.134	336.81
576.345	335.81
576.556	320.81
576.767	344.81
576.978	320.81
577.188	343.81
577.399	350.81
577.61	326.81
577.821	311.81
578.032	338.81
578.243	366.81
578.454	548.81
578.665	436.81
578.875	323.81
579.086	312.81
579.297	300.81
579.508	297.81
579.718	323.81
579.929	306.81
580.14	313.81
580.35	326.81
580.561	319.81
580.772	294.81
580.982	315.81
581.193	295.81
581.403	313.81
581.614	325.81
581.825	325.81
582.035	290.81
582.246	303.81
582.456	288.81
582.667	311.81
582.877	309.81
583.087	295.81
583.298	320.81
583.508	303.81
583.719	316.81
583.929	303.81
584.139	311.81
584.35	317.81
584.56	310.81
584.77	293.81
584.981	304.81
585.191	307.81
585.401	302.81
585.611	280.81
585.821	290.81
586.032	294.81
586.242	284.81
586.452	294.81
586.662	306.81
586.872	283.81
587.082	314.81
587.292	295.81
587.502	276.81
587.713	296.81
587.923	292.81
588.133	302.81
588.343	286.81
588.553	284.81
588.762	314.81
588.972	299.81
589.182	289.81
589.392	307.81
589.602	307.81
589.812	302.81
590.022	299.81
590.232	282.81
590.441	294.81
590.651	303.81
590.861	303.81
591.071	307.81
591.281	308.81
591.49	310.81
591.7	302.81
591.91	302.81
592.119	302.81
592.329	309.81
592.539	314.81
592.748	312.81
592.958	332.81
593.167	324.81
593.377	329.81
593.587	342.81
593.796	337.81
594.006	331.81
594.215	327.81
594.424	333.81
594.634	344.81
594.843	331.81
595.053	300.81
595.262	307.81
595.472	286.81
595.681	288.81
595.89	294.81
596.1	294.81
596.309	288.81
596.518	284.81
596.727	307.81
596.937	291.81
597.146	284.81
597.355	282.81
597.564	262.81
597.774	264.81
597.983	274.81
598.192	272.81
598.401	260.81
598.61	260.81
598.819	263.81
599.028	272.81
599.237	253.81
599.446	284.81
599.655	269.81
599.864	270.81
600.073	258.81
600.282	278.81
600.491	270.81
600.7	263.81
600.909	269.81
601.118	259.81
601.327	268.81
601.536	254.81
601.745	258.81
601.953	255.81
602.162	250.81
602.371	246.81
602.58	244.81
602.789	248.81
602.997	248.81
603.206	251.81
603.415	259.81
603.623	227.81
603.832	256.81
604.041	240.81
604.249	236.81
604.458	253.81
604.666	236.81
604.875	253.81
605.084	245.81
605.292	239.81
605.501	235.81
605.709	246.81
605.918	239.81
606.126	248.81
606.334	226.81
606.543	246.81
606.751	231.81
606.96	241.81
607.168	238.81
607.376	240.81
607.585	241.81
607.793	258.81
608.001	261.81
608.21	241.81
608.418	229.81
608.626	238.81
608.834	216.81
609.043	231.81
609.251	226.81
609.459	239.81
609.667	233.81
609.875	229.81
610.083	230.81
610.291	243.81
610.499	239.81
610.707	239.81
610.916	242.81
611.124	242.81
611.332	248.81
611.54	242.81
611.748	234.81
611.955	237.81
612.163	238.81
612.371	243.81
612.579	239.81
612.787	237.81
612.995	243.81
613.203	229.81
613.411	229.81
613.618	237.81
613.826	233.81
614.034	239.81
614.242	236.81
614.449	235.81
614.657	238.81
614.865	249.81
615.072	231.81
615.28	236.81
615.488	230.81
615.695	228.81
615.903	227.81
616.111	246.81
616.318	242.81
616.526	244.81
616.733	228.81
616.941	229.81
617.148	233.81
617.356	234.81
617.563	227.81
617.771	243.81
617.978	227.81
618.185	232.81
618.393	248.81
618.6	224.81
618.807	224.81
619.015	238.81
619.222	227.81
619.429	226.81
619.637	249.81
619.844	239.81
620.051	203.81
620.258	221.81
620.466	219.81
620.673	223.81
620.88	235.81
621.087	215.81
621.294	214.81
621.501	218.81
621.708	211.81
621.915	230.81
622.122	225.81
622.329	222.81
622.536	214.81
622.743	229.81
622.95	232.81
623.157	217.81
623.364	220.81
623.571	211.81
623.778	207.81
623.985	219.81
624.192	212.81
624.399	211.81
624.606	218.81
624.812	220.81
625.019	202.81
625.226	206.81
625.433	216.81
625.639	193.81
625.846	208.81
626.053	214.81
626.259	209.81
626.466	217.81
626.673	200.81
626.879	206.81
627.086	202.81
627.293	198.81
627.499	196.81
627.706	202.81
627.912	182.81
628.119	189.81
628.325	215.81
628.532	204.81
628.738	191.81
628.945	198.81
629.151	196.81
629.357	189.81
629.564	182.81
629.77	194.81
629.976	197.81
630.183	184.81
630.389	192.81
630.595	210.81
630.802	210.81
631.008	201.81
631.214	194.81
631.42	188.81
631.627	192.81
631.833	187.81
632.039	207.81
632.245	196.81
632.451	203.81
632.657	187.81
632.863	187.81
633.069	199.81
633.275	185.81
633.481	164.81
633.688	188.81
633.893	193.81
634.099	188.81
634.305	200.81
634.511	167.81
634.717	178.81
634.923	186.81
635.129	183.81
635.335	190.81
635.541	176.81
635.747	164.81
635.952	172.81
636.158	185.81
636.364	192.81
636.57	190.81
636.775	179.81
636.981	190.81
637.187	182.81
637.392	183.81
637.598	159.81
637.804	180.81
638.009	190.81
638.215	190.81
638.421	180.81
638.626	187.81
638.832	191.81
639.037	184.81
639.243	157.81
639.448	175.81
639.654	181.81
639.859	169.81
640.065	179.81
640.27	170.81
640.475	164.81
640.681	186.81
640.886	168.81
641.091	168.81
641.297	178.81
641.502	161.81
641.707	160.81
641.913	168.81
642.118	169.81
642.323	171.81
642.528	180.81
642.733	164.81
642.939	167.81
643.144	166.81
643.349	163.81
643.554	171.81
643.759	152.81
643.964	169.81
644.169	151.81
644.374	179.81
644.579	160.81
644.784	170.81
644.989	161.81
645.194	150.81
645.399	177.81
645.604	167.81
645.809	169.81
646.014	171.81
646.219	169.81
646.423	162.81
646.628	163.81
646.833	166.81
647.038	163.81
647.243	177.81
647.447	170.81
647.652	173.81
647.857	162.81
648.062	168.81
648.266	183.81
648.471	177.81
648.676	146.81
648.88	165.81
649.085	172.81
649.289	176.81
649.494	162.81
649.698	190.81
649.903	178.81
650.107	177.81
650.312	159.81
650.516	162.81
650.721	157.81
650.925	163.81
651.13	162.81
651.334	172.81
651.539	150.81
651.743	136.81
651.947	146.81
652.152	144.81
652.356	146.81
652.56	150.81
652.764	144.81
652.969	146.81
653.173	152.81
653.377	144.81
653.581	137.81
653.785	144.81
653.99	151.81
654.194	135.81
654.398	148.81
654.602	138.81
654.806	143.81
655.01	135.81
655.214	140.81
655.418	156.81
655.622	135.81
655.826	125.81
656.03	132.81
656.234	132.81
656.438	139.81
656.642	129.81
656.846	136.81
657.049	136.81
657.253	121.81
657.457	132.81
657.661	134.81
657.865	122.81
658.068	92.81
658.272	119.81
658.476	120.81
658.68	110.81
658.883	95.81
659.087	105.81
659.291	93.81
659.494	92.81
659.698	101.81
659.901	104.81
660.105	93.81
660.309	99.81
660.512	98.81
660.716	85.81
660.919	102.81
661.123	86.81
661.326	103.81
661.53	91.81
661.733	89.81
661.936	95.81
662.14	79.81
662.343	92.81
662.546	86.81
662.75	97.81
662.953	100.81
663.156	100.81
663.36	87.81
663.563	85.81
663.766	86.81
663.969	84.81
664.173	82.81
664.376	98.81
664.579	74.81
664.782	83.81
664.985	87.81
665.188	86.81
665.391	83.81
665.594	80.81
665.797	74.81
666	84.81
666.203	86.81
666.406	88.81
666.609	90.81
666.812	85.81
667.015	98.81
667.218	88.81
667.421	86.81
667.624	75.81
667.827	85.81
668.03	79.81
668.232	86.81
668.435	89.81
668.638	86.81
668.841	67.81
669.043	86.81
669.246	97.81
669.449	83.81
669.651	79.81
669.854	83.81
670.057	87.81
670.259	76.81
670.462	86.81
670.665	79.81
670.867	93.81
671.07	71.81
671.272	80.81
671.475	83.81
671.677	85.81
671.88	92.81
672.082	70.81
672.284	77.81
672.487	94.81
672.689	91.81
672.892	78.81
