Data from 1985.PennyLincolnUp.Lamp.En5.5.200Scan.071819.P1_HRD10591_17-02-56-970.txt Node
Date: Thu Jul 18 17:02:56 EDT 2019
User: cochatt
Spectrometer: HR+D1059
Trigger mode: 1
Integration Time (sec): 1.000000E-1
Scans to average: 1
Electric dark correction enabled: true
Nonlinearity correction enabled: false
Boxcar width: 0
XAxis mode: Wavelengths
Number of Pixels in Spectrum: 2048
>>>>>Begin Spectral Data<<<<<
223.165	-18.19
223.4	-18.19
223.635	-18.19
223.869	-25.19
224.104	-31.19
224.338	-0.19
224.573	-9.19
224.808	-23.19
225.042	4.81
225.277	-18.19
225.511	-14.19
225.746	5.81
225.98	13.81
226.215	21.81
226.449	21.81
226.683	14.81
226.918	19.81
227.152	36.81
227.387	37.81
227.621	40.81
227.856	41.81
228.09	51.81
228.324	58.81
228.559	70.81
228.793	69.81
229.027	93.81
229.262	103.81
229.496	105.81
229.73	126.81
229.964	148.81
230.199	124.81
230.433	113.81
230.667	127.81
230.901	111.81
231.136	108.81
231.37	113.81
231.604	105.81
231.838	127.81
232.072	119.81
232.306	111.81
232.541	102.81
232.775	111.81
233.009	93.81
233.243	123.81
233.477	111.81
233.711	131.81
233.945	109.81
234.179	112.81
234.413	132.81
234.647	110.81
234.881	124.81
235.115	116.81
235.349	115.81
235.583	106.81
235.817	110.81
236.051	133.81
236.285	120.81
236.519	126.81
236.753	139.81
236.987	138.81
237.221	173.81
237.455	222.81
237.689	171.81
237.922	131.81
238.156	142.81
238.39	123.81
238.624	126.81
238.858	111.81
239.091	133.81
239.325	119.81
239.559	129.81
239.793	145.81
240.027	132.81
240.26	143.81
240.494	153.81
240.728	148.81
240.961	141.81
241.195	133.81
241.429	137.81
241.662	144.81
241.896	139.81
242.13	135.81
242.363	139.81
242.597	138.81
242.83	150.81
243.064	131.81
243.298	135.81
243.531	132.81
243.765	143.81
243.998	147.81
244.232	138.81
244.465	136.81
244.699	166.81
244.932	151.81
245.166	135.81
245.399	152.81
245.633	132.81
245.866	151.81
246.099	144.81
246.333	142.81
246.566	146.81
246.8	151.81
247.033	144.81
247.266	151.81
247.5	169.81
247.733	163.81
247.966	168.81
248.2	177.81
248.433	172.81
248.666	174.81
248.899	167.81
249.133	216.81
249.366	212.81
249.599	191.81
249.832	176.81
250.066	168.81
250.299	172.81
250.532	188.81
250.765	200.81
250.998	223.81
251.231	230.81
251.465	199.81
251.698	203.81
251.931	193.81
252.164	194.81
252.397	183.81
252.63	211.81
252.863	205.81
253.096	205.81
253.329	226.81
253.562	228.81
253.795	208.81
254.028	221.81
254.261	222.81
254.494	231.81
254.727	239.81
254.96	281.81
255.193	266.81
255.426	231.81
255.659	225.81
255.892	214.81
256.124	216.81
256.357	220.81
256.59	215.81
256.823	209.81
257.056	215.81
257.289	218.81
257.521	225.81
257.754	201.81
257.987	203.81
258.22	217.81
258.452	220.81
258.685	219.81
258.918	203.81
259.151	208.81
259.383	209.81
259.616	245.81
259.849	239.81
260.081	235.81
260.314	263.81
260.547	242.81
260.779	254.81
261.012	248.81
261.244	236.81
261.477	217.81
261.71	231.81
261.942	227.81
262.175	231.81
262.407	223.81
262.64	214.81
262.872	224.81
263.105	216.81
263.337	229.81
263.57	220.81
263.802	206.81
264.035	205.81
264.267	200.81
264.499	214.81
264.732	228.81
264.964	215.81
265.197	203.81
265.429	226.81
265.661	227.81
265.894	263.81
266.126	228.81
266.358	228.81
266.591	233.81
266.823	232.81
267.055	225.81
267.287	230.81
267.52	243.81
267.752	237.81
267.984	231.81
268.216	217.81
268.448	229.81
268.681	266.81
268.913	245.81
269.145	249.81
269.377	271.81
269.609	260.81
269.841	266.81
270.073	302.81
270.306	302.81
270.538	322.81
270.77	315.81
271.002	288.81
271.234	298.81
271.466	301.81
271.698	308.81
271.93	327.81
272.162	332.81
272.394	319.81
272.626	309.81
272.858	308.81
273.09	265.81
273.322	280.81
273.553	279.81
273.785	250.81
274.017	277.81
274.249	274.81
274.481	278.81
274.713	262.81
274.945	283.81
275.176	270.81
275.408	270.81
275.64	273.81
275.872	269.81
276.104	283.81
276.335	288.81
276.567	280.81
276.799	304.81
277.031	313.81
277.262	339.81
277.494	314.81
277.726	299.81
277.957	303.81
278.189	272.81
278.421	272.81
278.652	292.81
278.884	276.81
279.115	285.81
279.347	280.81
279.579	294.81
279.81	289.81
280.042	293.81
280.273	282.81
280.505	281.81
280.736	289.81
280.968	277.81
281.199	298.81
281.431	285.81
281.662	290.81
281.894	303.81
282.125	296.81
282.356	295.81
282.588	321.81
282.819	306.81
283.051	300.81
283.282	285.81
283.513	285.81
283.745	292.81
283.976	308.81
284.207	296.81
284.439	291.81
284.67	303.81
284.901	316.81
285.132	286.81
285.364	301.81
285.595	304.81
285.826	291.81
286.057	313.81
286.288	310.81
286.52	305.81
286.751	303.81
286.982	290.81
287.213	304.81
287.444	314.81
287.675	321.81
287.906	307.81
288.138	317.81
288.369	316.81
288.6	312.81
288.831	326.81
289.062	327.81
289.293	300.81
289.524	315.81
289.755	333.81
289.986	326.81
290.217	307.81
290.448	320.81
290.679	320.81
290.91	307.81
291.141	319.81
291.371	319.81
291.602	312.81
291.833	325.81
292.064	327.81
292.295	319.81
292.526	321.81
292.757	324.81
292.987	306.81
293.218	305.81
293.449	329.81
293.68	305.81
293.91	297.81
294.141	327.81
294.372	326.81
294.603	319.81
294.833	305.81
295.064	340.81
295.295	328.81
295.525	324.81
295.756	319.81
295.987	323.81
296.217	365.81
296.448	372.81
296.679	355.81
296.909	329.81
297.14	329.81
297.37	321.81
297.601	330.81
297.831	329.81
298.062	335.81
298.292	340.81
298.523	363.81
298.753	355.81
298.984	345.81
299.214	364.81
299.445	346.81
299.675	344.81
299.905	350.81
300.136	342.81
300.366	359.81
300.597	344.81
300.827	368.81
301.057	350.81
301.288	369.81
301.518	373.81
301.748	369.81
301.979	366.81
302.209	372.81
302.439	362.81
302.669	369.81
302.9	358.81
303.13	367.81
303.36	367.81
303.59	382.81
303.82	387.81
304.051	368.81
304.281	379.81
304.511	366.81
304.741	351.81
304.971	377.81
305.201	365.81
305.431	359.81
305.661	353.81
305.891	364.81
306.121	364.81
306.352	371.81
306.582	371.81
306.812	371.81
307.042	360.81
307.272	368.81
307.502	371.81
307.731	383.81
307.961	366.81
308.191	371.81
308.421	366.81
308.651	351.81
308.881	363.81
309.111	355.81
309.341	379.81
309.571	397.81
309.8	405.81
310.03	405.81
310.26	392.81
310.49	385.81
310.72	422.81
310.949	421.81
311.179	431.81
311.409	415.81
311.639	394.81
311.868	402.81
312.098	425.81
312.328	419.81
312.557	432.81
312.787	448.81
313.017	437.81
313.246	431.81
313.476	408.81
313.706	403.81
313.935	430.81
314.165	402.81
314.394	439.81
314.624	447.81
314.853	407.81
315.083	434.81
315.312	417.81
315.542	413.81
315.771	397.81
316.001	415.81
316.23	409.81
316.46	415.81
316.689	408.81
316.919	425.81
317.148	416.81
317.377	432.81
317.607	422.81
317.836	415.81
318.065	415.81
318.295	420.81
318.524	403.81
318.753	399.81
318.983	420.81
319.212	420.81
319.441	415.81
319.67	422.81
319.9	411.81
320.129	424.81
320.358	415.81
320.587	396.81
320.816	423.81
321.046	409.81
321.275	446.81
321.504	448.81
321.733	426.81
321.962	457.81
322.191	438.81
322.42	469.81
322.649	469.81
322.878	483.81
323.108	503.81
323.337	501.81
323.566	537.81
323.795	534.81
324.024	571.81
324.253	655.81
324.482	955.81
324.71	1479.81
324.939	2026.81
325.168	1726.81
325.397	928.81
325.626	655.81
325.855	588.81
326.084	546.81
326.313	522.81
326.542	504.81
326.77	579.81
326.999	643.81
327.228	859.81
327.457	1284.81
327.686	1529.81
327.914	1004.81
328.143	703.81
328.372	616.81
328.6	581.81
328.829	591.81
329.058	583.81
329.287	599.81
329.515	581.81
329.744	537.81
329.972	506.81
330.201	533.81
330.43	553.81
330.658	582.81
330.887	638.81
331.115	607.81
331.344	543.81
331.572	539.81
331.801	497.81
332.03	513.81
332.258	539.81
332.486	496.81
332.715	510.81
332.943	515.81
333.172	492.81
333.4	520.81
333.629	525.81
333.857	567.81
334.085	538.81
334.314	527.81
334.542	528.81
334.771	540.81
334.999	532.81
335.227	528.81
335.455	503.81
335.684	523.81
335.912	525.81
336.14	489.81
336.369	519.81
336.597	483.81
336.825	485.81
337.053	492.81
337.281	458.81
337.51	474.81
337.738	500.81
337.966	469.81
338.194	470.81
338.422	488.81
338.65	464.81
338.878	478.81
339.106	455.81
339.334	465.81
339.562	470.81
339.79	465.81
340.018	477.81
340.246	473.81
340.474	464.81
340.702	479.81
340.93	465.81
341.158	479.81
341.386	476.81
341.614	476.81
341.842	473.81
342.07	441.81
342.298	461.81
342.526	440.81
342.754	435.81
342.981	467.81
343.209	460.81
343.437	447.81
343.665	459.81
343.893	473.81
344.12	502.81
344.348	500.81
344.576	496.81
344.804	481.81
345.031	476.81
345.259	492.81
345.487	489.81
345.714	466.81
345.942	460.81
346.17	446.81
346.397	436.81
346.625	429.81
346.853	448.81
347.08	462.81
347.308	449.81
347.535	451.81
347.763	467.81
347.99	454.81
348.218	448.81
348.445	454.81
348.673	442.81
348.9	441.81
349.128	436.81
349.355	441.81
349.583	438.81
349.81	447.81
350.037	435.81
350.265	408.81
350.492	411.81
350.72	439.81
350.947	412.81
351.174	430.81
351.402	451.81
351.629	432.81
351.856	445.81
352.083	440.81
352.311	460.81
352.538	454.81
352.765	456.81
352.992	464.81
353.22	428.81
353.447	441.81
353.674	437.81
353.901	413.81
354.128	424.81
354.355	433.81
354.583	405.81
354.81	411.81
355.037	411.81
355.264	430.81
355.491	411.81
355.718	407.81
355.945	413.81
356.172	421.81
356.399	413.81
356.626	406.81
356.853	441.81
357.08	398.81
357.307	415.81
357.534	407.81
357.761	411.81
357.988	421.81
358.215	419.81
358.441	420.81
358.668	397.81
358.895	431.81
359.122	423.81
359.349	437.81
359.576	443.81
359.802	446.81
360.029	479.81
360.256	485.81
360.483	480.81
360.709	441.81
360.936	446.81
361.163	428.81
361.39	441.81
361.616	431.81
361.843	451.81
362.07	427.81
362.296	426.81
362.523	446.81
362.749	444.81
362.976	447.81
363.203	462.81
363.429	420.81
363.656	444.81
363.882	430.81
364.109	421.81
364.335	437.81
364.562	403.81
364.788	400.81
365.015	406.81
365.241	423.81
365.468	424.81
365.694	429.81
365.92	423.81
366.147	410.81
366.373	421.81
366.599	405.81
366.826	404.81
367.052	415.81
367.278	417.81
367.505	438.81
367.731	417.81
367.957	408.81
368.184	405.81
368.41	429.81
368.636	428.81
368.862	459.81
369.089	395.81
369.315	424.81
369.541	408.81
369.767	419.81
369.993	435.81
370.219	440.81
370.445	417.81
370.672	426.81
370.898	403.81
371.124	423.81
371.35	423.81
371.576	418.81
371.802	411.81
372.028	423.81
372.254	417.81
372.48	410.81
372.706	423.81
372.932	444.81
373.158	437.81
373.384	405.81
373.61	407.81
373.835	427.81
374.061	406.81
374.287	438.81
374.513	422.81
374.739	421.81
374.965	427.81
375.191	441.81
375.416	429.81
375.642	436.81
375.868	434.81
376.094	422.81
376.319	428.81
376.545	425.81
376.771	409.81
376.997	427.81
377.222	419.81
377.448	399.81
377.674	408.81
377.899	407.81
378.125	409.81
378.35	396.81
378.576	405.81
378.802	415.81
379.027	411.81
379.253	416.81
379.478	394.81
379.704	426.81
379.929	427.81
380.155	411.81
380.38	406.81
380.606	442.81
380.831	430.81
381.057	411.81
381.282	425.81
381.507	401.81
381.733	428.81
381.958	414.81
382.184	451.81
382.409	441.81
382.634	432.81
382.86	436.81
383.085	425.81
383.31	437.81
383.535	420.81
383.761	423.81
383.986	425.81
384.211	455.81
384.436	444.81
384.662	454.81
384.887	443.81
385.112	455.81
385.337	467.81
385.562	497.81
385.787	452.81
386.013	477.81
386.238	482.81
386.463	463.81
386.688	460.81
386.913	454.81
387.138	449.81
387.363	465.81
387.588	471.81
387.813	469.81
388.038	473.81
388.263	464.81
388.488	457.81
388.713	457.81
388.938	466.81
389.163	469.81
389.387	451.81
389.612	466.81
389.837	462.81
390.062	459.81
390.287	460.81
390.512	448.81
390.736	458.81
390.961	475.81
391.186	460.81
391.411	481.81
391.636	480.81
391.86	478.81
392.085	501.81
392.31	500.81
392.534	504.81
392.759	479.81
392.984	469.81
393.208	472.81
393.433	483.81
393.658	468.81
393.882	462.81
394.107	469.81
394.331	455.81
394.556	459.81
394.78	474.81
395.005	485.81
395.229	481.81
395.454	490.81
395.678	489.81
395.903	508.81
396.127	518.81
396.352	492.81
396.576	492.81
396.801	488.81
397.025	479.81
397.249	513.81
397.474	496.81
397.698	508.81
397.922	514.81
398.147	529.81
398.371	542.81
398.595	532.81
398.82	542.81
399.044	549.81
399.268	577.81
399.492	626.81
399.717	678.81
399.941	705.81
400.165	694.81
400.389	667.81
400.613	621.81
400.837	573.81
401.062	565.81
401.286	550.81
401.51	540.81
401.734	535.81
401.958	581.81
402.182	537.81
402.406	559.81
402.63	571.81
402.854	581.81
403.078	572.81
403.302	569.81
403.526	570.81
403.75	576.81
403.974	569.81
404.198	557.81
404.422	553.81
404.645	568.81
404.869	578.81
405.093	598.81
405.317	618.81
405.541	651.81
405.765	613.81
405.988	589.81
406.212	596.81
406.436	612.81
406.66	630.81
406.883	637.81
407.107	675.81
407.331	697.81
407.555	738.81
407.778	723.81
408.002	662.81
408.226	624.81
408.449	611.81
408.673	614.81
408.896	617.81
409.12	674.81
409.344	648.81
409.567	576.81
409.791	584.81
410.014	560.81
410.238	555.81
410.461	557.81
410.685	563.81
410.908	569.81
411.132	599.81
411.355	624.81
411.578	606.81
411.802	571.81
412.025	559.81
412.249	569.81
412.472	575.81
412.695	608.81
412.919	541.81
413.142	532.81
413.365	528.81
413.589	552.81
413.812	534.81
414.035	531.81
414.258	516.81
414.482	528.81
414.705	521.81
414.928	528.81
415.151	547.81
415.374	531.81
415.597	523.81
415.821	503.81
416.044	517.81
416.267	534.81
416.49	509.81
416.713	540.81
416.936	508.81
417.159	537.81
417.382	511.81
417.605	513.81
417.828	551.81
418.051	545.81
418.274	554.81
418.497	525.81
418.72	536.81
418.943	541.81
419.166	527.81
419.389	579.81
419.611	569.81
419.834	567.81
420.057	554.81
420.28	543.81
420.503	539.81
420.726	522.81
420.948	541.81
421.171	568.81
421.394	601.81
421.617	532.81
421.839	537.81
422.062	526.81
422.285	542.81
422.507	589.81
422.73	659.81
422.953	637.81
423.175	573.81
423.398	572.81
423.621	548.81
423.843	584.81
424.066	586.81
424.288	565.81
424.511	601.81
424.733	631.81
424.956	705.81
425.178	687.81
425.401	679.81
425.623	668.81
425.846	605.81
426.068	586.81
426.291	577.81
426.513	568.81
426.735	583.81
426.958	617.81
427.18	673.81
427.402	814.81
427.625	879.81
427.847	760.81
428.069	658.81
428.292	595.81
428.514	545.81
428.736	544.81
428.958	532.81
429.181	515.81
429.403	505.81
429.625	541.81
429.847	554.81
430.069	616.81
430.292	592.81
430.514	527.81
430.736	524.81
430.958	504.81
431.18	500.81
431.402	496.81
431.624	494.81
431.846	489.81
432.068	502.81
432.29	519.81
432.512	491.81
432.734	509.81
432.956	490.81
433.178	522.81
433.4	511.81
433.622	502.81
433.844	495.81
434.066	464.81
434.287	497.81
434.509	497.81
434.731	515.81
434.953	515.81
435.175	536.81
435.397	555.81
435.618	551.81
435.84	597.81
436.062	679.81
436.284	711.81
436.505	608.81
436.727	541.81
436.949	527.81
437.17	530.81
437.392	517.81
437.614	535.81
437.835	567.81
438.057	635.81
438.278	713.81
438.5	747.81
438.721	787.81
438.943	759.81
439.165	613.81
439.386	571.81
439.608	560.81
439.829	554.81
440.05	591.81
440.272	616.81
440.493	579.81
440.715	560.81
440.936	530.81
441.158	498.81
441.379	529.81
441.6	548.81
441.822	575.81
442.043	607.81
442.264	659.81
442.486	701.81
442.707	605.81
442.928	561.81
443.149	573.81
443.371	620.81
443.592	662.81
443.813	727.81
444.034	776.81
444.255	654.81
444.476	589.81
444.698	596.81
444.919	608.81
445.14	701.81
445.361	614.81
445.582	627.81
445.803	611.81
446.024	745.81
446.245	761.81
446.466	706.81
446.687	583.81
446.908	565.81
447.129	557.81
447.35	535.81
447.571	505.81
447.792	501.81
448.013	503.81
448.234	518.81
448.455	571.81
448.675	661.81
448.896	758.81
449.117	658.81
449.338	620.81
449.559	695.81
449.779	810.81
450	667.81
450.221	549.81
450.442	519.81
450.662	484.81
450.883	502.81
451.104	503.81
451.324	523.81
451.545	508.81
451.766	485.81
451.986	463.81
452.207	483.81
452.428	452.81
452.648	441.81
452.869	454.81
453.089	459.81
453.31	487.81
453.53	479.81
453.751	480.81
453.971	481.81
454.192	489.81
454.412	461.81
454.633	457.81
454.853	460.81
455.073	442.81
455.294	491.81
455.514	543.81
455.734	511.81
455.955	451.81
456.175	447.81
456.395	417.81
456.616	451.81
456.836	431.81
457.056	442.81
457.276	443.81
457.497	426.81
457.717	432.81
457.937	466.81
458.157	447.81
458.377	455.81
458.598	470.81
458.818	529.81
459.038	612.81
459.258	619.81
459.478	555.81
459.698	513.81
459.918	503.81
460.138	527.81
460.358	535.81
460.578	528.81
460.798	510.81
461.018	547.81
461.238	533.81
461.458	520.81
461.678	527.81
461.898	548.81
462.118	540.81
462.338	550.81
462.558	553.81
462.777	556.81
462.997	581.81
463.217	628.81
463.437	617.81
463.657	587.81
463.876	588.81
464.096	601.81
464.316	554.81
464.536	567.81
464.755	596.81
464.975	586.81
465.195	603.81
465.414	660.81
465.634	572.81
465.854	515.81
466.073	515.81
466.293	497.81
466.512	504.81
466.732	495.81
466.951	484.81
467.171	489.81
467.391	481.81
467.61	487.81
467.829	508.81
468.049	490.81
468.268	491.81
468.488	491.81
468.707	468.81
468.927	472.81
469.146	469.81
469.365	461.81
469.585	467.81
469.804	474.81
470.023	475.81
470.243	488.81
470.462	489.81
470.681	521.81
470.901	519.81
471.12	520.81
471.339	480.81
471.558	488.81
471.777	489.81
471.997	472.81
472.216	486.81
472.435	472.81
472.654	481.81
472.873	451.81
473.092	476.81
473.311	459.81
473.53	467.81
473.749	467.81
473.968	516.81
474.187	606.81
474.406	627.81
474.625	515.81
474.844	505.81
475.063	490.81
475.282	497.81
475.501	479.81
475.72	483.81
475.939	473.81
476.158	511.81
476.377	495.81
476.596	496.81
476.814	509.81
477.033	509.81
477.252	506.81
477.471	505.81
477.69	519.81
477.908	506.81
478.127	522.81
478.346	544.81
478.564	550.81
478.783	508.81
479.002	563.81
479.22	565.81
479.439	587.81
479.658	593.81
479.876	580.81
480.095	609.81
480.313	616.81
480.532	613.81
480.751	583.81
480.969	615.81
481.188	632.81
481.406	635.81
481.624	575.81
481.843	560.81
482.061	541.81
482.28	568.81
482.498	533.81
482.717	550.81
482.935	560.81
483.153	550.81
483.372	559.81
483.59	542.81
483.808	538.81
484.027	543.81
484.245	561.81
484.463	568.81
484.681	575.81
484.9	571.81
485.118	559.81
485.336	568.81
485.554	571.81
485.772	602.81
485.99	573.81
486.209	581.81
486.427	590.81
486.645	575.81
486.863	592.81
487.081	597.81
487.299	576.81
487.517	592.81
487.735	565.81
487.953	584.81
488.171	591.81
488.389	609.81
488.607	592.81
488.825	598.81
489.043	583.81
489.261	607.81
489.479	600.81
489.696	600.81
489.914	638.81
490.132	637.81
490.35	630.81
490.568	631.81
490.786	625.81
491.003	620.81
491.221	652.81
491.439	633.81
491.657	662.81
491.874	692.81
492.092	662.81
492.31	654.81
492.527	684.81
492.745	677.81
492.963	668.81
493.18	669.81
493.398	652.81
493.615	668.81
493.833	668.81
494.05	674.81
494.268	673.81
494.485	696.81
494.703	693.81
494.92	688.81
495.138	703.81
495.355	701.81
495.573	705.81
495.79	684.81
496.008	689.81
496.225	675.81
496.442	694.81
496.66	700.81
496.877	688.81
497.094	701.81
497.312	735.81
497.529	713.81
497.746	728.81
497.963	751.81
498.181	783.81
498.398	801.81
498.615	819.81
498.832	860.81
499.049	850.81
499.267	908.81
499.484	944.81
499.701	959.81
499.918	1025.81
500.135	1111.81
500.352	1208.81
500.569	1191.81
500.786	1217.81
501.003	1177.81
501.22	1121.81
501.437	1075.81
501.654	987.81
501.871	959.81
502.088	942.81
502.305	896.81
502.522	827.81
502.739	821.81
502.956	814.81
503.172	789.81
503.389	775.81
503.606	759.81
503.823	726.81
504.04	747.81
504.256	752.81
504.473	740.81
504.69	747.81
504.907	739.81
505.123	703.81
505.34	671.81
505.557	697.81
505.773	673.81
505.99	691.81
506.207	673.81
506.423	687.81
506.64	672.81
506.856	646.81
507.073	677.81
507.289	667.81
507.506	635.81
507.722	653.81
507.939	681.81
508.155	664.81
508.372	628.81
508.588	608.81
508.805	613.81
509.021	620.81
509.238	647.81
509.454	633.81
509.67	654.81
509.887	622.81
510.103	627.81
510.319	611.81
510.536	723.81
510.752	1145.81
510.968	947.81
511.184	641.81
511.401	614.81
511.617	612.81
511.833	608.81
512.049	570.81
512.265	600.81
512.481	607.81
512.698	579.81
512.914	589.81
513.13	605.81
513.346	588.81
513.562	569.81
513.778	603.81
513.994	592.81
514.21	598.81
514.426	611.81
514.642	657.81
514.858	694.81
515.074	718.81
515.29	819.81
515.506	1248.81
515.721	1059.81
515.937	744.81
516.153	669.81
516.369	641.81
516.585	620.81
516.801	645.81
517.016	646.81
517.232	658.81
517.448	672.81
517.664	655.81
517.879	683.81
518.095	658.81
518.311	662.81
518.527	648.81
518.742	625.81
518.958	624.81
519.173	602.81
519.389	607.81
519.605	597.81
519.82	606.81
520.036	609.81
520.251	624.81
520.467	651.81
520.682	656.81
520.898	641.81
521.113	649.81
521.329	687.81
521.544	750.81
521.76	967.81
521.975	1599.81
522.19	1616.81
522.406	868.81
522.621	673.81
522.836	627.81
523.052	582.81
523.267	565.81
523.482	548.81
523.698	554.81
523.913	557.81
524.128	534.81
524.343	535.81
524.559	524.81
524.774	521.81
524.989	517.81
525.204	533.81
525.419	531.81
525.634	521.81
525.849	527.81
526.064	521.81
526.28	502.81
526.495	499.81
526.71	490.81
526.925	495.81
527.14	480.81
527.355	507.81
527.57	505.81
527.785	469.81
527.999	501.81
528.214	489.81
528.429	495.81
528.644	488.81
528.859	479.81
529.074	479.81
529.289	505.81
529.503	582.81
529.718	559.81
529.933	501.81
530.148	494.81
530.363	499.81
530.577	492.81
530.792	475.81
531.007	497.81
531.221	480.81
531.436	467.81
531.651	483.81
531.865	481.81
532.08	462.81
532.295	481.81
532.509	474.81
532.724	478.81
532.938	499.81
533.153	474.81
533.367	483.81
533.582	476.81
533.796	448.81
534.011	476.81
534.225	463.81
534.44	461.81
534.654	470.81
534.868	457.81
535.083	476.81
535.297	441.81
535.511	464.81
535.726	473.81
535.94	476.81
536.154	472.81
536.369	475.81
536.583	448.81
536.797	455.81
537.011	457.81
537.225	459.81
537.44	462.81
537.654	455.81
537.868	464.81
538.082	437.81
538.296	457.81
538.51	428.81
538.724	441.81
538.938	459.81
539.153	453.81
539.367	455.81
539.581	480.81
539.795	435.81
540.009	439.81
540.222	441.81
540.436	451.81
540.65	440.81
540.864	445.81
541.078	475.81
541.292	454.81
541.506	458.81
541.72	449.81
541.934	447.81
542.147	452.81
542.361	446.81
542.575	432.81
542.789	439.81
543.002	441.81
543.216	453.81
543.43	441.81
543.644	455.81
543.857	452.81
544.071	435.81
544.285	436.81
544.498	441.81
544.712	437.81
544.925	438.81
545.139	433.81
545.352	437.81
545.566	442.81
545.779	440.81
545.993	419.81
546.206	444.81
546.42	435.81
546.633	439.81
546.847	445.81
547.06	445.81
547.274	428.81
547.487	437.81
547.7	441.81
547.914	437.81
548.127	426.81
548.34	446.81
548.554	439.81
548.767	445.81
548.98	441.81
549.193	442.81
549.407	431.81
549.62	445.81
549.833	437.81
550.046	421.81
550.259	449.81
550.473	430.81
550.686	423.81
550.899	422.81
551.112	420.81
551.325	440.81
551.538	441.81
551.751	405.81
551.964	424.81
552.177	409.81
552.39	447.81
552.603	459.81
552.816	441.81
553.029	432.81
553.242	443.81
553.455	441.81
553.667	446.81
553.88	475.81
554.093	449.81
554.306	455.81
554.519	434.81
554.732	441.81
554.944	424.81
555.157	409.81
555.37	429.81
555.583	420.81
555.795	421.81
556.008	424.81
556.221	405.81
556.433	381.81
556.646	378.81
556.859	390.81
557.071	377.81
557.284	399.81
557.496	394.81
557.709	389.81
557.921	391.81
558.134	373.81
558.346	388.81
558.559	371.81
558.771	395.81
558.984	374.81
559.196	388.81
559.409	374.81
559.621	377.81
559.833	365.81
560.046	377.81
560.258	376.81
560.47	370.81
560.683	393.81
560.895	376.81
561.107	376.81
561.32	378.81
561.532	395.81
561.744	398.81
561.956	384.81
562.168	376.81
562.381	365.81
562.593	375.81
562.805	387.81
563.017	379.81
563.229	374.81
563.441	373.81
563.653	398.81
563.865	396.81
564.077	409.81
564.289	391.81
564.501	399.81
564.713	403.81
564.925	405.81
565.137	400.81
565.349	432.81
565.561	416.81
565.773	444.81
565.985	445.81
566.197	443.81
566.408	479.81
566.62	470.81
566.832	510.81
567.044	524.81
567.255	499.81
567.467	515.81
567.679	531.81
567.891	537.81
568.102	546.81
568.314	538.81
568.526	527.81
568.737	493.81
568.949	467.81
569.161	424.81
569.372	413.81
569.584	405.81
569.795	388.81
570.007	398.81
570.218	424.81
570.43	435.81
570.641	382.81
570.853	366.81
571.064	369.81
571.276	399.81
571.487	394.81
571.698	376.81
571.91	369.81
572.121	348.81
572.333	359.81
572.544	353.81
572.755	346.81
572.966	339.81
573.178	350.81
573.389	324.81
573.6	343.81
573.811	338.81
574.023	327.81
574.234	344.81
574.445	337.81
574.656	335.81
574.867	338.81
575.078	349.81
575.289	332.81
575.501	345.81
575.712	333.81
575.923	298.81
576.134	315.81
576.345	315.81
576.556	313.81
576.767	318.81
576.978	316.81
577.188	302.81
577.399	336.81
577.61	323.81
577.821	333.81
578.032	304.81
578.243	359.81
578.454	580.81
578.665	419.81
578.875	340.81
579.086	329.81
579.297	304.81
579.508	296.81
579.718	298.81
579.929	300.81
580.14	303.81
580.35	305.81
580.561	287.81
580.772	283.81
580.982	315.81
581.193	297.81
581.403	303.81
581.614	285.81
581.825	284.81
582.035	284.81
582.246	307.81
582.456	312.81
582.667	289.81
582.877	299.81
583.087	273.81
583.298	292.81
583.508	299.81
583.719	287.81
583.929	283.81
584.139	303.81
584.35	291.81
584.56	303.81
584.77	280.81
584.981	300.81
585.191	304.81
585.401	288.81
585.611	280.81
585.821	277.81
586.032	296.81
586.242	298.81
586.452	288.81
586.662	276.81
586.872	283.81
587.082	291.81
587.292	298.81
587.502	285.81
587.713	291.81
587.923	295.81
588.133	290.81
588.343	305.81
588.553	277.81
588.762	291.81
588.972	283.81
589.182	287.81
589.392	272.81
589.602	288.81
589.812	292.81
590.022	286.81
590.232	267.81
590.441	283.81
590.651	281.81
590.861	292.81
591.071	300.81
591.281	274.81
591.49	284.81
591.7	271.81
591.91	300.81
592.119	272.81
592.329	291.81
592.539	319.81
592.748	319.81
592.958	331.81
593.167	331.81
593.377	307.81
593.587	317.81
593.796	321.81
594.006	315.81
594.215	330.81
594.424	297.81
594.634	334.81
594.843	315.81
595.053	311.81
595.262	313.81
595.472	301.81
595.681	301.81
595.89	284.81
596.1	288.81
596.309	283.81
596.518	285.81
596.727	271.81
596.937	273.81
597.146	282.81
597.355	265.81
597.564	285.81
597.774	273.81
597.983	245.81
598.192	263.81
598.401	262.81
598.61	266.81
598.819	278.81
599.028	246.81
599.237	245.81
599.446	266.81
599.655	252.81
599.864	254.81
600.073	250.81
600.282	262.81
600.491	253.81
600.7	249.81
600.909	254.81
601.118	267.81
601.327	257.81
601.536	249.81
601.745	249.81
601.953	244.81
602.162	254.81
602.371	241.81
602.58	259.81
602.789	221.81
602.997	237.81
603.206	247.81
603.415	243.81
603.623	223.81
603.832	243.81
604.041	247.81
604.249	245.81
604.458	253.81
604.666	233.81
604.875	238.81
605.084	236.81
605.292	224.81
605.501	247.81
605.709	244.81
605.918	239.81
606.126	237.81
606.334	237.81
606.543	247.81
606.751	239.81
606.96	234.81
607.168	228.81
607.376	247.81
607.585	239.81
607.793	246.81
608.001	243.81
608.21	236.81
608.418	215.81
608.626	227.81
608.834	223.81
609.043	229.81
609.251	215.81
609.459	220.81
609.667	234.81
609.875	238.81
610.083	243.81
610.291	245.81
610.499	233.81
610.707	225.81
610.916	231.81
611.124	223.81
611.332	240.81
611.54	256.81
611.748	244.81
611.955	231.81
612.163	227.81
612.371	234.81
612.579	237.81
612.787	247.81
612.995	220.81
613.203	229.81
613.411	243.81
613.618	238.81
613.826	223.81
614.034	217.81
614.242	265.81
614.449	207.81
614.657	230.81
614.865	231.81
615.072	220.81
615.28	227.81
615.488	229.81
615.695	232.81
615.903	224.81
616.111	252.81
616.318	233.81
616.526	223.81
616.733	204.81
616.941	214.81
617.148	232.81
617.356	235.81
617.563	233.81
617.771	236.81
617.978	237.81
618.185	231.81
618.393	229.81
618.6	226.81
618.807	190.81
619.015	217.81
619.222	214.81
619.429	225.81
619.637	203.81
619.844	197.81
620.051	221.81
620.258	216.81
620.466	219.81
620.673	222.81
620.88	212.81
621.087	212.81
621.294	208.81
621.501	211.81
621.708	218.81
621.915	211.81
622.122	208.81
622.329	227.81
622.536	213.81
622.743	211.81
622.95	202.81
623.157	209.81
623.364	215.81
623.571	208.81
623.778	207.81
623.985	220.81
624.192	220.81
624.399	205.81
624.606	199.81
624.812	208.81
625.019	205.81
625.226	195.81
625.433	211.81
625.639	199.81
625.846	210.81
626.053	191.81
626.259	203.81
626.466	192.81
626.673	203.81
626.879	199.81
627.086	191.81
627.293	202.81
627.499	202.81
627.706	208.81
627.912	201.81
628.119	211.81
628.325	219.81
628.532	213.81
628.738	184.81
628.945	200.81
629.151	204.81
629.357	190.81
629.564	209.81
629.77	201.81
629.976	185.81
630.183	194.81
630.389	198.81
630.595	205.81
630.802	195.81
631.008	193.81
631.214	192.81
631.42	183.81
631.627	192.81
631.833	174.81
632.039	193.81
632.245	183.81
632.451	190.81
632.657	193.81
632.863	199.81
633.069	201.81
633.275	191.81
633.481	175.81
633.688	164.81
633.893	181.81
634.099	183.81
634.305	187.81
634.511	193.81
634.717	189.81
634.923	183.81
635.129	179.81
635.335	196.81
635.541	174.81
635.747	175.81
635.952	185.81
636.158	183.81
636.364	160.81
636.57	187.81
636.775	181.81
636.981	189.81
637.187	195.81
637.392	161.81
637.598	181.81
637.804	165.81
638.009	173.81
638.215	187.81
638.421	174.81
638.626	170.81
638.832	153.81
639.037	176.81
639.243	170.81
639.448	168.81
639.654	172.81
639.859	175.81
640.065	179.81
640.27	168.81
640.475	175.81
640.681	161.81
640.886	161.81
641.091	182.81
641.297	199.81
641.502	169.81
641.707	157.81
641.913	165.81
642.118	159.81
642.323	164.81
642.528	165.81
642.733	179.81
642.939	151.81
643.144	158.81
643.349	149.81
643.554	158.81
643.759	165.81
643.964	148.81
644.169	163.81
644.374	154.81
644.579	168.81
644.784	170.81
644.989	166.81
645.194	163.81
645.399	147.81
645.604	166.81
645.809	147.81
646.014	165.81
646.219	150.81
646.423	146.81
646.628	167.81
646.833	160.81
647.038	172.81
647.243	179.81
647.447	157.81
647.652	159.81
647.857	160.81
648.062	172.81
648.266	166.81
648.471	179.81
648.676	159.81
648.88	182.81
649.085	183.81
649.289	157.81
649.494	177.81
649.698	179.81
649.903	174.81
650.107	163.81
650.312	165.81
650.516	160.81
650.721	149.81
650.925	155.81
651.13	151.81
651.334	159.81
651.539	160.81
651.743	153.81
651.947	152.81
652.152	149.81
652.356	139.81
652.56	148.81
652.764	133.81
652.969	144.81
653.173	151.81
653.377	163.81
653.581	137.81
653.785	139.81
653.99	145.81
654.194	130.81
654.398	136.81
654.602	125.81
654.806	144.81
655.01	140.81
655.214	141.81
655.418	146.81
655.622	130.81
655.826	127.81
656.03	142.81
656.234	131.81
656.438	155.81
656.642	157.81
656.846	140.81
657.049	133.81
657.253	132.81
657.457	124.81
657.661	119.81
657.865	136.81
658.068	112.81
658.272	129.81
658.476	113.81
658.68	103.81
658.883	100.81
659.087	109.81
659.291	107.81
659.494	104.81
659.698	100.81
659.901	99.81
660.105	93.81
660.309	102.81
660.512	111.81
660.716	92.81
660.919	96.81
661.123	99.81
661.326	99.81
661.53	86.81
661.733	93.81
661.936	99.81
662.14	89.81
662.343	84.81
662.546	105.81
662.75	102.81
662.953	80.81
663.156	80.81
663.36	78.81
663.563	86.81
663.766	84.81
663.969	74.81
664.173	78.81
664.376	77.81
664.579	83.81
664.782	80.81
664.985	76.81
665.188	86.81
665.391	81.81
665.594	74.81
665.797	75.81
666	73.81
666.203	87.81
666.406	90.81
666.609	87.81
666.812	78.81
667.015	95.81
667.218	92.81
667.421	85.81
667.624	91.81
667.827	64.81
668.03	76.81
668.232	80.81
668.435	90.81
668.638	71.81
668.841	73.81
669.043	72.81
669.246	73.81
669.449	93.81
669.651	91.81
669.854	89.81
670.057	89.81
670.259	84.81
670.462	95.81
670.665	91.81
670.867	81.81
671.07	80.81
671.272	72.81
671.475	85.81
671.677	85.81
671.88	85.81
672.082	62.81
672.284	85.81
672.487	86.81
672.689	92.81
672.892	83.81
