Data from 1985.PennyLincolnUp.Lamp.En5.5.200Scan.071819.P1_HRD10591_17-03-45-971.txt Node
Date: Thu Jul 18 17:03:45 EDT 2019
User: cochatt
Spectrometer: HR+D1059
Trigger mode: 1
Integration Time (sec): 1.000000E-1
Scans to average: 1
Electric dark correction enabled: true
Nonlinearity correction enabled: false
Boxcar width: 0
XAxis mode: Wavelengths
Number of Pixels in Spectrum: 2048
>>>>>Begin Spectral Data<<<<<
223.165	-8.31
223.4	-8.31
223.635	-8.31
223.869	-12.31
224.104	-15.31
224.338	-15.31
224.573	-18.31
224.808	-5.31
225.042	-4.31
225.277	-12.31
225.511	-8.31
225.746	0.69
225.98	13.69
226.215	-0.31
226.449	19.69
226.683	16.69
226.918	18.69
227.152	30.69
227.387	22.69
227.621	31.69
227.856	28.69
228.09	46.69
228.324	56.69
228.559	45.69
228.793	67.69
229.027	84.69
229.262	106.69
229.496	94.69
229.73	122.69
229.964	147.69
230.199	118.69
230.433	105.69
230.667	99.69
230.901	116.69
231.136	103.69
231.37	107.69
231.604	116.69
231.838	87.69
232.072	103.69
232.306	101.69
232.541	108.69
232.775	103.69
233.009	110.69
233.243	106.69
233.477	114.69
233.711	117.69
233.945	105.69
234.179	119.69
234.413	102.69
234.647	120.69
234.881	118.69
235.115	107.69
235.349	108.69
235.583	115.69
235.817	104.69
236.051	123.69
236.285	123.69
236.519	117.69
236.753	129.69
236.987	147.69
237.221	161.69
237.455	219.69
237.689	174.69
237.922	141.69
238.156	126.69
238.39	120.69
238.624	120.69
238.858	132.69
239.091	127.69
239.325	114.69
239.559	112.69
239.793	120.69
240.027	140.69
240.26	139.69
240.494	158.69
240.728	146.69
240.961	136.69
241.195	137.69
241.429	143.69
241.662	129.69
241.896	120.69
242.13	136.69
242.363	131.69
242.597	134.69
242.83	144.69
243.064	128.69
243.298	142.69
243.531	129.69
243.765	139.69
243.998	130.69
244.232	145.69
244.465	130.69
244.699	137.69
244.932	142.69
245.166	123.69
245.399	148.69
245.633	144.69
245.866	149.69
246.099	148.69
246.333	155.69
246.566	144.69
246.8	161.69
247.033	131.69
247.266	166.69
247.5	164.69
247.733	162.69
247.966	160.69
248.2	176.69
248.433	159.69
248.666	165.69
248.899	184.69
249.133	184.69
249.366	223.69
249.599	213.69
249.832	187.69
250.066	177.69
250.299	180.69
250.532	190.69
250.765	190.69
250.998	221.69
251.231	227.69
251.465	216.69
251.698	214.69
251.931	203.69
252.164	200.69
252.397	188.69
252.63	194.69
252.863	210.69
253.096	215.69
253.329	217.69
253.562	220.69
253.795	220.69
254.028	211.69
254.261	226.69
254.494	254.69
254.727	242.69
254.96	271.69
255.193	254.69
255.426	242.69
255.659	242.69
255.892	234.69
256.124	243.69
256.357	240.69
256.59	229.69
256.823	227.69
257.056	218.69
257.289	210.69
257.521	205.69
257.754	202.69
257.987	197.69
258.22	187.69
258.452	213.69
258.685	195.69
258.918	223.69
259.151	213.69
259.383	210.69
259.616	219.69
259.849	216.69
260.081	239.69
260.314	237.69
260.547	259.69
260.779	250.69
261.012	241.69
261.244	234.69
261.477	222.69
261.71	218.69
261.942	224.69
262.175	230.69
262.407	230.69
262.64	232.69
262.872	228.69
263.105	222.69
263.337	221.69
263.57	231.69
263.802	207.69
264.035	226.69
264.267	230.69
264.499	212.69
264.732	228.69
264.964	212.69
265.197	226.69
265.429	208.69
265.661	216.69
265.894	211.69
266.126	226.69
266.358	231.69
266.591	218.69
266.823	237.69
267.055	224.69
267.287	231.69
267.52	237.69
267.752	219.69
267.984	234.69
268.216	242.69
268.448	263.69
268.681	236.69
268.913	254.69
269.145	282.69
269.377	298.69
269.609	272.69
269.841	273.69
270.073	295.69
270.306	311.69
270.538	326.69
270.77	318.69
271.002	301.69
271.234	293.69
271.466	314.69
271.698	316.69
271.93	345.69
272.162	363.69
272.394	313.69
272.626	296.69
272.858	295.69
273.09	292.69
273.322	291.69
273.553	275.69
273.785	291.69
274.017	273.69
274.249	278.69
274.481	278.69
274.713	267.69
274.945	293.69
275.176	276.69
275.408	270.69
275.64	259.69
275.872	276.69
276.104	265.69
276.335	278.69
276.567	285.69
276.799	285.69
277.031	318.69
277.262	316.69
277.494	316.69
277.726	328.69
277.957	296.69
278.189	299.69
278.421	298.69
278.652	288.69
278.884	286.69
279.115	296.69
279.347	284.69
279.579	284.69
279.81	260.69
280.042	314.69
280.273	291.69
280.505	286.69
280.736	270.69
280.968	286.69
281.199	290.69
281.431	296.69
281.662	306.69
281.894	293.69
282.125	290.69
282.356	309.69
282.588	312.69
282.819	333.69
283.051	295.69
283.282	306.69
283.513	316.69
283.745	304.69
283.976	322.69
284.207	312.69
284.439	310.69
284.67	292.69
284.901	316.69
285.132	308.69
285.364	295.69
285.595	302.69
285.826	308.69
286.057	293.69
286.288	338.69
286.52	335.69
286.751	317.69
286.982	310.69
287.213	316.69
287.444	326.69
287.675	307.69
287.906	339.69
288.138	320.69
288.369	319.69
288.6	343.69
288.831	335.69
289.062	345.69
289.293	339.69
289.524	339.69
289.755	338.69
289.986	325.69
290.217	330.69
290.448	309.69
290.679	321.69
290.91	346.69
291.141	321.69
291.371	327.69
291.602	325.69
291.833	325.69
292.064	321.69
292.295	321.69
292.526	322.69
292.757	320.69
292.987	318.69
293.218	316.69
293.449	334.69
293.68	318.69
293.91	315.69
294.141	324.69
294.372	328.69
294.603	332.69
294.833	315.69
295.064	327.69
295.295	341.69
295.525	334.69
295.756	343.69
295.987	332.69
296.217	368.69
296.448	366.69
296.679	359.69
296.909	330.69
297.14	335.69
297.37	346.69
297.601	344.69
297.831	326.69
298.062	354.69
298.292	333.69
298.523	349.69
298.753	349.69
298.984	357.69
299.214	347.69
299.445	345.69
299.675	343.69
299.905	344.69
300.136	346.69
300.366	355.69
300.597	351.69
300.827	385.69
301.057	352.69
301.288	360.69
301.518	351.69
301.748	366.69
301.979	373.69
302.209	366.69
302.439	365.69
302.669	379.69
302.9	362.69
303.13	367.69
303.36	381.69
303.59	379.69
303.82	376.69
304.051	378.69
304.281	364.69
304.511	368.69
304.741	380.69
304.971	386.69
305.201	381.69
305.431	374.69
305.661	367.69
305.891	370.69
306.121	376.69
306.352	375.69
306.582	399.69
306.812	394.69
307.042	376.69
307.272	370.69
307.502	387.69
307.731	374.69
307.961	370.69
308.191	353.69
308.421	360.69
308.651	379.69
308.881	374.69
309.111	386.69
309.341	387.69
309.571	386.69
309.8	422.69
310.03	399.69
310.26	407.69
310.49	394.69
310.72	415.69
310.949	433.69
311.179	426.69
311.409	421.69
311.639	414.69
311.868	420.69
312.098	401.69
312.328	403.69
312.557	430.69
312.787	442.69
313.017	428.69
313.246	447.69
313.476	430.69
313.706	425.69
313.935	475.69
314.165	440.69
314.394	430.69
314.624	442.69
314.853	428.69
315.083	435.69
315.312	437.69
315.542	408.69
315.771	413.69
316.001	415.69
316.23	428.69
316.46	415.69
316.689	422.69
316.919	423.69
317.148	436.69
317.377	446.69
317.607	419.69
317.836	426.69
318.065	416.69
318.295	413.69
318.524	432.69
318.753	410.69
318.983	403.69
319.212	407.69
319.441	426.69
319.67	423.69
319.9	448.69
320.129	415.69
320.358	432.69
320.587	418.69
320.816	414.69
321.046	440.69
321.275	448.69
321.504	430.69
321.733	435.69
321.962	447.69
322.191	465.69
322.42	471.69
322.649	493.69
322.878	488.69
323.108	485.69
323.337	527.69
323.566	544.69
323.795	547.69
324.024	590.69
324.253	717.69
324.482	995.69
324.71	1463.69
324.939	2111.69
325.168	1806.69
325.397	921.69
325.626	671.69
325.855	593.69
326.084	522.69
326.313	533.69
326.542	537.69
326.77	582.69
326.999	664.69
327.228	914.69
327.457	1319.69
327.686	1610.69
327.914	1061.69
328.143	710.69
328.372	649.69
328.6	631.69
328.829	611.69
329.058	626.69
329.287	651.69
329.515	582.69
329.744	572.69
329.972	539.69
330.201	593.69
330.43	627.69
330.658	640.69
330.887	644.69
331.115	607.69
331.344	584.69
331.572	516.69
331.801	565.69
332.03	554.69
332.258	526.69
332.486	508.69
332.715	513.69
332.943	529.69
333.172	538.69
333.4	546.69
333.629	541.69
333.857	571.69
334.085	579.69
334.314	606.69
334.542	622.69
334.771	631.69
334.999	603.69
335.227	558.69
335.455	539.69
335.684	526.69
335.912	516.69
336.14	507.69
336.369	511.69
336.597	511.69
336.825	536.69
337.053	518.69
337.281	488.69
337.51	477.69
337.738	492.69
337.966	500.69
338.194	498.69
338.422	480.69
338.65	498.69
338.878	504.69
339.106	503.69
339.334	475.69
339.562	488.69
339.79	460.69
340.018	471.69
340.246	472.69
340.474	461.69
340.702	480.69
340.93	497.69
341.158	484.69
341.386	470.69
341.614	479.69
341.842	476.69
342.07	472.69
342.298	470.69
342.526	470.69
342.754	448.69
342.981	445.69
343.209	487.69
343.437	463.69
343.665	484.69
343.893	520.69
344.12	506.69
344.348	509.69
344.576	493.69
344.804	487.69
345.031	493.69
345.259	490.69
345.487	488.69
345.714	481.69
345.942	474.69
346.17	455.69
346.397	481.69
346.625	444.69
346.853	452.69
347.08	470.69
347.308	462.69
347.535	465.69
347.763	455.69
347.99	448.69
348.218	456.69
348.445	484.69
348.673	457.69
348.9	462.69
349.128	456.69
349.355	421.69
349.583	435.69
349.81	436.69
350.037	434.69
350.265	441.69
350.492	452.69
350.72	452.69
350.947	423.69
351.174	454.69
351.402	463.69
351.629	432.69
351.856	455.69
352.083	470.69
352.311	437.69
352.538	456.69
352.765	482.69
352.992	459.69
353.22	455.69
353.447	440.69
353.674	454.69
353.901	440.69
354.128	421.69
354.355	429.69
354.583	415.69
354.81	424.69
355.037	431.69
355.264	418.69
355.491	430.69
355.718	421.69
355.945	417.69
356.172	444.69
356.399	419.69
356.626	417.69
356.853	427.69
357.08	420.69
357.307	414.69
357.534	418.69
357.761	420.69
357.988	427.69
358.215	420.69
358.441	423.69
358.668	414.69
358.895	450.69
359.122	443.69
359.349	442.69
359.576	437.69
359.802	472.69
360.029	499.69
360.256	485.69
360.483	472.69
360.709	467.69
360.936	463.69
361.163	450.69
361.39	424.69
361.616	433.69
361.843	443.69
362.07	450.69
362.296	473.69
362.523	432.69
362.749	441.69
362.976	435.69
363.203	430.69
363.429	440.69
363.656	438.69
363.882	455.69
364.109	423.69
364.335	418.69
364.562	428.69
364.788	432.69
365.015	433.69
365.241	431.69
365.468	419.69
365.694	424.69
365.92	430.69
366.147	423.69
366.373	406.69
366.599	416.69
366.826	436.69
367.052	422.69
367.278	444.69
367.505	415.69
367.731	418.69
367.957	451.69
368.184	437.69
368.41	424.69
368.636	449.69
368.862	451.69
369.089	444.69
369.315	441.69
369.541	434.69
369.767	426.69
369.993	436.69
370.219	442.69
370.445	402.69
370.672	408.69
370.898	434.69
371.124	443.69
371.35	434.69
371.576	449.69
371.802	423.69
372.028	436.69
372.254	427.69
372.48	441.69
372.706	443.69
372.932	457.69
373.158	426.69
373.384	422.69
373.61	445.69
373.835	443.69
374.061	428.69
374.287	432.69
374.513	418.69
374.739	434.69
374.965	448.69
375.191	448.69
375.416	460.69
375.642	429.69
375.868	446.69
376.094	436.69
376.319	420.69
376.545	423.69
376.771	423.69
376.997	415.69
377.222	450.69
377.448	430.69
377.674	417.69
377.899	412.69
378.125	409.69
378.35	420.69
378.576	438.69
378.802	428.69
379.027	416.69
379.253	420.69
379.478	408.69
379.704	429.69
379.929	426.69
380.155	417.69
380.38	416.69
380.606	443.69
380.831	415.69
381.057	430.69
381.282	412.69
381.507	414.69
381.733	425.69
381.958	425.69
382.184	414.69
382.409	436.69
382.634	445.69
382.86	440.69
383.085	448.69
383.31	452.69
383.535	448.69
383.761	462.69
383.986	447.69
384.211	454.69
384.436	457.69
384.662	460.69
384.887	470.69
385.112	473.69
385.337	475.69
385.562	466.69
385.787	467.69
386.013	497.69
386.238	477.69
386.463	487.69
386.688	458.69
386.913	479.69
387.138	480.69
387.363	476.69
387.588	481.69
387.813	477.69
388.038	480.69
388.263	479.69
388.488	493.69
388.713	480.69
388.938	490.69
389.163	454.69
389.387	456.69
389.612	467.69
389.837	458.69
390.062	442.69
390.287	476.69
390.512	468.69
390.736	487.69
390.961	478.69
391.186	472.69
391.411	479.69
391.636	485.69
391.86	494.69
392.085	478.69
392.31	502.69
392.534	498.69
392.759	490.69
392.984	487.69
393.208	492.69
393.433	466.69
393.658	483.69
393.882	482.69
394.107	492.69
394.331	514.69
394.556	493.69
394.78	495.69
395.005	478.69
395.229	492.69
395.454	489.69
395.678	507.69
395.903	518.69
396.127	509.69
396.352	524.69
396.576	502.69
396.801	504.69
397.025	493.69
397.249	519.69
397.474	528.69
397.698	516.69
397.922	521.69
398.147	532.69
398.371	548.69
398.595	538.69
398.82	535.69
399.044	543.69
399.268	597.69
399.492	606.69
399.717	698.69
399.941	711.69
400.165	690.69
400.389	704.69
400.613	626.69
400.837	602.69
401.062	570.69
401.286	556.69
401.51	556.69
401.734	573.69
401.958	534.69
402.182	570.69
402.406	550.69
402.63	572.69
402.854	580.69
403.078	570.69
403.302	578.69
403.526	594.69
403.75	605.69
403.974	600.69
404.198	590.69
404.422	584.69
404.645	597.69
404.869	600.69
405.093	646.69
405.317	682.69
405.541	705.69
405.765	659.69
405.988	637.69
406.212	623.69
406.436	643.69
406.66	652.69
406.883	647.69
407.107	655.69
407.331	701.69
407.555	734.69
407.778	766.69
408.002	684.69
408.226	651.69
408.449	633.69
408.673	614.69
408.896	647.69
409.12	696.69
409.344	650.69
409.567	590.69
409.791	574.69
410.014	568.69
410.238	583.69
410.461	585.69
410.685	594.69
410.908	580.69
411.132	632.69
411.355	648.69
411.578	619.69
411.802	584.69
412.025	586.69
412.249	580.69
412.472	610.69
412.695	659.69
412.919	629.69
413.142	610.69
413.365	580.69
413.589	559.69
413.812	536.69
414.035	534.69
414.258	543.69
414.482	538.69
414.705	559.69
414.928	539.69
415.151	549.69
415.374	554.69
415.597	536.69
415.821	531.69
416.044	542.69
416.267	555.69
416.49	530.69
416.713	532.69
416.936	532.69
417.159	538.69
417.382	529.69
417.605	548.69
417.828	564.69
418.051	557.69
418.274	542.69
418.497	525.69
418.72	537.69
418.943	534.69
419.166	544.69
419.389	593.69
419.611	563.69
419.834	578.69
420.057	581.69
420.28	577.69
420.503	574.69
420.726	568.69
420.948	579.69
421.171	629.69
421.394	610.69
421.617	577.69
421.839	546.69
422.062	540.69
422.285	557.69
422.507	618.69
422.73	698.69
422.953	666.69
423.175	587.69
423.398	583.69
423.621	563.69
423.843	596.69
424.066	590.69
424.288	584.69
424.511	612.69
424.733	639.69
424.956	700.69
425.178	700.69
425.401	703.69
425.623	730.69
425.846	597.69
426.068	570.69
426.291	582.69
426.513	580.69
426.735	597.69
426.958	620.69
427.18	684.69
427.402	869.69
427.625	906.69
427.847	782.69
428.069	697.69
428.292	636.69
428.514	574.69
428.736	543.69
428.958	551.69
429.181	525.69
429.403	537.69
429.625	521.69
429.847	567.69
430.069	596.69
430.292	631.69
430.514	550.69
430.736	520.69
430.958	523.69
431.18	506.69
431.402	498.69
431.624	511.69
431.846	512.69
432.068	520.69
432.29	515.69
432.512	500.69
432.734	498.69
432.956	507.69
433.178	524.69
433.4	536.69
433.622	492.69
433.844	508.69
434.066	506.69
434.287	514.69
434.509	511.69
434.731	538.69
434.953	545.69
435.175	557.69
435.397	577.69
435.618	574.69
435.84	587.69
436.062	701.69
436.284	773.69
436.505	611.69
436.727	568.69
436.949	522.69
437.17	534.69
437.392	514.69
437.614	534.69
437.835	535.69
438.057	682.69
438.278	776.69
438.5	748.69
438.721	846.69
438.943	819.69
439.165	641.69
439.386	596.69
439.608	555.69
439.829	573.69
440.05	593.69
440.272	629.69
440.493	595.69
440.715	561.69
440.936	551.69
441.158	531.69
441.379	553.69
441.6	575.69
441.822	580.69
442.043	619.69
442.264	682.69
442.486	723.69
442.707	635.69
442.928	590.69
443.149	608.69
443.371	619.69
443.592	678.69
443.813	752.69
444.034	808.69
444.255	678.69
444.476	605.69
444.698	618.69
444.919	630.69
445.14	735.69
445.361	686.69
445.582	644.69
445.803	702.69
446.024	806.69
446.245	770.69
446.466	704.69
446.687	590.69
446.908	552.69
447.129	550.69
447.35	546.69
447.571	512.69
447.792	524.69
448.013	529.69
448.234	535.69
448.455	613.69
448.675	707.69
448.896	789.69
449.117	668.69
449.338	641.69
449.559	742.69
449.779	852.69
450	693.69
450.221	556.69
450.442	521.69
450.662	506.69
450.883	503.69
451.104	522.69
451.324	515.69
451.545	502.69
451.766	501.69
451.986	472.69
452.207	483.69
452.428	476.69
452.648	479.69
452.869	478.69
453.089	482.69
453.31	486.69
453.53	465.69
453.751	462.69
453.971	475.69
454.192	484.69
454.412	461.69
454.633	462.69
454.853	469.69
455.073	448.69
455.294	492.69
455.514	552.69
455.734	535.69
455.955	457.69
456.175	456.69
456.395	443.69
456.616	445.69
456.836	451.69
457.056	462.69
457.276	454.69
457.497	436.69
457.717	455.69
457.937	445.69
458.157	455.69
458.377	483.69
458.598	502.69
458.818	544.69
459.038	624.69
459.258	611.69
459.478	554.69
459.698	535.69
459.918	513.69
460.138	533.69
460.358	528.69
460.578	532.69
460.798	529.69
461.018	557.69
461.238	565.69
461.458	541.69
461.678	540.69
461.898	536.69
462.118	573.69
462.338	568.69
462.558	588.69
462.777	595.69
462.997	608.69
463.217	634.69
463.437	627.69
463.657	615.69
463.876	600.69
464.096	587.69
464.316	581.69
464.536	585.69
464.755	606.69
464.975	583.69
465.195	622.69
465.414	648.69
465.634	577.69
465.854	550.69
466.073	517.69
466.293	500.69
466.512	492.69
466.732	486.69
466.951	477.69
467.171	498.69
467.391	506.69
467.61	487.69
467.829	501.69
468.049	495.69
468.268	483.69
468.488	484.69
468.707	466.69
468.927	491.69
469.146	478.69
469.365	472.69
469.585	481.69
469.804	488.69
470.023	477.69
470.243	487.69
470.462	510.69
470.681	512.69
470.901	514.69
471.12	508.69
471.339	500.69
471.558	492.69
471.777	509.69
471.997	500.69
472.216	508.69
472.435	529.69
472.654	531.69
472.873	483.69
473.092	493.69
473.311	506.69
473.53	486.69
473.749	482.69
473.968	520.69
474.187	634.69
474.406	648.69
474.625	545.69
474.844	487.69
475.063	487.69
475.282	479.69
475.501	483.69
475.72	502.69
475.939	495.69
476.158	508.69
476.377	475.69
476.596	504.69
476.814	514.69
477.033	538.69
477.252	527.69
477.471	524.69
477.69	542.69
477.908	548.69
478.127	536.69
478.346	551.69
478.564	555.69
478.783	570.69
479.002	576.69
479.22	578.69
479.439	585.69
479.658	593.69
479.876	609.69
480.095	612.69
480.313	656.69
480.532	615.69
480.751	624.69
480.969	626.69
481.188	683.69
481.406	704.69
481.624	654.69
481.843	613.69
482.061	605.69
482.28	580.69
482.498	584.69
482.717	591.69
482.935	566.69
483.153	582.69
483.372	549.69
483.59	558.69
483.808	570.69
484.027	568.69
484.245	581.69
484.463	580.69
484.681	587.69
484.9	594.69
485.118	591.69
485.336	595.69
485.554	583.69
485.772	600.69
485.99	589.69
486.209	585.69
486.427	616.69
486.645	587.69
486.863	603.69
487.081	631.69
487.299	628.69
487.517	630.69
487.735	610.69
487.953	600.69
488.171	599.69
488.389	599.69
488.607	625.69
488.825	610.69
489.043	614.69
489.261	623.69
489.479	630.69
489.696	614.69
489.914	639.69
490.132	622.69
490.35	620.69
490.568	644.69
490.786	629.69
491.003	671.69
491.221	668.69
491.439	680.69
491.657	690.69
491.874	715.69
492.092	705.69
492.31	713.69
492.527	723.69
492.745	718.69
492.963	726.69
493.18	721.69
493.398	738.69
493.615	734.69
493.833	731.69
494.05	718.69
494.268	715.69
494.485	737.69
494.703	711.69
494.92	711.69
495.138	718.69
495.355	735.69
495.573	731.69
495.79	732.69
496.008	725.69
496.225	710.69
496.442	726.69
496.66	757.69
496.877	750.69
497.094	718.69
497.312	740.69
497.529	766.69
497.746	761.69
497.963	788.69
498.181	798.69
498.398	813.69
498.615	838.69
498.832	860.69
499.049	897.69
499.267	905.69
499.484	971.69
499.701	1023.69
499.918	1036.69
500.135	1171.69
500.352	1201.69
500.569	1261.69
500.786	1256.69
501.003	1204.69
501.22	1152.69
501.437	1088.69
501.654	1057.69
501.871	981.69
502.088	954.69
502.305	903.69
502.522	868.69
502.739	856.69
502.956	815.69
503.172	819.69
503.389	796.69
503.606	768.69
503.823	761.69
504.04	758.69
504.256	752.69
504.473	764.69
504.69	764.69
504.907	734.69
505.123	710.69
505.34	727.69
505.557	719.69
505.773	690.69
505.99	703.69
506.207	689.69
506.423	690.69
506.64	680.69
506.856	650.69
507.073	665.69
507.289	663.69
507.506	647.69
507.722	683.69
507.939	715.69
508.155	675.69
508.372	640.69
508.588	644.69
508.805	634.69
509.021	625.69
509.238	653.69
509.454	662.69
509.67	668.69
509.887	641.69
510.103	630.69
510.319	627.69
510.536	716.69
510.752	1200.69
510.968	980.69
511.184	655.69
511.401	632.69
511.617	620.69
511.833	627.69
512.049	638.69
512.265	624.69
512.481	600.69
512.698	575.69
512.914	595.69
513.13	604.69
513.346	614.69
513.562	581.69
513.778	606.69
513.994	608.69
514.21	617.69
514.426	656.69
514.642	686.69
514.858	701.69
515.074	723.69
515.29	851.69
515.506	1277.69
515.721	1056.69
515.937	730.69
516.153	693.69
516.369	650.69
516.585	652.69
516.801	680.69
517.016	646.69
517.232	655.69
517.448	660.69
517.664	672.69
517.879	671.69
518.095	680.69
518.311	655.69
518.527	663.69
518.742	636.69
518.958	638.69
519.173	614.69
519.389	646.69
519.605	616.69
519.82	612.69
520.036	628.69
520.251	640.69
520.467	662.69
520.682	653.69
520.898	653.69
521.113	675.69
521.329	699.69
521.544	773.69
521.76	935.69
521.975	1590.69
522.19	1630.69
522.406	884.69
522.621	682.69
522.836	603.69
523.052	606.69
523.267	587.69
523.482	579.69
523.698	554.69
523.913	562.69
524.128	577.69
524.343	528.69
524.559	514.69
524.774	517.69
524.989	511.69
525.204	545.69
525.419	528.69
525.634	519.69
525.849	507.69
526.064	504.69
526.28	518.69
526.495	485.69
526.71	520.69
526.925	500.69
527.14	504.69
527.355	485.69
527.57	501.69
527.785	498.69
527.999	511.69
528.214	490.69
528.429	499.69
528.644	502.69
528.859	516.69
529.074	468.69
529.289	529.69
529.503	605.69
529.718	579.69
529.933	519.69
530.148	511.69
530.363	511.69
530.577	478.69
530.792	494.69
531.007	474.69
531.221	485.69
531.436	476.69
531.651	492.69
531.865	492.69
532.08	481.69
532.295	473.69
532.509	456.69
532.724	467.69
532.938	471.69
533.153	492.69
533.367	448.69
533.582	458.69
533.796	460.69
534.011	479.69
534.225	470.69
534.44	455.69
534.654	460.69
534.868	452.69
535.083	463.69
535.297	473.69
535.511	463.69
535.726	496.69
535.94	466.69
536.154	465.69
536.369	470.69
536.583	458.69
536.797	452.69
537.011	480.69
537.225	448.69
537.44	454.69
537.654	452.69
537.868	468.69
538.082	457.69
538.296	462.69
538.51	460.69
538.724	452.69
538.938	444.69
539.153	431.69
539.367	465.69
539.581	446.69
539.795	448.69
540.009	444.69
540.222	432.69
540.436	448.69
540.65	448.69
540.864	466.69
541.078	454.69
541.292	438.69
541.506	466.69
541.72	461.69
541.934	457.69
542.147	464.69
542.361	472.69
542.575	445.69
542.789	457.69
543.002	452.69
543.216	447.69
543.43	439.69
543.644	471.69
543.857	461.69
544.071	445.69
544.285	457.69
544.498	463.69
544.712	476.69
544.925	464.69
545.139	470.69
545.352	457.69
545.566	452.69
545.779	444.69
545.993	449.69
546.206	466.69
546.42	446.69
546.633	447.69
546.847	448.69
547.06	451.69
547.274	427.69
547.487	440.69
547.7	418.69
547.914	430.69
548.127	439.69
548.34	431.69
548.554	431.69
548.767	437.69
548.98	439.69
549.193	431.69
549.407	445.69
549.62	432.69
549.833	456.69
550.046	444.69
550.259	455.69
550.473	411.69
550.686	442.69
550.899	438.69
551.112	420.69
551.325	423.69
551.538	436.69
551.751	457.69
551.964	426.69
552.177	442.69
552.39	430.69
552.603	458.69
552.816	445.69
553.029	450.69
553.242	456.69
553.455	433.69
553.667	456.69
553.88	478.69
554.093	454.69
554.306	464.69
554.519	433.69
554.732	448.69
554.944	422.69
555.157	430.69
555.37	417.69
555.583	422.69
555.795	422.69
556.008	420.69
556.221	390.69
556.433	403.69
556.646	404.69
556.859	412.69
557.071	383.69
557.284	406.69
557.496	398.69
557.709	373.69
557.921	399.69
558.134	390.69
558.346	371.69
558.559	388.69
558.771	398.69
558.984	391.69
559.196	364.69
559.409	368.69
559.621	375.69
559.833	373.69
560.046	381.69
560.258	381.69
560.47	367.69
560.683	390.69
560.895	378.69
561.107	370.69
561.32	371.69
561.532	391.69
561.744	375.69
561.956	375.69
562.168	395.69
562.381	387.69
562.593	388.69
562.805	379.69
563.017	397.69
563.229	380.69
563.441	407.69
563.653	387.69
563.865	389.69
564.077	388.69
564.289	377.69
564.501	405.69
564.713	414.69
564.925	406.69
565.137	409.69
565.349	424.69
565.561	440.69
565.773	426.69
565.985	451.69
566.197	476.69
566.408	461.69
566.62	508.69
566.832	500.69
567.044	530.69
567.255	515.69
567.467	522.69
567.679	551.69
567.891	562.69
568.102	562.69
568.314	565.69
568.526	515.69
568.737	502.69
568.949	487.69
569.161	460.69
569.372	435.69
569.584	406.69
569.795	413.69
570.007	391.69
570.218	455.69
570.43	414.69
570.641	387.69
570.853	372.69
571.064	393.69
571.276	402.69
571.487	367.69
571.698	374.69
571.91	366.69
572.121	363.69
572.333	362.69
572.544	370.69
572.755	333.69
572.966	341.69
573.178	357.69
573.389	340.69
573.6	338.69
573.811	324.69
574.023	334.69
574.234	346.69
574.445	343.69
574.656	322.69
574.867	346.69
575.078	333.69
575.289	336.69
575.501	333.69
575.712	324.69
575.923	310.69
576.134	338.69
576.345	338.69
576.556	333.69
576.767	314.69
576.978	316.69
577.188	329.69
577.399	321.69
577.61	309.69
577.821	335.69
578.032	314.69
578.243	343.69
578.454	556.69
578.665	433.69
578.875	312.69
579.086	311.69
579.297	305.69
579.508	319.69
579.718	313.69
579.929	309.69
580.14	306.69
580.35	306.69
580.561	288.69
580.772	318.69
580.982	304.69
581.193	302.69
581.403	302.69
581.614	304.69
581.825	287.69
582.035	306.69
582.246	304.69
582.456	278.69
582.667	292.69
582.877	290.69
583.087	303.69
583.298	290.69
583.508	300.69
583.719	287.69
583.929	286.69
584.139	295.69
584.35	290.69
584.56	296.69
584.77	292.69
584.981	302.69
585.191	275.69
585.401	273.69
585.611	290.69
585.821	294.69
586.032	302.69
586.242	298.69
586.452	288.69
586.662	291.69
586.872	281.69
587.082	271.69
587.292	283.69
587.502	288.69
587.713	286.69
587.923	291.69
588.133	291.69
588.343	302.69
588.553	294.69
588.762	283.69
588.972	298.69
589.182	290.69
589.392	291.69
589.602	289.69
589.812	299.69
590.022	272.69
590.232	267.69
590.441	280.69
590.651	302.69
590.861	288.69
591.071	274.69
591.281	290.69
591.49	295.69
591.7	296.69
591.91	293.69
592.119	301.69
592.329	310.69
592.539	296.69
592.748	317.69
592.958	308.69
593.167	303.69
593.377	320.69
593.587	336.69
593.796	328.69
594.006	328.69
594.215	322.69
594.424	317.69
594.634	323.69
594.843	291.69
595.053	316.69
595.262	306.69
595.472	287.69
595.681	293.69
595.89	294.69
596.1	299.69
596.309	279.69
596.518	287.69
596.727	272.69
596.937	270.69
597.146	275.69
597.355	274.69
597.564	260.69
597.774	275.69
597.983	275.69
598.192	255.69
598.401	254.69
598.61	252.69
598.819	258.69
599.028	255.69
599.237	256.69
599.446	237.69
599.655	237.69
599.864	257.69
600.073	257.69
600.282	264.69
600.491	240.69
600.7	262.69
600.909	246.69
601.118	255.69
601.327	247.69
601.536	247.69
601.745	256.69
601.953	255.69
602.162	249.69
602.371	238.69
602.58	238.69
602.789	259.69
602.997	248.69
603.206	235.69
603.415	238.69
603.623	241.69
603.832	246.69
604.041	240.69
604.249	226.69
604.458	229.69
604.666	224.69
604.875	253.69
605.084	240.69
605.292	236.69
605.501	223.69
605.709	230.69
605.918	234.69
606.126	234.69
606.334	231.69
606.543	231.69
606.751	240.69
606.96	234.69
607.168	229.69
607.376	246.69
607.585	248.69
607.793	231.69
608.001	228.69
608.21	233.69
608.418	242.69
608.626	210.69
608.834	220.69
609.043	213.69
609.251	243.69
609.459	236.69
609.667	227.69
609.875	223.69
610.083	238.69
610.291	231.69
610.499	234.69
610.707	240.69
610.916	243.69
611.124	237.69
611.332	231.69
611.54	240.69
611.748	236.69
611.955	219.69
612.163	239.69
612.371	235.69
612.579	235.69
612.787	234.69
612.995	213.69
613.203	222.69
613.411	206.69
613.618	227.69
613.826	205.69
614.034	218.69
614.242	227.69
614.449	235.69
614.657	218.69
614.865	228.69
615.072	231.69
615.28	232.69
615.488	227.69
615.695	224.69
615.903	236.69
616.111	223.69
616.318	238.69
616.526	221.69
616.733	249.69
616.941	250.69
617.148	230.69
617.356	238.69
617.563	236.69
617.771	223.69
617.978	218.69
618.185	222.69
618.393	238.69
618.6	226.69
618.807	251.69
619.015	252.69
619.222	231.69
619.429	211.69
619.637	223.69
619.844	219.69
620.051	215.69
620.258	210.69
620.466	238.69
620.673	209.69
620.88	198.69
621.087	207.69
621.294	228.69
621.501	228.69
621.708	214.69
621.915	201.69
622.122	222.69
622.329	211.69
622.536	207.69
622.743	213.69
622.95	199.69
623.157	211.69
623.364	213.69
623.571	199.69
623.778	200.69
623.985	212.69
624.192	205.69
624.399	193.69
624.606	208.69
624.812	193.69
625.019	199.69
625.226	206.69
625.433	207.69
625.639	210.69
625.846	202.69
626.053	189.69
626.259	186.69
626.466	194.69
626.673	194.69
626.879	200.69
627.086	196.69
627.293	198.69
627.499	201.69
627.706	199.69
627.912	190.69
628.119	197.69
628.325	205.69
628.532	191.69
628.738	193.69
628.945	205.69
629.151	192.69
629.357	191.69
629.564	195.69
629.77	175.69
629.976	177.69
630.183	190.69
630.389	184.69
630.595	181.69
630.802	173.69
631.008	187.69
631.214	184.69
631.42	176.69
631.627	180.69
631.833	184.69
632.039	182.69
632.245	170.69
632.451	189.69
632.657	185.69
632.863	192.69
633.069	184.69
633.275	190.69
633.481	172.69
633.688	184.69
633.893	188.69
634.099	186.69
634.305	180.69
634.511	186.69
634.717	171.69
634.923	182.69
635.129	167.69
635.335	174.69
635.541	176.69
635.747	180.69
635.952	175.69
636.158	157.69
636.364	167.69
636.57	194.69
636.775	183.69
636.981	179.69
637.187	183.69
637.392	167.69
637.598	175.69
637.804	179.69
638.009	184.69
638.215	189.69
638.421	182.69
638.626	188.69
638.832	179.69
639.037	158.69
639.243	165.69
639.448	170.69
639.654	181.69
639.859	153.69
640.065	166.69
640.27	178.69
640.475	163.69
640.681	162.69
640.886	177.69
641.091	171.69
641.297	162.69
641.502	162.69
641.707	170.69
641.913	153.69
642.118	154.69
642.323	156.69
642.528	159.69
642.733	165.69
642.939	151.69
643.144	167.69
643.349	171.69
643.554	180.69
643.759	153.69
643.964	154.69
644.169	161.69
644.374	158.69
644.579	146.69
644.784	163.69
644.989	150.69
645.194	173.69
645.399	172.69
645.604	158.69
645.809	166.69
646.014	165.69
646.219	144.69
646.423	156.69
646.628	163.69
646.833	158.69
647.038	155.69
647.243	158.69
647.447	163.69
647.652	159.69
647.857	142.69
648.062	181.69
648.266	157.69
648.471	173.69
648.676	164.69
648.88	167.69
649.085	171.69
649.289	165.69
649.494	152.69
649.698	178.69
649.903	178.69
650.107	159.69
650.312	164.69
650.516	144.69
650.721	137.69
650.925	148.69
651.13	161.69
651.334	146.69
651.539	149.69
651.743	139.69
651.947	143.69
652.152	132.69
652.356	147.69
652.56	147.69
652.764	145.69
652.969	124.69
653.173	150.69
653.377	136.69
653.581	115.69
653.785	129.69
653.99	127.69
654.194	142.69
654.398	142.69
654.602	130.69
654.806	128.69
655.01	142.69
655.214	138.69
655.418	149.69
655.622	149.69
655.826	134.69
656.03	154.69
656.234	130.69
656.438	125.69
656.642	137.69
656.846	133.69
657.049	130.69
657.253	129.69
657.457	113.69
657.661	111.69
657.865	114.69
658.068	103.69
658.272	106.69
658.476	114.69
658.68	102.69
658.883	104.69
659.087	100.69
659.291	92.69
659.494	101.69
659.698	91.69
659.901	86.69
660.105	98.69
660.309	98.69
660.512	99.69
660.716	87.69
660.919	81.69
661.123	80.69
661.326	87.69
661.53	93.69
661.733	89.69
661.936	91.69
662.14	84.69
662.343	83.69
662.546	86.69
662.75	77.69
662.953	90.69
663.156	86.69
663.36	70.69
663.563	76.69
663.766	91.69
663.969	76.69
664.173	85.69
664.376	79.69
664.579	76.69
664.782	76.69
664.985	68.69
665.188	72.69
665.391	70.69
665.594	83.69
665.797	74.69
666	71.69
666.203	93.69
666.406	72.69
666.609	78.69
666.812	77.69
667.015	52.69
667.218	73.69
667.421	77.69
667.624	81.69
667.827	94.69
668.03	85.69
668.232	76.69
668.435	73.69
668.638	80.69
668.841	68.69
669.043	77.69
669.246	73.69
669.449	68.69
669.651	78.69
669.854	68.69
670.057	78.69
670.259	78.69
670.462	69.69
670.665	69.69
670.867	70.69
671.07	75.69
671.272	86.69
671.475	70.69
671.677	83.69
671.88	89.69
672.082	66.69
672.284	85.69
672.487	81.69
672.689	63.69
672.892	70.69
