Data from 1985.PennyLincolnUp.Lamp.En5.5.200Scan.071819.P1_HRD10591_17-04-02-970.txt Node
Date: Thu Jul 18 17:04:02 EDT 2019
User: cochatt
Spectrometer: HR+D1059
Trigger mode: 1
Integration Time (sec): 1.000000E-1
Scans to average: 1
Electric dark correction enabled: true
Nonlinearity correction enabled: false
Boxcar width: 0
XAxis mode: Wavelengths
Number of Pixels in Spectrum: 2048
>>>>>Begin Spectral Data<<<<<
223.165	-8.62
223.4	-8.62
223.635	-8.62
223.869	-22.62
224.104	-24.62
224.338	-18.62
224.573	-15.62
224.808	-9.62
225.042	-16.62
225.277	-6.62
225.511	-6.62
225.746	10.38
225.98	8.38
226.215	0.38
226.449	18.38
226.683	26.38
226.918	24.38
227.152	41.38
227.387	52.38
227.621	39.38
227.856	42.38
228.09	44.38
228.324	34.38
228.559	28.38
228.793	77.38
229.027	100.38
229.262	103.38
229.496	118.38
229.73	125.38
229.964	155.38
230.199	127.38
230.433	109.38
230.667	101.38
230.901	112.38
231.136	118.38
231.37	112.38
231.604	118.38
231.838	107.38
232.072	117.38
232.306	104.38
232.541	106.38
232.775	132.38
233.009	115.38
233.243	117.38
233.477	118.38
233.711	128.38
233.945	124.38
234.179	111.38
234.413	109.38
234.647	109.38
234.881	120.38
235.115	123.38
235.349	118.38
235.583	124.38
235.817	119.38
236.051	129.38
236.285	128.38
236.519	144.38
236.753	145.38
236.987	153.38
237.221	181.38
237.455	213.38
237.689	178.38
237.922	145.38
238.156	145.38
238.39	131.38
238.624	126.38
238.858	134.38
239.091	133.38
239.325	131.38
239.559	131.38
239.793	141.38
240.027	132.38
240.26	134.38
240.494	150.38
240.728	153.38
240.961	142.38
241.195	140.38
241.429	140.38
241.662	146.38
241.896	129.38
242.13	143.38
242.363	132.38
242.597	144.38
242.83	123.38
243.064	146.38
243.298	155.38
243.531	152.38
243.765	147.38
243.998	139.38
244.232	143.38
244.465	151.38
244.699	153.38
244.932	132.38
245.166	137.38
245.399	147.38
245.633	143.38
245.866	163.38
246.099	157.38
246.333	146.38
246.566	148.38
246.8	175.38
247.033	172.38
247.266	167.38
247.5	171.38
247.733	189.38
247.966	179.38
248.2	182.38
248.433	155.38
248.666	180.38
248.899	194.38
249.133	200.38
249.366	191.38
249.599	204.38
249.832	186.38
250.066	194.38
250.299	204.38
250.532	227.38
250.765	199.38
250.998	238.38
251.231	238.38
251.465	231.38
251.698	211.38
251.931	203.38
252.164	194.38
252.397	201.38
252.63	213.38
252.863	203.38
253.096	222.38
253.329	245.38
253.562	219.38
253.795	217.38
254.028	215.38
254.261	217.38
254.494	230.38
254.727	244.38
254.96	269.38
255.193	281.38
255.426	245.38
255.659	234.38
255.892	243.38
256.124	256.38
256.357	264.38
256.59	254.38
256.823	246.38
257.056	240.38
257.289	210.38
257.521	226.38
257.754	207.38
257.987	217.38
258.22	212.38
258.452	218.38
258.685	207.38
258.918	223.38
259.151	240.38
259.383	242.38
259.616	234.38
259.849	224.38
260.081	254.38
260.314	271.38
260.547	270.38
260.779	266.38
261.012	238.38
261.244	219.38
261.477	226.38
261.71	239.38
261.942	236.38
262.175	240.38
262.407	236.38
262.64	233.38
262.872	230.38
263.105	215.38
263.337	228.38
263.57	235.38
263.802	231.38
264.035	225.38
264.267	235.38
264.499	216.38
264.732	236.38
264.964	223.38
265.197	244.38
265.429	224.38
265.661	222.38
265.894	238.38
266.126	245.38
266.358	239.38
266.591	235.38
266.823	224.38
267.055	255.38
267.287	230.38
267.52	246.38
267.752	243.38
267.984	247.38
268.216	239.38
268.448	269.38
268.681	253.38
268.913	276.38
269.145	288.38
269.377	282.38
269.609	273.38
269.841	276.38
270.073	280.38
270.306	292.38
270.538	332.38
270.77	324.38
271.002	308.38
271.234	304.38
271.466	294.38
271.698	329.38
271.93	323.38
272.162	324.38
272.394	334.38
272.626	311.38
272.858	314.38
273.09	295.38
273.322	287.38
273.553	271.38
273.785	282.38
274.017	279.38
274.249	305.38
274.481	289.38
274.713	274.38
274.945	295.38
275.176	281.38
275.408	302.38
275.64	304.38
275.872	295.38
276.104	292.38
276.335	291.38
276.567	302.38
276.799	304.38
277.031	331.38
277.262	319.38
277.494	320.38
277.726	322.38
277.957	306.38
278.189	291.38
278.421	295.38
278.652	291.38
278.884	292.38
279.115	292.38
279.347	307.38
279.579	291.38
279.81	281.38
280.042	298.38
280.273	299.38
280.505	297.38
280.736	307.38
280.968	276.38
281.199	324.38
281.431	304.38
281.662	311.38
281.894	311.38
282.125	295.38
282.356	328.38
282.588	343.38
282.819	343.38
283.051	319.38
283.282	304.38
283.513	311.38
283.745	323.38
283.976	311.38
284.207	317.38
284.439	313.38
284.67	290.38
284.901	311.38
285.132	311.38
285.364	304.38
285.595	309.38
285.826	317.38
286.057	328.38
286.288	319.38
286.52	283.38
286.751	315.38
286.982	313.38
287.213	306.38
287.444	340.38
287.675	336.38
287.906	328.38
288.138	339.38
288.369	332.38
288.6	342.38
288.831	328.38
289.062	317.38
289.293	327.38
289.524	309.38
289.755	315.38
289.986	329.38
290.217	319.38
290.448	318.38
290.679	328.38
290.91	346.38
291.141	327.38
291.371	313.38
291.602	326.38
291.833	341.38
292.064	339.38
292.295	333.38
292.526	339.38
292.757	333.38
292.987	325.38
293.218	316.38
293.449	314.38
293.68	332.38
293.91	326.38
294.141	323.38
294.372	320.38
294.603	339.38
294.833	350.38
295.064	344.38
295.295	360.38
295.525	340.38
295.756	356.38
295.987	360.38
296.217	360.38
296.448	377.38
296.679	357.38
296.909	341.38
297.14	336.38
297.37	340.38
297.601	349.38
297.831	346.38
298.062	332.38
298.292	348.38
298.523	353.38
298.753	360.38
298.984	345.38
299.214	364.38
299.445	356.38
299.675	360.38
299.905	350.38
300.136	350.38
300.366	364.38
300.597	353.38
300.827	352.38
301.057	380.38
301.288	368.38
301.518	384.38
301.748	371.38
301.979	395.38
302.209	362.38
302.439	381.38
302.669	379.38
302.9	381.38
303.13	358.38
303.36	381.38
303.59	402.38
303.82	391.38
304.051	391.38
304.281	394.38
304.511	366.38
304.741	373.38
304.971	389.38
305.201	367.38
305.431	362.38
305.661	381.38
305.891	368.38
306.121	369.38
306.352	396.38
306.582	390.38
306.812	389.38
307.042	375.38
307.272	369.38
307.502	373.38
307.731	393.38
307.961	380.38
308.191	376.38
308.421	384.38
308.651	381.38
308.881	390.38
309.111	375.38
309.341	387.38
309.571	411.38
309.8	396.38
310.03	407.38
310.26	402.38
310.49	427.38
310.72	426.38
310.949	425.38
311.179	443.38
311.409	439.38
311.639	405.38
311.868	435.38
312.098	442.38
312.328	435.38
312.557	434.38
312.787	446.38
313.017	427.38
313.246	431.38
313.476	420.38
313.706	404.38
313.935	424.38
314.165	445.38
314.394	441.38
314.624	428.38
314.853	420.38
315.083	420.38
315.312	410.38
315.542	414.38
315.771	415.38
316.001	423.38
316.23	421.38
316.46	417.38
316.689	432.38
316.919	427.38
317.148	432.38
317.377	422.38
317.607	429.38
317.836	425.38
318.065	429.38
318.295	425.38
318.524	427.38
318.753	412.38
318.983	423.38
319.212	443.38
319.441	415.38
319.67	432.38
319.9	400.38
320.129	416.38
320.358	426.38
320.587	416.38
320.816	447.38
321.046	431.38
321.275	460.38
321.504	464.38
321.733	460.38
321.962	466.38
322.191	462.38
322.42	459.38
322.649	486.38
322.878	471.38
323.108	488.38
323.337	519.38
323.566	528.38
323.795	556.38
324.024	580.38
324.253	701.38
324.482	983.38
324.71	1437.38
324.939	2030.38
325.168	1723.38
325.397	958.38
325.626	663.38
325.855	592.38
326.084	560.38
326.313	528.38
326.542	520.38
326.77	589.38
326.999	681.38
327.228	894.38
327.457	1317.38
327.686	1539.38
327.914	1045.38
328.143	758.38
328.372	673.38
328.6	637.38
328.829	592.38
329.058	607.38
329.287	620.38
329.515	599.38
329.744	592.38
329.972	588.38
330.201	604.38
330.43	627.38
330.658	656.38
330.887	645.38
331.115	653.38
331.344	567.38
331.572	535.38
331.801	544.38
332.03	556.38
332.258	554.38
332.486	517.38
332.715	528.38
332.943	542.38
333.172	535.38
333.4	528.38
333.629	567.38
333.857	563.38
334.085	588.38
334.314	610.38
334.542	658.38
334.771	668.38
334.999	593.38
335.227	558.38
335.455	531.38
335.684	522.38
335.912	524.38
336.14	519.38
336.369	521.38
336.597	529.38
336.825	523.38
337.053	501.38
337.281	526.38
337.51	503.38
337.738	505.38
337.966	500.38
338.194	501.38
338.422	507.38
338.65	487.38
338.878	489.38
339.106	496.38
339.334	490.38
339.562	489.38
339.79	470.38
340.018	467.38
340.246	462.38
340.474	475.38
340.702	467.38
340.93	464.38
341.158	486.38
341.386	506.38
341.614	463.38
341.842	472.38
342.07	464.38
342.298	475.38
342.526	457.38
342.754	494.38
342.981	469.38
343.209	477.38
343.437	453.38
343.665	482.38
343.893	519.38
344.12	501.38
344.348	504.38
344.576	481.38
344.804	499.38
345.031	498.38
345.259	515.38
345.487	480.38
345.714	478.38
345.942	476.38
346.17	441.38
346.397	475.38
346.625	456.38
346.853	453.38
347.08	422.38
347.308	460.38
347.535	452.38
347.763	484.38
347.99	459.38
348.218	462.38
348.445	445.38
348.673	462.38
348.9	471.38
349.128	443.38
349.355	437.38
349.583	453.38
349.81	441.38
350.037	417.38
350.265	449.38
350.492	448.38
350.72	436.38
350.947	442.38
351.174	453.38
351.402	473.38
351.629	461.38
351.856	445.38
352.083	463.38
352.311	454.38
352.538	471.38
352.765	463.38
352.992	468.38
353.22	439.38
353.447	455.38
353.674	449.38
353.901	423.38
354.128	445.38
354.355	431.38
354.583	423.38
354.81	433.38
355.037	416.38
355.264	421.38
355.491	409.38
355.718	428.38
355.945	421.38
356.172	398.38
356.399	432.38
356.626	425.38
356.853	424.38
357.08	462.38
357.307	419.38
357.534	427.38
357.761	431.38
357.988	440.38
358.215	423.38
358.441	452.38
358.668	456.38
358.895	452.38
359.122	442.38
359.349	438.38
359.576	455.38
359.802	471.38
360.029	503.38
360.256	503.38
360.483	480.38
360.709	464.38
360.936	460.38
361.163	440.38
361.39	455.38
361.616	441.38
361.843	464.38
362.07	447.38
362.296	446.38
362.523	448.38
362.749	457.38
362.976	423.38
363.203	425.38
363.429	436.38
363.656	438.38
363.882	413.38
364.109	427.38
364.335	438.38
364.562	426.38
364.788	451.38
365.015	460.38
365.241	437.38
365.468	435.38
365.694	435.38
365.92	430.38
366.147	446.38
366.373	431.38
366.599	417.38
366.826	433.38
367.052	434.38
367.278	432.38
367.505	419.38
367.731	435.38
367.957	435.38
368.184	406.38
368.41	432.38
368.636	433.38
368.862	455.38
369.089	437.38
369.315	446.38
369.541	433.38
369.767	438.38
369.993	412.38
370.219	433.38
370.445	447.38
370.672	435.38
370.898	439.38
371.124	431.38
371.35	436.38
371.576	447.38
371.802	432.38
372.028	437.38
372.254	445.38
372.48	425.38
372.706	435.38
372.932	439.38
373.158	435.38
373.384	442.38
373.61	424.38
373.835	442.38
374.061	440.38
374.287	447.38
374.513	422.38
374.739	453.38
374.965	437.38
375.191	457.38
375.416	452.38
375.642	448.38
375.868	421.38
376.094	437.38
376.319	420.38
376.545	411.38
376.771	437.38
376.997	441.38
377.222	425.38
377.448	426.38
377.674	408.38
377.899	432.38
378.125	437.38
378.35	421.38
378.576	432.38
378.802	430.38
379.027	418.38
379.253	441.38
379.478	411.38
379.704	427.38
379.929	436.38
380.155	429.38
380.38	415.38
380.606	426.38
380.831	421.38
381.057	431.38
381.282	429.38
381.507	425.38
381.733	423.38
381.958	438.38
382.184	431.38
382.409	432.38
382.634	447.38
382.86	445.38
383.085	443.38
383.31	432.38
383.535	455.38
383.761	461.38
383.986	445.38
384.211	454.38
384.436	464.38
384.662	458.38
384.887	494.38
385.112	483.38
385.337	478.38
385.562	478.38
385.787	479.38
386.013	495.38
386.238	474.38
386.463	483.38
386.688	478.38
386.913	484.38
387.138	463.38
387.363	457.38
387.588	458.38
387.813	469.38
388.038	473.38
388.263	484.38
388.488	472.38
388.713	472.38
388.938	485.38
389.163	461.38
389.387	471.38
389.612	466.38
389.837	468.38
390.062	466.38
390.287	475.38
390.512	466.38
390.736	488.38
390.961	485.38
391.186	486.38
391.411	473.38
391.636	478.38
391.86	500.38
392.085	489.38
392.31	493.38
392.534	487.38
392.759	507.38
392.984	485.38
393.208	482.38
393.433	489.38
393.658	469.38
393.882	475.38
394.107	492.38
394.331	475.38
394.556	476.38
394.78	496.38
395.005	494.38
395.229	494.38
395.454	487.38
395.678	516.38
395.903	521.38
396.127	520.38
396.352	520.38
396.576	519.38
396.801	487.38
397.025	498.38
397.249	515.38
397.474	504.38
397.698	510.38
397.922	533.38
398.147	542.38
398.371	549.38
398.595	556.38
398.82	546.38
399.044	585.38
399.268	593.38
399.492	646.38
399.717	685.38
399.941	709.38
400.165	678.38
400.389	699.38
400.613	631.38
400.837	582.38
401.062	582.38
401.286	569.38
401.51	556.38
401.734	541.38
401.958	561.38
402.182	566.38
402.406	604.38
402.63	576.38
402.854	602.38
403.078	585.38
403.302	568.38
403.526	575.38
403.75	582.38
403.974	612.38
404.198	598.38
404.422	604.38
404.645	607.38
404.869	597.38
405.093	630.38
405.317	657.38
405.541	690.38
405.765	644.38
405.988	622.38
406.212	597.38
406.436	648.38
406.66	645.38
406.883	632.38
407.107	646.38
407.331	707.38
407.555	753.38
407.778	756.38
408.002	707.38
408.226	644.38
408.449	628.38
408.673	638.38
408.896	646.38
409.12	675.38
409.344	633.38
409.567	607.38
409.791	593.38
410.014	592.38
410.238	570.38
410.461	590.38
410.685	589.38
410.908	579.38
411.132	638.38
411.355	639.38
411.578	594.38
411.802	597.38
412.025	582.38
412.249	580.38
412.472	608.38
412.695	663.38
412.919	643.38
413.142	620.38
413.365	549.38
413.589	555.38
413.812	549.38
414.035	530.38
414.258	565.38
414.482	521.38
414.705	546.38
414.928	569.38
415.151	525.38
415.374	563.38
415.597	517.38
415.821	529.38
416.044	535.38
416.267	532.38
416.49	555.38
416.713	545.38
416.936	525.38
417.159	530.38
417.382	523.38
417.605	554.38
417.828	566.38
418.051	569.38
418.274	577.38
418.497	548.38
418.72	572.38
418.943	541.38
419.166	577.38
419.389	615.38
419.611	592.38
419.834	585.38
420.057	594.38
420.28	580.38
420.503	590.38
420.726	581.38
420.948	584.38
421.171	590.38
421.394	639.38
421.617	566.38
421.839	546.38
422.062	565.38
422.285	539.38
422.507	637.38
422.73	687.38
422.953	656.38
423.175	628.38
423.398	572.38
423.621	586.38
423.843	593.38
424.066	589.38
424.288	577.38
424.511	620.38
424.733	639.38
424.956	725.38
425.178	708.38
425.401	685.38
425.623	708.38
425.846	631.38
426.068	582.38
426.291	586.38
426.513	560.38
426.735	565.38
426.958	632.38
427.18	680.38
427.402	820.38
427.625	891.38
427.847	787.38
428.069	689.38
428.292	630.38
428.514	593.38
428.736	540.38
428.958	545.38
429.181	544.38
429.403	513.38
429.625	497.38
429.847	564.38
430.069	618.38
430.292	592.38
430.514	547.38
430.736	535.38
430.958	530.38
431.18	513.38
431.402	517.38
431.624	515.38
431.846	495.38
432.068	502.38
432.29	519.38
432.512	513.38
432.734	515.38
432.956	508.38
433.178	494.38
433.4	530.38
433.622	515.38
433.844	517.38
434.066	527.38
434.287	496.38
434.509	509.38
434.731	559.38
434.953	555.38
435.175	572.38
435.397	580.38
435.618	580.38
435.84	610.38
436.062	708.38
436.284	733.38
436.505	597.38
436.727	569.38
436.949	536.38
437.17	530.38
437.392	520.38
437.614	523.38
437.835	581.38
438.057	676.38
438.278	751.38
438.5	724.38
438.721	845.38
438.943	773.38
439.165	620.38
439.386	588.38
439.608	564.38
439.829	596.38
440.05	603.38
440.272	619.38
440.493	611.38
440.715	561.38
440.936	553.38
441.158	521.38
441.379	542.38
441.6	563.38
441.822	600.38
442.043	602.38
442.264	705.38
442.486	728.38
442.707	618.38
442.928	594.38
443.149	605.38
443.371	631.38
443.592	676.38
443.813	753.38
444.034	798.38
444.255	664.38
444.476	613.38
444.698	609.38
444.919	621.38
445.14	707.38
445.361	672.38
445.582	621.38
445.803	704.38
446.024	771.38
446.245	765.38
446.466	708.38
446.687	602.38
446.908	557.38
447.129	537.38
447.35	536.38
447.571	534.38
447.792	516.38
448.013	543.38
448.234	545.38
448.455	559.38
448.675	681.38
448.896	789.38
449.117	661.38
449.338	629.38
449.559	739.38
449.779	827.38
450	681.38
450.221	593.38
450.442	535.38
450.662	516.38
450.883	524.38
451.104	516.38
451.324	510.38
451.545	508.38
451.766	486.38
451.986	462.38
452.207	461.38
452.428	476.38
452.648	472.38
452.869	468.38
453.089	467.38
453.31	477.38
453.53	477.38
453.751	495.38
453.971	480.38
454.192	483.38
454.412	464.38
454.633	479.38
454.853	479.38
455.073	466.38
455.294	489.38
455.514	545.38
455.734	526.38
455.955	485.38
456.175	476.38
456.395	449.38
456.616	443.38
456.836	467.38
457.056	468.38
457.276	448.38
457.497	449.38
457.717	442.38
457.937	464.38
458.157	492.38
458.377	477.38
458.598	515.38
458.818	541.38
459.038	616.38
459.258	613.38
459.478	557.38
459.698	518.38
459.918	521.38
460.138	527.38
460.358	552.38
460.578	559.38
460.798	556.38
461.018	546.38
461.238	534.38
461.458	549.38
461.678	530.38
461.898	541.38
462.118	559.38
462.338	572.38
462.558	576.38
462.777	573.38
462.997	602.38
463.217	618.38
463.437	634.38
463.657	597.38
463.876	586.38
464.096	597.38
464.316	584.38
464.536	622.38
464.755	606.38
464.975	598.38
465.195	608.38
465.414	667.38
465.634	588.38
465.854	544.38
466.073	525.38
466.293	527.38
466.512	503.38
466.732	496.38
466.951	500.38
467.171	499.38
467.391	496.38
467.61	507.38
467.829	490.38
468.049	508.38
468.268	524.38
468.488	486.38
468.707	477.38
468.927	483.38
469.146	475.38
469.365	473.38
469.585	494.38
469.804	490.38
470.023	534.38
470.243	500.38
470.462	527.38
470.681	534.38
470.901	507.38
471.12	496.38
471.339	496.38
471.558	507.38
471.777	523.38
471.997	478.38
472.216	505.38
472.435	547.38
472.654	535.38
472.873	479.38
473.092	493.38
473.311	501.38
473.53	503.38
473.749	502.38
473.968	552.38
474.187	632.38
474.406	637.38
474.625	553.38
474.844	491.38
475.063	494.38
475.282	477.38
475.501	499.38
475.72	495.38
475.939	495.38
476.158	525.38
476.377	507.38
476.596	505.38
476.814	519.38
477.033	524.38
477.252	527.38
477.471	562.38
477.69	518.38
477.908	542.38
478.127	541.38
478.346	518.38
478.564	572.38
478.783	551.38
479.002	552.38
479.22	604.38
479.439	575.38
479.658	591.38
479.876	588.38
480.095	583.38
480.313	639.38
480.532	621.38
480.751	632.38
480.969	630.38
481.188	681.38
481.406	763.38
481.624	677.38
481.843	605.38
482.061	596.38
482.28	601.38
482.498	575.38
482.717	574.38
482.935	570.38
483.153	584.38
483.372	585.38
483.59	564.38
483.808	585.38
484.027	593.38
484.245	574.38
484.463	577.38
484.681	600.38
484.9	601.38
485.118	583.38
485.336	605.38
485.554	605.38
485.772	592.38
485.99	591.38
486.209	608.38
486.427	587.38
486.645	590.38
486.863	603.38
487.081	612.38
487.299	633.38
487.517	618.38
487.735	607.38
487.953	602.38
488.171	624.38
488.389	613.38
488.607	601.38
488.825	628.38
489.043	615.38
489.261	619.38
489.479	622.38
489.696	629.38
489.914	649.38
490.132	645.38
490.35	651.38
490.568	648.38
490.786	667.38
491.003	659.38
491.221	684.38
491.439	686.38
491.657	695.38
491.874	711.38
492.092	708.38
492.31	723.38
492.527	746.38
492.745	714.38
492.963	740.38
493.18	719.38
493.398	735.38
493.615	755.38
493.833	760.38
494.05	734.38
494.268	717.38
494.485	731.38
494.703	718.38
494.92	764.38
495.138	749.38
495.355	734.38
495.573	726.38
495.79	728.38
496.008	727.38
496.225	744.38
496.442	751.38
496.66	726.38
496.877	747.38
497.094	769.38
497.312	733.38
497.529	759.38
497.746	748.38
497.963	805.38
498.181	804.38
498.398	821.38
498.615	846.38
498.832	877.38
499.049	887.38
499.267	902.38
499.484	967.38
499.701	1012.38
499.918	1072.38
500.135	1152.38
500.352	1200.38
500.569	1261.38
500.786	1220.38
501.003	1225.38
501.22	1118.38
501.437	1083.38
501.654	1033.38
501.871	1007.38
502.088	956.38
502.305	916.38
502.522	884.38
502.739	828.38
502.956	801.38
503.172	762.38
503.389	794.38
503.606	747.38
503.823	781.38
504.04	765.38
504.256	765.38
504.473	764.38
504.69	771.38
504.907	750.38
505.123	745.38
505.34	726.38
505.557	681.38
505.773	699.38
505.99	676.38
506.207	691.38
506.423	707.38
506.64	672.38
506.856	688.38
507.073	682.38
507.289	640.38
507.506	667.38
507.722	637.38
507.939	700.38
508.155	683.38
508.372	652.38
508.588	637.38
508.805	623.38
509.021	632.38
509.238	652.38
509.454	649.38
509.67	624.38
509.887	642.38
510.103	623.38
510.319	636.38
510.536	716.38
510.752	1189.38
510.968	999.38
511.184	679.38
511.401	629.38
511.617	599.38
511.833	616.38
512.049	639.38
512.265	618.38
512.481	612.38
512.698	615.38
512.914	600.38
513.13	602.38
513.346	585.38
513.562	617.38
513.778	615.38
513.994	634.38
514.21	645.38
514.426	629.38
514.642	671.38
514.858	705.38
515.074	709.38
515.29	839.38
515.506	1194.38
515.721	1033.38
515.937	745.38
516.153	679.38
516.369	668.38
516.585	661.38
516.801	639.38
517.016	660.38
517.232	660.38
517.448	678.38
517.664	686.38
517.879	658.38
518.095	694.38
518.311	672.38
518.527	693.38
518.742	651.38
518.958	645.38
519.173	628.38
519.389	628.38
519.605	633.38
519.82	600.38
520.036	645.38
520.251	635.38
520.467	672.38
520.682	657.38
520.898	657.38
521.113	664.38
521.329	682.38
521.544	784.38
521.76	929.38
521.975	1563.38
522.19	1591.38
522.406	861.38
522.621	670.38
522.836	654.38
523.052	608.38
523.267	566.38
523.482	585.38
523.698	563.38
523.913	579.38
524.128	552.38
524.343	545.38
524.559	539.38
524.774	529.38
524.989	543.38
525.204	535.38
525.419	550.38
525.634	532.38
525.849	513.38
526.064	519.38
526.28	515.38
526.495	523.38
526.71	506.38
526.925	485.38
527.14	509.38
527.355	507.38
527.57	509.38
527.785	497.38
527.999	484.38
528.214	508.38
528.429	505.38
528.644	525.38
528.859	499.38
529.074	515.38
529.289	499.38
529.503	570.38
529.718	590.38
529.933	544.38
530.148	531.38
530.363	489.38
530.577	504.38
530.792	515.38
531.007	487.38
531.221	489.38
531.436	489.38
531.651	477.38
531.865	484.38
532.08	471.38
532.295	484.38
532.509	487.38
532.724	484.38
532.938	469.38
533.153	504.38
533.367	483.38
533.582	495.38
533.796	488.38
534.011	499.38
534.225	480.38
534.44	484.38
534.654	474.38
534.868	499.38
535.083	474.38
535.297	479.38
535.511	495.38
535.726	499.38
535.94	519.38
536.154	480.38
536.369	463.38
536.583	485.38
536.797	475.38
537.011	458.38
537.225	465.38
537.44	464.38
537.654	480.38
537.868	456.38
538.082	457.38
538.296	472.38
538.51	468.38
538.724	470.38
538.938	457.38
539.153	450.38
539.367	472.38
539.581	479.38
539.795	478.38
540.009	475.38
540.222	465.38
540.436	457.38
540.65	443.38
540.864	461.38
541.078	457.38
541.292	464.38
541.506	450.38
541.72	481.38
541.934	472.38
542.147	441.38
542.361	445.38
542.575	440.38
542.789	464.38
543.002	452.38
543.216	454.38
543.43	456.38
543.644	468.38
543.857	471.38
544.071	459.38
544.285	467.38
544.498	457.38
544.712	457.38
544.925	457.38
545.139	437.38
545.352	451.38
545.566	455.38
545.779	440.38
545.993	444.38
546.206	457.38
546.42	456.38
546.633	458.38
546.847	450.38
547.06	448.38
547.274	446.38
547.487	430.38
547.7	447.38
547.914	448.38
548.127	451.38
548.34	467.38
548.554	429.38
548.767	475.38
548.98	429.38
549.193	449.38
549.407	448.38
549.62	457.38
549.833	455.38
550.046	432.38
550.259	455.38
550.473	447.38
550.686	436.38
550.899	426.38
551.112	445.38
551.325	452.38
551.538	434.38
551.751	428.38
551.964	437.38
552.177	451.38
552.39	428.38
552.603	450.38
552.816	451.38
553.029	459.38
553.242	444.38
553.455	440.38
553.667	459.38
553.88	460.38
554.093	439.38
554.306	466.38
554.519	451.38
554.732	447.38
554.944	431.38
555.157	423.38
555.37	436.38
555.583	402.38
555.795	429.38
556.008	418.38
556.221	416.38
556.433	389.38
556.646	405.38
556.859	393.38
557.071	382.38
557.284	395.38
557.496	409.38
557.709	400.38
557.921	389.38
558.134	389.38
558.346	383.38
558.559	389.38
558.771	405.38
558.984	392.38
559.196	387.38
559.409	395.38
559.621	391.38
559.833	384.38
560.046	371.38
560.258	373.38
560.47	391.38
560.683	389.38
560.895	378.38
561.107	376.38
561.32	378.38
561.532	391.38
561.744	400.38
561.956	392.38
562.168	397.38
562.381	401.38
562.593	383.38
562.805	382.38
563.017	379.38
563.229	409.38
563.441	385.38
563.653	388.38
563.865	416.38
564.077	407.38
564.289	393.38
564.501	415.38
564.713	408.38
564.925	420.38
565.137	420.38
565.349	432.38
565.561	403.38
565.773	439.38
565.985	451.38
566.197	462.38
566.408	472.38
566.62	479.38
566.832	517.38
567.044	539.38
567.255	524.38
567.467	557.38
567.679	548.38
567.891	567.38
568.102	543.38
568.314	550.38
568.526	524.38
568.737	491.38
568.949	468.38
569.161	474.38
569.372	435.38
569.584	416.38
569.795	439.38
570.007	435.38
570.218	439.38
570.43	439.38
570.641	376.38
570.853	381.38
571.064	394.38
571.276	402.38
571.487	412.38
571.698	376.38
571.91	376.38
572.121	368.38
572.333	353.38
572.544	348.38
572.755	369.38
572.966	378.38
573.178	349.38
573.389	353.38
573.6	347.38
573.811	351.38
574.023	344.38
574.234	347.38
574.445	341.38
574.656	339.38
574.867	340.38
575.078	338.38
575.289	333.38
575.501	348.38
575.712	333.38
575.923	329.38
576.134	323.38
576.345	323.38
576.556	342.38
576.767	327.38
576.978	324.38
577.188	344.38
577.399	325.38
577.61	321.38
577.821	323.38
578.032	328.38
578.243	374.38
578.454	547.38
578.665	417.38
578.875	318.38
579.086	309.38
579.297	328.38
579.508	308.38
579.718	314.38
579.929	327.38
580.14	305.38
580.35	304.38
580.561	318.38
580.772	332.38
580.982	297.38
581.193	311.38
581.403	302.38
581.614	283.38
581.825	296.38
582.035	294.38
582.246	313.38
582.456	299.38
582.667	307.38
582.877	301.38
583.087	311.38
583.298	295.38
583.508	311.38
583.719	307.38
583.929	305.38
584.139	290.38
584.35	308.38
584.56	284.38
584.77	314.38
584.981	290.38
585.191	268.38
585.401	289.38
585.611	307.38
585.821	305.38
586.032	293.38
586.242	308.38
586.452	316.38
586.662	290.38
586.872	298.38
587.082	289.38
587.292	305.38
587.502	285.38
587.713	310.38
587.923	287.38
588.133	293.38
588.343	311.38
588.553	275.38
588.762	291.38
588.972	298.38
589.182	293.38
589.392	304.38
589.602	298.38
589.812	323.38
590.022	315.38
590.232	311.38
590.441	305.38
590.651	304.38
590.861	302.38
591.071	316.38
591.281	286.38
591.49	295.38
591.7	302.38
591.91	308.38
592.119	311.38
592.329	295.38
592.539	297.38
592.748	324.38
592.958	325.38
593.167	327.38
593.377	313.38
593.587	334.38
593.796	339.38
594.006	325.38
594.215	326.38
594.424	334.38
594.634	334.38
594.843	336.38
595.053	322.38
595.262	312.38
595.472	293.38
595.681	294.38
595.89	313.38
596.1	292.38
596.309	264.38
596.518	295.38
596.727	270.38
596.937	286.38
597.146	285.38
597.355	292.38
597.564	267.38
597.774	270.38
597.983	272.38
598.192	271.38
598.401	262.38
598.61	262.38
598.819	273.38
599.028	263.38
599.237	263.38
599.446	260.38
599.655	248.38
599.864	259.38
600.073	234.38
600.282	269.38
600.491	262.38
600.7	246.38
600.909	268.38
601.118	263.38
601.327	254.38
601.536	248.38
601.745	245.38
601.953	264.38
602.162	250.38
602.371	249.38
602.58	253.38
602.789	234.38
602.997	252.38
603.206	249.38
603.415	243.38
603.623	263.38
603.832	245.38
604.041	232.38
604.249	233.38
604.458	249.38
604.666	254.38
604.875	243.38
605.084	237.38
605.292	253.38
605.501	246.38
605.709	227.38
605.918	239.38
606.126	249.38
606.334	247.38
606.543	250.38
606.751	236.38
606.96	250.38
607.168	237.38
607.376	243.38
607.585	247.38
607.793	243.38
608.001	235.38
608.21	249.38
608.418	246.38
608.626	220.38
608.834	236.38
609.043	234.38
609.251	241.38
609.459	256.38
609.667	232.38
609.875	220.38
610.083	231.38
610.291	232.38
610.499	229.38
610.707	221.38
610.916	265.38
611.124	260.38
611.332	253.38
611.54	232.38
611.748	255.38
611.955	239.38
612.163	232.38
612.371	237.38
612.579	231.38
612.787	239.38
612.995	229.38
613.203	230.38
613.411	239.38
613.618	253.38
613.826	225.38
614.034	224.38
614.242	229.38
614.449	217.38
614.657	219.38
614.865	236.38
615.072	230.38
615.28	240.38
615.488	245.38
615.695	225.38
615.903	237.38
616.111	229.38
616.318	238.38
616.526	225.38
616.733	244.38
616.941	236.38
617.148	234.38
617.356	239.38
617.563	233.38
617.771	227.38
617.978	232.38
618.185	234.38
618.393	231.38
618.6	240.38
618.807	219.38
619.015	216.38
619.222	241.38
619.429	236.38
619.637	223.38
619.844	212.38
620.051	217.38
620.258	220.38
620.466	220.38
620.673	212.38
620.88	220.38
621.087	213.38
621.294	230.38
621.501	219.38
621.708	212.38
621.915	228.38
622.122	219.38
622.329	209.38
622.536	221.38
622.743	222.38
622.95	223.38
623.157	206.38
623.364	208.38
623.571	225.38
623.778	208.38
623.985	226.38
624.192	218.38
624.399	214.38
624.606	219.38
624.812	221.38
625.019	203.38
625.226	203.38
625.433	221.38
625.639	210.38
625.846	220.38
626.053	198.38
626.259	185.38
626.466	208.38
626.673	195.38
626.879	202.38
627.086	210.38
627.293	225.38
627.499	216.38
627.706	196.38
627.912	218.38
628.119	196.38
628.325	215.38
628.532	202.38
628.738	198.38
628.945	190.38
629.151	190.38
629.357	204.38
629.564	206.38
629.77	192.38
629.976	195.38
630.183	199.38
630.389	185.38
630.595	182.38
630.802	189.38
631.008	199.38
631.214	185.38
631.42	207.38
631.627	181.38
631.833	179.38
632.039	196.38
632.245	184.38
632.451	180.38
632.657	184.38
632.863	185.38
633.069	175.38
633.275	195.38
633.481	191.38
633.688	191.38
633.893	189.38
634.099	175.38
634.305	175.38
634.511	193.38
634.717	182.38
634.923	183.38
635.129	189.38
635.335	164.38
635.541	182.38
635.747	185.38
635.952	182.38
636.158	173.38
636.364	176.38
636.57	173.38
636.775	184.38
636.981	180.38
637.187	178.38
637.392	174.38
637.598	186.38
637.804	183.38
638.009	180.38
638.215	181.38
638.421	181.38
638.626	184.38
638.832	182.38
639.037	188.38
639.243	174.38
639.448	151.38
639.654	168.38
639.859	175.38
640.065	165.38
640.27	180.38
640.475	161.38
640.681	174.38
640.886	166.38
641.091	172.38
641.297	171.38
641.502	174.38
641.707	177.38
641.913	177.38
642.118	172.38
642.323	165.38
642.528	162.38
642.733	175.38
642.939	184.38
643.144	170.38
643.349	163.38
643.554	186.38
643.759	157.38
643.964	188.38
644.169	173.38
644.374	163.38
644.579	179.38
644.784	167.38
644.989	161.38
645.194	173.38
645.399	160.38
645.604	161.38
645.809	159.38
646.014	152.38
646.219	166.38
646.423	156.38
646.628	164.38
646.833	170.38
647.038	166.38
647.243	159.38
647.447	169.38
647.652	164.38
647.857	184.38
648.062	171.38
648.266	160.38
648.471	174.38
648.676	170.38
648.88	179.38
649.085	169.38
649.289	179.38
649.494	171.38
649.698	183.38
649.903	189.38
650.107	163.38
650.312	167.38
650.516	163.38
650.721	156.38
650.925	160.38
651.13	145.38
651.334	158.38
651.539	155.38
651.743	153.38
651.947	157.38
652.152	137.38
652.356	149.38
652.56	146.38
652.764	152.38
652.969	129.38
653.173	139.38
653.377	141.38
653.581	135.38
653.785	148.38
653.99	125.38
654.194	147.38
654.398	131.38
654.602	131.38
654.806	137.38
655.01	161.38
655.214	152.38
655.418	125.38
655.622	139.38
655.826	142.38
656.03	136.38
656.234	138.38
656.438	154.38
656.642	148.38
656.846	142.38
657.049	127.38
657.253	129.38
657.457	122.38
657.661	127.38
657.865	133.38
658.068	115.38
658.272	102.38
658.476	116.38
658.68	98.38
658.883	115.38
659.087	99.38
659.291	95.38
659.494	95.38
659.698	97.38
659.901	115.38
660.105	89.38
660.309	96.38
660.512	100.38
660.716	96.38
660.919	94.38
661.123	105.38
661.326	93.38
661.53	90.38
661.733	87.38
661.936	86.38
662.14	88.38
662.343	98.38
662.546	91.38
662.75	99.38
662.953	105.38
663.156	83.38
663.36	80.38
663.563	93.38
663.766	91.38
663.969	96.38
664.173	88.38
664.376	108.38
664.579	80.38
664.782	94.38
664.985	97.38
665.188	92.38
665.391	82.38
665.594	74.38
665.797	87.38
666	69.38
666.203	86.38
666.406	86.38
666.609	79.38
666.812	98.38
667.015	74.38
667.218	84.38
667.421	82.38
667.624	83.38
667.827	88.38
668.03	90.38
668.232	90.38
668.435	90.38
668.638	87.38
668.841	98.38
669.043	86.38
669.246	90.38
669.449	100.38
669.651	91.38
669.854	79.38
670.057	77.38
670.259	80.38
670.462	90.38
670.665	85.38
670.867	86.38
671.07	75.38
671.272	90.38
671.475	82.38
671.677	77.38
671.88	86.38
672.082	87.38
672.284	83.38
672.487	89.38
672.689	93.38
672.892	86.38
