Data from 1985.PennyLincolnUp.Lamp.En5.5.200Scan.071819.P1_HRD10591_17-02-50-970.txt Node
Date: Thu Jul 18 17:02:50 EDT 2019
User: cochatt
Spectrometer: HR+D1059
Trigger mode: 1
Integration Time (sec): 1.000000E-1
Scans to average: 1
Electric dark correction enabled: true
Nonlinearity correction enabled: false
Boxcar width: 0
XAxis mode: Wavelengths
Number of Pixels in Spectrum: 2048
>>>>>Begin Spectral Data<<<<<
223.165	-18.12
223.4	-18.12
223.635	-18.12
223.869	-15.12
224.104	-15.12
224.338	-13.12
224.573	-5.12
224.808	-28.12
225.042	-8.12
225.277	4.88
225.511	1.88
225.746	-13.12
225.98	6.88
226.215	13.88
226.449	16.88
226.683	17.88
226.918	18.88
227.152	34.88
227.387	12.88
227.621	32.88
227.856	46.88
228.09	45.88
228.324	42.88
228.559	50.88
228.793	61.88
229.027	88.88
229.262	106.88
229.496	120.88
229.73	132.88
229.964	146.88
230.199	124.88
230.433	108.88
230.667	114.88
230.901	124.88
231.136	111.88
231.37	114.88
231.604	96.88
231.838	107.88
232.072	122.88
232.306	119.88
232.541	120.88
232.775	117.88
233.009	114.88
233.243	116.88
233.477	117.88
233.711	116.88
233.945	110.88
234.179	109.88
234.413	123.88
234.647	121.88
234.881	124.88
235.115	124.88
235.349	117.88
235.583	118.88
235.817	126.88
236.051	124.88
236.285	125.88
236.519	108.88
236.753	133.88
236.987	147.88
237.221	180.88
237.455	204.88
237.689	188.88
237.922	141.88
238.156	132.88
238.39	125.88
238.624	125.88
238.858	114.88
239.091	132.88
239.325	136.88
239.559	110.88
239.793	136.88
240.027	128.88
240.26	142.88
240.494	156.88
240.728	154.88
240.961	146.88
241.195	154.88
241.429	144.88
241.662	138.88
241.896	130.88
242.13	136.88
242.363	132.88
242.597	142.88
242.83	149.88
243.064	124.88
243.298	144.88
243.531	124.88
243.765	136.88
243.998	141.88
244.232	148.88
244.465	135.88
244.699	164.88
244.932	156.88
245.166	145.88
245.399	150.88
245.633	133.88
245.866	148.88
246.099	145.88
246.333	140.88
246.566	146.88
246.8	146.88
247.033	158.88
247.266	154.88
247.5	161.88
247.733	153.88
247.966	180.88
248.2	168.88
248.433	169.88
248.666	188.88
248.899	183.88
249.133	204.88
249.366	198.88
249.599	196.88
249.832	174.88
250.066	184.88
250.299	176.88
250.532	185.88
250.765	186.88
250.998	206.88
251.231	216.88
251.465	203.88
251.698	191.88
251.931	195.88
252.164	192.88
252.397	205.88
252.63	194.88
252.863	211.88
253.096	201.88
253.329	221.88
253.562	212.88
253.795	217.88
254.028	202.88
254.261	204.88
254.494	228.88
254.727	247.88
254.96	267.88
255.193	265.88
255.426	227.88
255.659	218.88
255.892	225.88
256.124	219.88
256.357	220.88
256.59	211.88
256.823	211.88
257.056	200.88
257.289	194.88
257.521	208.88
257.754	216.88
257.987	203.88
258.22	213.88
258.452	219.88
258.685	206.88
258.918	201.88
259.151	230.88
259.383	230.88
259.616	231.88
259.849	224.88
260.081	221.88
260.314	237.88
260.547	259.88
260.779	242.88
261.012	237.88
261.244	216.88
261.477	229.88
261.71	241.88
261.942	220.88
262.175	228.88
262.407	229.88
262.64	236.88
262.872	222.88
263.105	212.88
263.337	214.88
263.57	204.88
263.802	213.88
264.035	214.88
264.267	212.88
264.499	197.88
264.732	233.88
264.964	199.88
265.197	210.88
265.429	212.88
265.661	222.88
265.894	226.88
266.126	210.88
266.358	223.88
266.591	218.88
266.823	220.88
267.055	245.88
267.287	228.88
267.52	227.88
267.752	231.88
267.984	238.88
268.216	229.88
268.448	218.88
268.681	225.88
268.913	239.88
269.145	254.88
269.377	286.88
269.609	279.88
269.841	276.88
270.073	271.88
270.306	304.88
270.538	326.88
270.77	330.88
271.002	297.88
271.234	293.88
271.466	297.88
271.698	305.88
271.93	306.88
272.162	314.88
272.394	322.88
272.626	302.88
272.858	290.88
273.09	277.88
273.322	269.88
273.553	279.88
273.785	276.88
274.017	266.88
274.249	266.88
274.481	252.88
274.713	269.88
274.945	273.88
275.176	276.88
275.408	267.88
275.64	263.88
275.872	270.88
276.104	266.88
276.335	290.88
276.567	285.88
276.799	296.88
277.031	315.88
277.262	331.88
277.494	325.88
277.726	316.88
277.957	296.88
278.189	304.88
278.421	278.88
278.652	277.88
278.884	277.88
279.115	286.88
279.347	273.88
279.579	268.88
279.81	289.88
280.042	274.88
280.273	281.88
280.505	301.88
280.736	282.88
280.968	291.88
281.199	291.88
281.431	289.88
281.662	295.88
281.894	283.88
282.125	293.88
282.356	325.88
282.588	304.88
282.819	333.88
283.051	312.88
283.282	294.88
283.513	299.88
283.745	295.88
283.976	305.88
284.207	297.88
284.439	308.88
284.67	306.88
284.901	304.88
285.132	312.88
285.364	295.88
285.595	300.88
285.826	302.88
286.057	312.88
286.288	301.88
286.52	308.88
286.751	311.88
286.982	308.88
287.213	295.88
287.444	317.88
287.675	318.88
287.906	335.88
288.138	330.88
288.369	306.88
288.6	336.88
288.831	310.88
289.062	309.88
289.293	328.88
289.524	312.88
289.755	299.88
289.986	322.88
290.217	318.88
290.448	290.88
290.679	323.88
290.91	315.88
291.141	308.88
291.371	323.88
291.602	321.88
291.833	324.88
292.064	323.88
292.295	305.88
292.526	320.88
292.757	324.88
292.987	306.88
293.218	296.88
293.449	324.88
293.68	334.88
293.91	314.88
294.141	315.88
294.372	311.88
294.603	334.88
294.833	326.88
295.064	328.88
295.295	342.88
295.525	311.88
295.756	319.88
295.987	336.88
296.217	347.88
296.448	374.88
296.679	341.88
296.909	318.88
297.14	322.88
297.37	340.88
297.601	336.88
297.831	341.88
298.062	320.88
298.292	321.88
298.523	339.88
298.753	357.88
298.984	320.88
299.214	338.88
299.445	325.88
299.675	344.88
299.905	347.88
300.136	331.88
300.366	348.88
300.597	354.88
300.827	363.88
301.057	370.88
301.288	364.88
301.518	366.88
301.748	363.88
301.979	345.88
302.209	375.88
302.439	358.88
302.669	358.88
302.9	372.88
303.13	360.88
303.36	361.88
303.59	376.88
303.82	371.88
304.051	354.88
304.281	378.88
304.511	355.88
304.741	352.88
304.971	368.88
305.201	369.88
305.431	353.88
305.661	360.88
305.891	337.88
306.121	358.88
306.352	369.88
306.582	376.88
306.812	375.88
307.042	360.88
307.272	367.88
307.502	368.88
307.731	377.88
307.961	365.88
308.191	364.88
308.421	359.88
308.651	359.88
308.881	377.88
309.111	382.88
309.341	389.88
309.571	358.88
309.8	381.88
310.03	382.88
310.26	416.88
310.49	403.88
310.72	399.88
310.949	421.88
311.179	431.88
311.409	413.88
311.639	409.88
311.868	412.88
312.098	418.88
312.328	423.88
312.557	425.88
312.787	441.88
313.017	432.88
313.246	404.88
313.476	410.88
313.706	414.88
313.935	402.88
314.165	420.88
314.394	445.88
314.624	401.88
314.853	434.88
315.083	442.88
315.312	429.88
315.542	415.88
315.771	398.88
316.001	397.88
316.23	403.88
316.46	404.88
316.689	417.88
316.919	406.88
317.148	435.88
317.377	424.88
317.607	429.88
317.836	405.88
318.065	412.88
318.295	421.88
318.524	424.88
318.753	413.88
318.983	405.88
319.212	419.88
319.441	424.88
319.67	425.88
319.9	392.88
320.129	405.88
320.358	422.88
320.587	437.88
320.816	416.88
321.046	441.88
321.275	435.88
321.504	419.88
321.733	424.88
321.962	434.88
322.191	458.88
322.42	477.88
322.649	461.88
322.878	479.88
323.108	484.88
323.337	519.88
323.566	530.88
323.795	542.88
324.024	582.88
324.253	692.88
324.482	980.88
324.71	1483.88
324.939	2034.88
325.168	1773.88
325.397	928.88
325.626	674.88
325.855	571.88
326.084	508.88
326.313	524.88
326.542	541.88
326.77	588.88
326.999	666.88
327.228	893.88
327.457	1321.88
327.686	1578.88
327.914	1029.88
328.143	696.88
328.372	610.88
328.6	613.88
328.829	574.88
329.058	586.88
329.287	599.88
329.515	570.88
329.744	516.88
329.972	514.88
330.201	514.88
330.43	545.88
330.658	569.88
330.887	618.88
331.115	616.88
331.344	557.88
331.572	490.88
331.801	513.88
332.03	526.88
332.258	524.88
332.486	489.88
332.715	490.88
332.943	476.88
333.172	502.88
333.4	533.88
333.629	523.88
333.857	555.88
334.085	555.88
334.314	537.88
334.542	532.88
334.771	542.88
334.999	526.88
335.227	511.88
335.455	486.88
335.684	498.88
335.912	497.88
336.14	486.88
336.369	490.88
336.597	493.88
336.825	520.88
337.053	513.88
337.281	478.88
337.51	461.88
337.738	478.88
337.966	476.88
338.194	494.88
338.422	478.88
338.65	474.88
338.878	480.88
339.106	459.88
339.334	472.88
339.562	472.88
339.79	453.88
340.018	457.88
340.246	470.88
340.474	423.88
340.702	466.88
340.93	452.88
341.158	483.88
341.386	439.88
341.614	460.88
341.842	477.88
342.07	446.88
342.298	453.88
342.526	458.88
342.754	468.88
342.981	466.88
343.209	446.88
343.437	467.88
343.665	482.88
343.893	502.88
344.12	494.88
344.348	483.88
344.576	461.88
344.804	482.88
345.031	511.88
345.259	483.88
345.487	463.88
345.714	438.88
345.942	470.88
346.17	446.88
346.397	451.88
346.625	433.88
346.853	434.88
347.08	454.88
347.308	448.88
347.535	461.88
347.763	471.88
347.99	457.88
348.218	456.88
348.445	461.88
348.673	450.88
348.9	449.88
349.128	438.88
349.355	441.88
349.583	412.88
349.81	436.88
350.037	430.88
350.265	411.88
350.492	422.88
350.72	425.88
350.947	449.88
351.174	416.88
351.402	437.88
351.629	435.88
351.856	421.88
352.083	444.88
352.311	438.88
352.538	457.88
352.765	459.88
352.992	464.88
353.22	448.88
353.447	438.88
353.674	436.88
353.901	430.88
354.128	422.88
354.355	419.88
354.583	398.88
354.81	420.88
355.037	436.88
355.264	405.88
355.491	410.88
355.718	396.88
355.945	410.88
356.172	404.88
356.399	404.88
356.626	417.88
356.853	404.88
357.08	409.88
357.307	423.88
357.534	398.88
357.761	410.88
357.988	425.88
358.215	417.88
358.441	415.88
358.668	421.88
358.895	417.88
359.122	417.88
359.349	436.88
359.576	450.88
359.802	466.88
360.029	501.88
360.256	477.88
360.483	451.88
360.709	432.88
360.936	449.88
361.163	426.88
361.39	443.88
361.616	428.88
361.843	434.88
362.07	435.88
362.296	438.88
362.523	432.88
362.749	421.88
362.976	435.88
363.203	421.88
363.429	400.88
363.656	418.88
363.882	420.88
364.109	418.88
364.335	414.88
364.562	425.88
364.788	411.88
365.015	424.88
365.241	422.88
365.468	420.88
365.694	413.88
365.92	411.88
366.147	409.88
366.373	422.88
366.599	415.88
366.826	413.88
367.052	424.88
367.278	411.88
367.505	422.88
367.731	414.88
367.957	408.88
368.184	416.88
368.41	424.88
368.636	433.88
368.862	435.88
369.089	426.88
369.315	408.88
369.541	415.88
369.767	421.88
369.993	430.88
370.219	397.88
370.445	413.88
370.672	428.88
370.898	427.88
371.124	424.88
371.35	428.88
371.576	421.88
371.802	426.88
372.028	408.88
372.254	438.88
372.48	439.88
372.706	422.88
372.932	412.88
373.158	410.88
373.384	435.88
373.61	432.88
373.835	417.88
374.061	429.88
374.287	435.88
374.513	425.88
374.739	436.88
374.965	424.88
375.191	438.88
375.416	430.88
375.642	449.88
375.868	429.88
376.094	408.88
376.319	420.88
376.545	414.88
376.771	410.88
376.997	398.88
377.222	412.88
377.448	409.88
377.674	418.88
377.899	402.88
378.125	407.88
378.35	411.88
378.576	401.88
378.802	406.88
379.027	423.88
379.253	413.88
379.478	395.88
379.704	409.88
379.929	406.88
380.155	442.88
380.38	430.88
380.606	413.88
380.831	418.88
381.057	414.88
381.282	428.88
381.507	435.88
381.733	426.88
381.958	412.88
382.184	426.88
382.409	409.88
382.634	444.88
382.86	424.88
383.085	413.88
383.31	410.88
383.535	432.88
383.761	402.88
383.986	450.88
384.211	474.88
384.436	450.88
384.662	458.88
384.887	448.88
385.112	453.88
385.337	449.88
385.562	458.88
385.787	451.88
386.013	462.88
386.238	490.88
386.463	462.88
386.688	458.88
386.913	446.88
387.138	450.88
387.363	458.88
387.588	439.88
387.813	451.88
388.038	472.88
388.263	464.88
388.488	461.88
388.713	470.88
388.938	470.88
389.163	458.88
389.387	456.88
389.612	440.88
389.837	460.88
390.062	457.88
390.287	453.88
390.512	459.88
390.736	464.88
390.961	471.88
391.186	453.88
391.411	438.88
391.636	474.88
391.86	489.88
392.085	484.88
392.31	478.88
392.534	486.88
392.759	468.88
392.984	467.88
393.208	473.88
393.433	474.88
393.658	463.88
393.882	464.88
394.107	480.88
394.331	486.88
394.556	473.88
394.78	467.88
395.005	496.88
395.229	484.88
395.454	469.88
395.678	498.88
395.903	507.88
396.127	498.88
396.352	508.88
396.576	477.88
396.801	489.88
397.025	468.88
397.249	489.88
397.474	481.88
397.698	485.88
397.922	523.88
398.147	526.88
398.371	534.88
398.595	538.88
398.82	524.88
399.044	555.88
399.268	573.88
399.492	638.88
399.717	696.88
399.941	677.88
400.165	698.88
400.389	655.88
400.613	610.88
400.837	586.88
401.062	537.88
401.286	540.88
401.51	539.88
401.734	536.88
401.958	560.88
402.182	574.88
402.406	563.88
402.63	541.88
402.854	555.88
403.078	578.88
403.302	547.88
403.526	584.88
403.75	592.88
403.974	572.88
404.198	565.88
404.422	576.88
404.645	591.88
404.869	586.88
405.093	610.88
405.317	618.88
405.541	646.88
405.765	586.88
405.988	587.88
406.212	570.88
406.436	609.88
406.66	642.88
406.883	641.88
407.107	626.88
407.331	684.88
407.555	739.88
407.778	732.88
408.002	690.88
408.226	646.88
408.449	609.88
408.673	621.88
408.896	625.88
409.12	666.88
409.344	659.88
409.567	584.88
409.791	553.88
410.014	557.88
410.238	550.88
410.461	564.88
410.685	570.88
410.908	581.88
411.132	581.88
411.355	608.88
411.578	614.88
411.802	576.88
412.025	545.88
412.249	556.88
412.472	591.88
412.695	576.88
412.919	551.88
413.142	539.88
413.365	560.88
413.589	547.88
413.812	536.88
414.035	519.88
414.258	508.88
414.482	506.88
414.705	524.88
414.928	516.88
415.151	538.88
415.374	514.88
415.597	527.88
415.821	513.88
416.044	521.88
416.267	537.88
416.49	503.88
416.713	524.88
416.936	504.88
417.159	491.88
417.382	521.88
417.605	503.88
417.828	536.88
418.051	543.88
418.274	544.88
418.497	528.88
418.72	536.88
418.943	522.88
419.166	566.88
419.389	576.88
419.611	581.88
419.834	540.88
420.057	565.88
420.28	570.88
420.503	523.88
420.726	544.88
420.948	546.88
421.171	596.88
421.394	604.88
421.617	585.88
421.839	523.88
422.062	541.88
422.285	537.88
422.507	609.88
422.73	666.88
422.953	642.88
423.175	576.88
423.398	564.88
423.621	554.88
423.843	595.88
424.066	572.88
424.288	573.88
424.511	581.88
424.733	645.88
424.956	715.88
425.178	669.88
425.401	660.88
425.623	680.88
425.846	613.88
426.068	576.88
426.291	551.88
426.513	546.88
426.735	561.88
426.958	602.88
427.18	682.88
427.402	801.88
427.625	877.88
427.847	753.88
428.069	647.88
428.292	580.88
428.514	521.88
428.736	525.88
428.958	531.88
429.181	506.88
429.403	504.88
429.625	512.88
429.847	566.88
430.069	628.88
430.292	601.88
430.514	510.88
430.736	516.88
430.958	524.88
431.18	475.88
431.402	480.88
431.624	475.88
431.846	480.88
432.068	478.88
432.29	501.88
432.512	490.88
432.734	496.88
432.956	507.88
433.178	510.88
433.4	508.88
433.622	509.88
433.844	514.88
434.066	490.88
434.287	473.88
434.509	486.88
434.731	525.88
434.953	535.88
435.175	555.88
435.397	561.88
435.618	548.88
435.84	586.88
436.062	681.88
436.284	736.88
436.505	613.88
436.727	546.88
436.949	512.88
437.17	523.88
437.392	494.88
437.614	520.88
437.835	554.88
438.057	644.88
438.278	716.88
438.5	717.88
438.721	803.88
438.943	776.88
439.165	608.88
439.386	572.88
439.608	548.88
439.829	573.88
440.05	590.88
440.272	642.88
440.493	585.88
440.715	547.88
440.936	525.88
441.158	545.88
441.379	542.88
441.6	548.88
441.822	560.88
442.043	629.88
442.264	681.88
442.486	703.88
442.707	619.88
442.928	570.88
443.149	573.88
443.371	607.88
443.592	621.88
443.813	717.88
444.034	787.88
444.255	667.88
444.476	618.88
444.698	599.88
444.919	594.88
445.14	699.88
445.361	660.88
445.582	626.88
445.803	668.88
446.024	743.88
446.245	724.88
446.466	666.88
446.687	573.88
446.908	552.88
447.129	519.88
447.35	505.88
447.571	517.88
447.792	498.88
448.013	496.88
448.234	529.88
448.455	585.88
448.675	653.88
448.896	771.88
449.117	644.88
449.338	618.88
449.559	734.88
449.779	814.88
450	633.88
450.221	548.88
450.442	511.88
450.662	518.88
450.883	496.88
451.104	514.88
451.324	510.88
451.545	485.88
451.766	475.88
451.986	459.88
452.207	471.88
452.428	440.88
452.648	468.88
452.869	477.88
453.089	484.88
453.31	480.88
453.53	475.88
453.751	468.88
453.971	490.88
454.192	509.88
454.412	468.88
454.633	444.88
454.853	449.88
455.073	460.88
455.294	477.88
455.514	552.88
455.734	526.88
455.955	475.88
456.175	428.88
456.395	425.88
456.616	419.88
456.836	465.88
457.056	409.88
457.276	432.88
457.497	450.88
457.717	434.88
457.937	440.88
458.157	465.88
458.377	462.88
458.598	477.88
458.818	533.88
459.038	621.88
459.258	642.88
459.478	544.88
459.698	502.88
459.918	512.88
460.138	513.88
460.358	513.88
460.578	534.88
460.798	546.88
461.018	534.88
461.238	523.88
461.458	536.88
461.678	529.88
461.898	513.88
462.118	542.88
462.338	516.88
462.558	570.88
462.777	579.88
462.997	589.88
463.217	601.88
463.437	616.88
463.657	602.88
463.876	566.88
464.096	564.88
464.316	559.88
464.536	573.88
464.755	570.88
464.975	589.88
465.195	596.88
465.414	667.88
465.634	591.88
465.854	536.88
466.073	500.88
466.293	482.88
466.512	463.88
466.732	478.88
466.951	501.88
467.171	470.88
467.391	500.88
467.61	507.88
467.829	527.88
468.049	492.88
468.268	465.88
468.488	467.88
468.707	462.88
468.927	469.88
469.146	459.88
469.365	481.88
469.585	456.88
469.804	464.88
470.023	490.88
470.243	501.88
470.462	486.88
470.681	490.88
470.901	496.88
471.12	502.88
471.339	486.88
471.558	468.88
471.777	494.88
471.997	465.88
472.216	471.88
472.435	485.88
472.654	502.88
472.873	441.88
473.092	444.88
473.311	484.88
473.53	491.88
473.749	481.88
473.968	510.88
474.187	630.88
474.406	648.88
474.625	539.88
474.844	493.88
475.063	474.88
475.282	468.88
475.501	478.88
475.72	487.88
475.939	480.88
476.158	498.88
476.377	494.88
476.596	476.88
476.814	509.88
477.033	508.88
477.252	507.88
477.471	517.88
477.69	552.88
477.908	534.88
478.127	525.88
478.346	541.88
478.564	538.88
478.783	556.88
479.002	572.88
479.22	562.88
479.439	566.88
479.658	591.88
479.876	560.88
480.095	601.88
480.313	622.88
480.532	592.88
480.751	585.88
480.969	600.88
481.188	615.88
481.406	625.88
481.624	596.88
481.843	560.88
482.061	553.88
482.28	548.88
482.498	556.88
482.717	555.88
482.935	558.88
483.153	544.88
483.372	564.88
483.59	557.88
483.808	534.88
484.027	555.88
484.245	548.88
484.463	552.88
484.681	543.88
484.9	566.88
485.118	548.88
485.336	567.88
485.554	595.88
485.772	588.88
485.99	581.88
486.209	593.88
486.427	572.88
486.645	565.88
486.863	615.88
487.081	588.88
487.299	592.88
487.517	582.88
487.735	594.88
487.953	587.88
488.171	578.88
488.389	599.88
488.607	590.88
488.825	584.88
489.043	602.88
489.261	570.88
489.479	577.88
489.696	568.88
489.914	609.88
490.132	586.88
490.35	625.88
490.568	635.88
490.786	640.88
491.003	630.88
491.221	636.88
491.439	649.88
491.657	675.88
491.874	694.88
492.092	672.88
492.31	676.88
492.527	649.88
492.745	668.88
492.963	694.88
493.18	676.88
493.398	685.88
493.615	701.88
493.833	707.88
494.05	699.88
494.268	694.88
494.485	678.88
494.703	693.88
494.92	700.88
495.138	685.88
495.355	670.88
495.573	699.88
495.79	702.88
496.008	669.88
496.225	672.88
496.442	682.88
496.66	682.88
496.877	702.88
497.094	700.88
497.312	717.88
497.529	735.88
497.746	749.88
497.963	745.88
498.181	783.88
498.398	758.88
498.615	831.88
498.832	846.88
499.049	864.88
499.267	892.88
499.484	918.88
499.701	969.88
499.918	1003.88
500.135	1078.88
500.352	1178.88
500.569	1176.88
500.786	1232.88
501.003	1170.88
501.22	1092.88
501.437	1060.88
501.654	1033.88
501.871	970.88
502.088	897.88
502.305	871.88
502.522	856.88
502.739	830.88
502.956	821.88
503.172	788.88
503.389	742.88
503.606	753.88
503.823	758.88
504.04	758.88
504.256	744.88
504.473	730.88
504.69	728.88
504.907	737.88
505.123	710.88
505.34	693.88
505.557	685.88
505.773	689.88
505.99	670.88
506.207	680.88
506.423	683.88
506.64	662.88
506.856	655.88
507.073	633.88
507.289	657.88
507.506	625.88
507.722	653.88
507.939	666.88
508.155	640.88
508.372	630.88
508.588	642.88
508.805	600.88
509.021	590.88
509.238	629.88
509.454	634.88
509.67	645.88
509.887	620.88
510.103	602.88
510.319	656.88
510.536	696.88
510.752	1180.88
510.968	958.88
511.184	658.88
511.401	587.88
511.617	621.88
511.833	585.88
512.049	582.88
512.265	580.88
512.481	564.88
512.698	590.88
512.914	575.88
513.13	582.88
513.346	601.88
513.562	592.88
513.778	566.88
513.994	580.88
514.21	602.88
514.426	617.88
514.642	677.88
514.858	688.88
515.074	739.88
515.29	859.88
515.506	1258.88
515.721	1080.88
515.937	724.88
516.153	650.88
516.369	634.88
516.585	633.88
516.801	627.88
517.016	621.88
517.232	632.88
517.448	648.88
517.664	652.88
517.879	662.88
518.095	647.88
518.311	646.88
518.527	644.88
518.742	627.88
518.958	615.88
519.173	602.88
519.389	600.88
519.605	588.88
519.82	606.88
520.036	586.88
520.251	598.88
520.467	644.88
520.682	636.88
520.898	653.88
521.113	640.88
521.329	680.88
521.544	761.88
521.76	996.88
521.975	1664.88
522.19	1709.88
522.406	902.88
522.621	674.88
522.836	596.88
523.052	579.88
523.267	574.88
523.482	562.88
523.698	514.88
523.913	542.88
524.128	543.88
524.343	552.88
524.559	521.88
524.774	508.88
524.989	516.88
525.204	523.88
525.419	518.88
525.634	524.88
525.849	515.88
526.064	512.88
526.28	519.88
526.495	504.88
526.71	496.88
526.925	486.88
527.14	499.88
527.355	486.88
527.57	490.88
527.785	489.88
527.999	484.88
528.214	478.88
528.429	492.88
528.644	479.88
528.859	478.88
529.074	492.88
529.289	524.88
529.503	593.88
529.718	572.88
529.933	515.88
530.148	502.88
530.363	486.88
530.577	486.88
530.792	491.88
531.007	487.88
531.221	478.88
531.436	487.88
531.651	480.88
531.865	470.88
532.08	469.88
532.295	470.88
532.509	468.88
532.724	460.88
532.938	462.88
533.153	460.88
533.367	467.88
533.582	460.88
533.796	456.88
534.011	461.88
534.225	475.88
534.44	458.88
534.654	480.88
534.868	448.88
535.083	455.88
535.297	464.88
535.511	472.88
535.726	479.88
535.94	463.88
536.154	456.88
536.369	457.88
536.583	451.88
536.797	445.88
537.011	453.88
537.225	441.88
537.44	449.88
537.654	455.88
537.868	461.88
538.082	462.88
538.296	458.88
538.51	450.88
538.724	450.88
538.938	457.88
539.153	437.88
539.367	480.88
539.581	465.88
539.795	449.88
540.009	431.88
540.222	468.88
540.436	446.88
540.65	442.88
540.864	455.88
541.078	462.88
541.292	444.88
541.506	440.88
541.72	427.88
541.934	436.88
542.147	434.88
542.361	449.88
542.575	437.88
542.789	427.88
543.002	430.88
543.216	417.88
543.43	439.88
543.644	442.88
543.857	427.88
544.071	438.88
544.285	448.88
544.498	444.88
544.712	437.88
544.925	422.88
545.139	439.88
545.352	440.88
545.566	441.88
545.779	425.88
545.993	416.88
546.206	439.88
546.42	433.88
546.633	434.88
546.847	437.88
547.06	428.88
547.274	438.88
547.487	436.88
547.7	415.88
547.914	432.88
548.127	412.88
548.34	410.88
548.554	411.88
548.767	421.88
548.98	432.88
549.193	428.88
549.407	433.88
549.62	420.88
549.833	441.88
550.046	454.88
550.259	447.88
550.473	440.88
550.686	435.88
550.899	411.88
551.112	430.88
551.325	426.88
551.538	434.88
551.751	404.88
551.964	393.88
552.177	426.88
552.39	416.88
552.603	441.88
552.816	453.88
553.029	455.88
553.242	451.88
553.455	449.88
553.667	446.88
553.88	443.88
554.093	452.88
554.306	472.88
554.519	443.88
554.732	444.88
554.944	447.88
555.157	426.88
555.37	421.88
555.583	422.88
555.795	401.88
556.008	396.88
556.221	410.88
556.433	389.88
556.646	397.88
556.859	385.88
557.071	408.88
557.284	386.88
557.496	388.88
557.709	375.88
557.921	388.88
558.134	368.88
558.346	372.88
558.559	392.88
558.771	358.88
558.984	368.88
559.196	366.88
559.409	378.88
559.621	369.88
559.833	386.88
560.046	382.88
560.258	372.88
560.47	371.88
560.683	375.88
560.895	381.88
561.107	354.88
561.32	376.88
561.532	376.88
561.744	375.88
561.956	373.88
562.168	398.88
562.381	371.88
562.593	372.88
562.805	395.88
563.017	377.88
563.229	380.88
563.441	371.88
563.653	379.88
563.865	376.88
564.077	373.88
564.289	362.88
564.501	391.88
564.713	385.88
564.925	405.88
565.137	423.88
565.349	398.88
565.561	404.88
565.773	408.88
565.985	430.88
566.197	422.88
566.408	475.88
566.62	487.88
566.832	491.88
567.044	492.88
567.255	501.88
567.467	520.88
567.679	530.88
567.891	551.88
568.102	558.88
568.314	551.88
568.526	501.88
568.737	494.88
568.949	469.88
569.161	442.88
569.372	434.88
569.584	392.88
569.795	406.88
570.007	397.88
570.218	451.88
570.43	444.88
570.641	389.88
570.853	384.88
571.064	386.88
571.276	388.88
571.487	368.88
571.698	363.88
571.91	360.88
572.121	342.88
572.333	353.88
572.544	359.88
572.755	350.88
572.966	349.88
573.178	328.88
573.389	350.88
573.6	360.88
573.811	352.88
574.023	307.88
574.234	315.88
574.445	328.88
574.656	315.88
574.867	330.88
575.078	334.88
575.289	324.88
575.501	341.88
575.712	327.88
575.923	316.88
576.134	325.88
576.345	322.88
576.556	337.88
576.767	337.88
576.978	307.88
577.188	323.88
577.399	300.88
577.61	314.88
577.821	312.88
578.032	309.88
578.243	350.88
578.454	557.88
578.665	402.88
578.875	321.88
579.086	301.88
579.297	294.88
579.508	309.88
579.718	289.88
579.929	299.88
580.14	291.88
580.35	311.88
580.561	314.88
580.772	303.88
580.982	293.88
581.193	301.88
581.403	286.88
581.614	301.88
581.825	297.88
582.035	301.88
582.246	298.88
582.456	294.88
582.667	296.88
582.877	295.88
583.087	280.88
583.298	312.88
583.508	301.88
583.719	285.88
583.929	291.88
584.139	299.88
584.35	277.88
584.56	280.88
584.77	293.88
584.981	280.88
585.191	295.88
585.401	288.88
585.611	280.88
585.821	314.88
586.032	296.88
586.242	297.88
586.452	282.88
586.662	281.88
586.872	295.88
587.082	281.88
587.292	266.88
587.502	295.88
587.713	271.88
587.923	283.88
588.133	307.88
588.343	275.88
588.553	294.88
588.762	282.88
588.972	285.88
589.182	283.88
589.392	299.88
589.602	285.88
589.812	281.88
590.022	297.88
590.232	280.88
590.441	288.88
590.651	296.88
590.861	305.88
591.071	293.88
591.281	292.88
591.49	273.88
591.7	297.88
591.91	316.88
592.119	297.88
592.329	295.88
592.539	308.88
592.748	320.88
592.958	304.88
593.167	305.88
593.377	317.88
593.587	325.88
593.796	311.88
594.006	313.88
594.215	333.88
594.424	325.88
594.634	320.88
594.843	312.88
595.053	308.88
595.262	310.88
595.472	292.88
595.681	286.88
595.89	300.88
596.1	304.88
596.309	273.88
596.518	268.88
596.727	275.88
596.937	276.88
597.146	257.88
597.355	268.88
597.564	259.88
597.774	265.88
597.983	263.88
598.192	267.88
598.401	269.88
598.61	261.88
598.819	243.88
599.028	252.88
599.237	262.88
599.446	242.88
599.655	274.88
599.864	265.88
600.073	259.88
600.282	253.88
600.491	235.88
600.7	228.88
600.909	251.88
601.118	229.88
601.327	251.88
601.536	250.88
601.745	236.88
601.953	231.88
602.162	252.88
602.371	249.88
602.58	237.88
602.789	233.88
602.997	230.88
603.206	229.88
603.415	232.88
603.623	220.88
603.832	231.88
604.041	236.88
604.249	257.88
604.458	239.88
604.666	224.88
604.875	235.88
605.084	225.88
605.292	233.88
605.501	226.88
605.709	229.88
605.918	258.88
606.126	233.88
606.334	219.88
606.543	231.88
606.751	241.88
606.96	233.88
607.168	231.88
607.376	232.88
607.585	233.88
607.793	237.88
608.001	243.88
608.21	212.88
608.418	228.88
608.626	240.88
608.834	225.88
609.043	211.88
609.251	225.88
609.459	233.88
609.667	241.88
609.875	226.88
610.083	225.88
610.291	227.88
610.499	235.88
610.707	227.88
610.916	212.88
611.124	217.88
611.332	225.88
611.54	222.88
611.748	242.88
611.955	220.88
612.163	231.88
612.371	225.88
612.579	208.88
612.787	222.88
612.995	224.88
613.203	238.88
613.411	228.88
613.618	226.88
613.826	232.88
614.034	233.88
614.242	232.88
614.449	232.88
614.657	221.88
614.865	224.88
615.072	221.88
615.28	234.88
615.488	243.88
615.695	231.88
615.903	231.88
616.111	224.88
616.318	222.88
616.526	230.88
616.733	213.88
616.941	217.88
617.148	229.88
617.356	216.88
617.563	240.88
617.771	215.88
617.978	230.88
618.185	227.88
618.393	226.88
618.6	212.88
618.807	223.88
619.015	228.88
619.222	212.88
619.429	232.88
619.637	213.88
619.844	214.88
620.051	233.88
620.258	204.88
620.466	231.88
620.673	204.88
620.88	205.88
621.087	218.88
621.294	229.88
621.501	219.88
621.708	219.88
621.915	203.88
622.122	217.88
622.329	217.88
622.536	209.88
622.743	206.88
622.95	204.88
623.157	191.88
623.364	206.88
623.571	196.88
623.778	203.88
623.985	210.88
624.192	192.88
624.399	200.88
624.606	196.88
624.812	202.88
625.019	213.88
625.226	221.88
625.433	214.88
625.639	183.88
625.846	207.88
626.053	213.88
626.259	193.88
626.466	202.88
626.673	206.88
626.879	203.88
627.086	197.88
627.293	204.88
627.499	204.88
627.706	214.88
627.912	206.88
628.119	199.88
628.325	185.88
628.532	192.88
628.738	194.88
628.945	194.88
629.151	205.88
629.357	197.88
629.564	200.88
629.77	192.88
629.976	195.88
630.183	194.88
630.389	188.88
630.595	177.88
630.802	192.88
631.008	175.88
631.214	191.88
631.42	200.88
631.627	200.88
631.833	185.88
632.039	173.88
632.245	192.88
632.451	187.88
632.657	189.88
632.863	176.88
633.069	177.88
633.275	182.88
633.481	178.88
633.688	189.88
633.893	203.88
634.099	161.88
634.305	176.88
634.511	167.88
634.717	174.88
634.923	166.88
635.129	187.88
635.335	180.88
635.541	174.88
635.747	182.88
635.952	167.88
636.158	171.88
636.364	185.88
636.57	164.88
636.775	166.88
636.981	182.88
637.187	186.88
637.392	162.88
637.598	168.88
637.804	166.88
638.009	190.88
638.215	171.88
638.421	152.88
638.626	160.88
638.832	182.88
639.037	156.88
639.243	171.88
639.448	163.88
639.654	171.88
639.859	161.88
640.065	162.88
640.27	179.88
640.475	152.88
640.681	159.88
640.886	155.88
641.091	166.88
641.297	167.88
641.502	168.88
641.707	167.88
641.913	156.88
642.118	161.88
642.323	168.88
642.528	155.88
642.733	156.88
642.939	165.88
643.144	148.88
643.349	149.88
643.554	150.88
643.759	169.88
643.964	166.88
644.169	166.88
644.374	154.88
644.579	173.88
644.784	165.88
644.989	161.88
645.194	135.88
645.399	155.88
645.604	154.88
645.809	151.88
646.014	150.88
646.219	169.88
646.423	155.88
646.628	173.88
646.833	145.88
647.038	158.88
647.243	164.88
647.447	173.88
647.652	164.88
647.857	169.88
648.062	167.88
648.266	178.88
648.471	173.88
648.676	173.88
648.88	182.88
649.085	160.88
649.289	154.88
649.494	168.88
649.698	177.88
649.903	176.88
650.107	168.88
650.312	158.88
650.516	153.88
650.721	146.88
650.925	154.88
651.13	154.88
651.334	152.88
651.539	157.88
651.743	145.88
651.947	148.88
652.152	154.88
652.356	146.88
652.56	123.88
652.764	128.88
652.969	140.88
653.173	133.88
653.377	140.88
653.581	132.88
653.785	140.88
653.99	136.88
654.194	126.88
654.398	148.88
654.602	128.88
654.806	132.88
655.01	147.88
655.214	129.88
655.418	155.88
655.622	125.88
655.826	129.88
656.03	136.88
656.234	140.88
656.438	129.88
656.642	141.88
656.846	128.88
657.049	133.88
657.253	135.88
657.457	116.88
657.661	132.88
657.865	110.88
658.068	119.88
658.272	126.88
658.476	106.88
658.68	104.88
658.883	104.88
659.087	97.88
659.291	101.88
659.494	102.88
659.698	97.88
659.901	106.88
660.105	101.88
660.309	101.88
660.512	102.88
660.716	94.88
660.919	87.88
661.123	94.88
661.326	98.88
661.53	78.88
661.733	88.88
661.936	89.88
662.14	87.88
662.343	89.88
662.546	84.88
662.75	91.88
662.953	85.88
663.156	73.88
663.36	84.88
663.563	84.88
663.766	93.88
663.969	92.88
664.173	82.88
664.376	83.88
664.579	78.88
664.782	82.88
664.985	79.88
665.188	77.88
665.391	84.88
665.594	74.88
665.797	86.88
666	83.88
666.203	85.88
666.406	75.88
666.609	81.88
666.812	76.88
667.015	74.88
667.218	96.88
667.421	80.88
667.624	81.88
667.827	84.88
668.03	71.88
668.232	88.88
668.435	77.88
668.638	77.88
668.841	75.88
669.043	78.88
669.246	84.88
669.449	84.88
669.651	83.88
669.854	97.88
670.057	89.88
670.259	79.88
670.462	80.88
670.665	78.88
670.867	81.88
671.07	77.88
671.272	71.88
671.475	78.88
671.677	81.88
671.88	91.88
672.082	85.88
672.284	97.88
672.487	94.88
672.689	98.88
672.892	105.88
