Data from 1985.PennyLincolnUp.Lamp.En5.5.200Scan.071819.P1_HRD10591_17-01-12-969.txt Node
Date: Thu Jul 18 17:01:12 EDT 2019
User: cochatt
Spectrometer: HR+D1059
Trigger mode: 1
Integration Time (sec): 1.000000E-1
Scans to average: 1
Electric dark correction enabled: true
Nonlinearity correction enabled: false
Boxcar width: 0
XAxis mode: Wavelengths
Number of Pixels in Spectrum: 2048
>>>>>Begin Spectral Data<<<<<
223.165	-29.31
223.4	-29.31
223.635	-29.31
223.869	-21.31
224.104	-18.31
224.338	-15.31
224.573	-13.31
224.808	-23.31
225.042	-3.31
225.277	-15.31
225.511	-1.31
225.746	15.69
225.98	10.69
226.215	14.69
226.449	20.69
226.683	26.69
226.918	27.69
227.152	24.69
227.387	36.69
227.621	41.69
227.856	49.69
228.09	66.69
228.324	57.69
228.559	68.69
228.793	66.69
229.027	81.69
229.262	84.69
229.496	100.69
229.73	116.69
229.964	130.69
230.199	106.69
230.433	103.69
230.667	101.69
230.901	92.69
231.136	110.69
231.37	113.69
231.604	97.69
231.838	106.69
232.072	122.69
232.306	106.69
232.541	100.69
232.775	97.69
233.009	110.69
233.243	100.69
233.477	114.69
233.711	97.69
233.945	96.69
234.179	114.69
234.413	107.69
234.647	103.69
234.881	99.69
235.115	117.69
235.349	107.69
235.583	118.69
235.817	116.69
236.051	115.69
236.285	111.69
236.519	114.69
236.753	111.69
236.987	122.69
237.221	142.69
237.455	187.69
237.689	151.69
237.922	130.69
238.156	132.69
238.39	119.69
238.624	125.69
238.858	118.69
239.091	107.69
239.325	107.69
239.559	120.69
239.793	116.69
240.027	117.69
240.26	125.69
240.494	115.69
240.728	129.69
240.961	132.69
241.195	132.69
241.429	130.69
241.662	139.69
241.896	129.69
242.13	124.69
242.363	130.69
242.597	123.69
242.83	120.69
243.064	131.69
243.298	138.69
243.531	132.69
243.765	127.69
243.998	130.69
244.232	132.69
244.465	140.69
244.699	125.69
244.932	130.69
245.166	130.69
245.399	134.69
245.633	145.69
245.866	132.69
246.099	146.69
246.333	134.69
246.566	128.69
246.8	139.69
247.033	146.69
247.266	138.69
247.5	158.69
247.733	161.69
247.966	158.69
248.2	149.69
248.433	143.69
248.666	145.69
248.899	160.69
249.133	155.69
249.366	161.69
249.599	165.69
249.832	155.69
250.066	147.69
250.299	151.69
250.532	165.69
250.765	171.69
250.998	164.69
251.231	176.69
251.465	175.69
251.698	176.69
251.931	179.69
252.164	157.69
252.397	160.69
252.63	168.69
252.863	176.69
253.096	191.69
253.329	181.69
253.562	184.69
253.795	163.69
254.028	178.69
254.261	188.69
254.494	169.69
254.727	201.69
254.96	212.69
255.193	207.69
255.426	192.69
255.659	180.69
255.892	184.69
256.124	193.69
256.357	194.69
256.59	188.69
256.823	163.69
257.056	176.69
257.289	190.69
257.521	196.69
257.754	191.69
257.987	184.69
258.22	189.69
258.452	176.69
258.685	174.69
258.918	174.69
259.151	183.69
259.383	184.69
259.616	196.69
259.849	205.69
260.081	203.69
260.314	207.69
260.547	188.69
260.779	193.69
261.012	204.69
261.244	200.69
261.477	190.69
261.71	190.69
261.942	176.69
262.175	192.69
262.407	181.69
262.64	182.69
262.872	192.69
263.105	192.69
263.337	193.69
263.57	203.69
263.802	198.69
264.035	197.69
264.267	204.69
264.499	189.69
264.732	196.69
264.964	203.69
265.197	194.69
265.429	219.69
265.661	214.69
265.894	194.69
266.126	200.69
266.358	202.69
266.591	207.69
266.823	212.69
267.055	216.69
267.287	203.69
267.52	200.69
267.752	214.69
267.984	212.69
268.216	221.69
268.448	219.69
268.681	214.69
268.913	217.69
269.145	225.69
269.377	227.69
269.609	236.69
269.841	231.69
270.073	230.69
270.306	250.69
270.538	247.69
270.77	233.69
271.002	248.69
271.234	242.69
271.466	232.69
271.698	232.69
271.93	238.69
272.162	251.69
272.394	240.69
272.626	243.69
272.858	244.69
273.09	255.69
273.322	237.69
273.553	251.69
273.785	234.69
274.017	231.69
274.249	250.69
274.481	252.69
274.713	249.69
274.945	262.69
275.176	215.69
275.408	240.69
275.64	245.69
275.872	227.69
276.104	231.69
276.335	249.69
276.567	237.69
276.799	249.69
277.031	262.69
277.262	238.69
277.494	267.69
277.726	242.69
277.957	241.69
278.189	253.69
278.421	251.69
278.652	230.69
278.884	261.69
279.115	257.69
279.347	257.69
279.579	254.69
279.81	262.69
280.042	262.69
280.273	236.69
280.505	249.69
280.736	244.69
280.968	257.69
281.199	238.69
281.431	244.69
281.662	236.69
281.894	249.69
282.125	260.69
282.356	265.69
282.588	277.69
282.819	284.69
283.051	264.69
283.282	245.69
283.513	261.69
283.745	266.69
283.976	269.69
284.207	257.69
284.439	265.69
284.67	267.69
284.901	270.69
285.132	269.69
285.364	280.69
285.595	258.69
285.826	264.69
286.057	268.69
286.288	253.69
286.52	244.69
286.751	285.69
286.982	280.69
287.213	270.69
287.444	269.69
287.675	283.69
287.906	284.69
288.138	293.69
288.369	287.69
288.6	281.69
288.831	290.69
289.062	285.69
289.293	276.69
289.524	282.69
289.755	276.69
289.986	268.69
290.217	292.69
290.448	286.69
290.679	282.69
290.91	292.69
291.141	294.69
291.371	280.69
291.602	302.69
291.833	280.69
292.064	296.69
292.295	294.69
292.526	265.69
292.757	276.69
292.987	283.69
293.218	289.69
293.449	279.69
293.68	283.69
293.91	287.69
294.141	296.69
294.372	296.69
294.603	292.69
294.833	298.69
295.064	293.69
295.295	310.69
295.525	279.69
295.756	298.69
295.987	278.69
296.217	300.69
296.448	301.69
296.679	290.69
296.909	288.69
297.14	291.69
297.37	301.69
297.601	308.69
297.831	313.69
298.062	298.69
298.292	308.69
298.523	309.69
298.753	302.69
298.984	288.69
299.214	305.69
299.445	295.69
299.675	304.69
299.905	308.69
300.136	322.69
300.366	289.69
300.597	297.69
300.827	313.69
301.057	316.69
301.288	342.69
301.518	311.69
301.748	307.69
301.979	339.69
302.209	320.69
302.439	330.69
302.669	320.69
302.9	324.69
303.13	309.69
303.36	324.69
303.59	313.69
303.82	326.69
304.051	337.69
304.281	326.69
304.511	331.69
304.741	320.69
304.971	328.69
305.201	330.69
305.431	341.69
305.661	326.69
305.891	330.69
306.121	318.69
306.352	338.69
306.582	324.69
306.812	333.69
307.042	333.69
307.272	333.69
307.502	330.69
307.731	320.69
307.961	327.69
308.191	317.69
308.421	339.69
308.651	312.69
308.881	320.69
309.111	326.69
309.341	326.69
309.571	329.69
309.8	338.69
310.03	332.69
310.26	365.69
310.49	334.69
310.72	343.69
310.949	354.69
311.179	349.69
311.409	359.69
311.639	347.69
311.868	345.69
312.098	368.69
312.328	357.69
312.557	341.69
312.787	380.69
313.017	365.69
313.246	365.69
313.476	361.69
313.706	361.69
313.935	365.69
314.165	376.69
314.394	366.69
314.624	367.69
314.853	350.69
315.083	352.69
315.312	349.69
315.542	365.69
315.771	355.69
316.001	356.69
316.23	359.69
316.46	361.69
316.689	356.69
316.919	365.69
317.148	357.69
317.377	350.69
317.607	359.69
317.836	361.69
318.065	378.69
318.295	356.69
318.524	366.69
318.753	360.69
318.983	348.69
319.212	373.69
319.441	368.69
319.67	379.69
319.9	357.69
320.129	365.69
320.358	360.69
320.587	376.69
320.816	374.69
321.046	357.69
321.275	366.69
321.504	353.69
321.733	373.69
321.962	378.69
322.191	378.69
322.42	384.69
322.649	376.69
322.878	377.69
323.108	360.69
323.337	392.69
323.566	440.69
323.795	403.69
324.024	437.69
324.253	452.69
324.482	581.69
324.71	822.69
324.939	1129.69
325.168	980.69
325.397	578.69
325.626	451.69
325.855	438.69
326.084	405.69
326.313	393.69
326.542	418.69
326.77	427.69
326.999	459.69
327.228	572.69
327.457	755.69
327.686	862.69
327.914	624.69
328.143	450.69
328.372	443.69
328.6	430.69
328.829	433.69
329.058	423.69
329.287	451.69
329.515	429.69
329.744	424.69
329.972	428.69
330.201	413.69
330.43	434.69
330.658	410.69
330.887	455.69
331.115	454.69
331.344	422.69
331.572	420.69
331.801	419.69
332.03	447.69
332.258	429.69
332.486	435.69
332.715	430.69
332.943	428.69
333.172	444.69
333.4	432.69
333.629	450.69
333.857	447.69
334.085	462.69
334.314	450.69
334.542	435.69
334.771	451.69
334.999	454.69
335.227	443.69
335.455	428.69
335.684	436.69
335.912	440.69
336.14	420.69
336.369	424.69
336.597	426.69
336.825	424.69
337.053	444.69
337.281	421.69
337.51	423.69
337.738	412.69
337.966	421.69
338.194	409.69
338.422	404.69
338.65	398.69
338.878	405.69
339.106	421.69
339.334	403.69
339.562	409.69
339.79	402.69
340.018	401.69
340.246	408.69
340.474	405.69
340.702	413.69
340.93	401.69
341.158	415.69
341.386	398.69
341.614	394.69
341.842	409.69
342.07	388.69
342.298	404.69
342.526	400.69
342.754	407.69
342.981	405.69
343.209	395.69
343.437	405.69
343.665	395.69
343.893	429.69
344.12	419.69
344.348	416.69
344.576	423.69
344.804	426.69
345.031	410.69
345.259	425.69
345.487	395.69
345.714	392.69
345.942	389.69
346.17	386.69
346.397	408.69
346.625	374.69
346.853	382.69
347.08	388.69
347.308	394.69
347.535	397.69
347.763	390.69
347.99	375.69
348.218	374.69
348.445	412.69
348.673	377.69
348.9	395.69
349.128	392.69
349.355	385.69
349.583	372.69
349.81	355.69
350.037	400.69
350.265	394.69
350.492	386.69
350.72	375.69
350.947	366.69
351.174	372.69
351.402	383.69
351.629	386.69
351.856	358.69
352.083	409.69
352.311	366.69
352.538	382.69
352.765	397.69
352.992	372.69
353.22	355.69
353.447	385.69
353.674	392.69
353.901	375.69
354.128	373.69
354.355	332.69
354.583	377.69
354.81	380.69
355.037	357.69
355.264	390.69
355.491	386.69
355.718	383.69
355.945	385.69
356.172	358.69
356.399	372.69
356.626	359.69
356.853	363.69
357.08	373.69
357.307	360.69
357.534	359.69
357.761	372.69
357.988	370.69
358.215	381.69
358.441	377.69
358.668	380.69
358.895	375.69
359.122	375.69
359.349	376.69
359.576	384.69
359.802	387.69
360.029	388.69
360.256	381.69
360.483	392.69
360.709	368.69
360.936	383.69
361.163	381.69
361.39	369.69
361.616	376.69
361.843	369.69
362.07	363.69
362.296	382.69
362.523	374.69
362.749	369.69
362.976	361.69
363.203	374.69
363.429	365.69
363.656	341.69
363.882	371.69
364.109	382.69
364.335	372.69
364.562	370.69
364.788	357.69
365.015	368.69
365.241	372.69
365.468	380.69
365.694	374.69
365.92	375.69
366.147	365.69
366.373	372.69
366.599	360.69
366.826	351.69
367.052	372.69
367.278	365.69
367.505	366.69
367.731	356.69
367.957	361.69
368.184	369.69
368.41	375.69
368.636	378.69
368.862	378.69
369.089	376.69
369.315	372.69
369.541	398.69
369.767	370.69
369.993	361.69
370.219	357.69
370.445	376.69
370.672	364.69
370.898	371.69
371.124	380.69
371.35	377.69
371.576	382.69
371.802	384.69
372.028	378.69
372.254	385.69
372.48	388.69
372.706	366.69
372.932	390.69
373.158	379.69
373.384	394.69
373.61	386.69
373.835	379.69
374.061	395.69
374.287	392.69
374.513	379.69
374.739	368.69
374.965	411.69
375.191	377.69
375.416	401.69
375.642	381.69
375.868	389.69
376.094	368.69
376.319	389.69
376.545	395.69
376.771	385.69
376.997	394.69
377.222	363.69
377.448	388.69
377.674	361.69
377.899	367.69
378.125	365.69
378.35	378.69
378.576	384.69
378.802	364.69
379.027	370.69
379.253	392.69
379.478	371.69
379.704	373.69
379.929	378.69
380.155	362.69
380.38	371.69
380.606	357.69
380.831	369.69
381.057	376.69
381.282	380.69
381.507	378.69
381.733	399.69
381.958	384.69
382.184	389.69
382.409	381.69
382.634	389.69
382.86	380.69
383.085	407.69
383.31	421.69
383.535	403.69
383.761	407.69
383.986	416.69
384.211	406.69
384.436	431.69
384.662	407.69
384.887	411.69
385.112	425.69
385.337	430.69
385.562	420.69
385.787	413.69
386.013	446.69
386.238	422.69
386.463	447.69
386.688	444.69
386.913	434.69
387.138	424.69
387.363	436.69
387.588	411.69
387.813	418.69
388.038	413.69
388.263	431.69
388.488	433.69
388.713	413.69
388.938	422.69
389.163	417.69
389.387	419.69
389.612	428.69
389.837	425.69
390.062	420.69
390.287	428.69
390.512	427.69
390.736	409.69
390.961	413.69
391.186	427.69
391.411	426.69
391.636	432.69
391.86	450.69
392.085	458.69
392.31	455.69
392.534	452.69
392.759	446.69
392.984	429.69
393.208	433.69
393.433	465.69
393.658	434.69
393.882	440.69
394.107	436.69
394.331	428.69
394.556	441.69
394.78	443.69
395.005	444.69
395.229	436.69
395.454	452.69
395.678	443.69
395.903	456.69
396.127	444.69
396.352	457.69
396.576	446.69
396.801	455.69
397.025	452.69
397.249	434.69
397.474	450.69
397.698	472.69
397.922	474.69
398.147	445.69
398.371	479.69
398.595	494.69
398.82	486.69
399.044	520.69
399.268	541.69
399.492	591.69
399.717	612.69
399.941	648.69
400.165	610.69
400.389	605.69
400.613	567.69
400.837	538.69
401.062	513.69
401.286	479.69
401.51	488.69
401.734	493.69
401.958	505.69
402.182	496.69
402.406	515.69
402.63	514.69
402.854	526.69
403.078	516.69
403.302	501.69
403.526	519.69
403.75	530.69
403.974	510.69
404.198	532.69
404.422	519.69
404.645	516.69
404.869	517.69
405.093	510.69
405.317	517.69
405.541	561.69
405.765	520.69
405.988	506.69
406.212	512.69
406.436	516.69
406.66	552.69
406.883	536.69
407.107	567.69
407.331	609.69
407.555	652.69
407.778	636.69
408.002	597.69
408.226	591.69
408.449	543.69
408.673	555.69
408.896	538.69
409.12	587.69
409.344	557.69
409.567	506.69
409.791	486.69
410.014	496.69
410.238	510.69
410.461	502.69
410.685	500.69
410.908	525.69
411.132	539.69
411.355	554.69
411.578	537.69
411.802	500.69
412.025	493.69
412.249	499.69
412.472	501.69
412.695	478.69
412.919	486.69
413.142	482.69
413.365	476.69
413.589	497.69
413.812	461.69
414.035	468.69
414.258	465.69
414.482	490.69
414.705	482.69
414.928	480.69
415.151	489.69
415.374	473.69
415.597	477.69
415.821	476.69
416.044	452.69
416.267	450.69
416.49	466.69
416.713	470.69
416.936	486.69
417.159	477.69
417.382	476.69
417.605	474.69
417.828	476.69
418.051	468.69
418.274	481.69
418.497	481.69
418.72	465.69
418.943	475.69
419.166	494.69
419.389	520.69
419.611	510.69
419.834	517.69
420.057	465.69
420.28	461.69
420.503	491.69
420.726	478.69
420.948	476.69
421.171	480.69
421.394	519.69
421.617	481.69
421.839	489.69
422.062	475.69
422.285	481.69
422.507	524.69
422.73	578.69
422.953	568.69
423.175	529.69
423.398	511.69
423.621	489.69
423.843	520.69
424.066	508.69
424.288	497.69
424.511	513.69
424.733	550.69
424.956	603.69
425.178	564.69
425.401	578.69
425.623	592.69
425.846	505.69
426.068	494.69
426.291	480.69
426.513	494.69
426.735	496.69
426.958	536.69
427.18	575.69
427.402	642.69
427.625	700.69
427.847	576.69
428.069	521.69
428.292	490.69
428.514	464.69
428.736	449.69
428.958	444.69
429.181	455.69
429.403	445.69
429.625	487.69
429.847	447.69
430.069	527.69
430.292	503.69
430.514	464.69
430.736	457.69
430.958	445.69
431.18	457.69
431.402	443.69
431.624	433.69
431.846	429.69
432.068	435.69
432.29	460.69
432.512	429.69
432.734	446.69
432.956	451.69
433.178	445.69
433.4	431.69
433.622	425.69
433.844	461.69
434.066	444.69
434.287	438.69
434.509	442.69
434.731	452.69
434.953	483.69
435.175	482.69
435.397	508.69
435.618	479.69
435.84	533.69
436.062	560.69
436.284	613.69
436.505	524.69
436.727	479.69
436.949	472.69
437.17	452.69
437.392	475.69
437.614	470.69
437.835	471.69
438.057	532.69
438.278	585.69
438.5	592.69
438.721	627.69
438.943	605.69
439.165	522.69
439.386	455.69
439.608	460.69
439.829	461.69
440.05	499.69
440.272	502.69
440.493	495.69
440.715	462.69
440.936	457.69
441.158	458.69
441.379	458.69
441.6	473.69
441.822	485.69
442.043	520.69
442.264	557.69
442.486	593.69
442.707	539.69
442.928	500.69
443.149	487.69
443.371	525.69
443.592	533.69
443.813	579.69
444.034	657.69
444.255	576.69
444.476	524.69
444.698	534.69
444.919	534.69
445.14	644.69
445.361	568.69
445.582	545.69
445.803	541.69
446.024	594.69
446.245	595.69
446.466	579.69
446.687	485.69
446.908	471.69
447.129	472.69
447.35	444.69
447.571	457.69
447.792	438.69
448.013	452.69
448.234	446.69
448.455	481.69
448.675	567.69
448.896	611.69
449.117	536.69
449.338	520.69
449.559	582.69
449.779	658.69
450	528.69
450.221	466.69
450.442	436.69
450.662	410.69
450.883	408.69
451.104	446.69
451.324	426.69
451.545	424.69
451.766	409.69
451.986	414.69
452.207	418.69
452.428	406.69
452.648	406.69
452.869	416.69
453.089	418.69
453.31	401.69
453.53	388.69
453.751	417.69
453.971	396.69
454.192	402.69
454.412	386.69
454.633	403.69
454.853	390.69
455.073	400.69
455.294	416.69
455.514	432.69
455.734	435.69
455.955	382.69
456.175	404.69
456.395	395.69
456.616	391.69
456.836	397.69
457.056	385.69
457.276	356.69
457.497	408.69
457.717	386.69
457.937	393.69
458.157	396.69
458.377	408.69
458.598	406.69
458.818	443.69
459.038	488.69
459.258	484.69
459.478	467.69
459.698	461.69
459.918	456.69
460.138	465.69
460.358	472.69
460.578	491.69
460.798	481.69
461.018	476.69
461.238	501.69
461.458	486.69
461.678	490.69
461.898	485.69
462.118	478.69
462.338	493.69
462.558	510.69
462.777	528.69
462.997	551.69
463.217	584.69
463.437	570.69
463.657	566.69
463.876	545.69
464.096	534.69
464.316	521.69
464.536	542.69
464.755	553.69
464.975	523.69
465.195	525.69
465.414	522.69
465.634	480.69
465.854	470.69
466.073	454.69
466.293	476.69
466.512	454.69
466.732	427.69
466.951	429.69
467.171	434.69
467.391	404.69
467.61	422.69
467.829	441.69
468.049	425.69
468.268	412.69
468.488	424.69
468.707	425.69
468.927	419.69
469.146	420.69
469.365	425.69
469.585	426.69
469.804	430.69
470.023	448.69
470.243	454.69
470.462	455.69
470.681	436.69
470.901	452.69
471.12	445.69
471.339	428.69
471.558	409.69
471.777	416.69
471.997	426.69
472.216	417.69
472.435	429.69
472.654	441.69
472.873	420.69
473.092	412.69
473.311	450.69
473.53	430.69
473.749	442.69
473.968	444.69
474.187	530.69
474.406	516.69
474.625	477.69
474.844	432.69
475.063	443.69
475.282	455.69
475.501	427.69
475.72	437.69
475.939	424.69
476.158	444.69
476.377	448.69
476.596	442.69
476.814	457.69
477.033	454.69
477.252	457.69
477.471	464.69
477.69	453.69
477.908	461.69
478.127	468.69
478.346	475.69
478.564	477.69
478.783	491.69
479.002	513.69
479.22	503.69
479.439	531.69
479.658	524.69
479.876	527.69
480.095	514.69
480.313	555.69
480.532	546.69
480.751	549.69
480.969	532.69
481.188	540.69
481.406	526.69
481.624	518.69
481.843	499.69
482.061	480.69
482.28	508.69
482.498	482.69
482.717	490.69
482.935	506.69
483.153	512.69
483.372	512.69
483.59	499.69
483.808	506.69
484.027	477.69
484.245	515.69
484.463	526.69
484.681	533.69
484.9	522.69
485.118	518.69
485.336	510.69
485.554	500.69
485.772	536.69
485.99	520.69
486.209	525.69
486.427	530.69
486.645	506.69
486.863	544.69
487.081	537.69
487.299	532.69
487.517	522.69
487.735	503.69
487.953	530.69
488.171	536.69
488.389	529.69
488.607	521.69
488.825	510.69
489.043	514.69
489.261	526.69
489.479	507.69
489.696	537.69
489.914	519.69
490.132	538.69
490.35	548.69
490.568	532.69
490.786	538.69
491.003	560.69
491.221	547.69
491.439	564.69
491.657	575.69
491.874	564.69
492.092	554.69
492.31	575.69
492.527	582.69
492.745	599.69
492.963	588.69
493.18	570.69
493.398	585.69
493.615	595.69
493.833	599.69
494.05	590.69
494.268	584.69
494.485	587.69
494.703	583.69
494.92	587.69
495.138	591.69
495.355	600.69
495.573	583.69
495.79	616.69
496.008	603.69
496.225	611.69
496.442	620.69
496.66	644.69
496.877	610.69
497.094	625.69
497.312	621.69
497.529	637.69
497.746	650.69
497.963	648.69
498.181	688.69
498.398	697.69
498.615	714.69
498.832	772.69
499.049	756.69
499.267	834.69
499.484	836.69
499.701	888.69
499.918	962.69
500.135	1022.69
500.352	1079.69
500.569	1106.69
500.786	1108.69
501.003	1089.69
501.22	984.69
501.437	944.69
501.654	896.69
501.871	876.69
502.088	811.69
502.305	786.69
502.522	739.69
502.739	725.69
502.956	698.69
503.172	683.69
503.389	675.69
503.606	637.69
503.823	671.69
504.04	649.69
504.256	651.69
504.473	647.69
504.69	635.69
504.907	640.69
505.123	629.69
505.34	598.69
505.557	606.69
505.773	602.69
505.99	590.69
506.207	567.69
506.423	568.69
506.64	531.69
506.856	568.69
507.073	554.69
507.289	568.69
507.506	536.69
507.722	548.69
507.939	560.69
508.155	561.69
508.372	528.69
508.588	525.69
508.805	518.69
509.021	532.69
509.238	525.69
509.454	536.69
509.67	524.69
509.887	497.69
510.103	522.69
510.319	525.69
510.536	561.69
510.752	733.69
510.968	647.69
511.184	522.69
511.401	489.69
511.617	492.69
511.833	490.69
512.049	466.69
512.265	512.69
512.481	515.69
512.698	480.69
512.914	501.69
513.13	482.69
513.346	512.69
513.562	498.69
513.778	489.69
513.994	499.69
514.21	502.69
514.426	496.69
514.642	515.69
514.858	514.69
515.074	527.69
515.29	589.69
515.506	727.69
515.721	676.69
515.937	560.69
516.153	537.69
516.369	540.69
516.585	543.69
516.801	543.69
517.016	561.69
517.232	572.69
517.448	555.69
517.664	562.69
517.879	582.69
518.095	588.69
518.311	587.69
518.527	575.69
518.742	569.69
518.958	508.69
519.173	509.69
519.389	550.69
519.605	522.69
519.82	522.69
520.036	526.69
520.251	516.69
520.467	499.69
520.682	526.69
520.898	506.69
521.113	510.69
521.329	529.69
521.544	548.69
521.76	613.69
521.975	838.69
522.19	873.69
522.406	605.69
522.621	509.69
522.836	489.69
523.052	476.69
523.267	451.69
523.482	459.69
523.698	456.69
523.913	482.69
524.128	453.69
524.343	460.69
524.559	453.69
524.774	434.69
524.989	461.69
525.204	459.69
525.419	455.69
525.634	455.69
525.849	450.69
526.064	438.69
526.28	423.69
526.495	432.69
526.71	438.69
526.925	453.69
527.14	448.69
527.355	431.69
527.57	439.69
527.785	421.69
527.999	437.69
528.214	439.69
528.429	438.69
528.644	453.69
528.859	440.69
529.074	429.69
529.289	432.69
529.503	441.69
529.718	468.69
529.933	458.69
530.148	421.69
530.363	435.69
530.577	434.69
530.792	422.69
531.007	438.69
531.221	428.69
531.436	446.69
531.651	423.69
531.865	432.69
532.08	403.69
532.295	438.69
532.509	394.69
532.724	449.69
532.938	438.69
533.153	427.69
533.367	437.69
533.582	425.69
533.796	420.69
534.011	445.69
534.225	434.69
534.44	420.69
534.654	410.69
534.868	418.69
535.083	420.69
535.297	441.69
535.511	420.69
535.726	422.69
535.94	425.69
536.154	414.69
536.369	401.69
536.583	409.69
536.797	416.69
537.011	399.69
537.225	415.69
537.44	413.69
537.654	410.69
537.868	397.69
538.082	406.69
538.296	405.69
538.51	387.69
538.724	410.69
538.938	410.69
539.153	409.69
539.367	419.69
539.581	407.69
539.795	390.69
540.009	407.69
540.222	395.69
540.436	414.69
540.65	396.69
540.864	406.69
541.078	391.69
541.292	399.69
541.506	413.69
541.72	401.69
541.934	390.69
542.147	408.69
542.361	386.69
542.575	388.69
542.789	394.69
543.002	392.69
543.216	382.69
543.43	416.69
543.644	402.69
543.857	408.69
544.071	419.69
544.285	393.69
544.498	418.69
544.712	382.69
544.925	391.69
545.139	400.69
545.352	410.69
545.566	398.69
545.779	406.69
545.993	402.69
546.206	410.69
546.42	408.69
546.633	412.69
546.847	409.69
547.06	390.69
547.274	402.69
547.487	407.69
547.7	407.69
547.914	408.69
548.127	387.69
548.34	409.69
548.554	398.69
548.767	392.69
548.98	406.69
549.193	392.69
549.407	399.69
549.62	384.69
549.833	390.69
550.046	406.69
550.259	406.69
550.473	398.69
550.686	398.69
550.899	391.69
551.112	380.69
551.325	400.69
551.538	389.69
551.751	388.69
551.964	370.69
552.177	401.69
552.39	398.69
552.603	412.69
552.816	400.69
553.029	393.69
553.242	414.69
553.455	428.69
553.667	404.69
553.88	429.69
554.093	417.69
554.306	396.69
554.519	387.69
554.732	411.69
554.944	402.69
555.157	391.69
555.37	348.69
555.583	373.69
555.795	377.69
556.008	377.69
556.221	379.69
556.433	369.69
556.646	379.69
556.859	351.69
557.071	357.69
557.284	353.69
557.496	361.69
557.709	355.69
557.921	344.69
558.134	365.69
558.346	374.69
558.559	357.69
558.771	345.69
558.984	349.69
559.196	371.69
559.409	342.69
559.621	350.69
559.833	354.69
560.046	365.69
560.258	329.69
560.47	351.69
560.683	358.69
560.895	355.69
561.107	354.69
561.32	356.69
561.532	340.69
561.744	347.69
561.956	357.69
562.168	354.69
562.381	354.69
562.593	347.69
562.805	354.69
563.017	354.69
563.229	358.69
563.441	355.69
563.653	361.69
563.865	352.69
564.077	354.69
564.289	370.69
564.501	373.69
564.713	391.69
564.925	376.69
565.137	371.69
565.349	392.69
565.561	401.69
565.773	427.69
565.985	424.69
566.197	413.69
566.408	438.69
566.62	461.69
566.832	467.69
567.044	496.69
567.255	488.69
567.467	494.69
567.679	510.69
567.891	542.69
568.102	538.69
568.314	515.69
568.526	476.69
568.737	460.69
568.949	432.69
569.161	418.69
569.372	421.69
569.584	398.69
569.795	372.69
570.007	373.69
570.218	378.69
570.43	378.69
570.641	373.69
570.853	362.69
571.064	351.69
571.276	361.69
571.487	350.69
571.698	349.69
571.91	345.69
572.121	332.69
572.333	333.69
572.544	346.69
572.755	314.69
572.966	326.69
573.178	322.69
573.389	330.69
573.6	322.69
573.811	320.69
574.023	332.69
574.234	289.69
574.445	304.69
574.656	287.69
574.867	314.69
575.078	316.69
575.289	328.69
575.501	330.69
575.712	317.69
575.923	306.69
576.134	298.69
576.345	314.69
576.556	305.69
576.767	313.69
576.978	301.69
577.188	302.69
577.399	293.69
577.61	299.69
577.821	294.69
578.032	272.69
578.243	284.69
578.454	384.69
578.665	338.69
578.875	300.69
579.086	304.69
579.297	298.69
579.508	297.69
579.718	301.69
579.929	279.69
580.14	276.69
580.35	281.69
580.561	296.69
580.772	290.69
580.982	278.69
581.193	293.69
581.403	274.69
581.614	265.69
581.825	284.69
582.035	284.69
582.246	272.69
582.456	264.69
582.667	276.69
582.877	289.69
583.087	280.69
583.298	277.69
583.508	280.69
583.719	282.69
583.929	279.69
584.139	270.69
584.35	262.69
584.56	276.69
584.77	274.69
584.981	269.69
585.191	258.69
585.401	266.69
585.611	290.69
585.821	274.69
586.032	275.69
586.242	259.69
586.452	265.69
586.662	280.69
586.872	266.69
587.082	283.69
587.292	288.69
587.502	282.69
587.713	280.69
587.923	260.69
588.133	265.69
588.343	262.69
588.553	272.69
588.762	278.69
588.972	297.69
589.182	308.69
589.392	316.69
589.602	291.69
589.812	316.69
590.022	302.69
590.232	255.69
590.441	270.69
590.651	276.69
590.861	288.69
591.071	277.69
591.281	280.69
591.49	290.69
591.7	282.69
591.91	271.69
592.119	298.69
592.329	310.69
592.539	278.69
592.748	306.69
592.958	291.69
593.167	305.69
593.377	312.69
593.587	301.69
593.796	314.69
594.006	314.69
594.215	315.69
594.424	326.69
594.634	318.69
594.843	299.69
595.053	293.69
595.262	293.69
595.472	289.69
595.681	286.69
595.89	286.69
596.1	267.69
596.309	273.69
596.518	257.69
596.727	259.69
596.937	269.69
597.146	237.69
597.355	256.69
597.564	258.69
597.774	253.69
597.983	245.69
598.192	252.69
598.401	242.69
598.61	254.69
598.819	262.69
599.028	254.69
599.237	227.69
599.446	232.69
599.655	229.69
599.864	236.69
600.073	234.69
600.282	243.69
600.491	237.69
600.7	220.69
600.909	235.69
601.118	234.69
601.327	236.69
601.536	245.69
601.745	235.69
601.953	220.69
602.162	231.69
602.371	227.69
602.58	240.69
602.789	214.69
602.997	234.69
603.206	235.69
603.415	222.69
603.623	223.69
603.832	244.69
604.041	231.69
604.249	228.69
604.458	225.69
604.666	233.69
604.875	221.69
605.084	229.69
605.292	214.69
605.501	220.69
605.709	211.69
605.918	223.69
606.126	221.69
606.334	240.69
606.543	217.69
606.751	219.69
606.96	235.69
607.168	233.69
607.376	230.69
607.585	238.69
607.793	217.69
608.001	222.69
608.21	225.69
608.418	224.69
608.626	195.69
608.834	217.69
609.043	227.69
609.251	210.69
609.459	218.69
609.667	217.69
609.875	212.69
610.083	216.69
610.291	232.69
610.499	228.69
610.707	236.69
610.916	203.69
611.124	216.69
611.332	209.69
611.54	209.69
611.748	221.69
611.955	218.69
612.163	225.69
612.371	229.69
612.579	232.69
612.787	206.69
612.995	217.69
613.203	221.69
613.411	198.69
613.618	219.69
613.826	222.69
614.034	218.69
614.242	214.69
614.449	211.69
614.657	219.69
614.865	208.69
615.072	212.69
615.28	217.69
615.488	214.69
615.695	205.69
615.903	218.69
616.111	216.69
616.318	228.69
616.526	208.69
616.733	224.69
616.941	230.69
617.148	226.69
617.356	220.69
617.563	206.69
617.771	222.69
617.978	212.69
618.185	209.69
618.393	213.69
618.6	224.69
618.807	222.69
619.015	208.69
619.222	222.69
619.429	195.69
619.637	218.69
619.844	205.69
620.051	197.69
620.258	208.69
620.466	212.69
620.673	191.69
620.88	208.69
621.087	197.69
621.294	217.69
621.501	223.69
621.708	200.69
621.915	213.69
622.122	208.69
622.329	220.69
622.536	209.69
622.743	203.69
622.95	202.69
623.157	216.69
623.364	205.69
623.571	200.69
623.778	188.69
623.985	191.69
624.192	191.69
624.399	213.69
624.606	208.69
624.812	198.69
625.019	190.69
625.226	194.69
625.433	200.69
625.639	203.69
625.846	202.69
626.053	204.69
626.259	188.69
626.466	193.69
626.673	200.69
626.879	195.69
627.086	192.69
627.293	198.69
627.499	198.69
627.706	199.69
627.912	189.69
628.119	191.69
628.325	186.69
628.532	184.69
628.738	191.69
628.945	193.69
629.151	191.69
629.357	191.69
629.564	190.69
629.77	180.69
629.976	190.69
630.183	178.69
630.389	180.69
630.595	187.69
630.802	184.69
631.008	181.69
631.214	171.69
631.42	192.69
631.627	194.69
631.833	172.69
632.039	173.69
632.245	172.69
632.451	195.69
632.657	174.69
632.863	173.69
633.069	173.69
633.275	174.69
633.481	177.69
633.688	168.69
633.893	178.69
634.099	165.69
634.305	188.69
634.511	186.69
634.717	184.69
634.923	165.69
635.129	171.69
635.335	182.69
635.541	172.69
635.747	179.69
635.952	182.69
636.158	169.69
636.364	163.69
636.57	157.69
636.775	175.69
636.981	167.69
637.187	170.69
637.392	164.69
637.598	170.69
637.804	175.69
638.009	178.69
638.215	167.69
638.421	166.69
638.626	176.69
638.832	153.69
639.037	166.69
639.243	166.69
639.448	178.69
639.654	155.69
639.859	150.69
640.065	150.69
640.27	169.69
640.475	165.69
640.681	164.69
640.886	171.69
641.091	158.69
641.297	176.69
641.502	169.69
641.707	156.69
641.913	150.69
642.118	172.69
642.323	169.69
642.528	157.69
642.733	182.69
642.939	165.69
643.144	150.69
643.349	156.69
643.554	155.69
643.759	162.69
643.964	158.69
644.169	163.69
644.374	164.69
644.579	161.69
644.784	157.69
644.989	160.69
645.194	164.69
645.399	151.69
645.604	162.69
645.809	153.69
646.014	146.69
646.219	155.69
646.423	154.69
646.628	155.69
646.833	157.69
647.038	145.69
647.243	168.69
647.447	152.69
647.652	161.69
647.857	162.69
648.062	163.69
648.266	164.69
648.471	163.69
648.676	173.69
648.88	166.69
649.085	166.69
649.289	160.69
649.494	157.69
649.698	180.69
649.903	160.69
650.107	160.69
650.312	170.69
650.516	167.69
650.721	164.69
650.925	157.69
651.13	152.69
651.334	160.69
651.539	150.69
651.743	152.69
651.947	139.69
652.152	152.69
652.356	143.69
652.56	133.69
652.764	146.69
652.969	141.69
653.173	142.69
653.377	126.69
653.581	134.69
653.785	134.69
653.99	131.69
654.194	140.69
654.398	142.69
654.602	137.69
654.806	146.69
655.01	157.69
655.214	138.69
655.418	150.69
655.622	134.69
655.826	139.69
656.03	152.69
656.234	141.69
656.438	144.69
656.642	150.69
656.846	147.69
657.049	139.69
657.253	138.69
657.457	136.69
657.661	121.69
657.865	115.69
658.068	105.69
658.272	103.69
658.476	117.69
658.68	116.69
658.883	104.69
659.087	122.69
659.291	93.69
659.494	91.69
659.698	101.69
659.901	105.69
660.105	98.69
660.309	107.69
660.512	90.69
660.716	93.69
660.919	88.69
661.123	82.69
661.326	86.69
661.53	106.69
661.733	91.69
661.936	93.69
662.14	83.69
662.343	76.69
662.546	80.69
662.75	89.69
662.953	85.69
663.156	79.69
663.36	79.69
663.563	82.69
663.766	92.69
663.969	85.69
664.173	81.69
664.376	82.69
664.579	81.69
664.782	81.69
664.985	92.69
665.188	77.69
665.391	72.69
665.594	82.69
665.797	65.69
666	80.69
666.203	84.69
666.406	74.69
666.609	84.69
666.812	71.69
667.015	82.69
667.218	82.69
667.421	75.69
667.624	84.69
667.827	81.69
668.03	93.69
668.232	85.69
668.435	83.69
668.638	93.69
668.841	98.69
669.043	84.69
669.246	82.69
669.449	92.69
669.651	92.69
669.854	85.69
670.057	73.69
670.259	96.69
670.462	86.69
670.665	87.69
670.867	78.69
671.07	77.69
671.272	73.69
671.475	83.69
671.677	78.69
671.88	83.69
672.082	75.69
672.284	83.69
672.487	96.69
672.689	70.69
672.892	91.69
