Data from 1985.PennyLincolnUp.Lamp.En5.5.200Scan.071819.P1_HRD10591_17-03-22-970.txt Node
Date: Thu Jul 18 17:03:22 EDT 2019
User: cochatt
Spectrometer: HR+D1059
Trigger mode: 1
Integration Time (sec): 1.000000E-1
Scans to average: 1
Electric dark correction enabled: true
Nonlinearity correction enabled: false
Boxcar width: 0
XAxis mode: Wavelengths
Number of Pixels in Spectrum: 2048
>>>>>Begin Spectral Data<<<<<
223.165	-12.94
223.4	-12.94
223.635	-12.94
223.869	-14.94
224.104	-23.94
224.338	-26.94
224.573	-2.94
224.808	-3.94
225.042	-13.94
225.277	-9.94
225.511	-7.94
225.746	18.06
225.98	7.06
226.215	13.06
226.449	12.06
226.683	22.06
226.918	13.06
227.152	32.06
227.387	39.06
227.621	47.06
227.856	44.06
228.09	43.06
228.324	41.06
228.559	71.06
228.793	61.06
229.027	94.06
229.262	105.06
229.496	125.06
229.73	114.06
229.964	150.06
230.199	134.06
230.433	123.06
230.667	123.06
230.901	118.06
231.136	123.06
231.37	117.06
231.604	108.06
231.838	117.06
232.072	123.06
232.306	106.06
232.541	116.06
232.775	119.06
233.009	124.06
233.243	129.06
233.477	117.06
233.711	121.06
233.945	101.06
234.179	106.06
234.413	124.06
234.647	116.06
234.881	101.06
235.115	120.06
235.349	115.06
235.583	133.06
235.817	132.06
236.051	127.06
236.285	123.06
236.519	134.06
236.753	138.06
236.987	135.06
237.221	179.06
237.455	219.06
237.689	173.06
237.922	137.06
238.156	139.06
238.39	123.06
238.624	124.06
238.858	114.06
239.091	125.06
239.325	132.06
239.559	137.06
239.793	140.06
240.027	144.06
240.26	126.06
240.494	163.06
240.728	159.06
240.961	171.06
241.195	149.06
241.429	128.06
241.662	131.06
241.896	135.06
242.13	127.06
242.363	137.06
242.597	134.06
242.83	141.06
243.064	143.06
243.298	151.06
243.531	148.06
243.765	125.06
243.998	157.06
244.232	154.06
244.465	141.06
244.699	157.06
244.932	150.06
245.166	142.06
245.399	151.06
245.633	144.06
245.866	161.06
246.099	157.06
246.333	165.06
246.566	166.06
246.8	146.06
247.033	150.06
247.266	161.06
247.5	180.06
247.733	181.06
247.966	177.06
248.2	180.06
248.433	190.06
248.666	166.06
248.899	199.06
249.133	210.06
249.366	206.06
249.599	196.06
249.832	174.06
250.066	155.06
250.299	192.06
250.532	203.06
250.765	206.06
250.998	233.06
251.231	221.06
251.465	199.06
251.698	204.06
251.931	214.06
252.164	202.06
252.397	194.06
252.63	191.06
252.863	194.06
253.096	222.06
253.329	238.06
253.562	218.06
253.795	220.06
254.028	201.06
254.261	227.06
254.494	220.06
254.727	245.06
254.96	281.06
255.193	282.06
255.426	247.06
255.659	223.06
255.892	241.06
256.124	234.06
256.357	229.06
256.59	217.06
256.823	225.06
257.056	210.06
257.289	214.06
257.521	217.06
257.754	205.06
257.987	228.06
258.22	207.06
258.452	214.06
258.685	213.06
258.918	221.06
259.151	220.06
259.383	228.06
259.616	238.06
259.849	240.06
260.081	245.06
260.314	247.06
260.547	261.06
260.779	259.06
261.012	241.06
261.244	244.06
261.477	224.06
261.71	218.06
261.942	230.06
262.175	251.06
262.407	232.06
262.64	227.06
262.872	217.06
263.105	229.06
263.337	239.06
263.57	219.06
263.802	216.06
264.035	241.06
264.267	214.06
264.499	225.06
264.732	230.06
264.964	219.06
265.197	233.06
265.429	217.06
265.661	229.06
265.894	218.06
266.126	236.06
266.358	234.06
266.591	239.06
266.823	230.06
267.055	229.06
267.287	236.06
267.52	232.06
267.752	255.06
267.984	253.06
268.216	237.06
268.448	246.06
268.681	233.06
268.913	250.06
269.145	272.06
269.377	296.06
269.609	285.06
269.841	300.06
270.073	293.06
270.306	325.06
270.538	340.06
270.77	328.06
271.002	309.06
271.234	306.06
271.466	326.06
271.698	334.06
271.93	325.06
272.162	334.06
272.394	332.06
272.626	314.06
272.858	327.06
273.09	314.06
273.322	289.06
273.553	285.06
273.785	276.06
274.017	290.06
274.249	266.06
274.481	297.06
274.713	306.06
274.945	290.06
275.176	293.06
275.408	296.06
275.64	278.06
275.872	279.06
276.104	282.06
276.335	276.06
276.567	277.06
276.799	295.06
277.031	337.06
277.262	343.06
277.494	335.06
277.726	317.06
277.957	327.06
278.189	319.06
278.421	300.06
278.652	295.06
278.884	315.06
279.115	294.06
279.347	301.06
279.579	321.06
279.81	293.06
280.042	290.06
280.273	286.06
280.505	297.06
280.736	291.06
280.968	295.06
281.199	305.06
281.431	293.06
281.662	305.06
281.894	295.06
282.125	299.06
282.356	318.06
282.588	330.06
282.819	315.06
283.051	314.06
283.282	312.06
283.513	318.06
283.745	319.06
283.976	302.06
284.207	303.06
284.439	331.06
284.67	319.06
284.901	327.06
285.132	319.06
285.364	322.06
285.595	324.06
285.826	310.06
286.057	311.06
286.288	331.06
286.52	331.06
286.751	313.06
286.982	318.06
287.213	332.06
287.444	322.06
287.675	316.06
287.906	322.06
288.138	358.06
288.369	341.06
288.6	316.06
288.831	329.06
289.062	349.06
289.293	327.06
289.524	332.06
289.755	326.06
289.986	320.06
290.217	329.06
290.448	332.06
290.679	347.06
290.91	327.06
291.141	330.06
291.371	312.06
291.602	323.06
291.833	326.06
292.064	327.06
292.295	321.06
292.526	335.06
292.757	343.06
292.987	332.06
293.218	325.06
293.449	328.06
293.68	338.06
293.91	347.06
294.141	359.06
294.372	346.06
294.603	327.06
294.833	336.06
295.064	327.06
295.295	321.06
295.525	341.06
295.756	334.06
295.987	347.06
296.217	365.06
296.448	373.06
296.679	356.06
296.909	345.06
297.14	352.06
297.37	353.06
297.601	361.06
297.831	360.06
298.062	341.06
298.292	358.06
298.523	340.06
298.753	347.06
298.984	343.06
299.214	355.06
299.445	340.06
299.675	349.06
299.905	373.06
300.136	367.06
300.366	349.06
300.597	358.06
300.827	383.06
301.057	363.06
301.288	382.06
301.518	382.06
301.748	375.06
301.979	384.06
302.209	385.06
302.439	377.06
302.669	380.06
302.9	380.06
303.13	380.06
303.36	397.06
303.59	386.06
303.82	398.06
304.051	367.06
304.281	394.06
304.511	369.06
304.741	378.06
304.971	371.06
305.201	385.06
305.431	369.06
305.661	377.06
305.891	379.06
306.121	353.06
306.352	388.06
306.582	394.06
306.812	389.06
307.042	363.06
307.272	385.06
307.502	391.06
307.731	383.06
307.961	390.06
308.191	379.06
308.421	373.06
308.651	391.06
308.881	383.06
309.111	412.06
309.341	389.06
309.571	385.06
309.8	391.06
310.03	410.06
310.26	393.06
310.49	423.06
310.72	422.06
310.949	436.06
311.179	445.06
311.409	431.06
311.639	403.06
311.868	429.06
312.098	429.06
312.328	426.06
312.557	438.06
312.787	455.06
313.017	472.06
313.246	413.06
313.476	430.06
313.706	428.06
313.935	454.06
314.165	443.06
314.394	462.06
314.624	441.06
314.853	429.06
315.083	427.06
315.312	428.06
315.542	419.06
315.771	428.06
316.001	427.06
316.23	411.06
316.46	417.06
316.689	430.06
316.919	438.06
317.148	447.06
317.377	427.06
317.607	438.06
317.836	431.06
318.065	438.06
318.295	430.06
318.524	427.06
318.753	426.06
318.983	409.06
319.212	440.06
319.441	445.06
319.67	435.06
319.9	447.06
320.129	421.06
320.358	453.06
320.587	459.06
320.816	437.06
321.046	455.06
321.275	430.06
321.504	451.06
321.733	459.06
321.962	463.06
322.191	473.06
322.42	486.06
322.649	519.06
322.878	488.06
323.108	476.06
323.337	504.06
323.566	553.06
323.795	565.06
324.024	610.06
324.253	747.06
324.482	1014.06
324.71	1528.06
324.939	2126.06
325.168	1807.06
325.397	926.06
325.626	689.06
325.855	614.06
326.084	569.06
326.313	567.06
326.542	566.06
326.77	572.06
326.999	681.06
327.228	919.06
327.457	1326.06
327.686	1590.06
327.914	1037.06
328.143	748.06
328.372	650.06
328.6	606.06
328.829	603.06
329.058	593.06
329.287	627.06
329.515	606.06
329.744	539.06
329.972	549.06
330.201	562.06
330.43	625.06
330.658	618.06
330.887	649.06
331.115	656.06
331.344	565.06
331.572	539.06
331.801	558.06
332.03	555.06
332.258	549.06
332.486	523.06
332.715	537.06
332.943	526.06
333.172	545.06
333.4	527.06
333.629	556.06
333.857	559.06
334.085	584.06
334.314	574.06
334.542	588.06
334.771	626.06
334.999	563.06
335.227	563.06
335.455	539.06
335.684	541.06
335.912	527.06
336.14	520.06
336.369	517.06
336.597	529.06
336.825	523.06
337.053	524.06
337.281	509.06
337.51	503.06
337.738	480.06
337.966	479.06
338.194	516.06
338.422	505.06
338.65	491.06
338.878	490.06
339.106	488.06
339.334	478.06
339.562	481.06
339.79	460.06
340.018	473.06
340.246	483.06
340.474	498.06
340.702	479.06
340.93	469.06
341.158	479.06
341.386	479.06
341.614	483.06
341.842	498.06
342.07	493.06
342.298	488.06
342.526	465.06
342.754	467.06
342.981	465.06
343.209	466.06
343.437	493.06
343.665	490.06
343.893	504.06
344.12	513.06
344.348	515.06
344.576	503.06
344.804	501.06
345.031	496.06
345.259	482.06
345.487	503.06
345.714	476.06
345.942	450.06
346.17	488.06
346.397	476.06
346.625	457.06
346.853	501.06
347.08	477.06
347.308	469.06
347.535	461.06
347.763	455.06
347.99	454.06
348.218	484.06
348.445	481.06
348.673	483.06
348.9	462.06
349.128	447.06
349.355	456.06
349.583	454.06
349.81	454.06
350.037	459.06
350.265	439.06
350.492	451.06
350.72	447.06
350.947	433.06
351.174	458.06
351.402	458.06
351.629	472.06
351.856	461.06
352.083	468.06
352.311	437.06
352.538	474.06
352.765	472.06
352.992	472.06
353.22	454.06
353.447	467.06
353.674	444.06
353.901	453.06
354.128	421.06
354.355	421.06
354.583	443.06
354.81	441.06
355.037	414.06
355.264	452.06
355.491	408.06
355.718	421.06
355.945	435.06
356.172	445.06
356.399	430.06
356.626	426.06
356.853	426.06
357.08	426.06
357.307	446.06
357.534	433.06
357.761	426.06
357.988	428.06
358.215	426.06
358.441	439.06
358.668	435.06
358.895	412.06
359.122	449.06
359.349	443.06
359.576	469.06
359.802	473.06
360.029	485.06
360.256	517.06
360.483	490.06
360.709	473.06
360.936	446.06
361.163	461.06
361.39	446.06
361.616	456.06
361.843	440.06
362.07	449.06
362.296	447.06
362.523	440.06
362.749	444.06
362.976	443.06
363.203	476.06
363.429	458.06
363.656	441.06
363.882	441.06
364.109	429.06
364.335	441.06
364.562	437.06
364.788	433.06
365.015	438.06
365.241	413.06
365.468	451.06
365.694	436.06
365.92	459.06
366.147	417.06
366.373	429.06
366.599	425.06
366.826	435.06
367.052	437.06
367.278	426.06
367.505	421.06
367.731	439.06
367.957	430.06
368.184	439.06
368.41	453.06
368.636	437.06
368.862	457.06
369.089	452.06
369.315	437.06
369.541	429.06
369.767	441.06
369.993	443.06
370.219	437.06
370.445	413.06
370.672	420.06
370.898	418.06
371.124	434.06
371.35	437.06
371.576	439.06
371.802	450.06
372.028	453.06
372.254	451.06
372.48	425.06
372.706	454.06
372.932	445.06
373.158	427.06
373.384	456.06
373.61	454.06
373.835	442.06
374.061	449.06
374.287	455.06
374.513	456.06
374.739	469.06
374.965	463.06
375.191	460.06
375.416	442.06
375.642	427.06
375.868	453.06
376.094	445.06
376.319	445.06
376.545	438.06
376.771	436.06
376.997	421.06
377.222	428.06
377.448	435.06
377.674	419.06
377.899	435.06
378.125	444.06
378.35	427.06
378.576	445.06
378.802	441.06
379.027	423.06
379.253	421.06
379.478	430.06
379.704	417.06
379.929	431.06
380.155	438.06
380.38	400.06
380.606	421.06
380.831	436.06
381.057	438.06
381.282	428.06
381.507	414.06
381.733	438.06
381.958	436.06
382.184	444.06
382.409	456.06
382.634	456.06
382.86	456.06
383.085	470.06
383.31	450.06
383.535	453.06
383.761	452.06
383.986	464.06
384.211	460.06
384.436	457.06
384.662	469.06
384.887	463.06
385.112	485.06
385.337	492.06
385.562	478.06
385.787	476.06
386.013	498.06
386.238	485.06
386.463	490.06
386.688	462.06
386.913	467.06
387.138	474.06
387.363	474.06
387.588	506.06
387.813	512.06
388.038	473.06
388.263	469.06
388.488	489.06
388.713	467.06
388.938	482.06
389.163	483.06
389.387	485.06
389.612	474.06
389.837	489.06
390.062	459.06
390.287	448.06
390.512	481.06
390.736	477.06
390.961	485.06
391.186	478.06
391.411	517.06
391.636	515.06
391.86	485.06
392.085	493.06
392.31	522.06
392.534	505.06
392.759	509.06
392.984	483.06
393.208	485.06
393.433	502.06
393.658	491.06
393.882	481.06
394.107	507.06
394.331	482.06
394.556	489.06
394.78	492.06
395.005	498.06
395.229	477.06
395.454	515.06
395.678	511.06
395.903	539.06
396.127	544.06
396.352	509.06
396.576	501.06
396.801	478.06
397.025	502.06
397.249	518.06
397.474	502.06
397.698	506.06
397.922	530.06
398.147	565.06
398.371	559.06
398.595	541.06
398.82	562.06
399.044	582.06
399.268	618.06
399.492	631.06
399.717	725.06
399.941	705.06
400.165	727.06
400.389	700.06
400.613	630.06
400.837	583.06
401.062	583.06
401.286	562.06
401.51	581.06
401.734	587.06
401.958	574.06
402.182	567.06
402.406	607.06
402.63	603.06
402.854	594.06
403.078	572.06
403.302	569.06
403.526	601.06
403.75	603.06
403.974	613.06
404.198	593.06
404.422	610.06
404.645	600.06
404.869	578.06
405.093	631.06
405.317	653.06
405.541	730.06
405.765	651.06
405.988	612.06
406.212	615.06
406.436	666.06
406.66	667.06
406.883	647.06
407.107	659.06
407.331	716.06
407.555	769.06
407.778	755.06
408.002	710.06
408.226	645.06
408.449	641.06
408.673	646.06
408.896	664.06
409.12	696.06
409.344	635.06
409.567	606.06
409.791	578.06
410.014	618.06
410.238	569.06
410.461	587.06
410.685	582.06
410.908	629.06
411.132	615.06
411.355	651.06
411.578	624.06
411.802	565.06
412.025	593.06
412.249	566.06
412.472	613.06
412.695	627.06
412.919	609.06
413.142	584.06
413.365	567.06
413.589	541.06
413.812	567.06
414.035	555.06
414.258	548.06
414.482	572.06
414.705	554.06
414.928	551.06
415.151	553.06
415.374	572.06
415.597	549.06
415.821	527.06
416.044	538.06
416.267	537.06
416.49	521.06
416.713	532.06
416.936	548.06
417.159	538.06
417.382	551.06
417.605	546.06
417.828	573.06
418.051	562.06
418.274	570.06
418.497	538.06
418.72	555.06
418.943	551.06
419.166	573.06
419.389	591.06
419.611	584.06
419.834	586.06
420.057	571.06
420.28	581.06
420.503	562.06
420.726	579.06
420.948	586.06
421.171	619.06
421.394	626.06
421.617	585.06
421.839	566.06
422.062	563.06
422.285	558.06
422.507	645.06
422.73	680.06
422.953	692.06
423.175	589.06
423.398	590.06
423.621	590.06
423.843	608.06
424.066	617.06
424.288	602.06
424.511	633.06
424.733	673.06
424.956	733.06
425.178	716.06
425.401	710.06
425.623	732.06
425.846	618.06
426.068	593.06
426.291	586.06
426.513	582.06
426.735	594.06
426.958	628.06
427.18	706.06
427.402	832.06
427.625	899.06
427.847	806.06
428.069	671.06
428.292	626.06
428.514	580.06
428.736	579.06
428.958	581.06
429.181	533.06
429.403	530.06
429.625	555.06
429.847	592.06
430.069	625.06
430.292	625.06
430.514	569.06
430.736	515.06
430.958	523.06
431.18	505.06
431.402	514.06
431.624	505.06
431.846	519.06
432.068	513.06
432.29	542.06
432.512	519.06
432.734	529.06
432.956	506.06
433.178	522.06
433.4	546.06
433.622	550.06
433.844	502.06
434.066	518.06
434.287	526.06
434.509	533.06
434.731	555.06
434.953	566.06
435.175	568.06
435.397	584.06
435.618	625.06
435.84	631.06
436.062	694.06
436.284	749.06
436.505	639.06
436.727	569.06
436.949	542.06
437.17	533.06
437.392	525.06
437.614	519.06
437.835	581.06
438.057	680.06
438.278	780.06
438.5	761.06
438.721	823.06
438.943	794.06
439.165	639.06
439.386	588.06
439.608	585.06
439.829	570.06
440.05	622.06
440.272	633.06
440.493	604.06
440.715	555.06
440.936	565.06
441.158	560.06
441.379	574.06
441.6	573.06
441.822	567.06
442.043	616.06
442.264	723.06
442.486	759.06
442.707	631.06
442.928	617.06
443.149	581.06
443.371	627.06
443.592	684.06
443.813	748.06
444.034	833.06
444.255	686.06
444.476	605.06
444.698	603.06
444.919	613.06
445.14	733.06
445.361	670.06
445.582	654.06
445.803	706.06
446.024	780.06
446.245	771.06
446.466	711.06
446.687	612.06
446.908	595.06
447.129	575.06
447.35	553.06
447.571	541.06
447.792	541.06
448.013	542.06
448.234	565.06
448.455	604.06
448.675	693.06
448.896	801.06
449.117	693.06
449.338	636.06
449.559	769.06
449.779	850.06
450	691.06
450.221	582.06
450.442	540.06
450.662	500.06
450.883	517.06
451.104	534.06
451.324	520.06
451.545	521.06
451.766	494.06
451.986	482.06
452.207	492.06
452.428	482.06
452.648	473.06
452.869	487.06
453.089	488.06
453.31	493.06
453.53	488.06
453.751	479.06
453.971	469.06
454.192	492.06
454.412	497.06
454.633	465.06
454.853	485.06
455.073	462.06
455.294	482.06
455.514	561.06
455.734	539.06
455.955	443.06
456.175	471.06
456.395	453.06
456.616	474.06
456.836	453.06
457.056	435.06
457.276	445.06
457.497	473.06
457.717	468.06
457.937	467.06
458.157	458.06
458.377	470.06
458.598	502.06
458.818	547.06
459.038	637.06
459.258	639.06
459.478	556.06
459.698	526.06
459.918	514.06
460.138	533.06
460.358	529.06
460.578	538.06
460.798	555.06
461.018	554.06
461.238	518.06
461.458	563.06
461.678	555.06
461.898	550.06
462.118	544.06
462.338	559.06
462.558	571.06
462.777	585.06
462.997	614.06
463.217	637.06
463.437	630.06
463.657	595.06
463.876	590.06
464.096	597.06
464.316	602.06
464.536	594.06
464.755	608.06
464.975	609.06
465.195	638.06
465.414	677.06
465.634	586.06
465.854	565.06
466.073	547.06
466.293	529.06
466.512	492.06
466.732	494.06
466.951	485.06
467.171	486.06
467.391	496.06
467.61	518.06
467.829	507.06
468.049	501.06
468.268	515.06
468.488	493.06
468.707	478.06
468.927	496.06
469.146	474.06
469.365	486.06
469.585	475.06
469.804	489.06
470.023	503.06
470.243	495.06
470.462	518.06
470.681	517.06
470.901	546.06
471.12	497.06
471.339	521.06
471.558	505.06
471.777	489.06
471.997	487.06
472.216	461.06
472.435	535.06
472.654	503.06
472.873	492.06
473.092	501.06
473.311	475.06
473.53	487.06
473.749	499.06
473.968	540.06
474.187	632.06
474.406	676.06
474.625	542.06
474.844	494.06
475.063	511.06
475.282	499.06
475.501	505.06
475.72	512.06
475.939	524.06
476.158	512.06
476.377	523.06
476.596	513.06
476.814	535.06
477.033	542.06
477.252	517.06
477.471	534.06
477.69	560.06
477.908	564.06
478.127	558.06
478.346	555.06
478.564	578.06
478.783	558.06
479.002	594.06
479.22	566.06
479.439	576.06
479.658	608.06
479.876	631.06
480.095	594.06
480.313	619.06
480.532	635.06
480.751	646.06
480.969	620.06
481.188	649.06
481.406	675.06
481.624	646.06
481.843	600.06
482.061	597.06
482.28	599.06
482.498	579.06
482.717	580.06
482.935	558.06
483.153	586.06
483.372	567.06
483.59	565.06
483.808	573.06
484.027	563.06
484.245	589.06
484.463	574.06
484.681	591.06
484.9	587.06
485.118	617.06
485.336	586.06
485.554	599.06
485.772	616.06
485.99	600.06
486.209	594.06
486.427	602.06
486.645	637.06
486.863	639.06
487.081	612.06
487.299	625.06
487.517	604.06
487.735	619.06
487.953	606.06
488.171	617.06
488.389	613.06
488.607	632.06
488.825	617.06
489.043	641.06
489.261	626.06
489.479	648.06
489.696	634.06
489.914	647.06
490.132	657.06
490.35	644.06
490.568	619.06
490.786	655.06
491.003	661.06
491.221	673.06
491.439	690.06
491.657	689.06
491.874	722.06
492.092	701.06
492.31	721.06
492.527	731.06
492.745	693.06
492.963	727.06
493.18	730.06
493.398	721.06
493.615	725.06
493.833	734.06
494.05	740.06
494.268	723.06
494.485	735.06
494.703	714.06
494.92	728.06
495.138	710.06
495.355	747.06
495.573	739.06
495.79	724.06
496.008	715.06
496.225	767.06
496.442	718.06
496.66	756.06
496.877	741.06
497.094	731.06
497.312	749.06
497.529	759.06
497.746	779.06
497.963	800.06
498.181	837.06
498.398	830.06
498.615	857.06
498.832	868.06
499.049	885.06
499.267	930.06
499.484	997.06
499.701	1053.06
499.918	1096.06
500.135	1142.06
500.352	1209.06
500.569	1246.06
500.786	1272.06
501.003	1225.06
501.22	1154.06
501.437	1101.06
501.654	1069.06
501.871	1026.06
502.088	972.06
502.305	922.06
502.522	886.06
502.739	858.06
502.956	837.06
503.172	819.06
503.389	769.06
503.606	771.06
503.823	785.06
504.04	748.06
504.256	757.06
504.473	783.06
504.69	741.06
504.907	762.06
505.123	738.06
505.34	716.06
505.557	701.06
505.773	711.06
505.99	723.06
506.207	687.06
506.423	707.06
506.64	701.06
506.856	689.06
507.073	682.06
507.289	673.06
507.506	650.06
507.722	677.06
507.939	692.06
508.155	676.06
508.372	641.06
508.588	647.06
508.805	664.06
509.021	666.06
509.238	653.06
509.454	670.06
509.67	671.06
509.887	648.06
510.103	656.06
510.319	658.06
510.536	745.06
510.752	1183.06
510.968	970.06
511.184	661.06
511.401	645.06
511.617	622.06
511.833	641.06
512.049	619.06
512.265	614.06
512.481	605.06
512.698	613.06
512.914	625.06
513.13	630.06
513.346	617.06
513.562	637.06
513.778	600.06
513.994	631.06
514.21	645.06
514.426	661.06
514.642	675.06
514.858	711.06
515.074	727.06
515.29	862.06
515.506	1258.06
515.721	1071.06
515.937	761.06
516.153	699.06
516.369	690.06
516.585	661.06
516.801	646.06
517.016	656.06
517.232	677.06
517.448	678.06
517.664	709.06
517.879	694.06
518.095	674.06
518.311	700.06
518.527	664.06
518.742	651.06
518.958	656.06
519.173	638.06
519.389	621.06
519.605	647.06
519.82	622.06
520.036	640.06
520.251	653.06
520.467	688.06
520.682	628.06
520.898	654.06
521.113	685.06
521.329	704.06
521.544	780.06
521.76	985.06
521.975	1627.06
522.19	1647.06
522.406	900.06
522.621	725.06
522.836	611.06
523.052	574.06
523.267	576.06
523.482	558.06
523.698	563.06
523.913	553.06
524.128	572.06
524.343	547.06
524.559	523.06
524.774	539.06
524.989	538.06
525.204	558.06
525.419	546.06
525.634	527.06
525.849	525.06
526.064	530.06
526.28	496.06
526.495	495.06
526.71	509.06
526.925	502.06
527.14	518.06
527.355	492.06
527.57	505.06
527.785	494.06
527.999	494.06
528.214	497.06
528.429	525.06
528.644	511.06
528.859	508.06
529.074	499.06
529.289	537.06
529.503	602.06
529.718	574.06
529.933	504.06
530.148	490.06
530.363	518.06
530.577	500.06
530.792	493.06
531.007	511.06
531.221	530.06
531.436	495.06
531.651	507.06
531.865	497.06
532.08	511.06
532.295	507.06
532.509	511.06
532.724	500.06
532.938	493.06
533.153	483.06
533.367	499.06
533.582	496.06
533.796	489.06
534.011	486.06
534.225	481.06
534.44	463.06
534.654	485.06
534.868	478.06
535.083	485.06
535.297	476.06
535.511	505.06
535.726	468.06
535.94	483.06
536.154	454.06
536.369	469.06
536.583	481.06
536.797	478.06
537.011	472.06
537.225	468.06
537.44	463.06
537.654	470.06
537.868	484.06
538.082	460.06
538.296	454.06
538.51	482.06
538.724	454.06
538.938	478.06
539.153	469.06
539.367	474.06
539.581	453.06
539.795	484.06
540.009	457.06
540.222	464.06
540.436	455.06
540.65	455.06
540.864	478.06
541.078	479.06
541.292	455.06
541.506	458.06
541.72	447.06
541.934	442.06
542.147	469.06
542.361	470.06
542.575	461.06
542.789	451.06
543.002	471.06
543.216	456.06
543.43	453.06
543.644	465.06
543.857	462.06
544.071	463.06
544.285	443.06
544.498	457.06
544.712	469.06
544.925	453.06
545.139	452.06
545.352	453.06
545.566	456.06
545.779	458.06
545.993	466.06
546.206	446.06
546.42	473.06
546.633	456.06
546.847	450.06
547.06	441.06
547.274	459.06
547.487	445.06
547.7	460.06
547.914	444.06
548.127	447.06
548.34	446.06
548.554	454.06
548.767	443.06
548.98	456.06
549.193	436.06
549.407	449.06
549.62	460.06
549.833	452.06
550.046	442.06
550.259	434.06
550.473	436.06
550.686	434.06
550.899	460.06
551.112	425.06
551.325	423.06
551.538	439.06
551.751	435.06
551.964	413.06
552.177	429.06
552.39	455.06
552.603	445.06
552.816	441.06
553.029	439.06
553.242	452.06
553.455	478.06
553.667	497.06
553.88	464.06
554.093	459.06
554.306	471.06
554.519	438.06
554.732	453.06
554.944	443.06
555.157	426.06
555.37	417.06
555.583	427.06
555.795	419.06
556.008	433.06
556.221	413.06
556.433	399.06
556.646	403.06
556.859	394.06
557.071	403.06
557.284	405.06
557.496	396.06
557.709	378.06
557.921	400.06
558.134	409.06
558.346	389.06
558.559	417.06
558.771	395.06
558.984	384.06
559.196	393.06
559.409	400.06
559.621	376.06
559.833	391.06
560.046	403.06
560.258	393.06
560.47	403.06
560.683	401.06
560.895	371.06
561.107	378.06
561.32	378.06
561.532	381.06
561.744	404.06
561.956	405.06
562.168	395.06
562.381	403.06
562.593	379.06
562.805	382.06
563.017	389.06
563.229	380.06
563.441	397.06
563.653	409.06
563.865	387.06
564.077	392.06
564.289	405.06
564.501	413.06
564.713	405.06
564.925	432.06
565.137	432.06
565.349	446.06
565.561	439.06
565.773	437.06
565.985	452.06
566.197	467.06
566.408	487.06
566.62	499.06
566.832	528.06
567.044	525.06
567.255	540.06
567.467	531.06
567.679	560.06
567.891	586.06
568.102	579.06
568.314	564.06
568.526	530.06
568.737	519.06
568.949	479.06
569.161	469.06
569.372	442.06
569.584	422.06
569.795	421.06
570.007	436.06
570.218	454.06
570.43	445.06
570.641	403.06
570.853	394.06
571.064	393.06
571.276	386.06
571.487	370.06
571.698	370.06
571.91	371.06
572.121	378.06
572.333	352.06
572.544	361.06
572.755	357.06
572.966	357.06
573.178	356.06
573.389	369.06
573.6	334.06
573.811	347.06
574.023	323.06
574.234	338.06
574.445	349.06
574.656	330.06
574.867	335.06
575.078	338.06
575.289	343.06
575.501	325.06
575.712	343.06
575.923	326.06
576.134	332.06
576.345	344.06
576.556	348.06
576.767	329.06
576.978	339.06
577.188	323.06
577.399	340.06
577.61	316.06
577.821	327.06
578.032	315.06
578.243	375.06
578.454	544.06
578.665	418.06
578.875	327.06
579.086	309.06
579.297	323.06
579.508	312.06
579.718	302.06
579.929	306.06
580.14	321.06
580.35	311.06
580.561	313.06
580.772	318.06
580.982	322.06
581.193	298.06
581.403	295.06
581.614	296.06
581.825	302.06
582.035	299.06
582.246	311.06
582.456	303.06
582.667	301.06
582.877	287.06
583.087	297.06
583.298	285.06
583.508	292.06
583.719	318.06
583.929	305.06
584.139	290.06
584.35	294.06
584.56	291.06
584.77	316.06
584.981	290.06
585.191	291.06
585.401	293.06
585.611	289.06
585.821	301.06
586.032	295.06
586.242	305.06
586.452	298.06
586.662	271.06
586.872	282.06
587.082	280.06
587.292	293.06
587.502	299.06
587.713	285.06
587.923	295.06
588.133	278.06
588.343	312.06
588.553	303.06
588.762	302.06
588.972	311.06
589.182	286.06
589.392	309.06
589.602	296.06
589.812	298.06
590.022	289.06
590.232	275.06
590.441	295.06
590.651	293.06
590.861	295.06
591.071	310.06
591.281	312.06
591.49	271.06
591.7	281.06
591.91	286.06
592.119	303.06
592.329	333.06
592.539	335.06
592.748	333.06
592.958	334.06
593.167	336.06
593.377	350.06
593.587	340.06
593.796	333.06
594.006	340.06
594.215	329.06
594.424	329.06
594.634	331.06
594.843	326.06
595.053	308.06
595.262	311.06
595.472	301.06
595.681	302.06
595.89	295.06
596.1	305.06
596.309	295.06
596.518	267.06
596.727	284.06
596.937	289.06
597.146	284.06
597.355	271.06
597.564	289.06
597.774	274.06
597.983	262.06
598.192	297.06
598.401	279.06
598.61	280.06
598.819	269.06
599.028	250.06
599.237	259.06
599.446	263.06
599.655	253.06
599.864	261.06
600.073	272.06
600.282	254.06
600.491	250.06
600.7	260.06
600.909	261.06
601.118	250.06
601.327	237.06
601.536	238.06
601.745	243.06
601.953	261.06
602.162	268.06
602.371	260.06
602.58	263.06
602.789	267.06
602.997	255.06
603.206	253.06
603.415	235.06
603.623	243.06
603.832	236.06
604.041	242.06
604.249	246.06
604.458	241.06
604.666	226.06
604.875	233.06
605.084	246.06
605.292	230.06
605.501	245.06
605.709	232.06
605.918	232.06
606.126	241.06
606.334	234.06
606.543	240.06
606.751	228.06
606.96	248.06
607.168	223.06
607.376	229.06
607.585	243.06
607.793	231.06
608.001	232.06
608.21	243.06
608.418	245.06
608.626	229.06
608.834	228.06
609.043	236.06
609.251	242.06
609.459	232.06
609.667	239.06
609.875	226.06
610.083	234.06
610.291	231.06
610.499	219.06
610.707	249.06
610.916	246.06
611.124	236.06
611.332	227.06
611.54	246.06
611.748	219.06
611.955	233.06
612.163	233.06
612.371	232.06
612.579	222.06
612.787	220.06
612.995	225.06
613.203	237.06
613.411	229.06
613.618	226.06
613.826	236.06
614.034	234.06
614.242	220.06
614.449	228.06
614.657	227.06
614.865	228.06
615.072	231.06
615.28	231.06
615.488	235.06
615.695	227.06
615.903	218.06
616.111	235.06
616.318	231.06
616.526	228.06
616.733	229.06
616.941	231.06
617.148	231.06
617.356	230.06
617.563	251.06
617.771	246.06
617.978	237.06
618.185	246.06
618.393	219.06
618.6	231.06
618.807	233.06
619.015	222.06
619.222	221.06
619.429	223.06
619.637	209.06
619.844	214.06
620.051	213.06
620.258	231.06
620.466	219.06
620.673	207.06
620.88	210.06
621.087	220.06
621.294	215.06
621.501	221.06
621.708	213.06
621.915	222.06
622.122	227.06
622.329	228.06
622.536	215.06
622.743	227.06
622.95	214.06
623.157	207.06
623.364	226.06
623.571	205.06
623.778	232.06
623.985	202.06
624.192	203.06
624.399	213.06
624.606	206.06
624.812	212.06
625.019	210.06
625.226	194.06
625.433	214.06
625.639	207.06
625.846	209.06
626.053	203.06
626.259	212.06
626.466	193.06
626.673	197.06
626.879	201.06
627.086	198.06
627.293	202.06
627.499	208.06
627.706	209.06
627.912	208.06
628.119	217.06
628.325	214.06
628.532	201.06
628.738	194.06
628.945	200.06
629.151	193.06
629.357	185.06
629.564	183.06
629.77	197.06
629.976	199.06
630.183	199.06
630.389	178.06
630.595	188.06
630.802	201.06
631.008	197.06
631.214	193.06
631.42	194.06
631.627	205.06
631.833	196.06
632.039	182.06
632.245	192.06
632.451	186.06
632.657	185.06
632.863	187.06
633.069	187.06
633.275	194.06
633.481	187.06
633.688	186.06
633.893	183.06
634.099	169.06
634.305	193.06
634.511	174.06
634.717	182.06
634.923	164.06
635.129	179.06
635.335	187.06
635.541	174.06
635.747	179.06
635.952	173.06
636.158	179.06
636.364	183.06
636.57	194.06
636.775	172.06
636.981	183.06
637.187	185.06
637.392	186.06
637.598	181.06
637.804	163.06
638.009	192.06
638.215	180.06
638.421	179.06
638.626	166.06
638.832	181.06
639.037	183.06
639.243	171.06
639.448	191.06
639.654	160.06
639.859	183.06
640.065	192.06
640.27	185.06
640.475	189.06
640.681	178.06
640.886	163.06
641.091	157.06
641.297	180.06
641.502	165.06
641.707	166.06
641.913	173.06
642.118	175.06
642.323	181.06
642.528	180.06
642.733	162.06
642.939	162.06
643.144	166.06
643.349	163.06
643.554	171.06
643.759	161.06
643.964	172.06
644.169	141.06
644.374	151.06
644.579	155.06
644.784	157.06
644.989	165.06
645.194	165.06
645.399	163.06
645.604	177.06
645.809	159.06
646.014	187.06
646.219	170.06
646.423	154.06
646.628	174.06
646.833	156.06
647.038	158.06
647.243	162.06
647.447	165.06
647.652	164.06
647.857	168.06
648.062	170.06
648.266	172.06
648.471	182.06
648.676	175.06
648.88	171.06
649.085	160.06
649.289	161.06
649.494	180.06
649.698	195.06
649.903	182.06
650.107	160.06
650.312	170.06
650.516	165.06
650.721	151.06
650.925	152.06
651.13	158.06
651.334	155.06
651.539	150.06
651.743	149.06
651.947	142.06
652.152	151.06
652.356	151.06
652.56	135.06
652.764	156.06
652.969	150.06
653.173	133.06
653.377	136.06
653.581	143.06
653.785	140.06
653.99	134.06
654.194	142.06
654.398	158.06
654.602	146.06
654.806	138.06
655.01	139.06
655.214	140.06
655.418	139.06
655.622	136.06
655.826	133.06
656.03	129.06
656.234	140.06
656.438	140.06
656.642	144.06
656.846	132.06
657.049	129.06
657.253	129.06
657.457	130.06
657.661	129.06
657.865	132.06
658.068	115.06
658.272	114.06
658.476	115.06
658.68	115.06
658.883	110.06
659.087	110.06
659.291	122.06
659.494	110.06
659.698	97.06
659.901	92.06
660.105	78.06
660.309	95.06
660.512	93.06
660.716	98.06
660.919	84.06
661.123	110.06
661.326	96.06
661.53	94.06
661.733	90.06
661.936	74.06
662.14	93.06
662.343	92.06
662.546	76.06
662.75	91.06
662.953	69.06
663.156	89.06
663.36	97.06
663.563	80.06
663.766	94.06
663.969	70.06
664.173	82.06
664.376	87.06
664.579	103.06
664.782	71.06
664.985	77.06
665.188	92.06
665.391	86.06
665.594	83.06
665.797	86.06
666	70.06
666.203	98.06
666.406	84.06
666.609	85.06
666.812	82.06
667.015	64.06
667.218	101.06
667.421	87.06
667.624	89.06
667.827	77.06
668.03	75.06
668.232	85.06
668.435	107.06
668.638	83.06
668.841	85.06
669.043	72.06
669.246	78.06
669.449	79.06
669.651	87.06
669.854	65.06
670.057	82.06
670.259	69.06
670.462	83.06
670.665	95.06
670.867	95.06
671.07	72.06
671.272	73.06
671.475	89.06
671.677	76.06
671.88	96.06
672.082	65.06
672.284	89.06
672.487	82.06
672.689	69.06
672.892	79.06
