Data from 1985.PennyLincolnUp.Lamp.En5.5.200Scan.071819.P1_HRD10591_17-03-02-971.txt Node
Date: Thu Jul 18 17:03:02 EDT 2019
User: cochatt
Spectrometer: HR+D1059
Trigger mode: 1
Integration Time (sec): 1.000000E-1
Scans to average: 1
Electric dark correction enabled: true
Nonlinearity correction enabled: false
Boxcar width: 0
XAxis mode: Wavelengths
Number of Pixels in Spectrum: 2048
>>>>>Begin Spectral Data<<<<<
223.165	-13.94
223.4	-13.94
223.635	-13.94
223.869	-19.94
224.104	-26.94
224.338	-16.94
224.573	-11.94
224.808	-14.94
225.042	-13.94
225.277	2.06
225.511	15.06
225.746	4.06
225.98	4.06
226.215	9.06
226.449	17.06
226.683	25.06
226.918	21.06
227.152	21.06
227.387	22.06
227.621	32.06
227.856	36.06
228.09	37.06
228.324	57.06
228.559	60.06
228.793	71.06
229.027	88.06
229.262	105.06
229.496	117.06
229.73	131.06
229.964	145.06
230.199	123.06
230.433	108.06
230.667	109.06
230.901	119.06
231.136	119.06
231.37	118.06
231.604	121.06
231.838	114.06
232.072	115.06
232.306	113.06
232.541	106.06
232.775	115.06
233.009	115.06
233.243	115.06
233.477	120.06
233.711	108.06
233.945	112.06
234.179	121.06
234.413	124.06
234.647	128.06
234.881	115.06
235.115	104.06
235.349	126.06
235.583	114.06
235.817	104.06
236.051	125.06
236.285	119.06
236.519	115.06
236.753	131.06
236.987	143.06
237.221	177.06
237.455	211.06
237.689	169.06
237.922	136.06
238.156	137.06
238.39	127.06
238.624	129.06
238.858	121.06
239.091	106.06
239.325	117.06
239.559	129.06
239.793	129.06
240.027	125.06
240.26	135.06
240.494	151.06
240.728	165.06
240.961	155.06
241.195	146.06
241.429	135.06
241.662	139.06
241.896	131.06
242.13	125.06
242.363	120.06
242.597	131.06
242.83	126.06
243.064	129.06
243.298	140.06
243.531	129.06
243.765	141.06
243.998	141.06
244.232	135.06
244.465	139.06
244.699	148.06
244.932	140.06
245.166	148.06
245.399	149.06
245.633	142.06
245.866	152.06
246.099	147.06
246.333	158.06
246.566	141.06
246.8	139.06
247.033	151.06
247.266	156.06
247.5	150.06
247.733	158.06
247.966	175.06
248.2	180.06
248.433	175.06
248.666	171.06
248.899	182.06
249.133	196.06
249.366	207.06
249.599	183.06
249.832	174.06
250.066	188.06
250.299	174.06
250.532	182.06
250.765	209.06
250.998	212.06
251.231	213.06
251.465	210.06
251.698	199.06
251.931	198.06
252.164	196.06
252.397	205.06
252.63	185.06
252.863	195.06
253.096	199.06
253.329	230.06
253.562	219.06
253.795	211.06
254.028	230.06
254.261	214.06
254.494	226.06
254.727	245.06
254.96	270.06
255.193	250.06
255.426	231.06
255.659	230.06
255.892	230.06
256.124	221.06
256.357	214.06
256.59	225.06
256.823	201.06
257.056	206.06
257.289	198.06
257.521	211.06
257.754	189.06
257.987	205.06
258.22	219.06
258.452	209.06
258.685	225.06
258.918	205.06
259.151	214.06
259.383	212.06
259.616	212.06
259.849	229.06
260.081	237.06
260.314	240.06
260.547	255.06
260.779	245.06
261.012	229.06
261.244	211.06
261.477	231.06
261.71	235.06
261.942	233.06
262.175	260.06
262.407	225.06
262.64	227.06
262.872	228.06
263.105	218.06
263.337	226.06
263.57	199.06
263.802	227.06
264.035	225.06
264.267	215.06
264.499	201.06
264.732	215.06
264.964	216.06
265.197	210.06
265.429	235.06
265.661	211.06
265.894	225.06
266.126	242.06
266.358	202.06
266.591	221.06
266.823	231.06
267.055	218.06
267.287	250.06
267.52	241.06
267.752	248.06
267.984	222.06
268.216	228.06
268.448	234.06
268.681	231.06
268.913	263.06
269.145	259.06
269.377	285.06
269.609	281.06
269.841	274.06
270.073	285.06
270.306	313.06
270.538	329.06
270.77	321.06
271.002	316.06
271.234	302.06
271.466	301.06
271.698	314.06
271.93	297.06
272.162	310.06
272.394	319.06
272.626	293.06
272.858	292.06
273.09	291.06
273.322	301.06
273.553	288.06
273.785	269.06
274.017	275.06
274.249	277.06
274.481	276.06
274.713	275.06
274.945	275.06
275.176	271.06
275.408	288.06
275.64	266.06
275.872	284.06
276.104	284.06
276.335	267.06
276.567	285.06
276.799	295.06
277.031	311.06
277.262	331.06
277.494	342.06
277.726	317.06
277.957	282.06
278.189	316.06
278.421	287.06
278.652	285.06
278.884	289.06
279.115	302.06
279.347	286.06
279.579	275.06
279.81	293.06
280.042	283.06
280.273	288.06
280.505	299.06
280.736	282.06
280.968	287.06
281.199	291.06
281.431	296.06
281.662	298.06
281.894	290.06
282.125	287.06
282.356	300.06
282.588	321.06
282.819	308.06
283.051	294.06
283.282	299.06
283.513	311.06
283.745	301.06
283.976	309.06
284.207	310.06
284.439	283.06
284.67	300.06
284.901	302.06
285.132	294.06
285.364	314.06
285.595	305.06
285.826	309.06
286.057	291.06
286.288	302.06
286.52	308.06
286.751	317.06
286.982	311.06
287.213	326.06
287.444	323.06
287.675	322.06
287.906	329.06
288.138	311.06
288.369	344.06
288.6	331.06
288.831	308.06
289.062	325.06
289.293	321.06
289.524	338.06
289.755	295.06
289.986	318.06
290.217	316.06
290.448	295.06
290.679	325.06
290.91	326.06
291.141	323.06
291.371	306.06
291.602	330.06
291.833	314.06
292.064	332.06
292.295	335.06
292.526	315.06
292.757	309.06
292.987	317.06
293.218	314.06
293.449	328.06
293.68	327.06
293.91	313.06
294.141	333.06
294.372	319.06
294.603	331.06
294.833	300.06
295.064	333.06
295.295	322.06
295.525	324.06
295.756	350.06
295.987	355.06
296.217	370.06
296.448	359.06
296.679	343.06
296.909	342.06
297.14	339.06
297.37	339.06
297.601	333.06
297.831	343.06
298.062	327.06
298.292	357.06
298.523	334.06
298.753	335.06
298.984	336.06
299.214	343.06
299.445	350.06
299.675	350.06
299.905	349.06
300.136	357.06
300.366	353.06
300.597	335.06
300.827	348.06
301.057	363.06
301.288	371.06
301.518	359.06
301.748	345.06
301.979	357.06
302.209	369.06
302.439	379.06
302.669	379.06
302.9	357.06
303.13	369.06
303.36	369.06
303.59	354.06
303.82	376.06
304.051	384.06
304.281	374.06
304.511	362.06
304.741	372.06
304.971	363.06
305.201	374.06
305.431	355.06
305.661	341.06
305.891	351.06
306.121	355.06
306.352	358.06
306.582	375.06
306.812	345.06
307.042	387.06
307.272	381.06
307.502	361.06
307.731	385.06
307.961	376.06
308.191	359.06
308.421	359.06
308.651	377.06
308.881	380.06
309.111	390.06
309.341	365.06
309.571	411.06
309.8	389.06
310.03	389.06
310.26	418.06
310.49	415.06
310.72	408.06
310.949	428.06
311.179	447.06
311.409	418.06
311.639	405.06
311.868	389.06
312.098	406.06
312.328	420.06
312.557	422.06
312.787	453.06
313.017	414.06
313.246	440.06
313.476	416.06
313.706	430.06
313.935	435.06
314.165	449.06
314.394	458.06
314.624	441.06
314.853	404.06
315.083	424.06
315.312	435.06
315.542	401.06
315.771	416.06
316.001	410.06
316.23	407.06
316.46	391.06
316.689	409.06
316.919	423.06
317.148	451.06
317.377	431.06
317.607	405.06
317.836	421.06
318.065	438.06
318.295	425.06
318.524	405.06
318.753	429.06
318.983	418.06
319.212	402.06
319.441	418.06
319.67	424.06
319.9	419.06
320.129	408.06
320.358	422.06
320.587	431.06
320.816	447.06
321.046	438.06
321.275	421.06
321.504	443.06
321.733	449.06
321.962	442.06
322.191	435.06
322.42	460.06
322.649	462.06
322.878	467.06
323.108	500.06
323.337	488.06
323.566	534.06
323.795	545.06
324.024	600.06
324.253	689.06
324.482	940.06
324.71	1464.06
324.939	2014.06
325.168	1709.06
325.397	906.06
325.626	657.06
325.855	585.06
326.084	561.06
326.313	542.06
326.542	525.06
326.77	571.06
326.999	666.06
327.228	893.06
327.457	1292.06
327.686	1575.06
327.914	1043.06
328.143	704.06
328.372	632.06
328.6	588.06
328.829	599.06
329.058	592.06
329.287	595.06
329.515	579.06
329.744	556.06
329.972	541.06
330.201	534.06
330.43	553.06
330.658	581.06
330.887	615.06
331.115	603.06
331.344	543.06
331.572	539.06
331.801	527.06
332.03	541.06
332.258	514.06
332.486	488.06
332.715	506.06
332.943	519.06
333.172	502.06
333.4	507.06
333.629	537.06
333.857	514.06
334.085	528.06
334.314	548.06
334.542	542.06
334.771	547.06
334.999	544.06
335.227	533.06
335.455	497.06
335.684	511.06
335.912	502.06
336.14	490.06
336.369	489.06
336.597	502.06
336.825	509.06
337.053	491.06
337.281	482.06
337.51	493.06
337.738	466.06
337.966	486.06
338.194	494.06
338.422	494.06
338.65	484.06
338.878	481.06
339.106	465.06
339.334	468.06
339.562	471.06
339.79	469.06
340.018	457.06
340.246	471.06
340.474	480.06
340.702	466.06
340.93	476.06
341.158	455.06
341.386	442.06
341.614	486.06
341.842	477.06
342.07	465.06
342.298	463.06
342.526	455.06
342.754	463.06
342.981	460.06
343.209	452.06
343.437	474.06
343.665	475.06
343.893	500.06
344.12	498.06
344.348	502.06
344.576	481.06
344.804	471.06
345.031	485.06
345.259	475.06
345.487	457.06
345.714	466.06
345.942	445.06
346.17	444.06
346.397	442.06
346.625	456.06
346.853	445.06
347.08	447.06
347.308	446.06
347.535	465.06
347.763	458.06
347.99	458.06
348.218	449.06
348.445	477.06
348.673	457.06
348.9	466.06
349.128	447.06
349.355	437.06
349.583	454.06
349.81	439.06
350.037	419.06
350.265	425.06
350.492	422.06
350.72	406.06
350.947	417.06
351.174	452.06
351.402	457.06
351.629	428.06
351.856	462.06
352.083	457.06
352.311	455.06
352.538	463.06
352.765	453.06
352.992	461.06
353.22	451.06
353.447	446.06
353.674	428.06
353.901	423.06
354.128	430.06
354.355	423.06
354.583	431.06
354.81	435.06
355.037	430.06
355.264	429.06
355.491	405.06
355.718	399.06
355.945	418.06
356.172	427.06
356.399	418.06
356.626	428.06
356.853	426.06
357.08	423.06
357.307	421.06
357.534	433.06
357.761	418.06
357.988	418.06
358.215	418.06
358.441	408.06
358.668	409.06
358.895	418.06
359.122	429.06
359.349	433.06
359.576	447.06
359.802	436.06
360.029	484.06
360.256	487.06
360.483	476.06
360.709	437.06
360.936	466.06
361.163	441.06
361.39	447.06
361.616	448.06
361.843	432.06
362.07	435.06
362.296	447.06
362.523	442.06
362.749	437.06
362.976	433.06
363.203	423.06
363.429	423.06
363.656	410.06
363.882	427.06
364.109	429.06
364.335	429.06
364.562	427.06
364.788	402.06
365.015	411.06
365.241	439.06
365.468	433.06
365.694	416.06
365.92	445.06
366.147	415.06
366.373	426.06
366.599	421.06
366.826	417.06
367.052	431.06
367.278	406.06
367.505	430.06
367.731	422.06
367.957	410.06
368.184	419.06
368.41	439.06
368.636	450.06
368.862	430.06
369.089	422.06
369.315	414.06
369.541	427.06
369.767	427.06
369.993	410.06
370.219	430.06
370.445	428.06
370.672	439.06
370.898	433.06
371.124	415.06
371.35	421.06
371.576	413.06
371.802	420.06
372.028	410.06
372.254	416.06
372.48	430.06
372.706	438.06
372.932	417.06
373.158	435.06
373.384	426.06
373.61	432.06
373.835	407.06
374.061	425.06
374.287	403.06
374.513	434.06
374.739	439.06
374.965	434.06
375.191	430.06
375.416	452.06
375.642	435.06
375.868	444.06
376.094	439.06
376.319	403.06
376.545	419.06
376.771	439.06
376.997	426.06
377.222	429.06
377.448	430.06
377.674	431.06
377.899	429.06
378.125	414.06
378.35	413.06
378.576	413.06
378.802	424.06
379.027	439.06
379.253	417.06
379.478	421.06
379.704	418.06
379.929	406.06
380.155	411.06
380.38	414.06
380.606	425.06
380.831	419.06
381.057	423.06
381.282	429.06
381.507	421.06
381.733	431.06
381.958	423.06
382.184	418.06
382.409	432.06
382.634	440.06
382.86	433.06
383.085	448.06
383.31	433.06
383.535	440.06
383.761	455.06
383.986	428.06
384.211	458.06
384.436	441.06
384.662	449.06
384.887	473.06
385.112	451.06
385.337	459.06
385.562	462.06
385.787	469.06
386.013	491.06
386.238	477.06
386.463	483.06
386.688	462.06
386.913	465.06
387.138	487.06
387.363	452.06
387.588	483.06
387.813	472.06
388.038	444.06
388.263	459.06
388.488	477.06
388.713	455.06
388.938	463.06
389.163	459.06
389.387	460.06
389.612	477.06
389.837	458.06
390.062	467.06
390.287	467.06
390.512	458.06
390.736	467.06
390.961	487.06
391.186	464.06
391.411	461.06
391.636	485.06
391.86	456.06
392.085	503.06
392.31	492.06
392.534	486.06
392.759	485.06
392.984	472.06
393.208	488.06
393.433	463.06
393.658	459.06
393.882	470.06
394.107	473.06
394.331	473.06
394.556	472.06
394.78	462.06
395.005	473.06
395.229	478.06
395.454	492.06
395.678	486.06
395.903	509.06
396.127	486.06
396.352	505.06
396.576	517.06
396.801	481.06
397.025	483.06
397.249	475.06
397.474	487.06
397.698	503.06
397.922	531.06
398.147	517.06
398.371	522.06
398.595	517.06
398.82	526.06
399.044	586.06
399.268	594.06
399.492	652.06
399.717	693.06
399.941	690.06
400.165	716.06
400.389	695.06
400.613	603.06
400.837	557.06
401.062	556.06
401.286	533.06
401.51	544.06
401.734	524.06
401.958	533.06
402.182	541.06
402.406	559.06
402.63	557.06
402.854	558.06
403.078	557.06
403.302	568.06
403.526	593.06
403.75	588.06
403.974	593.06
404.198	561.06
404.422	576.06
404.645	565.06
404.869	593.06
405.093	583.06
405.317	605.06
405.541	652.06
405.765	603.06
405.988	589.06
406.212	630.06
406.436	619.06
406.66	621.06
406.883	619.06
407.107	652.06
407.331	697.06
407.555	728.06
407.778	715.06
408.002	663.06
408.226	651.06
408.449	620.06
408.673	597.06
408.896	619.06
409.12	650.06
409.344	644.06
409.567	607.06
409.791	574.06
410.014	553.06
410.238	566.06
410.461	591.06
410.685	582.06
410.908	581.06
411.132	600.06
411.355	637.06
411.578	626.06
411.802	582.06
412.025	594.06
412.249	579.06
412.472	594.06
412.695	598.06
412.919	590.06
413.142	547.06
413.365	536.06
413.589	521.06
413.812	531.06
414.035	531.06
414.258	495.06
414.482	526.06
414.705	532.06
414.928	516.06
415.151	525.06
415.374	519.06
415.597	548.06
415.821	533.06
416.044	518.06
416.267	532.06
416.49	503.06
416.713	518.06
416.936	509.06
417.159	524.06
417.382	519.06
417.605	534.06
417.828	542.06
418.051	558.06
418.274	531.06
418.497	506.06
418.72	517.06
418.943	538.06
419.166	558.06
419.389	561.06
419.611	567.06
419.834	571.06
420.057	578.06
420.28	569.06
420.503	565.06
420.726	521.06
420.948	567.06
421.171	620.06
421.394	612.06
421.617	546.06
421.839	544.06
422.062	541.06
422.285	553.06
422.507	596.06
422.73	682.06
422.953	649.06
423.175	578.06
423.398	545.06
423.621	574.06
423.843	607.06
424.066	560.06
424.288	599.06
424.511	580.06
424.733	634.06
424.956	726.06
425.178	689.06
425.401	680.06
425.623	716.06
425.846	627.06
426.068	559.06
426.291	559.06
426.513	543.06
426.735	557.06
426.958	619.06
427.18	678.06
427.402	809.06
427.625	885.06
427.847	753.06
428.069	659.06
428.292	589.06
428.514	554.06
428.736	538.06
428.958	539.06
429.181	501.06
429.403	519.06
429.625	497.06
429.847	558.06
430.069	608.06
430.292	609.06
430.514	551.06
430.736	532.06
430.958	510.06
431.18	507.06
431.402	501.06
431.624	463.06
431.846	485.06
432.068	489.06
432.29	495.06
432.512	510.06
432.734	507.06
432.956	531.06
433.178	533.06
433.4	511.06
433.622	487.06
433.844	482.06
434.066	478.06
434.287	494.06
434.509	515.06
434.731	526.06
434.953	533.06
435.175	553.06
435.397	565.06
435.618	551.06
435.84	611.06
436.062	654.06
436.284	736.06
436.505	617.06
436.727	586.06
436.949	521.06
437.17	518.06
437.392	505.06
437.614	538.06
437.835	553.06
438.057	643.06
438.278	739.06
438.5	718.06
438.721	782.06
438.943	732.06
439.165	615.06
439.386	561.06
439.608	557.06
439.829	551.06
440.05	605.06
440.272	621.06
440.493	594.06
440.715	547.06
440.936	542.06
441.158	536.06
441.379	533.06
441.6	558.06
441.822	565.06
442.043	584.06
442.264	687.06
442.486	735.06
442.707	602.06
442.928	571.06
443.149	575.06
443.371	610.06
443.592	646.06
443.813	751.06
444.034	793.06
444.255	674.06
444.476	583.06
444.698	601.06
444.919	612.06
445.14	727.06
445.361	656.06
445.582	620.06
445.803	661.06
446.024	773.06
446.245	761.06
446.466	693.06
446.687	603.06
446.908	557.06
447.129	543.06
447.35	521.06
447.571	494.06
447.792	501.06
448.013	502.06
448.234	533.06
448.455	567.06
448.675	661.06
448.896	778.06
449.117	629.06
449.338	639.06
449.559	707.06
449.779	821.06
450	669.06
450.221	576.06
450.442	521.06
450.662	501.06
450.883	503.06
451.104	527.06
451.324	526.06
451.545	467.06
451.766	467.06
451.986	460.06
452.207	459.06
452.428	461.06
452.648	461.06
452.869	483.06
453.089	472.06
453.31	483.06
453.53	481.06
453.751	466.06
453.971	467.06
454.192	471.06
454.412	454.06
454.633	456.06
454.853	472.06
455.073	491.06
455.294	479.06
455.514	567.06
455.734	507.06
455.955	458.06
456.175	460.06
456.395	447.06
456.616	425.06
456.836	435.06
457.056	441.06
457.276	437.06
457.497	454.06
457.717	445.06
457.937	455.06
458.157	442.06
458.377	453.06
458.598	471.06
458.818	527.06
459.038	618.06
459.258	643.06
459.478	544.06
459.698	502.06
459.918	507.06
460.138	514.06
460.358	533.06
460.578	540.06
460.798	546.06
461.018	538.06
461.238	530.06
461.458	523.06
461.678	516.06
461.898	513.06
462.118	533.06
462.338	544.06
462.558	542.06
462.777	579.06
462.997	590.06
463.217	607.06
463.437	623.06
463.657	594.06
463.876	585.06
464.096	579.06
464.316	552.06
464.536	566.06
464.755	578.06
464.975	548.06
465.195	610.06
465.414	672.06
465.634	589.06
465.854	540.06
466.073	490.06
466.293	513.06
466.512	492.06
466.732	475.06
466.951	472.06
467.171	451.06
467.391	481.06
467.61	498.06
467.829	482.06
468.049	499.06
468.268	497.06
468.488	478.06
468.707	463.06
468.927	460.06
469.146	453.06
469.365	455.06
469.585	470.06
469.804	472.06
470.023	469.06
470.243	485.06
470.462	488.06
470.681	500.06
470.901	489.06
471.12	515.06
471.339	499.06
471.558	504.06
471.777	472.06
471.997	482.06
472.216	478.06
472.435	508.06
472.654	485.06
472.873	469.06
473.092	466.06
473.311	466.06
473.53	467.06
473.749	487.06
473.968	532.06
474.187	609.06
474.406	637.06
474.625	515.06
474.844	490.06
475.063	487.06
475.282	478.06
475.501	471.06
475.72	475.06
475.939	477.06
476.158	508.06
476.377	488.06
476.596	481.06
476.814	499.06
477.033	523.06
477.252	499.06
477.471	532.06
477.69	528.06
477.908	542.06
478.127	540.06
478.346	535.06
478.564	555.06
478.783	556.06
479.002	551.06
479.22	549.06
479.439	575.06
479.658	593.06
479.876	571.06
480.095	594.06
480.313	629.06
480.532	605.06
480.751	601.06
480.969	578.06
481.188	606.06
481.406	621.06
481.624	591.06
481.843	582.06
482.061	562.06
482.28	553.06
482.498	579.06
482.717	534.06
482.935	571.06
483.153	550.06
483.372	565.06
483.59	553.06
483.808	539.06
484.027	553.06
484.245	567.06
484.463	543.06
484.681	571.06
484.9	559.06
485.118	582.06
485.336	561.06
485.554	583.06
485.772	557.06
485.99	560.06
486.209	605.06
486.427	568.06
486.645	593.06
486.863	602.06
487.081	602.06
487.299	595.06
487.517	587.06
487.735	573.06
487.953	577.06
488.171	589.06
488.389	578.06
488.607	597.06
488.825	610.06
489.043	613.06
489.261	596.06
489.479	613.06
489.696	605.06
489.914	582.06
490.132	610.06
490.35	631.06
490.568	612.06
490.786	633.06
491.003	633.06
491.221	647.06
491.439	647.06
491.657	649.06
491.874	651.06
492.092	675.06
492.31	685.06
492.527	712.06
492.745	680.06
492.963	687.06
493.18	698.06
493.398	689.06
493.615	668.06
493.833	703.06
494.05	689.06
494.268	686.06
494.485	690.06
494.703	683.06
494.92	710.06
495.138	680.06
495.355	700.06
495.573	713.06
495.79	705.06
496.008	699.06
496.225	712.06
496.442	692.06
496.66	687.06
496.877	694.06
497.094	701.06
497.312	742.06
497.529	747.06
497.746	747.06
497.963	774.06
498.181	742.06
498.398	798.06
498.615	815.06
498.832	819.06
499.049	881.06
499.267	903.06
499.484	965.06
499.701	973.06
499.918	1022.06
500.135	1117.06
500.352	1191.06
500.569	1202.06
500.786	1219.06
501.003	1159.06
501.22	1135.06
501.437	1080.06
501.654	998.06
501.871	987.06
502.088	907.06
502.305	849.06
502.522	873.06
502.739	839.06
502.956	804.06
503.172	761.06
503.389	762.06
503.606	754.06
503.823	741.06
504.04	743.06
504.256	733.06
504.473	743.06
504.69	722.06
504.907	709.06
505.123	707.06
505.34	677.06
505.557	686.06
505.773	694.06
505.99	680.06
506.207	680.06
506.423	683.06
506.64	672.06
506.856	657.06
507.073	653.06
507.289	638.06
507.506	677.06
507.722	658.06
507.939	679.06
508.155	660.06
508.372	624.06
508.588	612.06
508.805	610.06
509.021	605.06
509.238	632.06
509.454	611.06
509.67	635.06
509.887	638.06
510.103	633.06
510.319	649.06
510.536	713.06
510.752	1182.06
510.968	953.06
511.184	670.06
511.401	590.06
511.617	597.06
511.833	592.06
512.049	594.06
512.265	602.06
512.481	599.06
512.698	614.06
512.914	605.06
513.13	573.06
513.346	575.06
513.562	583.06
513.778	577.06
513.994	591.06
514.21	606.06
514.426	642.06
514.642	640.06
514.858	690.06
515.074	721.06
515.29	845.06
515.506	1273.06
515.721	1062.06
515.937	713.06
516.153	659.06
516.369	642.06
516.585	647.06
516.801	639.06
517.016	642.06
517.232	659.06
517.448	671.06
517.664	682.06
517.879	649.06
518.095	654.06
518.311	677.06
518.527	645.06
518.742	638.06
518.958	625.06
519.173	643.06
519.389	618.06
519.605	612.06
519.82	596.06
520.036	629.06
520.251	632.06
520.467	641.06
520.682	645.06
520.898	630.06
521.113	649.06
521.329	681.06
521.544	763.06
521.76	951.06
521.975	1627.06
522.19	1636.06
522.406	912.06
522.621	660.06
522.836	614.06
523.052	590.06
523.267	549.06
523.482	527.06
523.698	573.06
523.913	535.06
524.128	557.06
524.343	546.06
524.559	518.06
524.774	519.06
524.989	515.06
525.204	511.06
525.419	540.06
525.634	497.06
525.849	500.06
526.064	494.06
526.28	492.06
526.495	497.06
526.71	486.06
526.925	493.06
527.14	488.06
527.355	466.06
527.57	484.06
527.785	485.06
527.999	474.06
528.214	470.06
528.429	497.06
528.644	501.06
528.859	458.06
529.074	500.06
529.289	507.06
529.503	591.06
529.718	562.06
529.933	538.06
530.148	516.06
530.363	501.06
530.577	481.06
530.792	459.06
531.007	486.06
531.221	477.06
531.436	464.06
531.651	485.06
531.865	477.06
532.08	472.06
532.295	485.06
532.509	504.06
532.724	459.06
532.938	471.06
533.153	456.06
533.367	459.06
533.582	476.06
533.796	471.06
534.011	475.06
534.225	461.06
534.44	458.06
534.654	467.06
534.868	463.06
535.083	466.06
535.297	439.06
535.511	463.06
535.726	446.06
535.94	471.06
536.154	473.06
536.369	460.06
536.583	464.06
536.797	433.06
537.011	449.06
537.225	450.06
537.44	439.06
537.654	449.06
537.868	454.06
538.082	452.06
538.296	459.06
538.51	450.06
538.724	437.06
538.938	467.06
539.153	445.06
539.367	452.06
539.581	454.06
539.795	439.06
540.009	450.06
540.222	448.06
540.436	453.06
540.65	447.06
540.864	439.06
541.078	458.06
541.292	437.06
541.506	443.06
541.72	435.06
541.934	451.06
542.147	448.06
542.361	462.06
542.575	454.06
542.789	423.06
543.002	446.06
543.216	448.06
543.43	451.06
543.644	472.06
543.857	458.06
544.071	451.06
544.285	421.06
544.498	455.06
544.712	440.06
544.925	445.06
545.139	442.06
545.352	443.06
545.566	445.06
545.779	433.06
545.993	439.06
546.206	433.06
546.42	438.06
546.633	441.06
546.847	430.06
547.06	435.06
547.274	424.06
547.487	429.06
547.7	426.06
547.914	423.06
548.127	426.06
548.34	421.06
548.554	428.06
548.767	417.06
548.98	434.06
549.193	441.06
549.407	421.06
549.62	443.06
549.833	441.06
550.046	423.06
550.259	421.06
550.473	416.06
550.686	428.06
550.899	420.06
551.112	434.06
551.325	436.06
551.538	434.06
551.751	427.06
551.964	425.06
552.177	442.06
552.39	458.06
552.603	434.06
552.816	441.06
553.029	426.06
553.242	441.06
553.455	465.06
553.667	478.06
553.88	455.06
554.093	435.06
554.306	438.06
554.519	442.06
554.732	423.06
554.944	425.06
555.157	403.06
555.37	417.06
555.583	414.06
555.795	434.06
556.008	403.06
556.221	398.06
556.433	403.06
556.646	385.06
556.859	399.06
557.071	386.06
557.284	404.06
557.496	415.06
557.709	388.06
557.921	362.06
558.134	369.06
558.346	377.06
558.559	388.06
558.771	395.06
558.984	397.06
559.196	392.06
559.409	385.06
559.621	367.06
559.833	389.06
560.046	371.06
560.258	377.06
560.47	393.06
560.683	381.06
560.895	375.06
561.107	365.06
561.32	380.06
561.532	371.06
561.744	363.06
561.956	377.06
562.168	380.06
562.381	398.06
562.593	372.06
562.805	360.06
563.017	384.06
563.229	388.06
563.441	381.06
563.653	386.06
563.865	393.06
564.077	390.06
564.289	395.06
564.501	382.06
564.713	379.06
564.925	409.06
565.137	447.06
565.349	416.06
565.561	427.06
565.773	438.06
565.985	449.06
566.197	457.06
566.408	470.06
566.62	488.06
566.832	511.06
567.044	520.06
567.255	511.06
567.467	510.06
567.679	557.06
567.891	551.06
568.102	537.06
568.314	536.06
568.526	504.06
568.737	495.06
568.949	485.06
569.161	446.06
569.372	430.06
569.584	412.06
569.795	422.06
570.007	409.06
570.218	467.06
570.43	421.06
570.641	382.06
570.853	387.06
571.064	393.06
571.276	376.06
571.487	365.06
571.698	367.06
571.91	369.06
572.121	354.06
572.333	348.06
572.544	363.06
572.755	327.06
572.966	356.06
573.178	344.06
573.389	343.06
573.6	350.06
573.811	334.06
574.023	332.06
574.234	329.06
574.445	328.06
574.656	310.06
574.867	329.06
575.078	321.06
575.289	315.06
575.501	330.06
575.712	329.06
575.923	332.06
576.134	317.06
576.345	337.06
576.556	316.06
576.767	300.06
576.978	313.06
577.188	329.06
577.399	336.06
577.61	311.06
577.821	295.06
578.032	305.06
578.243	337.06
578.454	541.06
578.665	411.06
578.875	322.06
579.086	310.06
579.297	329.06
579.508	302.06
579.718	323.06
579.929	303.06
580.14	310.06
580.35	307.06
580.561	311.06
580.772	288.06
580.982	295.06
581.193	305.06
581.403	291.06
581.614	290.06
581.825	303.06
582.035	291.06
582.246	302.06
582.456	314.06
582.667	285.06
582.877	297.06
583.087	286.06
583.298	291.06
583.508	273.06
583.719	292.06
583.929	301.06
584.139	291.06
584.35	290.06
584.56	286.06
584.77	279.06
584.981	304.06
585.191	279.06
585.401	290.06
585.611	286.06
585.821	287.06
586.032	276.06
586.242	266.06
586.452	282.06
586.662	294.06
586.872	289.06
587.082	292.06
587.292	278.06
587.502	269.06
587.713	292.06
587.923	291.06
588.133	277.06
588.343	283.06
588.553	286.06
588.762	292.06
588.972	290.06
589.182	287.06
589.392	294.06
589.602	258.06
589.812	277.06
590.022	281.06
590.232	268.06
590.441	283.06
590.651	273.06
590.861	287.06
591.071	293.06
591.281	297.06
591.49	298.06
591.7	300.06
591.91	306.06
592.119	309.06
592.329	284.06
592.539	317.06
592.748	305.06
592.958	322.06
593.167	330.06
593.377	323.06
593.587	327.06
593.796	337.06
594.006	313.06
594.215	333.06
594.424	309.06
594.634	323.06
594.843	300.06
595.053	291.06
595.262	308.06
595.472	282.06
595.681	294.06
595.89	281.06
596.1	275.06
596.309	287.06
596.518	299.06
596.727	278.06
596.937	274.06
597.146	270.06
597.355	270.06
597.564	258.06
597.774	269.06
597.983	272.06
598.192	257.06
598.401	277.06
598.61	250.06
598.819	255.06
599.028	265.06
599.237	257.06
599.446	263.06
599.655	243.06
599.864	250.06
600.073	234.06
600.282	241.06
600.491	261.06
600.7	269.06
600.909	241.06
601.118	254.06
601.327	245.06
601.536	259.06
601.745	263.06
601.953	255.06
602.162	259.06
602.371	237.06
602.58	245.06
602.789	238.06
602.997	241.06
603.206	259.06
603.415	236.06
603.623	230.06
603.832	225.06
604.041	221.06
604.249	229.06
604.458	240.06
604.666	251.06
604.875	228.06
605.084	236.06
605.292	265.06
605.501	263.06
605.709	230.06
605.918	231.06
606.126	221.06
606.334	228.06
606.543	238.06
606.751	226.06
606.96	230.06
607.168	247.06
607.376	223.06
607.585	243.06
607.793	252.06
608.001	241.06
608.21	249.06
608.418	215.06
608.626	235.06
608.834	222.06
609.043	227.06
609.251	245.06
609.459	220.06
609.667	251.06
609.875	230.06
610.083	214.06
610.291	231.06
610.499	239.06
610.707	255.06
610.916	231.06
611.124	234.06
611.332	236.06
611.54	232.06
611.748	235.06
611.955	228.06
612.163	221.06
612.371	222.06
612.579	244.06
612.787	249.06
612.995	228.06
613.203	246.06
613.411	231.06
613.618	232.06
613.826	223.06
614.034	224.06
614.242	222.06
614.449	217.06
614.657	223.06
614.865	229.06
615.072	221.06
615.28	234.06
615.488	211.06
615.695	227.06
615.903	213.06
616.111	233.06
616.318	232.06
616.526	221.06
616.733	226.06
616.941	230.06
617.148	238.06
617.356	242.06
617.563	210.06
617.771	211.06
617.978	217.06
618.185	224.06
618.393	214.06
618.6	210.06
618.807	234.06
619.015	222.06
619.222	198.06
619.429	227.06
619.637	230.06
619.844	217.06
620.051	213.06
620.258	221.06
620.466	210.06
620.673	213.06
620.88	204.06
621.087	214.06
621.294	211.06
621.501	205.06
621.708	197.06
621.915	211.06
622.122	219.06
622.329	213.06
622.536	212.06
622.743	214.06
622.95	212.06
623.157	212.06
623.364	209.06
623.571	214.06
623.778	200.06
623.985	206.06
624.192	206.06
624.399	215.06
624.606	213.06
624.812	202.06
625.019	209.06
625.226	197.06
625.433	214.06
625.639	201.06
625.846	217.06
626.053	215.06
626.259	202.06
626.466	220.06
626.673	200.06
626.879	196.06
627.086	207.06
627.293	201.06
627.499	195.06
627.706	197.06
627.912	204.06
628.119	205.06
628.325	202.06
628.532	186.06
628.738	210.06
628.945	194.06
629.151	198.06
629.357	197.06
629.564	199.06
629.77	186.06
629.976	186.06
630.183	193.06
630.389	198.06
630.595	181.06
630.802	181.06
631.008	186.06
631.214	191.06
631.42	199.06
631.627	198.06
631.833	179.06
632.039	189.06
632.245	171.06
632.451	189.06
632.657	184.06
632.863	179.06
633.069	196.06
633.275	184.06
633.481	174.06
633.688	183.06
633.893	168.06
634.099	187.06
634.305	194.06
634.511	173.06
634.717	175.06
634.923	173.06
635.129	180.06
635.335	187.06
635.541	182.06
635.747	174.06
635.952	171.06
636.158	177.06
636.364	190.06
636.57	192.06
636.775	171.06
636.981	177.06
637.187	183.06
637.392	192.06
637.598	170.06
637.804	159.06
638.009	165.06
638.215	181.06
638.421	184.06
638.626	177.06
638.832	174.06
639.037	165.06
639.243	189.06
639.448	177.06
639.654	168.06
639.859	166.06
640.065	164.06
640.27	166.06
640.475	175.06
640.681	169.06
640.886	174.06
641.091	163.06
641.297	164.06
641.502	169.06
641.707	167.06
641.913	163.06
642.118	166.06
642.323	162.06
642.528	155.06
642.733	157.06
642.939	160.06
643.144	155.06
643.349	183.06
643.554	164.06
643.759	157.06
643.964	168.06
644.169	161.06
644.374	166.06
644.579	169.06
644.784	166.06
644.989	157.06
645.194	155.06
645.399	169.06
645.604	169.06
645.809	171.06
646.014	161.06
646.219	154.06
646.423	152.06
646.628	174.06
646.833	164.06
647.038	158.06
647.243	168.06
647.447	161.06
647.652	156.06
647.857	167.06
648.062	166.06
648.266	159.06
648.471	166.06
648.676	163.06
648.88	173.06
649.085	163.06
649.289	173.06
649.494	166.06
649.698	182.06
649.903	178.06
650.107	161.06
650.312	157.06
650.516	164.06
650.721	149.06
650.925	138.06
651.13	152.06
651.334	148.06
651.539	151.06
651.743	146.06
651.947	149.06
652.152	151.06
652.356	145.06
652.56	164.06
652.764	141.06
652.969	133.06
653.173	137.06
653.377	150.06
653.581	124.06
653.785	129.06
653.99	139.06
654.194	139.06
654.398	135.06
654.602	135.06
654.806	144.06
655.01	143.06
655.214	139.06
655.418	141.06
655.622	143.06
655.826	133.06
656.03	135.06
656.234	139.06
656.438	143.06
656.642	128.06
656.846	144.06
657.049	146.06
657.253	128.06
657.457	129.06
657.661	119.06
657.865	119.06
658.068	115.06
658.272	115.06
658.476	116.06
658.68	102.06
658.883	111.06
659.087	110.06
659.291	102.06
659.494	109.06
659.698	97.06
659.901	108.06
660.105	92.06
660.309	117.06
660.512	99.06
660.716	82.06
660.919	95.06
661.123	92.06
661.326	82.06
661.53	78.06
661.733	85.06
661.936	93.06
662.14	85.06
662.343	88.06
662.546	77.06
662.75	93.06
662.953	95.06
663.156	86.06
663.36	80.06
663.563	86.06
663.766	83.06
663.969	76.06
664.173	86.06
664.376	82.06
664.579	80.06
664.782	83.06
664.985	86.06
665.188	85.06
665.391	74.06
665.594	67.06
665.797	77.06
666	89.06
666.203	78.06
666.406	91.06
666.609	83.06
666.812	87.06
667.015	70.06
667.218	86.06
667.421	93.06
667.624	83.06
667.827	97.06
668.03	78.06
668.232	85.06
668.435	76.06
668.638	87.06
668.841	90.06
669.043	62.06
669.246	78.06
669.449	95.06
669.651	98.06
669.854	77.06
670.057	90.06
670.259	76.06
670.462	86.06
670.665	82.06
670.867	81.06
671.07	78.06
671.272	84.06
671.475	101.06
671.677	77.06
671.88	92.06
672.082	96.06
672.284	79.06
672.487	91.06
672.689	88.06
672.892	94.06
