Data from 1985.PennyLincolnUp.Lamp.En5.5.200Scan.071819.P1_HRD10591_17-02-29-970.txt Node
Date: Thu Jul 18 17:02:29 EDT 2019
User: cochatt
Spectrometer: HR+D1059
Trigger mode: 1
Integration Time (sec): 1.000000E-1
Scans to average: 1
Electric dark correction enabled: true
Nonlinearity correction enabled: false
Boxcar width: 0
XAxis mode: Wavelengths
Number of Pixels in Spectrum: 2048
>>>>>Begin Spectral Data<<<<<
223.165	-15.06
223.4	-15.06
223.635	-15.06
223.869	-31.06
224.104	-24.06
224.338	-15.06
224.573	-7.06
224.808	-2.06
225.042	-7.06
225.277	-16.06
225.511	-1.06
225.746	2.94
225.98	3.94
226.215	14.94
226.449	14.94
226.683	24.94
226.918	20.94
227.152	35.94
227.387	44.94
227.621	43.94
227.856	40.94
228.09	54.94
228.324	49.94
228.559	57.94
228.793	68.94
229.027	105.94
229.262	108.94
229.496	107.94
229.73	129.94
229.964	142.94
230.199	112.94
230.433	102.94
230.667	99.94
230.901	109.94
231.136	110.94
231.37	117.94
231.604	114.94
231.838	117.94
232.072	134.94
232.306	126.94
232.541	114.94
232.775	116.94
233.009	128.94
233.243	130.94
233.477	122.94
233.711	119.94
233.945	126.94
234.179	118.94
234.413	114.94
234.647	127.94
234.881	120.94
235.115	125.94
235.349	132.94
235.583	126.94
235.817	132.94
236.051	123.94
236.285	119.94
236.519	124.94
236.753	132.94
236.987	150.94
237.221	159.94
237.455	216.94
237.689	180.94
237.922	141.94
238.156	129.94
238.39	125.94
238.624	128.94
238.858	115.94
239.091	134.94
239.325	122.94
239.559	134.94
239.793	130.94
240.027	142.94
240.26	134.94
240.494	154.94
240.728	134.94
240.961	147.94
241.195	139.94
241.429	143.94
241.662	152.94
241.896	126.94
242.13	144.94
242.363	130.94
242.597	149.94
242.83	136.94
243.064	125.94
243.298	141.94
243.531	145.94
243.765	136.94
243.998	140.94
244.232	134.94
244.465	145.94
244.699	161.94
244.932	158.94
245.166	156.94
245.399	140.94
245.633	140.94
245.866	144.94
246.099	154.94
246.333	143.94
246.566	139.94
246.8	144.94
247.033	156.94
247.266	168.94
247.5	161.94
247.733	170.94
247.966	174.94
248.2	167.94
248.433	176.94
248.666	166.94
248.899	181.94
249.133	187.94
249.366	196.94
249.599	190.94
249.832	183.94
250.066	159.94
250.299	185.94
250.532	180.94
250.765	186.94
250.998	214.94
251.231	223.94
251.465	225.94
251.698	202.94
251.931	200.94
252.164	194.94
252.397	174.94
252.63	198.94
252.863	195.94
253.096	205.94
253.329	214.94
253.562	190.94
253.795	212.94
254.028	214.94
254.261	205.94
254.494	215.94
254.727	248.94
254.96	276.94
255.193	251.94
255.426	222.94
255.659	209.94
255.892	236.94
256.124	231.94
256.357	224.94
256.59	199.94
256.823	184.94
257.056	205.94
257.289	205.94
257.521	206.94
257.754	208.94
257.987	200.94
258.22	213.94
258.452	206.94
258.685	214.94
258.918	196.94
259.151	221.94
259.383	233.94
259.616	225.94
259.849	207.94
260.081	235.94
260.314	248.94
260.547	264.94
260.779	238.94
261.012	238.94
261.244	219.94
261.477	221.94
261.71	232.94
261.942	238.94
262.175	223.94
262.407	227.94
262.64	224.94
262.872	221.94
263.105	222.94
263.337	230.94
263.57	217.94
263.802	224.94
264.035	212.94
264.267	218.94
264.499	223.94
264.732	215.94
264.964	221.94
265.197	200.94
265.429	222.94
265.661	222.94
265.894	230.94
266.126	208.94
266.358	220.94
266.591	232.94
266.823	238.94
267.055	240.94
267.287	232.94
267.52	232.94
267.752	227.94
267.984	253.94
268.216	244.94
268.448	249.94
268.681	256.94
268.913	258.94
269.145	263.94
269.377	272.94
269.609	285.94
269.841	277.94
270.073	279.94
270.306	286.94
270.538	307.94
270.77	306.94
271.002	312.94
271.234	296.94
271.466	296.94
271.698	311.94
271.93	316.94
272.162	306.94
272.394	303.94
272.626	289.94
272.858	298.94
273.09	275.94
273.322	262.94
273.553	272.94
273.785	288.94
274.017	262.94
274.249	282.94
274.481	268.94
274.713	266.94
274.945	273.94
275.176	282.94
275.408	274.94
275.64	287.94
275.872	264.94
276.104	265.94
276.335	273.94
276.567	277.94
276.799	294.94
277.031	301.94
277.262	301.94
277.494	339.94
277.726	321.94
277.957	282.94
278.189	286.94
278.421	285.94
278.652	276.94
278.884	282.94
279.115	276.94
279.347	272.94
279.579	282.94
279.81	301.94
280.042	285.94
280.273	291.94
280.505	290.94
280.736	279.94
280.968	291.94
281.199	286.94
281.431	280.94
281.662	299.94
281.894	279.94
282.125	285.94
282.356	318.94
282.588	323.94
282.819	306.94
283.051	290.94
283.282	285.94
283.513	303.94
283.745	293.94
283.976	291.94
284.207	301.94
284.439	292.94
284.67	280.94
284.901	309.94
285.132	289.94
285.364	295.94
285.595	293.94
285.826	311.94
286.057	303.94
286.288	311.94
286.52	311.94
286.751	300.94
286.982	330.94
287.213	311.94
287.444	315.94
287.675	308.94
287.906	303.94
288.138	321.94
288.369	298.94
288.6	314.94
288.831	334.94
289.062	317.94
289.293	314.94
289.524	295.94
289.755	310.94
289.986	306.94
290.217	322.94
290.448	311.94
290.679	331.94
290.91	314.94
291.141	291.94
291.371	326.94
291.602	297.94
291.833	314.94
292.064	299.94
292.295	315.94
292.526	313.94
292.757	313.94
292.987	311.94
293.218	312.94
293.449	317.94
293.68	323.94
293.91	325.94
294.141	320.94
294.372	304.94
294.603	314.94
294.833	341.94
295.064	322.94
295.295	329.94
295.525	330.94
295.756	326.94
295.987	322.94
296.217	352.94
296.448	357.94
296.679	337.94
296.909	333.94
297.14	316.94
297.37	348.94
297.601	327.94
297.831	327.94
298.062	334.94
298.292	351.94
298.523	343.94
298.753	342.94
298.984	333.94
299.214	332.94
299.445	336.94
299.675	359.94
299.905	358.94
300.136	346.94
300.366	343.94
300.597	351.94
300.827	347.94
301.057	350.94
301.288	377.94
301.518	350.94
301.748	372.94
301.979	380.94
302.209	335.94
302.439	362.94
302.669	355.94
302.9	354.94
303.13	362.94
303.36	364.94
303.59	352.94
303.82	353.94
304.051	378.94
304.281	365.94
304.511	359.94
304.741	356.94
304.971	355.94
305.201	358.94
305.431	355.94
305.661	357.94
305.891	370.94
306.121	358.94
306.352	360.94
306.582	359.94
306.812	364.94
307.042	365.94
307.272	372.94
307.502	358.94
307.731	362.94
307.961	392.94
308.191	364.94
308.421	346.94
308.651	362.94
308.881	356.94
309.111	347.94
309.341	393.94
309.571	396.94
309.8	385.94
310.03	408.94
310.26	394.94
310.49	369.94
310.72	399.94
310.949	411.94
311.179	418.94
311.409	412.94
311.639	390.94
311.868	415.94
312.098	395.94
312.328	407.94
312.557	414.94
312.787	427.94
313.017	431.94
313.246	398.94
313.476	390.94
313.706	414.94
313.935	409.94
314.165	415.94
314.394	424.94
314.624	412.94
314.853	399.94
315.083	398.94
315.312	400.94
315.542	399.94
315.771	409.94
316.001	428.94
316.23	422.94
316.46	405.94
316.689	436.94
316.919	418.94
317.148	423.94
317.377	428.94
317.607	406.94
317.836	404.94
318.065	400.94
318.295	419.94
318.524	415.94
318.753	398.94
318.983	411.94
319.212	390.94
319.441	414.94
319.67	418.94
319.9	390.94
320.129	435.94
320.358	423.94
320.587	408.94
320.816	422.94
321.046	422.94
321.275	444.94
321.504	429.94
321.733	426.94
321.962	430.94
322.191	436.94
322.42	435.94
322.649	462.94
322.878	467.94
323.108	483.94
323.337	502.94
323.566	491.94
323.795	546.94
324.024	583.94
324.253	669.94
324.482	940.94
324.71	1378.94
324.939	1932.94
325.168	1690.94
325.397	904.94
325.626	621.94
325.855	567.94
326.084	535.94
326.313	517.94
326.542	509.94
326.77	574.94
326.999	636.94
327.228	845.94
327.457	1234.94
327.686	1426.94
327.914	987.94
328.143	665.94
328.372	609.94
328.6	574.94
328.829	562.94
329.058	543.94
329.287	594.94
329.515	545.94
329.744	529.94
329.972	500.94
330.201	541.94
330.43	534.94
330.658	570.94
330.887	596.94
331.115	593.94
331.344	533.94
331.572	502.94
331.801	522.94
332.03	508.94
332.258	489.94
332.486	501.94
332.715	499.94
332.943	511.94
333.172	500.94
333.4	503.94
333.629	495.94
333.857	521.94
334.085	512.94
334.314	518.94
334.542	536.94
334.771	532.94
334.999	501.94
335.227	482.94
335.455	495.94
335.684	508.94
335.912	493.94
336.14	510.94
336.369	472.94
336.597	479.94
336.825	500.94
337.053	486.94
337.281	464.94
337.51	494.94
337.738	483.94
337.966	472.94
338.194	488.94
338.422	477.94
338.65	491.94
338.878	470.94
339.106	476.94
339.334	456.94
339.562	455.94
339.79	474.94
340.018	452.94
340.246	464.94
340.474	469.94
340.702	464.94
340.93	473.94
341.158	458.94
341.386	454.94
341.614	456.94
341.842	460.94
342.07	451.94
342.298	440.94
342.526	455.94
342.754	431.94
342.981	448.94
343.209	435.94
343.437	461.94
343.665	468.94
343.893	470.94
344.12	489.94
344.348	493.94
344.576	469.94
344.804	462.94
345.031	470.94
345.259	476.94
345.487	472.94
345.714	453.94
345.942	462.94
346.17	473.94
346.397	434.94
346.625	431.94
346.853	448.94
347.08	447.94
347.308	438.94
347.535	422.94
347.763	447.94
347.99	449.94
348.218	431.94
348.445	455.94
348.673	442.94
348.9	441.94
349.128	432.94
349.355	445.94
349.583	442.94
349.81	417.94
350.037	424.94
350.265	420.94
350.492	433.94
350.72	443.94
350.947	420.94
351.174	433.94
351.402	428.94
351.629	440.94
351.856	455.94
352.083	438.94
352.311	436.94
352.538	443.94
352.765	458.94
352.992	455.94
353.22	456.94
353.447	424.94
353.674	430.94
353.901	416.94
354.128	419.94
354.355	392.94
354.583	390.94
354.81	411.94
355.037	418.94
355.264	418.94
355.491	395.94
355.718	405.94
355.945	430.94
356.172	415.94
356.399	396.94
356.626	418.94
356.853	411.94
357.08	404.94
357.307	395.94
357.534	419.94
357.761	416.94
357.988	427.94
358.215	415.94
358.441	414.94
358.668	434.94
358.895	416.94
359.122	419.94
359.349	419.94
359.576	440.94
359.802	454.94
360.029	473.94
360.256	466.94
360.483	483.94
360.709	459.94
360.936	448.94
361.163	424.94
361.39	431.94
361.616	431.94
361.843	416.94
362.07	435.94
362.296	443.94
362.523	418.94
362.749	429.94
362.976	438.94
363.203	432.94
363.429	424.94
363.656	434.94
363.882	409.94
364.109	401.94
364.335	418.94
364.562	422.94
364.788	406.94
365.015	404.94
365.241	426.94
365.468	406.94
365.694	419.94
365.92	433.94
366.147	438.94
366.373	422.94
366.599	398.94
366.826	419.94
367.052	399.94
367.278	398.94
367.505	427.94
367.731	409.94
367.957	415.94
368.184	432.94
368.41	422.94
368.636	444.94
368.862	434.94
369.089	398.94
369.315	409.94
369.541	406.94
369.767	407.94
369.993	423.94
370.219	413.94
370.445	407.94
370.672	414.94
370.898	405.94
371.124	411.94
371.35	431.94
371.576	414.94
371.802	428.94
372.028	408.94
372.254	416.94
372.48	391.94
372.706	430.94
372.932	425.94
373.158	415.94
373.384	418.94
373.61	419.94
373.835	425.94
374.061	408.94
374.287	410.94
374.513	429.94
374.739	423.94
374.965	436.94
375.191	415.94
375.416	441.94
375.642	412.94
375.868	440.94
376.094	402.94
376.319	416.94
376.545	429.94
376.771	405.94
376.997	418.94
377.222	435.94
377.448	416.94
377.674	419.94
377.899	404.94
378.125	424.94
378.35	415.94
378.576	401.94
378.802	383.94
379.027	417.94
379.253	410.94
379.478	392.94
379.704	404.94
379.929	396.94
380.155	402.94
380.38	408.94
380.606	409.94
380.831	409.94
381.057	420.94
381.282	415.94
381.507	424.94
381.733	420.94
381.958	417.94
382.184	422.94
382.409	408.94
382.634	414.94
382.86	413.94
383.085	424.94
383.31	439.94
383.535	422.94
383.761	434.94
383.986	447.94
384.211	421.94
384.436	447.94
384.662	447.94
384.887	445.94
385.112	458.94
385.337	440.94
385.562	446.94
385.787	454.94
386.013	466.94
386.238	451.94
386.463	452.94
386.688	484.94
386.913	452.94
387.138	471.94
387.363	457.94
387.588	457.94
387.813	451.94
388.038	456.94
388.263	458.94
388.488	444.94
388.713	453.94
388.938	450.94
389.163	455.94
389.387	458.94
389.612	431.94
389.837	462.94
390.062	465.94
390.287	446.94
390.512	438.94
390.736	466.94
390.961	440.94
391.186	457.94
391.411	444.94
391.636	470.94
391.86	483.94
392.085	480.94
392.31	484.94
392.534	495.94
392.759	483.94
392.984	480.94
393.208	470.94
393.433	446.94
393.658	471.94
393.882	447.94
394.107	480.94
394.331	456.94
394.556	479.94
394.78	464.94
395.005	469.94
395.229	461.94
395.454	486.94
395.678	522.94
395.903	491.94
396.127	501.94
396.352	502.94
396.576	487.94
396.801	481.94
397.025	467.94
397.249	483.94
397.474	511.94
397.698	491.94
397.922	492.94
398.147	518.94
398.371	544.94
398.595	512.94
398.82	520.94
399.044	539.94
399.268	560.94
399.492	622.94
399.717	665.94
399.941	681.94
400.165	676.94
400.389	670.94
400.613	616.94
400.837	566.94
401.062	547.94
401.286	540.94
401.51	528.94
401.734	536.94
401.958	536.94
402.182	550.94
402.406	532.94
402.63	538.94
402.854	541.94
403.078	555.94
403.302	578.94
403.526	565.94
403.75	572.94
403.974	572.94
404.198	554.94
404.422	575.94
404.645	584.94
404.869	583.94
405.093	563.94
405.317	575.94
405.541	610.94
405.765	592.94
405.988	573.94
406.212	593.94
406.436	605.94
406.66	601.94
406.883	630.94
407.107	644.94
407.331	664.94
407.555	698.94
407.778	700.94
408.002	651.94
408.226	611.94
408.449	602.94
408.673	620.94
408.896	612.94
409.12	652.94
409.344	620.94
409.567	588.94
409.791	582.94
410.014	568.94
410.238	543.94
410.461	554.94
410.685	548.94
410.908	565.94
411.132	570.94
411.355	626.94
411.578	597.94
411.802	562.94
412.025	557.94
412.249	546.94
412.472	558.94
412.695	574.94
412.919	545.94
413.142	522.94
413.365	531.94
413.589	522.94
413.812	506.94
414.035	511.94
414.258	532.94
414.482	516.94
414.705	516.94
414.928	521.94
415.151	526.94
415.374	504.94
415.597	490.94
415.821	490.94
416.044	519.94
416.267	526.94
416.49	516.94
416.713	498.94
416.936	493.94
417.159	503.94
417.382	518.94
417.605	505.94
417.828	542.94
418.051	556.94
418.274	536.94
418.497	534.94
418.72	508.94
418.943	521.94
419.166	541.94
419.389	560.94
419.611	552.94
419.834	548.94
420.057	543.94
420.28	532.94
420.503	516.94
420.726	527.94
420.948	534.94
421.171	572.94
421.394	590.94
421.617	538.94
421.839	534.94
422.062	530.94
422.285	532.94
422.507	578.94
422.73	668.94
422.953	642.94
423.175	549.94
423.398	536.94
423.621	577.94
423.843	586.94
424.066	581.94
424.288	568.94
424.511	594.94
424.733	610.94
424.956	676.94
425.178	651.94
425.401	662.94
425.623	646.94
425.846	570.94
426.068	579.94
426.291	566.94
426.513	531.94
426.735	574.94
426.958	601.94
427.18	676.94
427.402	740.94
427.625	869.94
427.847	751.94
428.069	623.94
428.292	570.94
428.514	505.94
428.736	520.94
428.958	523.94
429.181	516.94
429.403	503.94
429.625	502.94
429.847	539.94
430.069	598.94
430.292	581.94
430.514	520.94
430.736	505.94
430.958	493.94
431.18	500.94
431.402	498.94
431.624	482.94
431.846	499.94
432.068	495.94
432.29	505.94
432.512	498.94
432.734	510.94
432.956	517.94
433.178	500.94
433.4	492.94
433.622	491.94
433.844	495.94
434.066	491.94
434.287	488.94
434.509	493.94
434.731	503.94
434.953	522.94
435.175	532.94
435.397	550.94
435.618	571.94
435.84	599.94
436.062	661.94
436.284	719.94
436.505	604.94
436.727	546.94
436.949	508.94
437.17	519.94
437.392	493.94
437.614	523.94
437.835	558.94
438.057	616.94
438.278	691.94
438.5	690.94
438.721	769.94
438.943	735.94
439.165	602.94
439.386	534.94
439.608	555.94
439.829	562.94
440.05	588.94
440.272	608.94
440.493	582.94
440.715	533.94
440.936	516.94
441.158	509.94
441.379	522.94
441.6	536.94
441.822	568.94
442.043	566.94
442.264	657.94
442.486	691.94
442.707	570.94
442.928	568.94
443.149	575.94
443.371	605.94
443.592	628.94
443.813	692.94
444.034	764.94
444.255	635.94
444.476	584.94
444.698	579.94
444.919	575.94
445.14	686.94
445.361	638.94
445.582	608.94
445.803	654.94
446.024	727.94
446.245	732.94
446.466	660.94
446.687	574.94
446.908	547.94
447.129	523.94
447.35	519.94
447.571	493.94
447.792	516.94
448.013	507.94
448.234	518.94
448.455	547.94
448.675	652.94
448.896	758.94
449.117	645.94
449.338	588.94
449.559	701.94
449.779	772.94
450	626.94
450.221	544.94
450.442	518.94
450.662	506.94
450.883	475.94
451.104	496.94
451.324	491.94
451.545	474.94
451.766	467.94
451.986	450.94
452.207	444.94
452.428	458.94
452.648	446.94
452.869	460.94
453.089	469.94
453.31	475.94
453.53	452.94
453.751	447.94
453.971	452.94
454.192	477.94
454.412	475.94
454.633	454.94
454.853	454.94
455.073	447.94
455.294	458.94
455.514	532.94
455.734	516.94
455.955	464.94
456.175	448.94
456.395	421.94
456.616	422.94
456.836	435.94
457.056	416.94
457.276	427.94
457.497	422.94
457.717	423.94
457.937	433.94
458.157	436.94
458.377	448.94
458.598	468.94
458.818	529.94
459.038	578.94
459.258	598.94
459.478	522.94
459.698	503.94
459.918	484.94
460.138	494.94
460.358	527.94
460.578	517.94
460.798	526.94
461.018	550.94
461.238	527.94
461.458	523.94
461.678	530.94
461.898	534.94
462.118	541.94
462.338	533.94
462.558	564.94
462.777	568.94
462.997	586.94
463.217	599.94
463.437	618.94
463.657	573.94
463.876	570.94
464.096	571.94
464.316	578.94
464.536	585.94
464.755	587.94
464.975	558.94
465.195	594.94
465.414	652.94
465.634	594.94
465.854	544.94
466.073	508.94
466.293	479.94
466.512	479.94
466.732	493.94
466.951	486.94
467.171	485.94
467.391	475.94
467.61	480.94
467.829	464.94
468.049	463.94
468.268	453.94
468.488	466.94
468.707	455.94
468.927	461.94
469.146	470.94
469.365	459.94
469.585	463.94
469.804	476.94
470.023	485.94
470.243	480.94
470.462	502.94
470.681	487.94
470.901	504.94
471.12	474.94
471.339	463.94
471.558	485.94
471.777	464.94
471.997	464.94
472.216	460.94
472.435	462.94
472.654	472.94
472.873	466.94
473.092	463.94
473.311	460.94
473.53	450.94
473.749	490.94
473.968	517.94
474.187	587.94
474.406	615.94
474.625	499.94
474.844	479.94
475.063	493.94
475.282	483.94
475.501	452.94
475.72	482.94
475.939	491.94
476.158	487.94
476.377	488.94
476.596	489.94
476.814	495.94
477.033	514.94
477.252	509.94
477.471	511.94
477.69	513.94
477.908	528.94
478.127	529.94
478.346	538.94
478.564	544.94
478.783	539.94
479.002	547.94
479.22	562.94
479.439	565.94
479.658	594.94
479.876	585.94
480.095	615.94
480.313	619.94
480.532	588.94
480.751	593.94
480.969	590.94
481.188	574.94
481.406	602.94
481.624	551.94
481.843	560.94
482.061	566.94
482.28	544.94
482.498	547.94
482.717	552.94
482.935	532.94
483.153	552.94
483.372	522.94
483.59	551.94
483.808	543.94
484.027	547.94
484.245	543.94
484.463	557.94
484.681	570.94
484.9	556.94
485.118	561.94
485.336	567.94
485.554	557.94
485.772	556.94
485.99	554.94
486.209	576.94
486.427	580.94
486.645	595.94
486.863	608.94
487.081	600.94
487.299	575.94
487.517	566.94
487.735	594.94
487.953	572.94
488.171	598.94
488.389	574.94
488.607	575.94
488.825	578.94
489.043	597.94
489.261	602.94
489.479	594.94
489.696	592.94
489.914	566.94
490.132	580.94
490.35	599.94
490.568	592.94
490.786	617.94
491.003	624.94
491.221	647.94
491.439	622.94
491.657	662.94
491.874	656.94
492.092	651.94
492.31	653.94
492.527	656.94
492.745	672.94
492.963	677.94
493.18	682.94
493.398	657.94
493.615	661.94
493.833	682.94
494.05	693.94
494.268	699.94
494.485	680.94
494.703	677.94
494.92	666.94
495.138	685.94
495.355	672.94
495.573	655.94
495.79	686.94
496.008	687.94
496.225	682.94
496.442	692.94
496.66	669.94
496.877	698.94
497.094	686.94
497.312	695.94
497.529	730.94
497.746	744.94
497.963	737.94
498.181	783.94
498.398	757.94
498.615	798.94
498.832	856.94
499.049	869.94
499.267	877.94
499.484	917.94
499.701	958.94
499.918	1018.94
500.135	1064.94
500.352	1117.94
500.569	1163.94
500.786	1192.94
501.003	1134.94
501.22	1059.94
501.437	1038.94
501.654	1005.94
501.871	949.94
502.088	901.94
502.305	871.94
502.522	848.94
502.739	782.94
502.956	768.94
503.172	728.94
503.389	743.94
503.606	747.94
503.823	755.94
504.04	741.94
504.256	727.94
504.473	723.94
504.69	748.94
504.907	728.94
505.123	679.94
505.34	656.94
505.557	714.94
505.773	665.94
505.99	647.94
506.207	666.94
506.423	665.94
506.64	636.94
506.856	646.94
507.073	644.94
507.289	624.94
507.506	638.94
507.722	642.94
507.939	668.94
508.155	642.94
508.372	625.94
508.588	620.94
508.805	607.94
509.021	593.94
509.238	620.94
509.454	633.94
509.67	600.94
509.887	606.94
510.103	602.94
510.319	634.94
510.536	700.94
510.752	1127.94
510.968	953.94
511.184	640.94
511.401	599.94
511.617	574.94
511.833	575.94
512.049	564.94
512.265	566.94
512.481	583.94
512.698	574.94
512.914	551.94
513.13	558.94
513.346	562.94
513.562	547.94
513.778	571.94
513.994	578.94
514.21	595.94
514.426	606.94
514.642	646.94
514.858	664.94
515.074	678.94
515.29	812.94
515.506	1220.94
515.721	1031.94
515.937	715.94
516.153	647.94
516.369	640.94
516.585	637.94
516.801	631.94
517.016	643.94
517.232	631.94
517.448	641.94
517.664	660.94
517.879	631.94
518.095	672.94
518.311	637.94
518.527	636.94
518.742	599.94
518.958	602.94
519.173	596.94
519.389	584.94
519.605	611.94
519.82	596.94
520.036	589.94
520.251	604.94
520.467	658.94
520.682	620.94
520.898	635.94
521.113	653.94
521.329	672.94
521.544	738.94
521.76	923.94
521.975	1573.94
522.19	1603.94
522.406	857.94
522.621	651.94
522.836	583.94
523.052	566.94
523.267	539.94
523.482	549.94
523.698	520.94
523.913	550.94
524.128	545.94
524.343	520.94
524.559	488.94
524.774	516.94
524.989	530.94
525.204	504.94
525.419	527.94
525.634	514.94
525.849	486.94
526.064	503.94
526.28	492.94
526.495	487.94
526.71	494.94
526.925	498.94
527.14	490.94
527.355	484.94
527.57	494.94
527.785	470.94
527.999	485.94
528.214	483.94
528.429	472.94
528.644	468.94
528.859	464.94
529.074	505.94
529.289	518.94
529.503	579.94
529.718	557.94
529.933	532.94
530.148	507.94
530.363	473.94
530.577	463.94
530.792	482.94
531.007	481.94
531.221	466.94
531.436	472.94
531.651	488.94
531.865	484.94
532.08	462.94
532.295	479.94
532.509	472.94
532.724	452.94
532.938	449.94
533.153	477.94
533.367	478.94
533.582	464.94
533.796	470.94
534.011	453.94
534.225	450.94
534.44	467.94
534.654	466.94
534.868	450.94
535.083	436.94
535.297	476.94
535.511	465.94
535.726	460.94
535.94	454.94
536.154	448.94
536.369	438.94
536.583	429.94
536.797	431.94
537.011	451.94
537.225	445.94
537.44	444.94
537.654	443.94
537.868	447.94
538.082	440.94
538.296	467.94
538.51	445.94
538.724	452.94
538.938	429.94
539.153	443.94
539.367	450.94
539.581	445.94
539.795	430.94
540.009	471.94
540.222	436.94
540.436	448.94
540.65	442.94
540.864	458.94
541.078	462.94
541.292	457.94
541.506	457.94
541.72	449.94
541.934	449.94
542.147	425.94
542.361	421.94
542.575	424.94
542.789	431.94
543.002	430.94
543.216	451.94
543.43	454.94
543.644	447.94
543.857	430.94
544.071	453.94
544.285	468.94
544.498	462.94
544.712	454.94
544.925	445.94
545.139	427.94
545.352	448.94
545.566	438.94
545.779	438.94
545.993	453.94
546.206	463.94
546.42	450.94
546.633	431.94
546.847	454.94
547.06	420.94
547.274	440.94
547.487	421.94
547.7	414.94
547.914	433.94
548.127	432.94
548.34	431.94
548.554	438.94
548.767	442.94
548.98	423.94
549.193	414.94
549.407	410.94
549.62	446.94
549.833	431.94
550.046	440.94
550.259	448.94
550.473	429.94
550.686	429.94
550.899	405.94
551.112	422.94
551.325	434.94
551.538	428.94
551.751	428.94
551.964	407.94
552.177	431.94
552.39	401.94
552.603	429.94
552.816	453.94
553.029	429.94
553.242	448.94
553.455	446.94
553.667	450.94
553.88	463.94
554.093	462.94
554.306	429.94
554.519	434.94
554.732	423.94
554.944	414.94
555.157	399.94
555.37	416.94
555.583	401.94
555.795	414.94
556.008	408.94
556.221	408.94
556.433	366.94
556.646	381.94
556.859	376.94
557.071	400.94
557.284	386.94
557.496	384.94
557.709	379.94
557.921	406.94
558.134	377.94
558.346	392.94
558.559	376.94
558.771	378.94
558.984	390.94
559.196	380.94
559.409	379.94
559.621	357.94
559.833	370.94
560.046	376.94
560.258	352.94
560.47	360.94
560.683	378.94
560.895	367.94
561.107	366.94
561.32	359.94
561.532	363.94
561.744	385.94
561.956	389.94
562.168	362.94
562.381	371.94
562.593	378.94
562.805	370.94
563.017	386.94
563.229	371.94
563.441	374.94
563.653	376.94
563.865	373.94
564.077	360.94
564.289	392.94
564.501	389.94
564.713	390.94
564.925	407.94
565.137	413.94
565.349	431.94
565.561	416.94
565.773	409.94
565.985	424.94
566.197	448.94
566.408	448.94
566.62	491.94
566.832	512.94
567.044	486.94
567.255	498.94
567.467	520.94
567.679	523.94
567.891	543.94
568.102	547.94
568.314	539.94
568.526	511.94
568.737	487.94
568.949	451.94
569.161	424.94
569.372	436.94
569.584	407.94
569.795	403.94
570.007	403.94
570.218	419.94
570.43	411.94
570.641	387.94
570.853	388.94
571.064	393.94
571.276	380.94
571.487	375.94
571.698	354.94
571.91	362.94
572.121	353.94
572.333	357.94
572.544	350.94
572.755	352.94
572.966	329.94
573.178	338.94
573.389	333.94
573.6	326.94
573.811	331.94
574.023	329.94
574.234	342.94
574.445	332.94
574.656	322.94
574.867	315.94
575.078	320.94
575.289	320.94
575.501	314.94
575.712	322.94
575.923	337.94
576.134	328.94
576.345	322.94
576.556	328.94
576.767	315.94
576.978	322.94
577.188	298.94
577.399	306.94
577.61	302.94
577.821	311.94
578.032	319.94
578.243	343.94
578.454	546.94
578.665	393.94
578.875	314.94
579.086	300.94
579.297	301.94
579.508	318.94
579.718	296.94
579.929	310.94
580.14	293.94
580.35	306.94
580.561	306.94
580.772	301.94
580.982	288.94
581.193	294.94
581.403	299.94
581.614	289.94
581.825	301.94
582.035	287.94
582.246	294.94
582.456	290.94
582.667	319.94
582.877	289.94
583.087	287.94
583.298	298.94
583.508	306.94
583.719	290.94
583.929	273.94
584.139	296.94
584.35	293.94
584.56	306.94
584.77	299.94
584.981	296.94
585.191	293.94
585.401	282.94
585.611	282.94
585.821	274.94
586.032	284.94
586.242	279.94
586.452	272.94
586.662	262.94
586.872	290.94
587.082	272.94
587.292	274.94
587.502	288.94
587.713	305.94
587.923	288.94
588.133	296.94
588.343	297.94
588.553	293.94
588.762	289.94
588.972	294.94
589.182	281.94
589.392	287.94
589.602	280.94
589.812	276.94
590.022	281.94
590.232	301.94
590.441	262.94
590.651	296.94
590.861	296.94
591.071	290.94
591.281	294.94
591.49	292.94
591.7	317.94
591.91	288.94
592.119	293.94
592.329	296.94
592.539	303.94
592.748	318.94
592.958	303.94
593.167	319.94
593.377	326.94
593.587	324.94
593.796	309.94
594.006	318.94
594.215	342.94
594.424	336.94
594.634	334.94
594.843	317.94
595.053	298.94
595.262	306.94
595.472	279.94
595.681	287.94
595.89	289.94
596.1	294.94
596.309	267.94
596.518	264.94
596.727	273.94
596.937	272.94
597.146	274.94
597.355	272.94
597.564	264.94
597.774	263.94
597.983	276.94
598.192	244.94
598.401	259.94
598.61	266.94
598.819	264.94
599.028	256.94
599.237	261.94
599.446	242.94
599.655	271.94
599.864	238.94
600.073	237.94
600.282	238.94
600.491	238.94
600.7	250.94
600.909	243.94
601.118	257.94
601.327	246.94
601.536	250.94
601.745	236.94
601.953	235.94
602.162	234.94
602.371	234.94
602.58	230.94
602.789	245.94
602.997	233.94
603.206	239.94
603.415	240.94
603.623	246.94
603.832	227.94
604.041	234.94
604.249	236.94
604.458	218.94
604.666	240.94
604.875	236.94
605.084	245.94
605.292	248.94
605.501	242.94
605.709	248.94
605.918	225.94
606.126	226.94
606.334	239.94
606.543	233.94
606.751	230.94
606.96	239.94
607.168	225.94
607.376	226.94
607.585	244.94
607.793	245.94
608.001	222.94
608.21	225.94
608.418	228.94
608.626	234.94
608.834	228.94
609.043	233.94
609.251	230.94
609.459	230.94
609.667	229.94
609.875	214.94
610.083	227.94
610.291	214.94
610.499	242.94
610.707	215.94
610.916	224.94
611.124	227.94
611.332	229.94
611.54	230.94
611.748	224.94
611.955	243.94
612.163	206.94
612.371	233.94
612.579	225.94
612.787	216.94
612.995	213.94
613.203	239.94
613.411	216.94
613.618	221.94
613.826	219.94
614.034	234.94
614.242	230.94
614.449	199.94
614.657	219.94
614.865	217.94
615.072	211.94
615.28	235.94
615.488	240.94
615.695	224.94
615.903	219.94
616.111	214.94
616.318	223.94
616.526	228.94
616.733	215.94
616.941	222.94
617.148	214.94
617.356	215.94
617.563	209.94
617.771	227.94
617.978	231.94
618.185	204.94
618.393	215.94
618.6	229.94
618.807	209.94
619.015	217.94
619.222	231.94
619.429	232.94
619.637	234.94
619.844	213.94
620.051	234.94
620.258	220.94
620.466	216.94
620.673	207.94
620.88	210.94
621.087	205.94
621.294	230.94
621.501	221.94
621.708	216.94
621.915	209.94
622.122	215.94
622.329	215.94
622.536	214.94
622.743	221.94
622.95	203.94
623.157	211.94
623.364	216.94
623.571	211.94
623.778	214.94
623.985	195.94
624.192	212.94
624.399	217.94
624.606	206.94
624.812	216.94
625.019	212.94
625.226	205.94
625.433	228.94
625.639	208.94
625.846	207.94
626.053	204.94
626.259	190.94
626.466	201.94
626.673	215.94
626.879	199.94
627.086	221.94
627.293	191.94
627.499	203.94
627.706	191.94
627.912	199.94
628.119	191.94
628.325	203.94
628.532	202.94
628.738	191.94
628.945	198.94
629.151	184.94
629.357	202.94
629.564	181.94
629.77	196.94
629.976	198.94
630.183	196.94
630.389	179.94
630.595	183.94
630.802	205.94
631.008	174.94
631.214	190.94
631.42	190.94
631.627	199.94
631.833	174.94
632.039	176.94
632.245	179.94
632.451	170.94
632.657	190.94
632.863	166.94
633.069	186.94
633.275	184.94
633.481	178.94
633.688	166.94
633.893	183.94
634.099	194.94
634.305	170.94
634.511	184.94
634.717	170.94
634.923	166.94
635.129	187.94
635.335	188.94
635.541	171.94
635.747	173.94
635.952	171.94
636.158	186.94
636.364	184.94
636.57	175.94
636.775	156.94
636.981	182.94
637.187	182.94
637.392	184.94
637.598	174.94
637.804	188.94
638.009	185.94
638.215	167.94
638.421	170.94
638.626	167.94
638.832	157.94
639.037	151.94
639.243	160.94
639.448	175.94
639.654	166.94
639.859	166.94
640.065	171.94
640.27	176.94
640.475	164.94
640.681	181.94
640.886	170.94
641.091	176.94
641.297	164.94
641.502	138.94
641.707	156.94
641.913	170.94
642.118	179.94
642.323	166.94
642.528	167.94
642.733	165.94
642.939	167.94
643.144	166.94
643.349	161.94
643.554	165.94
643.759	166.94
643.964	163.94
644.169	159.94
644.374	152.94
644.579	161.94
644.784	156.94
644.989	163.94
645.194	164.94
645.399	156.94
645.604	142.94
645.809	170.94
646.014	154.94
646.219	168.94
646.423	155.94
646.628	157.94
646.833	152.94
647.038	151.94
647.243	165.94
647.447	173.94
647.652	178.94
647.857	174.94
648.062	170.94
648.266	167.94
648.471	165.94
648.676	169.94
648.88	158.94
649.085	172.94
649.289	162.94
649.494	174.94
649.698	184.94
649.903	173.94
650.107	152.94
650.312	171.94
650.516	161.94
650.721	155.94
650.925	138.94
651.13	147.94
651.334	162.94
651.539	159.94
651.743	141.94
651.947	141.94
652.152	147.94
652.356	142.94
652.56	138.94
652.764	150.94
652.969	150.94
653.173	129.94
653.377	151.94
653.581	132.94
653.785	133.94
653.99	121.94
654.194	141.94
654.398	143.94
654.602	121.94
654.806	135.94
655.01	138.94
655.214	132.94
655.418	128.94
655.622	135.94
655.826	134.94
656.03	135.94
656.234	141.94
656.438	141.94
656.642	143.94
656.846	131.94
657.049	139.94
657.253	132.94
657.457	132.94
657.661	123.94
657.865	119.94
658.068	112.94
658.272	114.94
658.476	125.94
658.68	112.94
658.883	111.94
659.087	102.94
659.291	100.94
659.494	112.94
659.698	103.94
659.901	102.94
660.105	105.94
660.309	100.94
660.512	96.94
660.716	106.94
660.919	99.94
661.123	98.94
661.326	91.94
661.53	88.94
661.733	89.94
661.936	85.94
662.14	89.94
662.343	97.94
662.546	96.94
662.75	85.94
662.953	95.94
663.156	97.94
663.36	88.94
663.563	90.94
663.766	85.94
663.969	92.94
664.173	81.94
664.376	87.94
664.579	78.94
664.782	89.94
664.985	84.94
665.188	91.94
665.391	86.94
665.594	87.94
665.797	79.94
666	84.94
666.203	85.94
666.406	90.94
666.609	94.94
666.812	67.94
667.015	74.94
667.218	86.94
667.421	86.94
667.624	91.94
667.827	98.94
668.03	84.94
668.232	85.94
668.435	67.94
668.638	99.94
668.841	80.94
669.043	88.94
669.246	100.94
669.449	92.94
669.651	70.94
669.854	86.94
670.057	91.94
670.259	75.94
670.462	83.94
670.665	85.94
670.867	93.94
671.07	94.94
671.272	79.94
671.475	90.94
671.677	70.94
671.88	77.94
672.082	95.94
672.284	85.94
672.487	75.94
672.689	97.94
672.892	91.94
