Data from 1985.PennyLincolnUp.Lamp.En5.5.200Scan.071819.P1_HRD10591_17-02-43-970.txt Node
Date: Thu Jul 18 17:02:43 EDT 2019
User: cochatt
Spectrometer: HR+D1059
Trigger mode: 1
Integration Time (sec): 1.000000E-1
Scans to average: 1
Electric dark correction enabled: true
Nonlinearity correction enabled: false
Boxcar width: 0
XAxis mode: Wavelengths
Number of Pixels in Spectrum: 2048
>>>>>Begin Spectral Data<<<<<
223.165	-5.56
223.4	-5.56
223.635	-5.56
223.869	-20.56
224.104	-14.56
224.338	-14.56
224.573	-21.56
224.808	-18.56
225.042	-9.56
225.277	25.44
225.511	3.44
225.746	2.44
225.98	-0.56
226.215	7.44
226.449	17.44
226.683	15.44
226.918	16.44
227.152	17.44
227.387	42.44
227.621	34.44
227.856	39.44
228.09	45.44
228.324	51.44
228.559	55.44
228.793	64.44
229.027	87.44
229.262	94.44
229.496	118.44
229.73	114.44
229.964	145.44
230.199	137.44
230.433	113.44
230.667	98.44
230.901	100.44
231.136	99.44
231.37	106.44
231.604	117.44
231.838	116.44
232.072	106.44
232.306	111.44
232.541	110.44
232.775	111.44
233.009	108.44
233.243	121.44
233.477	109.44
233.711	119.44
233.945	101.44
234.179	113.44
234.413	111.44
234.647	116.44
234.881	102.44
235.115	127.44
235.349	125.44
235.583	118.44
235.817	119.44
236.051	126.44
236.285	113.44
236.519	126.44
236.753	139.44
236.987	146.44
237.221	165.44
237.455	216.44
237.689	177.44
237.922	146.44
238.156	103.44
238.39	117.44
238.624	121.44
238.858	113.44
239.091	131.44
239.325	108.44
239.559	112.44
239.793	118.44
240.027	123.44
240.26	132.44
240.494	143.44
240.728	131.44
240.961	129.44
241.195	130.44
241.429	130.44
241.662	135.44
241.896	137.44
242.13	135.44
242.363	134.44
242.597	129.44
242.83	120.44
243.064	131.44
243.298	147.44
243.531	131.44
243.765	125.44
243.998	144.44
244.232	133.44
244.465	159.44
244.699	143.44
244.932	139.44
245.166	137.44
245.399	155.44
245.633	139.44
245.866	160.44
246.099	148.44
246.333	151.44
246.566	152.44
246.8	134.44
247.033	147.44
247.266	153.44
247.5	165.44
247.733	165.44
247.966	162.44
248.2	167.44
248.433	171.44
248.666	186.44
248.899	178.44
249.133	193.44
249.366	202.44
249.599	207.44
249.832	171.44
250.066	183.44
250.299	164.44
250.532	187.44
250.765	196.44
250.998	207.44
251.231	219.44
251.465	195.44
251.698	207.44
251.931	202.44
252.164	195.44
252.397	198.44
252.63	177.44
252.863	191.44
253.096	206.44
253.329	223.44
253.562	216.44
253.795	218.44
254.028	217.44
254.261	197.44
254.494	213.44
254.727	228.44
254.96	253.44
255.193	277.44
255.426	225.44
255.659	217.44
255.892	208.44
256.124	202.44
256.357	211.44
256.59	214.44
256.823	182.44
257.056	206.44
257.289	200.44
257.521	214.44
257.754	201.44
257.987	207.44
258.22	195.44
258.452	199.44
258.685	201.44
258.918	199.44
259.151	224.44
259.383	215.44
259.616	221.44
259.849	230.44
260.081	239.44
260.314	245.44
260.547	256.44
260.779	238.44
261.012	220.44
261.244	214.44
261.477	219.44
261.71	232.44
261.942	233.44
262.175	232.44
262.407	234.44
262.64	231.44
262.872	217.44
263.105	237.44
263.337	222.44
263.57	226.44
263.802	219.44
264.035	211.44
264.267	225.44
264.499	201.44
264.732	218.44
264.964	229.44
265.197	222.44
265.429	219.44
265.661	224.44
265.894	222.44
266.126	207.44
266.358	220.44
266.591	224.44
266.823	241.44
267.055	225.44
267.287	230.44
267.52	238.44
267.752	230.44
267.984	247.44
268.216	249.44
268.448	236.44
268.681	255.44
268.913	241.44
269.145	267.44
269.377	288.44
269.609	284.44
269.841	273.44
270.073	297.44
270.306	308.44
270.538	313.44
270.77	327.44
271.002	301.44
271.234	296.44
271.466	298.44
271.698	315.44
271.93	323.44
272.162	334.44
272.394	328.44
272.626	314.44
272.858	280.44
273.09	276.44
273.322	280.44
273.553	274.44
273.785	270.44
274.017	257.44
274.249	280.44
274.481	271.44
274.713	273.44
274.945	283.44
275.176	257.44
275.408	263.44
275.64	269.44
275.872	263.44
276.104	268.44
276.335	263.44
276.567	280.44
276.799	280.44
277.031	328.44
277.262	343.44
277.494	338.44
277.726	329.44
277.957	294.44
278.189	303.44
278.421	297.44
278.652	284.44
278.884	280.44
279.115	285.44
279.347	283.44
279.579	267.44
279.81	268.44
280.042	289.44
280.273	287.44
280.505	285.44
280.736	292.44
280.968	286.44
281.199	290.44
281.431	297.44
281.662	287.44
281.894	286.44
282.125	286.44
282.356	295.44
282.588	317.44
282.819	323.44
283.051	307.44
283.282	304.44
283.513	315.44
283.745	298.44
283.976	306.44
284.207	317.44
284.439	325.44
284.67	318.44
284.901	314.44
285.132	309.44
285.364	313.44
285.595	305.44
285.826	303.44
286.057	292.44
286.288	302.44
286.52	299.44
286.751	309.44
286.982	310.44
287.213	309.44
287.444	314.44
287.675	316.44
287.906	319.44
288.138	324.44
288.369	312.44
288.6	328.44
288.831	307.44
289.062	303.44
289.293	317.44
289.524	317.44
289.755	311.44
289.986	305.44
290.217	316.44
290.448	317.44
290.679	301.44
290.91	314.44
291.141	329.44
291.371	324.44
291.602	319.44
291.833	326.44
292.064	330.44
292.295	312.44
292.526	318.44
292.757	322.44
292.987	318.44
293.218	307.44
293.449	330.44
293.68	305.44
293.91	326.44
294.141	305.44
294.372	321.44
294.603	329.44
294.833	335.44
295.064	316.44
295.295	321.44
295.525	321.44
295.756	307.44
295.987	331.44
296.217	356.44
296.448	366.44
296.679	346.44
296.909	328.44
297.14	315.44
297.37	344.44
297.601	333.44
297.831	350.44
298.062	327.44
298.292	339.44
298.523	352.44
298.753	342.44
298.984	351.44
299.214	359.44
299.445	346.44
299.675	335.44
299.905	357.44
300.136	341.44
300.366	357.44
300.597	347.44
300.827	360.44
301.057	331.44
301.288	351.44
301.518	361.44
301.748	335.44
301.979	348.44
302.209	352.44
302.439	374.44
302.669	383.44
302.9	360.44
303.13	356.44
303.36	381.44
303.59	385.44
303.82	360.44
304.051	369.44
304.281	372.44
304.511	361.44
304.741	378.44
304.971	377.44
305.201	357.44
305.431	361.44
305.661	367.44
305.891	358.44
306.121	367.44
306.352	363.44
306.582	369.44
306.812	377.44
307.042	371.44
307.272	363.44
307.502	378.44
307.731	352.44
307.961	373.44
308.191	381.44
308.421	373.44
308.651	378.44
308.881	370.44
309.111	372.44
309.341	358.44
309.571	408.44
309.8	397.44
310.03	391.44
310.26	379.44
310.49	384.44
310.72	405.44
310.949	421.44
311.179	425.44
311.409	407.44
311.639	399.44
311.868	424.44
312.098	431.44
312.328	405.44
312.557	432.44
312.787	441.44
313.017	429.44
313.246	413.44
313.476	394.44
313.706	423.44
313.935	395.44
314.165	412.44
314.394	449.44
314.624	439.44
314.853	417.44
315.083	410.44
315.312	394.44
315.542	406.44
315.771	404.44
316.001	420.44
316.23	411.44
316.46	414.44
316.689	420.44
316.919	428.44
317.148	415.44
317.377	426.44
317.607	417.44
317.836	403.44
318.065	418.44
318.295	417.44
318.524	411.44
318.753	426.44
318.983	416.44
319.212	407.44
319.441	425.44
319.67	428.44
319.9	407.44
320.129	419.44
320.358	397.44
320.587	414.44
320.816	442.44
321.046	450.44
321.275	431.44
321.504	435.44
321.733	450.44
321.962	453.44
322.191	455.44
322.42	470.44
322.649	458.44
322.878	477.44
323.108	483.44
323.337	510.44
323.566	520.44
323.795	550.44
324.024	576.44
324.253	682.44
324.482	954.44
324.71	1425.44
324.939	2021.44
325.168	1725.44
325.397	930.44
325.626	661.44
325.855	569.44
326.084	526.44
326.313	515.44
326.542	543.44
326.77	559.44
326.999	660.44
327.228	870.44
327.457	1246.44
327.686	1528.44
327.914	1025.44
328.143	689.44
328.372	634.44
328.6	578.44
328.829	598.44
329.058	584.44
329.287	567.44
329.515	569.44
329.744	521.44
329.972	508.44
330.201	530.44
330.43	554.44
330.658	564.44
330.887	610.44
331.115	601.44
331.344	559.44
331.572	528.44
331.801	537.44
332.03	521.44
332.258	527.44
332.486	523.44
332.715	499.44
332.943	518.44
333.172	489.44
333.4	524.44
333.629	524.44
333.857	535.44
334.085	571.44
334.314	541.44
334.542	534.44
334.771	548.44
334.999	532.44
335.227	530.44
335.455	510.44
335.684	509.44
335.912	506.44
336.14	489.44
336.369	507.44
336.597	510.44
336.825	490.44
337.053	514.44
337.281	468.44
337.51	475.44
337.738	473.44
337.966	479.44
338.194	478.44
338.422	466.44
338.65	486.44
338.878	463.44
339.106	477.44
339.334	486.44
339.562	487.44
339.79	465.44
340.018	466.44
340.246	465.44
340.474	466.44
340.702	454.44
340.93	445.44
341.158	446.44
341.386	468.44
341.614	463.44
341.842	490.44
342.07	447.44
342.298	446.44
342.526	455.44
342.754	455.44
342.981	446.44
343.209	449.44
343.437	464.44
343.665	461.44
343.893	498.44
344.12	515.44
344.348	495.44
344.576	498.44
344.804	456.44
345.031	457.44
345.259	485.44
345.487	479.44
345.714	467.44
345.942	457.44
346.17	435.44
346.397	456.44
346.625	471.44
346.853	447.44
347.08	458.44
347.308	444.44
347.535	455.44
347.763	462.44
347.99	460.44
348.218	470.44
348.445	468.44
348.673	481.44
348.9	436.44
349.128	433.44
349.355	431.44
349.583	450.44
349.81	438.44
350.037	444.44
350.265	449.44
350.492	441.44
350.72	433.44
350.947	445.44
351.174	448.44
351.402	446.44
351.629	435.44
351.856	447.44
352.083	463.44
352.311	467.44
352.538	442.44
352.765	450.44
352.992	446.44
353.22	451.44
353.447	436.44
353.674	445.44
353.901	434.44
354.128	408.44
354.355	421.44
354.583	403.44
354.81	410.44
355.037	423.44
355.264	440.44
355.491	415.44
355.718	411.44
355.945	421.44
356.172	405.44
356.399	401.44
356.626	409.44
356.853	408.44
357.08	412.44
357.307	410.44
357.534	410.44
357.761	406.44
357.988	412.44
358.215	421.44
358.441	411.44
358.668	407.44
358.895	418.44
359.122	407.44
359.349	426.44
359.576	449.44
359.802	469.44
360.029	488.44
360.256	489.44
360.483	482.44
360.709	437.44
360.936	429.44
361.163	459.44
361.39	435.44
361.616	446.44
361.843	432.44
362.07	438.44
362.296	457.44
362.523	441.44
362.749	432.44
362.976	439.44
363.203	416.44
363.429	422.44
363.656	411.44
363.882	425.44
364.109	411.44
364.335	438.44
364.562	418.44
364.788	426.44
365.015	436.44
365.241	419.44
365.468	426.44
365.694	410.44
365.92	425.44
366.147	418.44
366.373	429.44
366.599	418.44
366.826	410.44
367.052	414.44
367.278	425.44
367.505	435.44
367.731	443.44
367.957	412.44
368.184	425.44
368.41	407.44
368.636	446.44
368.862	436.44
369.089	431.44
369.315	434.44
369.541	427.44
369.767	429.44
369.993	413.44
370.219	401.44
370.445	423.44
370.672	409.44
370.898	413.44
371.124	415.44
371.35	426.44
371.576	422.44
371.802	418.44
372.028	405.44
372.254	425.44
372.48	422.44
372.706	406.44
372.932	416.44
373.158	447.44
373.384	400.44
373.61	425.44
373.835	435.44
374.061	441.44
374.287	435.44
374.513	433.44
374.739	429.44
374.965	451.44
375.191	434.44
375.416	436.44
375.642	423.44
375.868	426.44
376.094	424.44
376.319	417.44
376.545	433.44
376.771	429.44
376.997	415.44
377.222	420.44
377.448	423.44
377.674	421.44
377.899	410.44
378.125	408.44
378.35	413.44
378.576	426.44
378.802	422.44
379.027	423.44
379.253	411.44
379.478	383.44
379.704	415.44
379.929	409.44
380.155	426.44
380.38	418.44
380.606	396.44
380.831	419.44
381.057	429.44
381.282	407.44
381.507	413.44
381.733	429.44
381.958	418.44
382.184	426.44
382.409	425.44
382.634	426.44
382.86	432.44
383.085	431.44
383.31	438.44
383.535	423.44
383.761	432.44
383.986	423.44
384.211	462.44
384.436	469.44
384.662	455.44
384.887	465.44
385.112	464.44
385.337	455.44
385.562	462.44
385.787	451.44
386.013	477.44
386.238	479.44
386.463	494.44
386.688	478.44
386.913	458.44
387.138	450.44
387.363	458.44
387.588	478.44
387.813	471.44
388.038	456.44
388.263	471.44
388.488	464.44
388.713	462.44
388.938	465.44
389.163	465.44
389.387	478.44
389.612	468.44
389.837	471.44
390.062	445.44
390.287	458.44
390.512	455.44
390.736	445.44
390.961	460.44
391.186	474.44
391.411	458.44
391.636	490.44
391.86	505.44
392.085	498.44
392.31	496.44
392.534	483.44
392.759	477.44
392.984	486.44
393.208	457.44
393.433	470.44
393.658	483.44
393.882	474.44
394.107	479.44
394.331	475.44
394.556	470.44
394.78	485.44
395.005	469.44
395.229	483.44
395.454	478.44
395.678	518.44
395.903	505.44
396.127	501.44
396.352	496.44
396.576	494.44
396.801	498.44
397.025	467.44
397.249	478.44
397.474	515.44
397.698	503.44
397.922	535.44
398.147	536.44
398.371	535.44
398.595	520.44
398.82	517.44
399.044	553.44
399.268	586.44
399.492	629.44
399.717	694.44
399.941	722.44
400.165	689.44
400.389	690.44
400.613	626.44
400.837	599.44
401.062	581.44
401.286	524.44
401.51	542.44
401.734	548.44
401.958	548.44
402.182	572.44
402.406	585.44
402.63	583.44
402.854	555.44
403.078	591.44
403.302	549.44
403.526	558.44
403.75	565.44
403.974	564.44
404.198	572.44
404.422	552.44
404.645	590.44
404.869	592.44
405.093	615.44
405.317	611.44
405.541	679.44
405.765	596.44
405.988	578.44
406.212	589.44
406.436	629.44
406.66	617.44
406.883	624.44
407.107	614.44
407.331	665.44
407.555	742.44
407.778	740.44
408.002	669.44
408.226	618.44
408.449	621.44
408.673	621.44
408.896	646.44
409.12	676.44
409.344	647.44
409.567	602.44
409.791	578.44
410.014	575.44
410.238	551.44
410.461	560.44
410.685	567.44
410.908	601.44
411.132	617.44
411.355	636.44
411.578	617.44
411.802	550.44
412.025	546.44
412.249	549.44
412.472	564.44
412.695	586.44
412.919	576.44
413.142	570.44
413.365	547.44
413.589	559.44
413.812	519.44
414.035	543.44
414.258	524.44
414.482	515.44
414.705	541.44
414.928	528.44
415.151	511.44
415.374	537.44
415.597	524.44
415.821	518.44
416.044	537.44
416.267	522.44
416.49	502.44
416.713	505.44
416.936	537.44
417.159	511.44
417.382	531.44
417.605	530.44
417.828	532.44
418.051	549.44
418.274	552.44
418.497	550.44
418.72	515.44
418.943	517.44
419.166	530.44
419.389	569.44
419.611	571.44
419.834	541.44
420.057	547.44
420.28	569.44
420.503	522.44
420.726	551.44
420.948	547.44
421.171	584.44
421.394	629.44
421.617	581.44
421.839	539.44
422.062	571.44
422.285	584.44
422.507	607.44
422.73	691.44
422.953	657.44
423.175	614.44
423.398	575.44
423.621	566.44
423.843	573.44
424.066	586.44
424.288	580.44
424.511	596.44
424.733	636.44
424.956	722.44
425.178	705.44
425.401	667.44
425.623	689.44
425.846	608.44
426.068	558.44
426.291	575.44
426.513	566.44
426.735	570.44
426.958	608.44
427.18	695.44
427.402	805.44
427.625	857.44
427.847	769.44
428.069	665.44
428.292	587.44
428.514	567.44
428.736	529.44
428.958	535.44
429.181	523.44
429.403	509.44
429.625	531.44
429.847	570.44
430.069	603.44
430.292	593.44
430.514	545.44
430.736	530.44
430.958	518.44
431.18	511.44
431.402	483.44
431.624	489.44
431.846	506.44
432.068	475.44
432.29	489.44
432.512	510.44
432.734	509.44
432.956	515.44
433.178	518.44
433.4	499.44
433.622	493.44
433.844	513.44
434.066	486.44
434.287	503.44
434.509	507.44
434.731	525.44
434.953	522.44
435.175	551.44
435.397	567.44
435.618	577.44
435.84	610.44
436.062	680.44
436.284	736.44
436.505	637.44
436.727	552.44
436.949	531.44
437.17	522.44
437.392	525.44
437.614	517.44
437.835	551.44
438.057	651.44
438.278	725.44
438.5	724.44
438.721	794.44
438.943	743.44
439.165	609.44
439.386	570.44
439.608	563.44
439.829	557.44
440.05	587.44
440.272	624.44
440.493	579.44
440.715	537.44
440.936	509.44
441.158	546.44
441.379	547.44
441.6	550.44
441.822	578.44
442.043	629.44
442.264	672.44
442.486	717.44
442.707	608.44
442.928	580.44
443.149	577.44
443.371	624.44
443.592	647.44
443.813	735.44
444.034	793.44
444.255	671.44
444.476	613.44
444.698	616.44
444.919	613.44
445.14	718.44
445.361	649.44
445.582	623.44
445.803	666.44
446.024	765.44
446.245	744.44
446.466	675.44
446.687	615.44
446.908	576.44
447.129	548.44
447.35	507.44
447.571	522.44
447.792	515.44
448.013	502.44
448.234	537.44
448.455	590.44
448.675	668.44
448.896	794.44
449.117	663.44
449.338	621.44
449.559	715.44
449.779	820.44
450	636.44
450.221	553.44
450.442	535.44
450.662	484.44
450.883	509.44
451.104	514.44
451.324	490.44
451.545	501.44
451.766	471.44
451.986	468.44
452.207	454.44
452.428	458.44
452.648	470.44
452.869	467.44
453.089	465.44
453.31	481.44
453.53	444.44
453.751	441.44
453.971	459.44
454.192	506.44
454.412	484.44
454.633	459.44
454.853	455.44
455.073	449.44
455.294	481.44
455.514	540.44
455.734	513.44
455.955	463.44
456.175	410.44
456.395	429.44
456.616	435.44
456.836	468.44
457.056	443.44
457.276	445.44
457.497	416.44
457.717	425.44
457.937	450.44
458.157	453.44
458.377	465.44
458.598	469.44
458.818	512.44
459.038	613.44
459.258	629.44
459.478	554.44
459.698	521.44
459.918	516.44
460.138	538.44
460.358	520.44
460.578	534.44
460.798	538.44
461.018	538.44
461.238	515.44
461.458	532.44
461.678	550.44
461.898	544.44
462.118	550.44
462.338	537.44
462.558	538.44
462.777	572.44
462.997	618.44
463.217	609.44
463.437	615.44
463.657	597.44
463.876	588.44
464.096	592.44
464.316	585.44
464.536	582.44
464.755	580.44
464.975	579.44
465.195	593.44
465.414	638.44
465.634	583.44
465.854	544.44
466.073	518.44
466.293	513.44
466.512	494.44
466.732	473.44
466.951	489.44
467.171	461.44
467.391	490.44
467.61	511.44
467.829	493.44
468.049	469.44
468.268	500.44
468.488	479.44
468.707	464.44
468.927	449.44
469.146	449.44
469.365	477.44
469.585	464.44
469.804	492.44
470.023	499.44
470.243	483.44
470.462	474.44
470.681	520.44
470.901	498.44
471.12	478.44
471.339	469.44
471.558	474.44
471.777	480.44
471.997	482.44
472.216	474.44
472.435	474.44
472.654	471.44
472.873	478.44
473.092	472.44
473.311	475.44
473.53	462.44
473.749	478.44
473.968	496.44
474.187	604.44
474.406	616.44
474.625	532.44
474.844	471.44
475.063	490.44
475.282	480.44
475.501	477.44
475.72	498.44
475.939	477.44
476.158	494.44
476.377	499.44
476.596	499.44
476.814	497.44
477.033	511.44
477.252	529.44
477.471	509.44
477.69	509.44
477.908	529.44
478.127	538.44
478.346	532.44
478.564	578.44
478.783	565.44
479.002	542.44
479.22	579.44
479.439	567.44
479.658	588.44
479.876	593.44
480.095	600.44
480.313	618.44
480.532	623.44
480.751	601.44
480.969	586.44
481.188	607.44
481.406	615.44
481.624	590.44
481.843	560.44
482.061	578.44
482.28	568.44
482.498	560.44
482.717	548.44
482.935	536.44
483.153	545.44
483.372	531.44
483.59	569.44
483.808	554.44
484.027	575.44
484.245	567.44
484.463	579.44
484.681	576.44
484.9	575.44
485.118	563.44
485.336	574.44
485.554	602.44
485.772	583.44
485.99	568.44
486.209	581.44
486.427	579.44
486.645	613.44
486.863	595.44
487.081	608.44
487.299	590.44
487.517	587.44
487.735	571.44
487.953	605.44
488.171	580.44
488.389	607.44
488.607	603.44
488.825	574.44
489.043	591.44
489.261	588.44
489.479	613.44
489.696	607.44
489.914	618.44
490.132	631.44
490.35	605.44
490.568	620.44
490.786	633.44
491.003	638.44
491.221	657.44
491.439	647.44
491.657	653.44
491.874	653.44
492.092	686.44
492.31	696.44
492.527	667.44
492.745	679.44
492.963	681.44
493.18	683.44
493.398	673.44
493.615	705.44
493.833	678.44
494.05	718.44
494.268	696.44
494.485	707.44
494.703	690.44
494.92	690.44
495.138	699.44
495.355	702.44
495.573	708.44
495.79	713.44
496.008	705.44
496.225	691.44
496.442	695.44
496.66	726.44
496.877	705.44
497.094	695.44
497.312	720.44
497.529	718.44
497.746	739.44
497.963	763.44
498.181	774.44
498.398	818.44
498.615	822.44
498.832	831.44
499.049	872.44
499.267	888.44
499.484	947.44
499.701	988.44
499.918	1066.44
500.135	1131.44
500.352	1162.44
500.569	1202.44
500.786	1233.44
501.003	1177.44
501.22	1152.44
501.437	1058.44
501.654	994.44
501.871	971.44
502.088	946.44
502.305	869.44
502.522	881.44
502.739	812.44
502.956	805.44
503.172	775.44
503.389	752.44
503.606	756.44
503.823	731.44
504.04	724.44
504.256	743.44
504.473	750.44
504.69	738.44
504.907	740.44
505.123	719.44
505.34	679.44
505.557	681.44
505.773	707.44
505.99	681.44
506.207	677.44
506.423	677.44
506.64	669.44
506.856	669.44
507.073	654.44
507.289	658.44
507.506	643.44
507.722	655.44
507.939	680.44
508.155	646.44
508.372	645.44
508.588	625.44
508.805	642.44
509.021	624.44
509.238	618.44
509.454	638.44
509.67	639.44
509.887	621.44
510.103	617.44
510.319	622.44
510.536	710.44
510.752	1120.44
510.968	943.44
511.184	634.44
511.401	598.44
511.617	607.44
511.833	603.44
512.049	590.44
512.265	622.44
512.481	580.44
512.698	581.44
512.914	573.44
513.13	605.44
513.346	596.44
513.562	585.44
513.778	587.44
513.994	610.44
514.21	585.44
514.426	637.44
514.642	667.44
514.858	700.44
515.074	717.44
515.29	835.44
515.506	1237.44
515.721	1057.44
515.937	718.44
516.153	678.44
516.369	647.44
516.585	652.44
516.801	635.44
517.016	635.44
517.232	651.44
517.448	657.44
517.664	669.44
517.879	664.44
518.095	669.44
518.311	670.44
518.527	654.44
518.742	652.44
518.958	659.44
519.173	619.44
519.389	621.44
519.605	627.44
519.82	589.44
520.036	600.44
520.251	623.44
520.467	641.44
520.682	640.44
520.898	665.44
521.113	662.44
521.329	687.44
521.544	771.44
521.76	925.44
521.975	1557.44
522.19	1604.44
522.406	888.44
522.621	659.44
522.836	605.44
523.052	571.44
523.267	569.44
523.482	545.44
523.698	547.44
523.913	543.44
524.128	527.44
524.343	509.44
524.559	545.44
524.774	506.44
524.989	524.44
525.204	514.44
525.419	525.44
525.634	536.44
525.849	518.44
526.064	514.44
526.28	490.44
526.495	497.44
526.71	517.44
526.925	483.44
527.14	506.44
527.355	483.44
527.57	463.44
527.785	486.44
527.999	494.44
528.214	502.44
528.429	494.44
528.644	477.44
528.859	480.44
529.074	493.44
529.289	505.44
529.503	595.44
529.718	571.44
529.933	512.44
530.148	503.44
530.363	510.44
530.577	500.44
530.792	479.44
531.007	485.44
531.221	471.44
531.436	481.44
531.651	471.44
531.865	488.44
532.08	481.44
532.295	467.44
532.509	467.44
532.724	459.44
532.938	486.44
533.153	454.44
533.367	452.44
533.582	454.44
533.796	447.44
534.011	452.44
534.225	460.44
534.44	454.44
534.654	443.44
534.868	458.44
535.083	461.44
535.297	443.44
535.511	469.44
535.726	482.44
535.94	455.44
536.154	461.44
536.369	454.44
536.583	464.44
536.797	459.44
537.011	457.44
537.225	458.44
537.44	440.44
537.654	440.44
537.868	444.44
538.082	434.44
538.296	473.44
538.51	451.44
538.724	452.44
538.938	467.44
539.153	457.44
539.367	469.44
539.581	434.44
539.795	457.44
540.009	439.44
540.222	436.44
540.436	466.44
540.65	464.44
540.864	451.44
541.078	464.44
541.292	445.44
541.506	458.44
541.72	450.44
541.934	443.44
542.147	435.44
542.361	434.44
542.575	438.44
542.789	414.44
543.002	441.44
543.216	426.44
543.43	432.44
543.644	438.44
543.857	442.44
544.071	438.44
544.285	437.44
544.498	416.44
544.712	409.44
544.925	447.44
545.139	430.44
545.352	426.44
545.566	454.44
545.779	438.44
545.993	438.44
546.206	435.44
546.42	447.44
546.633	463.44
546.847	440.44
547.06	442.44
547.274	444.44
547.487	423.44
547.7	450.44
547.914	447.44
548.127	432.44
548.34	426.44
548.554	431.44
548.767	437.44
548.98	437.44
549.193	422.44
549.407	445.44
549.62	442.44
549.833	426.44
550.046	439.44
550.259	415.44
550.473	434.44
550.686	422.44
550.899	428.44
551.112	428.44
551.325	430.44
551.538	423.44
551.751	419.44
551.964	406.44
552.177	426.44
552.39	437.44
552.603	456.44
552.816	459.44
553.029	429.44
553.242	418.44
553.455	463.44
553.667	462.44
553.88	473.44
554.093	450.44
554.306	440.44
554.519	453.44
554.732	436.44
554.944	427.44
555.157	425.44
555.37	415.44
555.583	417.44
555.795	435.44
556.008	413.44
556.221	388.44
556.433	399.44
556.646	401.44
556.859	374.44
557.071	382.44
557.284	382.44
557.496	388.44
557.709	391.44
557.921	376.44
558.134	367.44
558.346	408.44
558.559	364.44
558.771	383.44
558.984	367.44
559.196	381.44
559.409	381.44
559.621	371.44
559.833	377.44
560.046	379.44
560.258	391.44
560.47	363.44
560.683	387.44
560.895	365.44
561.107	365.44
561.32	394.44
561.532	366.44
561.744	389.44
561.956	344.44
562.168	399.44
562.381	367.44
562.593	387.44
562.805	393.44
563.017	378.44
563.229	403.44
563.441	414.44
563.653	403.44
563.865	404.44
564.077	374.44
564.289	392.44
564.501	404.44
564.713	405.44
564.925	413.44
565.137	410.44
565.349	421.44
565.561	425.44
565.773	416.44
565.985	463.44
566.197	455.44
566.408	459.44
566.62	475.44
566.832	508.44
567.044	508.44
567.255	504.44
567.467	516.44
567.679	509.44
567.891	549.44
568.102	566.44
568.314	526.44
568.526	546.44
568.737	487.44
568.949	460.44
569.161	429.44
569.372	436.44
569.584	431.44
569.795	410.44
570.007	401.44
570.218	426.44
570.43	440.44
570.641	386.44
570.853	396.44
571.064	391.44
571.276	359.44
571.487	371.44
571.698	385.44
571.91	370.44
572.121	358.44
572.333	337.44
572.544	361.44
572.755	329.44
572.966	344.44
573.178	334.44
573.389	349.44
573.6	336.44
573.811	357.44
574.023	331.44
574.234	345.44
574.445	328.44
574.656	327.44
574.867	310.44
575.078	322.44
575.289	333.44
575.501	329.44
575.712	317.44
575.923	344.44
576.134	331.44
576.345	312.44
576.556	334.44
576.767	303.44
576.978	311.44
577.188	314.44
577.399	307.44
577.61	299.44
577.821	318.44
578.032	299.44
578.243	362.44
578.454	533.44
578.665	417.44
578.875	326.44
579.086	318.44
579.297	302.44
579.508	305.44
579.718	315.44
579.929	314.44
580.14	304.44
580.35	305.44
580.561	287.44
580.772	295.44
580.982	315.44
581.193	293.44
581.403	292.44
581.614	291.44
581.825	286.44
582.035	283.44
582.246	304.44
582.456	287.44
582.667	285.44
582.877	297.44
583.087	306.44
583.298	297.44
583.508	280.44
583.719	283.44
583.929	303.44
584.139	303.44
584.35	288.44
584.56	290.44
584.77	286.44
584.981	281.44
585.191	288.44
585.401	286.44
585.611	287.44
585.821	293.44
586.032	261.44
586.242	286.44
586.452	278.44
586.662	275.44
586.872	271.44
587.082	290.44
587.292	271.44
587.502	287.44
587.713	288.44
587.923	281.44
588.133	282.44
588.343	278.44
588.553	274.44
588.762	285.44
588.972	292.44
589.182	304.44
589.392	281.44
589.602	284.44
589.812	282.44
590.022	274.44
590.232	291.44
590.441	305.44
590.651	263.44
590.861	290.44
591.071	280.44
591.281	272.44
591.49	300.44
591.7	295.44
591.91	295.44
592.119	294.44
592.329	292.44
592.539	303.44
592.748	317.44
592.958	328.44
593.167	337.44
593.377	322.44
593.587	339.44
593.796	326.44
594.006	319.44
594.215	329.44
594.424	302.44
594.634	309.44
594.843	289.44
595.053	310.44
595.262	321.44
595.472	288.44
595.681	309.44
595.89	296.44
596.1	291.44
596.309	275.44
596.518	283.44
596.727	277.44
596.937	264.44
597.146	273.44
597.355	253.44
597.564	252.44
597.774	258.44
597.983	249.44
598.192	263.44
598.401	264.44
598.61	247.44
598.819	249.44
599.028	260.44
599.237	262.44
599.446	236.44
599.655	245.44
599.864	245.44
600.073	244.44
600.282	235.44
600.491	253.44
600.7	230.44
600.909	237.44
601.118	244.44
601.327	229.44
601.536	225.44
601.745	221.44
601.953	232.44
602.162	249.44
602.371	254.44
602.58	236.44
602.789	265.44
602.997	239.44
603.206	239.44
603.415	246.44
603.623	228.44
603.832	241.44
604.041	234.44
604.249	235.44
604.458	221.44
604.666	232.44
604.875	227.44
605.084	231.44
605.292	226.44
605.501	259.44
605.709	227.44
605.918	234.44
606.126	226.44
606.334	241.44
606.543	226.44
606.751	224.44
606.96	229.44
607.168	244.44
607.376	231.44
607.585	230.44
607.793	243.44
608.001	235.44
608.21	228.44
608.418	234.44
608.626	230.44
608.834	223.44
609.043	226.44
609.251	215.44
609.459	218.44
609.667	227.44
609.875	218.44
610.083	225.44
610.291	231.44
610.499	228.44
610.707	231.44
610.916	225.44
611.124	232.44
611.332	237.44
611.54	227.44
611.748	259.44
611.955	223.44
612.163	227.44
612.371	228.44
612.579	222.44
612.787	222.44
612.995	217.44
613.203	230.44
613.411	229.44
613.618	236.44
613.826	221.44
614.034	224.44
614.242	217.44
614.449	217.44
614.657	212.44
614.865	203.44
615.072	229.44
615.28	222.44
615.488	246.44
615.695	231.44
615.903	242.44
616.111	226.44
616.318	223.44
616.526	228.44
616.733	225.44
616.941	229.44
617.148	225.44
617.356	222.44
617.563	221.44
617.771	221.44
617.978	215.44
618.185	224.44
618.393	235.44
618.6	215.44
618.807	208.44
619.015	204.44
619.222	218.44
619.429	208.44
619.637	236.44
619.844	206.44
620.051	209.44
620.258	211.44
620.466	211.44
620.673	199.44
620.88	214.44
621.087	216.44
621.294	213.44
621.501	207.44
621.708	231.44
621.915	214.44
622.122	219.44
622.329	214.44
622.536	206.44
622.743	212.44
622.95	202.44
623.157	194.44
623.364	195.44
623.571	226.44
623.778	217.44
623.985	210.44
624.192	208.44
624.399	195.44
624.606	211.44
624.812	204.44
625.019	190.44
625.226	222.44
625.433	210.44
625.639	195.44
625.846	195.44
626.053	202.44
626.259	209.44
626.466	191.44
626.673	184.44
626.879	204.44
627.086	205.44
627.293	199.44
627.499	201.44
627.706	192.44
627.912	202.44
628.119	202.44
628.325	197.44
628.532	206.44
628.738	185.44
628.945	190.44
629.151	199.44
629.357	192.44
629.564	180.44
629.77	191.44
629.976	197.44
630.183	197.44
630.389	182.44
630.595	187.44
630.802	184.44
631.008	186.44
631.214	178.44
631.42	174.44
631.627	178.44
631.833	174.44
632.039	183.44
632.245	182.44
632.451	187.44
632.657	182.44
632.863	178.44
633.069	170.44
633.275	182.44
633.481	197.44
633.688	191.44
633.893	177.44
634.099	171.44
634.305	181.44
634.511	174.44
634.717	191.44
634.923	163.44
635.129	168.44
635.335	173.44
635.541	184.44
635.747	176.44
635.952	186.44
636.158	173.44
636.364	166.44
636.57	181.44
636.775	162.44
636.981	183.44
637.187	189.44
637.392	167.44
637.598	196.44
637.804	173.44
638.009	167.44
638.215	169.44
638.421	175.44
638.626	168.44
638.832	160.44
639.037	154.44
639.243	153.44
639.448	160.44
639.654	159.44
639.859	162.44
640.065	163.44
640.27	171.44
640.475	173.44
640.681	159.44
640.886	162.44
641.091	187.44
641.297	158.44
641.502	156.44
641.707	161.44
641.913	167.44
642.118	178.44
642.323	165.44
642.528	165.44
642.733	164.44
642.939	158.44
643.144	160.44
643.349	149.44
643.554	176.44
643.759	151.44
643.964	161.44
644.169	175.44
644.374	161.44
644.579	146.44
644.784	153.44
644.989	156.44
645.194	152.44
645.399	169.44
645.604	133.44
645.809	158.44
646.014	161.44
646.219	175.44
646.423	167.44
646.628	163.44
646.833	153.44
647.038	161.44
647.243	182.44
647.447	176.44
647.652	152.44
647.857	167.44
648.062	161.44
648.266	157.44
648.471	153.44
648.676	166.44
648.88	173.44
649.085	159.44
649.289	167.44
649.494	160.44
649.698	157.44
649.903	166.44
650.107	166.44
650.312	163.44
650.516	147.44
650.721	163.44
650.925	145.44
651.13	153.44
651.334	154.44
651.539	149.44
651.743	152.44
651.947	131.44
652.152	131.44
652.356	142.44
652.56	136.44
652.764	137.44
652.969	149.44
653.173	139.44
653.377	157.44
653.581	152.44
653.785	129.44
653.99	138.44
654.194	140.44
654.398	132.44
654.602	136.44
654.806	125.44
655.01	125.44
655.214	121.44
655.418	147.44
655.622	132.44
655.826	137.44
656.03	133.44
656.234	128.44
656.438	129.44
656.642	136.44
656.846	132.44
657.049	138.44
657.253	115.44
657.457	116.44
657.661	109.44
657.865	115.44
658.068	118.44
658.272	112.44
658.476	113.44
658.68	121.44
658.883	99.44
659.087	94.44
659.291	102.44
659.494	103.44
659.698	97.44
659.901	99.44
660.105	83.44
660.309	97.44
660.512	89.44
660.716	78.44
660.919	93.44
661.123	101.44
661.326	78.44
661.53	96.44
661.733	94.44
661.936	87.44
662.14	80.44
662.343	75.44
662.546	81.44
662.75	95.44
662.953	76.44
663.156	89.44
663.36	86.44
663.563	75.44
663.766	69.44
663.969	77.44
664.173	82.44
664.376	88.44
664.579	89.44
664.782	85.44
664.985	93.44
665.188	72.44
665.391	77.44
665.594	67.44
665.797	87.44
666	80.44
666.203	83.44
666.406	86.44
666.609	81.44
666.812	75.44
667.015	82.44
667.218	83.44
667.421	80.44
667.624	68.44
667.827	67.44
668.03	80.44
668.232	79.44
668.435	77.44
668.638	77.44
668.841	78.44
669.043	82.44
669.246	89.44
669.449	78.44
669.651	71.44
669.854	81.44
670.057	82.44
670.259	88.44
670.462	74.44
670.665	88.44
670.867	74.44
671.07	79.44
671.272	74.44
671.475	80.44
671.677	87.44
671.88	85.44
672.082	100.44
672.284	84.44
672.487	75.44
672.689	84.44
672.892	94.44
