Data from 1985.PennyLincolnUp.Lamp.En5.5.200Scan.071819.P1_HRD10591_17-02-42-970.txt Node
Date: Thu Jul 18 17:02:42 EDT 2019
User: cochatt
Spectrometer: HR+D1059
Trigger mode: 1
Integration Time (sec): 1.000000E-1
Scans to average: 1
Electric dark correction enabled: true
Nonlinearity correction enabled: false
Boxcar width: 0
XAxis mode: Wavelengths
Number of Pixels in Spectrum: 2048
>>>>>Begin Spectral Data<<<<<
223.165	-14.31
223.4	-14.31
223.635	-14.31
223.869	-27.31
224.104	-14.31
224.338	-17.31
224.573	-19.31
224.808	-6.31
225.042	-14.31
225.277	-11.31
225.511	0.69
225.746	4.69
225.98	5.69
226.215	20.69
226.449	23.69
226.683	28.69
226.918	11.69
227.152	28.69
227.387	38.69
227.621	24.69
227.856	43.69
228.09	38.69
228.324	60.69
228.559	62.69
228.793	66.69
229.027	89.69
229.262	100.69
229.496	98.69
229.73	130.69
229.964	149.69
230.199	117.69
230.433	120.69
230.667	112.69
230.901	100.69
231.136	110.69
231.37	114.69
231.604	112.69
231.838	95.69
232.072	105.69
232.306	129.69
232.541	112.69
232.775	108.69
233.009	106.69
233.243	117.69
233.477	106.69
233.711	116.69
233.945	118.69
234.179	100.69
234.413	130.69
234.647	124.69
234.881	106.69
235.115	114.69
235.349	122.69
235.583	123.69
235.817	136.69
236.051	125.69
236.285	122.69
236.519	126.69
236.753	121.69
236.987	155.69
237.221	189.69
237.455	224.69
237.689	184.69
237.922	143.69
238.156	134.69
238.39	130.69
238.624	124.69
238.858	134.69
239.091	123.69
239.325	126.69
239.559	130.69
239.793	141.69
240.027	133.69
240.26	139.69
240.494	148.69
240.728	146.69
240.961	148.69
241.195	153.69
241.429	140.69
241.662	134.69
241.896	141.69
242.13	129.69
242.363	121.69
242.597	135.69
242.83	149.69
243.064	137.69
243.298	145.69
243.531	140.69
243.765	146.69
243.998	148.69
244.232	141.69
244.465	139.69
244.699	148.69
244.932	143.69
245.166	128.69
245.399	142.69
245.633	167.69
245.866	134.69
246.099	133.69
246.333	140.69
246.566	152.69
246.8	147.69
247.033	153.69
247.266	171.69
247.5	144.69
247.733	154.69
247.966	178.69
248.2	173.69
248.433	165.69
248.666	174.69
248.899	180.69
249.133	200.69
249.366	194.69
249.599	182.69
249.832	188.69
250.066	196.69
250.299	186.69
250.532	193.69
250.765	203.69
250.998	216.69
251.231	215.69
251.465	195.69
251.698	198.69
251.931	194.69
252.164	189.69
252.397	197.69
252.63	210.69
252.863	199.69
253.096	220.69
253.329	214.69
253.562	218.69
253.795	209.69
254.028	209.69
254.261	213.69
254.494	220.69
254.727	256.69
254.96	293.69
255.193	258.69
255.426	231.69
255.659	223.69
255.892	235.69
256.124	220.69
256.357	219.69
256.59	215.69
256.823	228.69
257.056	212.69
257.289	209.69
257.521	206.69
257.754	203.69
257.987	210.69
258.22	202.69
258.452	210.69
258.685	213.69
258.918	203.69
259.151	213.69
259.383	212.69
259.616	219.69
259.849	243.69
260.081	244.69
260.314	257.69
260.547	245.69
260.779	246.69
261.012	218.69
261.244	219.69
261.477	237.69
261.71	236.69
261.942	222.69
262.175	233.69
262.407	237.69
262.64	242.69
262.872	234.69
263.105	235.69
263.337	225.69
263.57	212.69
263.802	225.69
264.035	226.69
264.267	232.69
264.499	220.69
264.732	219.69
264.964	211.69
265.197	231.69
265.429	219.69
265.661	242.69
265.894	226.69
266.126	228.69
266.358	230.69
266.591	229.69
266.823	251.69
267.055	228.69
267.287	254.69
267.52	220.69
267.752	226.69
267.984	234.69
268.216	263.69
268.448	234.69
268.681	236.69
268.913	257.69
269.145	262.69
269.377	293.69
269.609	284.69
269.841	265.69
270.073	274.69
270.306	294.69
270.538	308.69
270.77	324.69
271.002	313.69
271.234	304.69
271.466	307.69
271.698	343.69
271.93	317.69
272.162	332.69
272.394	311.69
272.626	316.69
272.858	305.69
273.09	292.69
273.322	304.69
273.553	290.69
273.785	287.69
274.017	261.69
274.249	282.69
274.481	263.69
274.713	258.69
274.945	285.69
275.176	261.69
275.408	283.69
275.64	286.69
275.872	257.69
276.104	273.69
276.335	252.69
276.567	280.69
276.799	314.69
277.031	317.69
277.262	334.69
277.494	344.69
277.726	314.69
277.957	315.69
278.189	309.69
278.421	288.69
278.652	290.69
278.884	281.69
279.115	290.69
279.347	299.69
279.579	278.69
279.81	287.69
280.042	299.69
280.273	292.69
280.505	292.69
280.736	293.69
280.968	278.69
281.199	277.69
281.431	286.69
281.662	279.69
281.894	302.69
282.125	307.69
282.356	308.69
282.588	312.69
282.819	349.69
283.051	305.69
283.282	298.69
283.513	306.69
283.745	326.69
283.976	313.69
284.207	311.69
284.439	307.69
284.67	316.69
284.901	291.69
285.132	317.69
285.364	313.69
285.595	326.69
285.826	321.69
286.057	297.69
286.288	284.69
286.52	308.69
286.751	291.69
286.982	312.69
287.213	324.69
287.444	324.69
287.675	318.69
287.906	353.69
288.138	354.69
288.369	317.69
288.6	341.69
288.831	340.69
289.062	330.69
289.293	331.69
289.524	303.69
289.755	327.69
289.986	337.69
290.217	320.69
290.448	326.69
290.679	312.69
290.91	315.69
291.141	318.69
291.371	321.69
291.602	323.69
291.833	313.69
292.064	327.69
292.295	338.69
292.526	325.69
292.757	322.69
292.987	325.69
293.218	312.69
293.449	339.69
293.68	310.69
293.91	328.69
294.141	329.69
294.372	326.69
294.603	334.69
294.833	324.69
295.064	326.69
295.295	337.69
295.525	327.69
295.756	337.69
295.987	344.69
296.217	342.69
296.448	384.69
296.679	353.69
296.909	343.69
297.14	337.69
297.37	344.69
297.601	324.69
297.831	333.69
298.062	346.69
298.292	345.69
298.523	363.69
298.753	351.69
298.984	340.69
299.214	352.69
299.445	337.69
299.675	358.69
299.905	348.69
300.136	339.69
300.366	342.69
300.597	347.69
300.827	353.69
301.057	373.69
301.288	374.69
301.518	377.69
301.748	363.69
301.979	372.69
302.209	342.69
302.439	389.69
302.669	383.69
302.9	386.69
303.13	378.69
303.36	361.69
303.59	372.69
303.82	396.69
304.051	387.69
304.281	375.69
304.511	385.69
304.741	346.69
304.971	364.69
305.201	371.69
305.431	362.69
305.661	369.69
305.891	370.69
306.121	379.69
306.352	384.69
306.582	377.69
306.812	376.69
307.042	369.69
307.272	377.69
307.502	353.69
307.731	399.69
307.961	376.69
308.191	375.69
308.421	377.69
308.651	381.69
308.881	363.69
309.111	378.69
309.341	372.69
309.571	388.69
309.8	404.69
310.03	420.69
310.26	416.69
310.49	410.69
310.72	422.69
310.949	405.69
311.179	423.69
311.409	412.69
311.639	403.69
311.868	426.69
312.098	398.69
312.328	441.69
312.557	418.69
312.787	423.69
313.017	436.69
313.246	440.69
313.476	422.69
313.706	416.69
313.935	421.69
314.165	449.69
314.394	427.69
314.624	441.69
314.853	447.69
315.083	430.69
315.312	420.69
315.542	409.69
315.771	421.69
316.001	419.69
316.23	416.69
316.46	430.69
316.689	434.69
316.919	420.69
317.148	429.69
317.377	446.69
317.607	434.69
317.836	428.69
318.065	417.69
318.295	437.69
318.524	397.69
318.753	420.69
318.983	411.69
319.212	416.69
319.441	439.69
319.67	448.69
319.9	420.69
320.129	416.69
320.358	440.69
320.587	432.69
320.816	432.69
321.046	428.69
321.275	432.69
321.504	452.69
321.733	438.69
321.962	470.69
322.191	441.69
322.42	466.69
322.649	471.69
322.878	478.69
323.108	490.69
323.337	508.69
323.566	526.69
323.795	578.69
324.024	584.69
324.253	696.69
324.482	984.69
324.71	1429.69
324.939	2072.69
325.168	1776.69
325.397	912.69
325.626	662.69
325.855	584.69
326.084	536.69
326.313	524.69
326.542	531.69
326.77	558.69
326.999	651.69
327.228	864.69
327.457	1323.69
327.686	1580.69
327.914	1033.69
328.143	704.69
328.372	613.69
328.6	611.69
328.829	580.69
329.058	583.69
329.287	613.69
329.515	588.69
329.744	535.69
329.972	541.69
330.201	539.69
330.43	555.69
330.658	601.69
330.887	647.69
331.115	626.69
331.344	548.69
331.572	525.69
331.801	556.69
332.03	561.69
332.258	524.69
332.486	522.69
332.715	498.69
332.943	508.69
333.172	525.69
333.4	528.69
333.629	538.69
333.857	563.69
334.085	556.69
334.314	559.69
334.542	564.69
334.771	563.69
334.999	558.69
335.227	534.69
335.455	556.69
335.684	513.69
335.912	521.69
336.14	493.69
336.369	503.69
336.597	518.69
336.825	489.69
337.053	497.69
337.281	518.69
337.51	498.69
337.738	502.69
337.966	497.69
338.194	508.69
338.422	494.69
338.65	501.69
338.878	468.69
339.106	483.69
339.334	474.69
339.562	469.69
339.79	491.69
340.018	496.69
340.246	472.69
340.474	449.69
340.702	477.69
340.93	478.69
341.158	478.69
341.386	483.69
341.614	478.69
341.842	486.69
342.07	461.69
342.298	469.69
342.526	453.69
342.754	466.69
342.981	436.69
343.209	467.69
343.437	461.69
343.665	488.69
343.893	478.69
344.12	514.69
344.348	502.69
344.576	474.69
344.804	479.69
345.031	486.69
345.259	510.69
345.487	469.69
345.714	469.69
345.942	458.69
346.17	451.69
346.397	472.69
346.625	466.69
346.853	466.69
347.08	450.69
347.308	466.69
347.535	460.69
347.763	471.69
347.99	460.69
348.218	472.69
348.445	482.69
348.673	469.69
348.9	438.69
349.128	462.69
349.355	452.69
349.583	428.69
349.81	452.69
350.037	438.69
350.265	445.69
350.492	431.69
350.72	451.69
350.947	446.69
351.174	464.69
351.402	445.69
351.629	457.69
351.856	455.69
352.083	453.69
352.311	455.69
352.538	453.69
352.765	476.69
352.992	462.69
353.22	459.69
353.447	457.69
353.674	432.69
353.901	426.69
354.128	438.69
354.355	426.69
354.583	432.69
354.81	432.69
355.037	415.69
355.264	428.69
355.491	423.69
355.718	413.69
355.945	413.69
356.172	429.69
356.399	438.69
356.626	423.69
356.853	432.69
357.08	416.69
357.307	418.69
357.534	429.69
357.761	420.69
357.988	442.69
358.215	451.69
358.441	444.69
358.668	410.69
358.895	437.69
359.122	417.69
359.349	442.69
359.576	450.69
359.802	453.69
360.029	491.69
360.256	489.69
360.483	465.69
360.709	465.69
360.936	473.69
361.163	427.69
361.39	457.69
361.616	462.69
361.843	444.69
362.07	440.69
362.296	456.69
362.523	456.69
362.749	448.69
362.976	442.69
363.203	398.69
363.429	408.69
363.656	441.69
363.882	439.69
364.109	425.69
364.335	422.69
364.562	427.69
364.788	450.69
365.015	408.69
365.241	428.69
365.468	437.69
365.694	413.69
365.92	440.69
366.147	418.69
366.373	423.69
366.599	419.69
366.826	430.69
367.052	419.69
367.278	410.69
367.505	417.69
367.731	418.69
367.957	419.69
368.184	432.69
368.41	425.69
368.636	437.69
368.862	452.69
369.089	433.69
369.315	436.69
369.541	422.69
369.767	406.69
369.993	423.69
370.219	414.69
370.445	423.69
370.672	428.69
370.898	428.69
371.124	422.69
371.35	420.69
371.576	419.69
371.802	408.69
372.028	426.69
372.254	409.69
372.48	426.69
372.706	432.69
372.932	438.69
373.158	431.69
373.384	445.69
373.61	444.69
373.835	444.69
374.061	441.69
374.287	420.69
374.513	444.69
374.739	434.69
374.965	437.69
375.191	451.69
375.416	446.69
375.642	425.69
375.868	427.69
376.094	425.69
376.319	442.69
376.545	419.69
376.771	449.69
376.997	414.69
377.222	426.69
377.448	429.69
377.674	434.69
377.899	420.69
378.125	428.69
378.35	432.69
378.576	428.69
378.802	412.69
379.027	410.69
379.253	409.69
379.478	425.69
379.704	426.69
379.929	428.69
380.155	411.69
380.38	421.69
380.606	425.69
380.831	439.69
381.057	445.69
381.282	421.69
381.507	416.69
381.733	423.69
381.958	416.69
382.184	414.69
382.409	419.69
382.634	453.69
382.86	438.69
383.085	441.69
383.31	444.69
383.535	437.69
383.761	440.69
383.986	469.69
384.211	447.69
384.436	471.69
384.662	463.69
384.887	468.69
385.112	460.69
385.337	463.69
385.562	472.69
385.787	462.69
386.013	471.69
386.238	488.69
386.463	484.69
386.688	476.69
386.913	465.69
387.138	469.69
387.363	461.69
387.588	467.69
387.813	452.69
388.038	472.69
388.263	464.69
388.488	482.69
388.713	485.69
388.938	485.69
389.163	468.69
389.387	461.69
389.612	461.69
389.837	469.69
390.062	464.69
390.287	478.69
390.512	464.69
390.736	469.69
390.961	492.69
391.186	465.69
391.411	490.69
391.636	498.69
391.86	475.69
392.085	493.69
392.31	506.69
392.534	516.69
392.759	491.69
392.984	500.69
393.208	485.69
393.433	478.69
393.658	489.69
393.882	466.69
394.107	488.69
394.331	448.69
394.556	491.69
394.78	475.69
395.005	490.69
395.229	494.69
395.454	523.69
395.678	520.69
395.903	503.69
396.127	520.69
396.352	518.69
396.576	481.69
396.801	497.69
397.025	499.69
397.249	490.69
397.474	518.69
397.698	492.69
397.922	498.69
398.147	530.69
398.371	550.69
398.595	546.69
398.82	543.69
399.044	556.69
399.268	612.69
399.492	649.69
399.717	713.69
399.941	726.69
400.165	712.69
400.389	687.69
400.613	659.69
400.837	597.69
401.062	579.69
401.286	556.69
401.51	573.69
401.734	532.69
401.958	549.69
402.182	557.69
402.406	574.69
402.63	566.69
402.854	583.69
403.078	560.69
403.302	579.69
403.526	596.69
403.75	600.69
403.974	590.69
404.198	573.69
404.422	581.69
404.645	594.69
404.869	588.69
405.093	629.69
405.317	620.69
405.541	668.69
405.765	594.69
405.988	603.69
406.212	602.69
406.436	628.69
406.66	654.69
406.883	632.69
407.107	627.69
407.331	713.69
407.555	757.69
407.778	725.69
408.002	716.69
408.226	636.69
408.449	633.69
408.673	609.69
408.896	632.69
409.12	676.69
409.344	631.69
409.567	598.69
409.791	583.69
410.014	572.69
410.238	569.69
410.461	552.69
410.685	553.69
410.908	569.69
411.132	604.69
411.355	635.69
411.578	607.69
411.802	583.69
412.025	556.69
412.249	566.69
412.472	570.69
412.695	588.69
412.919	584.69
413.142	544.69
413.365	546.69
413.589	518.69
413.812	558.69
414.035	566.69
414.258	539.69
414.482	555.69
414.705	541.69
414.928	549.69
415.151	535.69
415.374	543.69
415.597	538.69
415.821	525.69
416.044	542.69
416.267	524.69
416.49	536.69
416.713	520.69
416.936	557.69
417.159	525.69
417.382	534.69
417.605	538.69
417.828	530.69
418.051	555.69
418.274	546.69
418.497	535.69
418.72	538.69
418.943	520.69
419.166	581.69
419.389	570.69
419.611	585.69
419.834	558.69
420.057	566.69
420.28	550.69
420.503	547.69
420.726	544.69
420.948	571.69
421.171	604.69
421.394	634.69
421.617	574.69
421.839	557.69
422.062	533.69
422.285	547.69
422.507	618.69
422.73	677.69
422.953	655.69
423.175	580.69
423.398	574.69
423.621	579.69
423.843	612.69
424.066	579.69
424.288	592.69
424.511	621.69
424.733	646.69
424.956	717.69
425.178	706.69
425.401	721.69
425.623	701.69
425.846	610.69
426.068	593.69
426.291	580.69
426.513	569.69
426.735	598.69
426.958	612.69
427.18	687.69
427.402	826.69
427.625	880.69
427.847	760.69
428.069	663.69
428.292	604.69
428.514	554.69
428.736	530.69
428.958	541.69
429.181	516.69
429.403	532.69
429.625	538.69
429.847	568.69
430.069	616.69
430.292	612.69
430.514	541.69
430.736	528.69
430.958	506.69
431.18	505.69
431.402	508.69
431.624	506.69
431.846	507.69
432.068	498.69
432.29	514.69
432.512	527.69
432.734	526.69
432.956	516.69
433.178	524.69
433.4	510.69
433.622	516.69
433.844	508.69
434.066	469.69
434.287	506.69
434.509	528.69
434.731	536.69
434.953	541.69
435.175	550.69
435.397	589.69
435.618	564.69
435.84	619.69
436.062	672.69
436.284	758.69
436.505	607.69
436.727	571.69
436.949	531.69
437.17	537.69
437.392	529.69
437.614	533.69
437.835	564.69
438.057	655.69
438.278	765.69
438.5	742.69
438.721	789.69
438.943	758.69
439.165	622.69
439.386	582.69
439.608	567.69
439.829	552.69
440.05	614.69
440.272	628.69
440.493	580.69
440.715	536.69
440.936	536.69
441.158	540.69
441.379	531.69
441.6	561.69
441.822	577.69
442.043	631.69
442.264	679.69
442.486	698.69
442.707	618.69
442.928	582.69
443.149	584.69
443.371	607.69
443.592	634.69
443.813	745.69
444.034	762.69
444.255	665.69
444.476	626.69
444.698	601.69
444.919	600.69
445.14	726.69
445.361	664.69
445.582	642.69
445.803	682.69
446.024	776.69
446.245	794.69
446.466	707.69
446.687	595.69
446.908	561.69
447.129	548.69
447.35	522.69
447.571	534.69
447.792	508.69
448.013	522.69
448.234	549.69
448.455	581.69
448.675	688.69
448.896	786.69
449.117	666.69
449.338	618.69
449.559	736.69
449.779	829.69
450	650.69
450.221	565.69
450.442	524.69
450.662	524.69
450.883	521.69
451.104	532.69
451.324	488.69
451.545	504.69
451.766	491.69
451.986	469.69
452.207	478.69
452.428	458.69
452.648	473.69
452.869	467.69
453.089	488.69
453.31	505.69
453.53	479.69
453.751	476.69
453.971	478.69
454.192	493.69
454.412	480.69
454.633	461.69
454.853	455.69
455.073	459.69
455.294	499.69
455.514	562.69
455.734	535.69
455.955	468.69
456.175	452.69
456.395	433.69
456.616	444.69
456.836	444.69
457.056	440.69
457.276	423.69
457.497	425.69
457.717	450.69
457.937	454.69
458.157	444.69
458.377	477.69
458.598	467.69
458.818	531.69
459.038	601.69
459.258	621.69
459.478	564.69
459.698	521.69
459.918	521.69
460.138	513.69
460.358	543.69
460.578	545.69
460.798	548.69
461.018	551.69
461.238	547.69
461.458	537.69
461.678	542.69
461.898	555.69
462.118	551.69
462.338	555.69
462.558	556.69
462.777	586.69
462.997	586.69
463.217	612.69
463.437	636.69
463.657	608.69
463.876	580.69
464.096	596.69
464.316	580.69
464.536	614.69
464.755	581.69
464.975	588.69
465.195	613.69
465.414	684.69
465.634	602.69
465.854	555.69
466.073	527.69
466.293	524.69
466.512	491.69
466.732	487.69
466.951	465.69
467.171	484.69
467.391	498.69
467.61	503.69
467.829	498.69
468.049	496.69
468.268	489.69
468.488	476.69
468.707	453.69
468.927	482.69
469.146	480.69
469.365	488.69
469.585	474.69
469.804	507.69
470.023	496.69
470.243	485.69
470.462	481.69
470.681	527.69
470.901	522.69
471.12	496.69
471.339	514.69
471.558	491.69
471.777	494.69
471.997	491.69
472.216	477.69
472.435	470.69
472.654	487.69
472.873	485.69
473.092	477.69
473.311	469.69
473.53	487.69
473.749	489.69
473.968	524.69
474.187	636.69
474.406	634.69
474.625	526.69
474.844	466.69
475.063	476.69
475.282	490.69
475.501	496.69
475.72	474.69
475.939	485.69
476.158	489.69
476.377	505.69
476.596	512.69
476.814	500.69
477.033	513.69
477.252	499.69
477.471	515.69
477.69	523.69
477.908	547.69
478.127	567.69
478.346	550.69
478.564	550.69
478.783	555.69
479.002	545.69
479.22	601.69
479.439	572.69
479.658	584.69
479.876	596.69
480.095	596.69
480.313	618.69
480.532	620.69
480.751	625.69
480.969	618.69
481.188	606.69
481.406	640.69
481.624	609.69
481.843	572.69
482.061	560.69
482.28	584.69
482.498	554.69
482.717	557.69
482.935	567.69
483.153	534.69
483.372	546.69
483.59	578.69
483.808	554.69
484.027	547.69
484.245	598.69
484.463	560.69
484.681	573.69
484.9	580.69
485.118	576.69
485.336	584.69
485.554	587.69
485.772	570.69
485.99	591.69
486.209	590.69
486.427	580.69
486.645	610.69
486.863	627.69
487.081	621.69
487.299	589.69
487.517	609.69
487.735	589.69
487.953	591.69
488.171	608.69
488.389	594.69
488.607	616.69
488.825	633.69
489.043	611.69
489.261	608.69
489.479	616.69
489.696	618.69
489.914	615.69
490.132	613.69
490.35	635.69
490.568	636.69
490.786	650.69
491.003	649.69
491.221	649.69
491.439	694.69
491.657	667.69
491.874	693.69
492.092	679.69
492.31	677.69
492.527	683.69
492.745	680.69
492.963	706.69
493.18	689.69
493.398	704.69
493.615	706.69
493.833	717.69
494.05	708.69
494.268	695.69
494.485	714.69
494.703	714.69
494.92	683.69
495.138	714.69
495.355	685.69
495.573	699.69
495.79	713.69
496.008	727.69
496.225	689.69
496.442	709.69
496.66	717.69
496.877	704.69
497.094	704.69
497.312	750.69
497.529	742.69
497.746	798.69
497.963	770.69
498.181	819.69
498.398	787.69
498.615	833.69
498.832	864.69
499.049	875.69
499.267	928.69
499.484	962.69
499.701	988.69
499.918	1058.69
500.135	1140.69
500.352	1200.69
500.569	1234.69
500.786	1235.69
501.003	1201.69
501.22	1136.69
501.437	1089.69
501.654	1029.69
501.871	981.69
502.088	926.69
502.305	901.69
502.522	844.69
502.739	833.69
502.956	830.69
503.172	784.69
503.389	776.69
503.606	758.69
503.823	737.69
504.04	744.69
504.256	765.69
504.473	732.69
504.69	755.69
504.907	747.69
505.123	723.69
505.34	749.69
505.557	710.69
505.773	714.69
505.99	695.69
506.207	710.69
506.423	676.69
506.64	688.69
506.856	662.69
507.073	662.69
507.289	657.69
507.506	675.69
507.722	662.69
507.939	670.69
508.155	659.69
508.372	659.69
508.588	619.69
508.805	656.69
509.021	638.69
509.238	662.69
509.454	658.69
509.67	635.69
509.887	631.69
510.103	632.69
510.319	644.69
510.536	730.69
510.752	1154.69
510.968	970.69
511.184	651.69
511.401	632.69
511.617	601.69
511.833	616.69
512.049	595.69
512.265	601.69
512.481	589.69
512.698	617.69
512.914	589.69
513.13	609.69
513.346	584.69
513.562	615.69
513.778	582.69
513.994	580.69
514.21	619.69
514.426	644.69
514.642	692.69
514.858	702.69
515.074	742.69
515.29	877.69
515.506	1248.69
515.721	1078.69
515.937	746.69
516.153	695.69
516.369	665.69
516.585	679.69
516.801	644.69
517.016	642.69
517.232	655.69
517.448	654.69
517.664	683.69
517.879	668.69
518.095	669.69
518.311	660.69
518.527	666.69
518.742	630.69
518.958	655.69
519.173	637.69
519.389	614.69
519.605	619.69
519.82	608.69
520.036	616.69
520.251	634.69
520.467	657.69
520.682	663.69
520.898	647.69
521.113	670.69
521.329	694.69
521.544	766.69
521.76	979.69
521.975	1594.69
522.19	1628.69
522.406	893.69
522.621	684.69
522.836	640.69
523.052	616.69
523.267	592.69
523.482	570.69
523.698	580.69
523.913	538.69
524.128	568.69
524.343	558.69
524.559	540.69
524.774	529.69
524.989	532.69
525.204	555.69
525.419	524.69
525.634	521.69
525.849	512.69
526.064	507.69
526.28	502.69
526.495	505.69
526.71	489.69
526.925	496.69
527.14	500.69
527.355	505.69
527.57	520.69
527.785	485.69
527.999	490.69
528.214	525.69
528.429	482.69
528.644	496.69
528.859	482.69
529.074	508.69
529.289	513.69
529.503	587.69
529.718	566.69
529.933	556.69
530.148	512.69
530.363	509.69
530.577	477.69
530.792	489.69
531.007	508.69
531.221	498.69
531.436	489.69
531.651	465.69
531.865	482.69
532.08	488.69
532.295	495.69
532.509	482.69
532.724	472.69
532.938	485.69
533.153	476.69
533.367	473.69
533.582	493.69
533.796	483.69
534.011	488.69
534.225	462.69
534.44	469.69
534.654	470.69
534.868	471.69
535.083	481.69
535.297	483.69
535.511	489.69
535.726	493.69
535.94	495.69
536.154	464.69
536.369	478.69
536.583	449.69
536.797	472.69
537.011	443.69
537.225	458.69
537.44	454.69
537.654	463.69
537.868	468.69
538.082	483.69
538.296	470.69
538.51	445.69
538.724	465.69
538.938	458.69
539.153	473.69
539.367	465.69
539.581	476.69
539.795	455.69
540.009	467.69
540.222	454.69
540.436	451.69
540.65	445.69
540.864	437.69
541.078	462.69
541.292	459.69
541.506	458.69
541.72	469.69
541.934	455.69
542.147	454.69
542.361	440.69
542.575	434.69
542.789	465.69
543.002	447.69
543.216	469.69
543.43	471.69
543.644	454.69
543.857	447.69
544.071	448.69
544.285	469.69
544.498	432.69
544.712	434.69
544.925	453.69
545.139	447.69
545.352	444.69
545.566	455.69
545.779	453.69
545.993	457.69
546.206	454.69
546.42	456.69
546.633	461.69
546.847	460.69
547.06	452.69
547.274	443.69
547.487	453.69
547.7	443.69
547.914	427.69
548.127	443.69
548.34	439.69
548.554	427.69
548.767	439.69
548.98	444.69
549.193	445.69
549.407	466.69
549.62	439.69
549.833	440.69
550.046	441.69
550.259	426.69
550.473	430.69
550.686	436.69
550.899	435.69
551.112	431.69
551.325	439.69
551.538	426.69
551.751	432.69
551.964	445.69
552.177	429.69
552.39	440.69
552.603	443.69
552.816	443.69
553.029	442.69
553.242	472.69
553.455	452.69
553.667	475.69
553.88	491.69
554.093	479.69
554.306	444.69
554.519	439.69
554.732	470.69
554.944	434.69
555.157	444.69
555.37	407.69
555.583	415.69
555.795	422.69
556.008	396.69
556.221	398.69
556.433	397.69
556.646	389.69
556.859	401.69
557.071	397.69
557.284	388.69
557.496	386.69
557.709	389.69
557.921	417.69
558.134	380.69
558.346	388.69
558.559	390.69
558.771	395.69
558.984	393.69
559.196	401.69
559.409	401.69
559.621	381.69
559.833	387.69
560.046	379.69
560.258	390.69
560.47	385.69
560.683	384.69
560.895	410.69
561.107	385.69
561.32	377.69
561.532	378.69
561.744	378.69
561.956	378.69
562.168	397.69
562.381	384.69
562.593	380.69
562.805	394.69
563.017	388.69
563.229	399.69
563.441	381.69
563.653	400.69
563.865	402.69
564.077	386.69
564.289	377.69
564.501	390.69
564.713	392.69
564.925	408.69
565.137	403.69
565.349	436.69
565.561	430.69
565.773	439.69
565.985	436.69
566.197	453.69
566.408	483.69
566.62	493.69
566.832	515.69
567.044	518.69
567.255	524.69
567.467	563.69
567.679	544.69
567.891	544.69
568.102	562.69
568.314	565.69
568.526	528.69
568.737	485.69
568.949	480.69
569.161	469.69
569.372	427.69
569.584	422.69
569.795	441.69
570.007	420.69
570.218	438.69
570.43	460.69
570.641	398.69
570.853	385.69
571.064	393.69
571.276	381.69
571.487	391.69
571.698	370.69
571.91	384.69
572.121	360.69
572.333	364.69
572.544	342.69
572.755	348.69
572.966	324.69
573.178	312.69
573.389	332.69
573.6	345.69
573.811	342.69
574.023	369.69
574.234	346.69
574.445	348.69
574.656	342.69
574.867	340.69
575.078	359.69
575.289	337.69
575.501	334.69
575.712	323.69
575.923	309.69
576.134	335.69
576.345	326.69
576.556	338.69
576.767	329.69
576.978	323.69
577.188	337.69
577.399	324.69
577.61	325.69
577.821	330.69
578.032	296.69
578.243	368.69
578.454	556.69
578.665	416.69
578.875	332.69
579.086	316.69
579.297	315.69
579.508	324.69
579.718	298.69
579.929	291.69
580.14	314.69
580.35	317.69
580.561	300.69
580.772	300.69
580.982	312.69
581.193	294.69
581.403	282.69
581.614	298.69
581.825	284.69
582.035	309.69
582.246	290.69
582.456	308.69
582.667	310.69
582.877	307.69
583.087	296.69
583.298	280.69
583.508	302.69
583.719	299.69
583.929	301.69
584.139	298.69
584.35	303.69
584.56	312.69
584.77	286.69
584.981	280.69
585.191	302.69
585.401	289.69
585.611	297.69
585.821	288.69
586.032	296.69
586.242	297.69
586.452	282.69
586.662	287.69
586.872	288.69
587.082	293.69
587.292	304.69
587.502	282.69
587.713	297.69
587.923	287.69
588.133	270.69
588.343	278.69
588.553	283.69
588.762	292.69
588.972	270.69
589.182	278.69
589.392	291.69
589.602	293.69
589.812	294.69
590.022	307.69
590.232	288.69
590.441	304.69
590.651	298.69
590.861	303.69
591.071	298.69
591.281	300.69
591.49	300.69
591.7	309.69
591.91	301.69
592.119	303.69
592.329	300.69
592.539	306.69
592.748	306.69
592.958	313.69
593.167	341.69
593.377	326.69
593.587	328.69
593.796	320.69
594.006	325.69
594.215	336.69
594.424	334.69
594.634	316.69
594.843	337.69
595.053	320.69
595.262	316.69
595.472	288.69
595.681	310.69
595.89	273.69
596.1	292.69
596.309	278.69
596.518	298.69
596.727	284.69
596.937	293.69
597.146	286.69
597.355	276.69
597.564	282.69
597.774	274.69
597.983	249.69
598.192	273.69
598.401	255.69
598.61	273.69
598.819	264.69
599.028	256.69
599.237	267.69
599.446	262.69
599.655	274.69
599.864	264.69
600.073	256.69
600.282	247.69
600.491	253.69
600.7	243.69
600.909	268.69
601.118	234.69
601.327	250.69
601.536	235.69
601.745	269.69
601.953	245.69
602.162	235.69
602.371	235.69
602.58	238.69
602.789	253.69
602.997	258.69
603.206	250.69
603.415	250.69
603.623	246.69
603.832	258.69
604.041	258.69
604.249	235.69
604.458	240.69
604.666	246.69
604.875	236.69
605.084	224.69
605.292	233.69
605.501	234.69
605.709	250.69
605.918	236.69
606.126	254.69
606.334	247.69
606.543	246.69
606.751	248.69
606.96	262.69
607.168	236.69
607.376	234.69
607.585	236.69
607.793	259.69
608.001	221.69
608.21	220.69
608.418	218.69
608.626	216.69
608.834	241.69
609.043	235.69
609.251	245.69
609.459	217.69
609.667	223.69
609.875	245.69
610.083	241.69
610.291	237.69
610.499	213.69
610.707	217.69
610.916	217.69
611.124	236.69
611.332	242.69
611.54	260.69
611.748	245.69
611.955	220.69
612.163	226.69
612.371	218.69
612.579	230.69
612.787	229.69
612.995	238.69
613.203	236.69
613.411	228.69
613.618	235.69
613.826	220.69
614.034	220.69
614.242	220.69
614.449	221.69
614.657	224.69
614.865	225.69
615.072	225.69
615.28	259.69
615.488	235.69
615.695	204.69
615.903	231.69
616.111	207.69
616.318	228.69
616.526	214.69
616.733	216.69
616.941	234.69
617.148	222.69
617.356	240.69
617.563	241.69
617.771	212.69
617.978	220.69
618.185	221.69
618.393	232.69
618.6	206.69
618.807	240.69
619.015	204.69
619.222	222.69
619.429	224.69
619.637	225.69
619.844	233.69
620.051	230.69
620.258	213.69
620.466	219.69
620.673	201.69
620.88	220.69
621.087	208.69
621.294	222.69
621.501	216.69
621.708	232.69
621.915	218.69
622.122	213.69
622.329	211.69
622.536	224.69
622.743	230.69
622.95	224.69
623.157	220.69
623.364	210.69
623.571	211.69
623.778	217.69
623.985	203.69
624.192	208.69
624.399	208.69
624.606	198.69
624.812	210.69
625.019	200.69
625.226	210.69
625.433	205.69
625.639	212.69
625.846	202.69
626.053	214.69
626.259	211.69
626.466	198.69
626.673	202.69
626.879	205.69
627.086	211.69
627.293	203.69
627.499	204.69
627.706	213.69
627.912	196.69
628.119	195.69
628.325	217.69
628.532	202.69
628.738	217.69
628.945	202.69
629.151	184.69
629.357	195.69
629.564	186.69
629.77	196.69
629.976	197.69
630.183	195.69
630.389	192.69
630.595	196.69
630.802	176.69
631.008	182.69
631.214	197.69
631.42	187.69
631.627	187.69
631.833	193.69
632.039	192.69
632.245	176.69
632.451	183.69
632.657	170.69
632.863	179.69
633.069	200.69
633.275	190.69
633.481	180.69
633.688	179.69
633.893	179.69
634.099	194.69
634.305	187.69
634.511	176.69
634.717	173.69
634.923	168.69
635.129	178.69
635.335	174.69
635.541	174.69
635.747	176.69
635.952	180.69
636.158	177.69
636.364	178.69
636.57	181.69
636.775	178.69
636.981	167.69
637.187	192.69
637.392	200.69
637.598	180.69
637.804	180.69
638.009	178.69
638.215	168.69
638.421	172.69
638.626	167.69
638.832	173.69
639.037	164.69
639.243	165.69
639.448	169.69
639.654	176.69
639.859	174.69
640.065	164.69
640.27	182.69
640.475	161.69
640.681	174.69
640.886	162.69
641.091	165.69
641.297	167.69
641.502	161.69
641.707	182.69
641.913	169.69
642.118	173.69
642.323	158.69
642.528	184.69
642.733	169.69
642.939	173.69
643.144	154.69
643.349	150.69
643.554	162.69
643.759	158.69
643.964	150.69
644.169	164.69
644.374	157.69
644.579	167.69
644.784	168.69
644.989	161.69
645.194	181.69
645.399	157.69
645.604	160.69
645.809	173.69
646.014	168.69
646.219	153.69
646.423	146.69
646.628	161.69
646.833	168.69
647.038	164.69
647.243	144.69
647.447	154.69
647.652	165.69
647.857	164.69
648.062	170.69
648.266	159.69
648.471	166.69
648.676	149.69
648.88	178.69
649.085	168.69
649.289	166.69
649.494	163.69
649.698	178.69
649.903	184.69
650.107	178.69
650.312	177.69
650.516	158.69
650.721	156.69
650.925	149.69
651.13	153.69
651.334	148.69
651.539	146.69
651.743	134.69
651.947	157.69
652.152	153.69
652.356	140.69
652.56	144.69
652.764	151.69
652.969	156.69
653.173	130.69
653.377	124.69
653.581	140.69
653.785	124.69
653.99	155.69
654.194	146.69
654.398	124.69
654.602	134.69
654.806	142.69
655.01	132.69
655.214	142.69
655.418	122.69
655.622	129.69
655.826	139.69
656.03	137.69
656.234	141.69
656.438	133.69
656.642	139.69
656.846	126.69
657.049	145.69
657.253	128.69
657.457	132.69
657.661	107.69
657.865	123.69
658.068	115.69
658.272	129.69
658.476	125.69
658.68	106.69
658.883	109.69
659.087	98.69
659.291	96.69
659.494	100.69
659.698	87.69
659.901	94.69
660.105	108.69
660.309	101.69
660.512	85.69
660.716	102.69
660.919	102.69
661.123	91.69
661.326	83.69
661.53	81.69
661.733	79.69
661.936	90.69
662.14	73.69
662.343	81.69
662.546	93.69
662.75	89.69
662.953	86.69
663.156	90.69
663.36	78.69
663.563	70.69
663.766	84.69
663.969	86.69
664.173	84.69
664.376	87.69
664.579	87.69
664.782	86.69
664.985	88.69
665.188	86.69
665.391	92.69
665.594	85.69
665.797	89.69
666	80.69
666.203	76.69
666.406	84.69
666.609	66.69
666.812	72.69
667.015	90.69
667.218	75.69
667.421	78.69
667.624	69.69
667.827	75.69
668.03	82.69
668.232	80.69
668.435	89.69
668.638	88.69
668.841	77.69
669.043	87.69
669.246	66.69
669.449	68.69
669.651	80.69
669.854	75.69
670.057	82.69
670.259	73.69
670.462	76.69
670.665	84.69
670.867	82.69
671.07	87.69
671.272	83.69
671.475	91.69
671.677	76.69
671.88	86.69
672.082	83.69
672.284	80.69
672.487	82.69
672.689	79.69
672.892	76.69
