Data from 1985.PennyLincolnUp.Lamp.En5.5.200Scan.071819.P1_HRD10591_17-02-25-970.txt Node
Date: Thu Jul 18 17:02:25 EDT 2019
User: cochatt
Spectrometer: HR+D1059
Trigger mode: 1
Integration Time (sec): 1.000000E-1
Scans to average: 1
Electric dark correction enabled: true
Nonlinearity correction enabled: false
Boxcar width: 0
XAxis mode: Wavelengths
Number of Pixels in Spectrum: 2048
>>>>>Begin Spectral Data<<<<<
223.165	-20.12
223.4	-20.12
223.635	-20.12
223.869	-3.12
224.104	-20.12
224.338	-12.12
224.573	-9.12
224.808	-20.12
225.042	-8.12
225.277	-1.12
225.511	0.88
225.746	5.88
225.98	10.88
226.215	-0.12
226.449	9.88
226.683	20.88
226.918	26.88
227.152	18.88
227.387	28.88
227.621	26.88
227.856	36.88
228.09	55.88
228.324	41.88
228.559	42.88
228.793	65.88
229.027	79.88
229.262	105.88
229.496	99.88
229.73	114.88
229.964	146.88
230.199	121.88
230.433	115.88
230.667	98.88
230.901	103.88
231.136	113.88
231.37	102.88
231.604	115.88
231.838	97.88
232.072	136.88
232.306	109.88
232.541	94.88
232.775	120.88
233.009	111.88
233.243	107.88
233.477	111.88
233.711	116.88
233.945	103.88
234.179	123.88
234.413	116.88
234.647	121.88
234.881	109.88
235.115	109.88
235.349	130.88
235.583	127.88
235.817	116.88
236.051	132.88
236.285	121.88
236.519	129.88
236.753	133.88
236.987	145.88
237.221	171.88
237.455	214.88
237.689	168.88
237.922	141.88
238.156	117.88
238.39	130.88
238.624	126.88
238.858	120.88
239.091	122.88
239.325	135.88
239.559	132.88
239.793	126.88
240.027	129.88
240.26	140.88
240.494	151.88
240.728	152.88
240.961	156.88
241.195	136.88
241.429	126.88
241.662	132.88
241.896	130.88
242.13	144.88
242.363	135.88
242.597	133.88
242.83	128.88
243.064	139.88
243.298	135.88
243.531	136.88
243.765	134.88
243.998	133.88
244.232	131.88
244.465	125.88
244.699	137.88
244.932	152.88
245.166	131.88
245.399	148.88
245.633	156.88
245.866	128.88
246.099	135.88
246.333	165.88
246.566	136.88
246.8	150.88
247.033	151.88
247.266	147.88
247.5	177.88
247.733	176.88
247.966	167.88
248.2	171.88
248.433	179.88
248.666	181.88
248.899	166.88
249.133	173.88
249.366	194.88
249.599	179.88
249.832	158.88
250.066	171.88
250.299	175.88
250.532	160.88
250.765	193.88
250.998	212.88
251.231	203.88
251.465	204.88
251.698	196.88
251.931	199.88
252.164	199.88
252.397	195.88
252.63	200.88
252.863	183.88
253.096	215.88
253.329	220.88
253.562	215.88
253.795	212.88
254.028	197.88
254.261	205.88
254.494	231.88
254.727	243.88
254.96	251.88
255.193	258.88
255.426	232.88
255.659	209.88
255.892	201.88
256.124	221.88
256.357	199.88
256.59	205.88
256.823	207.88
257.056	191.88
257.289	191.88
257.521	195.88
257.754	213.88
257.987	191.88
258.22	206.88
258.452	201.88
258.685	206.88
258.918	201.88
259.151	208.88
259.383	211.88
259.616	199.88
259.849	228.88
260.081	226.88
260.314	253.88
260.547	253.88
260.779	231.88
261.012	243.88
261.244	224.88
261.477	225.88
261.71	225.88
261.942	225.88
262.175	220.88
262.407	204.88
262.64	216.88
262.872	211.88
263.105	212.88
263.337	210.88
263.57	219.88
263.802	218.88
264.035	213.88
264.267	227.88
264.499	214.88
264.732	230.88
264.964	213.88
265.197	217.88
265.429	224.88
265.661	219.88
265.894	214.88
266.126	227.88
266.358	219.88
266.591	239.88
266.823	235.88
267.055	245.88
267.287	229.88
267.52	232.88
267.752	228.88
267.984	217.88
268.216	239.88
268.448	243.88
268.681	225.88
268.913	256.88
269.145	261.88
269.377	290.88
269.609	266.88
269.841	269.88
270.073	264.88
270.306	293.88
270.538	314.88
270.77	313.88
271.002	318.88
271.234	263.88
271.466	300.88
271.698	299.88
271.93	324.88
272.162	328.88
272.394	326.88
272.626	296.88
272.858	279.88
273.09	275.88
273.322	272.88
273.553	278.88
273.785	255.88
274.017	279.88
274.249	271.88
274.481	259.88
274.713	274.88
274.945	293.88
275.176	282.88
275.408	267.88
275.64	257.88
275.872	275.88
276.104	287.88
276.335	268.88
276.567	290.88
276.799	295.88
277.031	310.88
277.262	313.88
277.494	312.88
277.726	312.88
277.957	301.88
278.189	277.88
278.421	287.88
278.652	264.88
278.884	283.88
279.115	273.88
279.347	283.88
279.579	288.88
279.81	266.88
280.042	269.88
280.273	269.88
280.505	272.88
280.736	289.88
280.968	287.88
281.199	282.88
281.431	280.88
281.662	288.88
281.894	292.88
282.125	296.88
282.356	313.88
282.588	327.88
282.819	320.88
283.051	283.88
283.282	288.88
283.513	287.88
283.745	291.88
283.976	289.88
284.207	304.88
284.439	305.88
284.67	303.88
284.901	287.88
285.132	300.88
285.364	302.88
285.595	305.88
285.826	303.88
286.057	315.88
286.288	313.88
286.52	292.88
286.751	289.88
286.982	306.88
287.213	303.88
287.444	321.88
287.675	307.88
287.906	303.88
288.138	324.88
288.369	327.88
288.6	320.88
288.831	328.88
289.062	323.88
289.293	313.88
289.524	319.88
289.755	300.88
289.986	319.88
290.217	319.88
290.448	306.88
290.679	310.88
290.91	315.88
291.141	311.88
291.371	314.88
291.602	309.88
291.833	320.88
292.064	306.88
292.295	318.88
292.526	322.88
292.757	315.88
292.987	313.88
293.218	318.88
293.449	323.88
293.68	326.88
293.91	331.88
294.141	314.88
294.372	310.88
294.603	340.88
294.833	347.88
295.064	323.88
295.295	309.88
295.525	337.88
295.756	330.88
295.987	324.88
296.217	357.88
296.448	340.88
296.679	339.88
296.909	332.88
297.14	309.88
297.37	346.88
297.601	332.88
297.831	333.88
298.062	339.88
298.292	337.88
298.523	339.88
298.753	336.88
298.984	327.88
299.214	327.88
299.445	322.88
299.675	339.88
299.905	349.88
300.136	351.88
300.366	345.88
300.597	334.88
300.827	352.88
301.057	339.88
301.288	365.88
301.518	355.88
301.748	343.88
301.979	377.88
302.209	367.88
302.439	357.88
302.669	360.88
302.9	361.88
303.13	357.88
303.36	349.88
303.59	366.88
303.82	369.88
304.051	388.88
304.281	360.88
304.511	353.88
304.741	368.88
304.971	370.88
305.201	369.88
305.431	361.88
305.661	343.88
305.891	351.88
306.121	327.88
306.352	364.88
306.582	366.88
306.812	370.88
307.042	368.88
307.272	355.88
307.502	364.88
307.731	372.88
307.961	369.88
308.191	355.88
308.421	343.88
308.651	377.88
308.881	377.88
309.111	371.88
309.341	377.88
309.571	394.88
309.8	401.88
310.03	391.88
310.26	410.88
310.49	409.88
310.72	409.88
310.949	420.88
311.179	430.88
311.409	395.88
311.639	397.88
311.868	404.88
312.098	403.88
312.328	406.88
312.557	430.88
312.787	450.88
313.017	417.88
313.246	408.88
313.476	397.88
313.706	412.88
313.935	413.88
314.165	435.88
314.394	415.88
314.624	421.88
314.853	422.88
315.083	411.88
315.312	401.88
315.542	408.88
315.771	409.88
316.001	395.88
316.23	403.88
316.46	402.88
316.689	412.88
316.919	411.88
317.148	411.88
317.377	418.88
317.607	414.88
317.836	408.88
318.065	400.88
318.295	422.88
318.524	419.88
318.753	411.88
318.983	405.88
319.212	403.88
319.441	408.88
319.67	429.88
319.9	420.88
320.129	414.88
320.358	415.88
320.587	404.88
320.816	405.88
321.046	418.88
321.275	413.88
321.504	403.88
321.733	419.88
321.962	401.88
322.191	428.88
322.42	453.88
322.649	441.88
322.878	458.88
323.108	448.88
323.337	482.88
323.566	507.88
323.795	546.88
324.024	545.88
324.253	685.88
324.482	929.88
324.71	1372.88
324.939	1949.88
325.168	1665.88
325.397	894.88
325.626	641.88
325.855	545.88
326.084	494.88
326.313	511.88
326.542	538.88
326.77	559.88
326.999	633.88
327.228	836.88
327.457	1255.88
327.686	1471.88
327.914	1000.88
328.143	669.88
328.372	588.88
328.6	577.88
328.829	555.88
329.058	567.88
329.287	585.88
329.515	566.88
329.744	505.88
329.972	506.88
330.201	505.88
330.43	521.88
330.658	589.88
330.887	610.88
331.115	589.88
331.344	547.88
331.572	518.88
331.801	494.88
332.03	520.88
332.258	507.88
332.486	497.88
332.715	476.88
332.943	506.88
333.172	505.88
333.4	496.88
333.629	513.88
333.857	533.88
334.085	537.88
334.314	514.88
334.542	512.88
334.771	521.88
334.999	519.88
335.227	522.88
335.455	509.88
335.684	497.88
335.912	495.88
336.14	480.88
336.369	486.88
336.597	491.88
336.825	499.88
337.053	487.88
337.281	457.88
337.51	464.88
337.738	467.88
337.966	469.88
338.194	486.88
338.422	465.88
338.65	428.88
338.878	472.88
339.106	464.88
339.334	473.88
339.562	456.88
339.79	461.88
340.018	469.88
340.246	441.88
340.474	471.88
340.702	475.88
340.93	451.88
341.158	480.88
341.386	449.88
341.614	448.88
341.842	461.88
342.07	457.88
342.298	459.88
342.526	451.88
342.754	457.88
342.981	455.88
343.209	454.88
343.437	459.88
343.665	479.88
343.893	485.88
344.12	507.88
344.348	499.88
344.576	481.88
344.804	461.88
345.031	474.88
345.259	482.88
345.487	469.88
345.714	465.88
345.942	428.88
346.17	444.88
346.397	451.88
346.625	456.88
346.853	459.88
347.08	448.88
347.308	424.88
347.535	443.88
347.763	442.88
347.99	465.88
348.218	465.88
348.445	480.88
348.673	456.88
348.9	459.88
349.128	428.88
349.355	422.88
349.583	419.88
349.81	440.88
350.037	423.88
350.265	435.88
350.492	421.88
350.72	401.88
350.947	429.88
351.174	448.88
351.402	465.88
351.629	426.88
351.856	420.88
352.083	433.88
352.311	441.88
352.538	448.88
352.765	455.88
352.992	445.88
353.22	434.88
353.447	434.88
353.674	408.88
353.901	409.88
354.128	409.88
354.355	404.88
354.583	416.88
354.81	417.88
355.037	421.88
355.264	403.88
355.491	419.88
355.718	419.88
355.945	415.88
356.172	391.88
356.399	392.88
356.626	415.88
356.853	401.88
357.08	407.88
357.307	402.88
357.534	406.88
357.761	418.88
357.988	408.88
358.215	403.88
358.441	407.88
358.668	400.88
358.895	413.88
359.122	421.88
359.349	415.88
359.576	424.88
359.802	435.88
360.029	459.88
360.256	481.88
360.483	463.88
360.709	426.88
360.936	422.88
361.163	429.88
361.39	425.88
361.616	422.88
361.843	443.88
362.07	447.88
362.296	431.88
362.523	448.88
362.749	444.88
362.976	423.88
363.203	409.88
363.429	396.88
363.656	407.88
363.882	427.88
364.109	404.88
364.335	401.88
364.562	425.88
364.788	406.88
365.015	403.88
365.241	418.88
365.468	436.88
365.694	410.88
365.92	412.88
366.147	426.88
366.373	429.88
366.599	413.88
366.826	433.88
367.052	423.88
367.278	406.88
367.505	420.88
367.731	414.88
367.957	398.88
368.184	442.88
368.41	413.88
368.636	423.88
368.862	428.88
369.089	424.88
369.315	428.88
369.541	422.88
369.767	411.88
369.993	408.88
370.219	408.88
370.445	400.88
370.672	416.88
370.898	421.88
371.124	401.88
371.35	401.88
371.576	424.88
371.802	401.88
372.028	399.88
372.254	417.88
372.48	405.88
372.706	449.88
372.932	426.88
373.158	435.88
373.384	435.88
373.61	429.88
373.835	433.88
374.061	429.88
374.287	431.88
374.513	429.88
374.739	426.88
374.965	426.88
375.191	416.88
375.416	444.88
375.642	437.88
375.868	413.88
376.094	390.88
376.319	415.88
376.545	417.88
376.771	420.88
376.997	417.88
377.222	411.88
377.448	426.88
377.674	408.88
377.899	386.88
378.125	412.88
378.35	409.88
378.576	397.88
378.802	395.88
379.027	404.88
379.253	407.88
379.478	402.88
379.704	405.88
379.929	412.88
380.155	435.88
380.38	409.88
380.606	389.88
380.831	409.88
381.057	409.88
381.282	406.88
381.507	411.88
381.733	415.88
381.958	409.88
382.184	408.88
382.409	447.88
382.634	436.88
382.86	418.88
383.085	434.88
383.31	432.88
383.535	419.88
383.761	431.88
383.986	431.88
384.211	425.88
384.436	443.88
384.662	455.88
384.887	447.88
385.112	444.88
385.337	462.88
385.562	452.88
385.787	448.88
386.013	468.88
386.238	477.88
386.463	465.88
386.688	460.88
386.913	471.88
387.138	460.88
387.363	468.88
387.588	464.88
387.813	457.88
388.038	445.88
388.263	459.88
388.488	471.88
388.713	473.88
388.938	471.88
389.163	458.88
389.387	432.88
389.612	470.88
389.837	434.88
390.062	467.88
390.287	455.88
390.512	456.88
390.736	460.88
390.961	467.88
391.186	460.88
391.411	470.88
391.636	474.88
391.86	475.88
392.085	468.88
392.31	475.88
392.534	494.88
392.759	503.88
392.984	490.88
393.208	467.88
393.433	490.88
393.658	472.88
393.882	468.88
394.107	476.88
394.331	467.88
394.556	465.88
394.78	474.88
395.005	474.88
395.229	460.88
395.454	491.88
395.678	487.88
395.903	490.88
396.127	519.88
396.352	509.88
396.576	475.88
396.801	459.88
397.025	474.88
397.249	479.88
397.474	498.88
397.698	490.88
397.922	511.88
398.147	501.88
398.371	534.88
398.595	518.88
398.82	536.88
399.044	559.88
399.268	572.88
399.492	623.88
399.717	638.88
399.941	679.88
400.165	705.88
400.389	674.88
400.613	601.88
400.837	575.88
401.062	539.88
401.286	536.88
401.51	533.88
401.734	534.88
401.958	541.88
402.182	557.88
402.406	566.88
402.63	556.88
402.854	547.88
403.078	539.88
403.302	546.88
403.526	563.88
403.75	584.88
403.974	549.88
404.198	567.88
404.422	589.88
404.645	602.88
404.869	556.88
405.093	587.88
405.317	612.88
405.541	627.88
405.765	605.88
405.988	586.88
406.212	590.88
406.436	629.88
406.66	608.88
406.883	633.88
407.107	654.88
407.331	684.88
407.555	761.88
407.778	745.88
408.002	663.88
408.226	619.88
408.449	597.88
408.673	596.88
408.896	606.88
409.12	632.88
409.344	634.88
409.567	571.88
409.791	567.88
410.014	571.88
410.238	561.88
410.461	550.88
410.685	563.88
410.908	562.88
411.132	603.88
411.355	629.88
411.578	611.88
411.802	559.88
412.025	552.88
412.249	552.88
412.472	548.88
412.695	563.88
412.919	550.88
413.142	544.88
413.365	517.88
413.589	501.88
413.812	525.88
414.035	521.88
414.258	536.88
414.482	538.88
414.705	529.88
414.928	514.88
415.151	502.88
415.374	507.88
415.597	526.88
415.821	498.88
416.044	505.88
416.267	510.88
416.49	520.88
416.713	532.88
416.936	532.88
417.159	549.88
417.382	522.88
417.605	529.88
417.828	533.88
418.051	538.88
418.274	542.88
418.497	520.88
418.72	523.88
418.943	521.88
419.166	540.88
419.389	568.88
419.611	579.88
419.834	532.88
420.057	548.88
420.28	559.88
420.503	536.88
420.726	522.88
420.948	528.88
421.171	597.88
421.394	591.88
421.617	554.88
421.839	551.88
422.062	533.88
422.285	541.88
422.507	598.88
422.73	659.88
422.953	659.88
423.175	594.88
423.398	559.88
423.621	559.88
423.843	567.88
424.066	603.88
424.288	591.88
424.511	603.88
424.733	634.88
424.956	712.88
425.178	677.88
425.401	668.88
425.623	711.88
425.846	592.88
426.068	567.88
426.291	568.88
426.513	545.88
426.735	584.88
426.958	604.88
427.18	689.88
427.402	797.88
427.625	874.88
427.847	761.88
428.069	645.88
428.292	565.88
428.514	533.88
428.736	517.88
428.958	541.88
429.181	523.88
429.403	509.88
429.625	491.88
429.847	522.88
430.069	593.88
430.292	593.88
430.514	516.88
430.736	507.88
430.958	537.88
431.18	482.88
431.402	475.88
431.624	505.88
431.846	472.88
432.068	488.88
432.29	487.88
432.512	492.88
432.734	479.88
432.956	469.88
433.178	508.88
433.4	508.88
433.622	497.88
433.844	479.88
434.066	492.88
434.287	517.88
434.509	515.88
434.731	497.88
434.953	536.88
435.175	552.88
435.397	562.88
435.618	569.88
435.84	603.88
436.062	680.88
436.284	729.88
436.505	616.88
436.727	567.88
436.949	536.88
437.17	507.88
437.392	522.88
437.614	528.88
437.835	543.88
438.057	604.88
438.278	742.88
438.5	727.88
438.721	769.88
438.943	760.88
439.165	591.88
439.386	570.88
439.608	559.88
439.829	556.88
440.05	566.88
440.272	603.88
440.493	565.88
440.715	520.88
440.936	545.88
441.158	546.88
441.379	550.88
441.6	556.88
441.822	544.88
442.043	602.88
442.264	671.88
442.486	730.88
442.707	619.88
442.928	595.88
443.149	583.88
443.371	607.88
443.592	647.88
443.813	725.88
444.034	778.88
444.255	652.88
444.476	604.88
444.698	603.88
444.919	597.88
445.14	729.88
445.361	610.88
445.582	603.88
445.803	650.88
446.024	730.88
446.245	756.88
446.466	684.88
446.687	599.88
446.908	545.88
447.129	546.88
447.35	533.88
447.571	513.88
447.792	499.88
448.013	517.88
448.234	515.88
448.455	561.88
448.675	688.88
448.896	774.88
449.117	663.88
449.338	624.88
449.559	708.88
449.779	823.88
450	661.88
450.221	561.88
450.442	509.88
450.662	482.88
450.883	519.88
451.104	503.88
451.324	480.88
451.545	479.88
451.766	492.88
451.986	472.88
452.207	469.88
452.428	461.88
452.648	464.88
452.869	459.88
453.089	454.88
453.31	470.88
453.53	466.88
453.751	457.88
453.971	455.88
454.192	475.88
454.412	469.88
454.633	447.88
454.853	449.88
455.073	446.88
455.294	482.88
455.514	535.88
455.734	525.88
455.955	435.88
456.175	435.88
456.395	413.88
456.616	428.88
456.836	416.88
457.056	421.88
457.276	401.88
457.497	438.88
457.717	439.88
457.937	439.88
458.157	427.88
458.377	435.88
458.598	473.88
458.818	519.88
459.038	600.88
459.258	595.88
459.478	545.88
459.698	516.88
459.918	505.88
460.138	511.88
460.358	525.88
460.578	537.88
460.798	511.88
461.018	536.88
461.238	527.88
461.458	515.88
461.678	519.88
461.898	540.88
462.118	525.88
462.338	536.88
462.558	551.88
462.777	560.88
462.997	583.88
463.217	600.88
463.437	626.88
463.657	595.88
463.876	583.88
464.096	584.88
464.316	538.88
464.536	582.88
464.755	583.88
464.975	581.88
465.195	585.88
465.414	633.88
465.634	578.88
465.854	519.88
466.073	494.88
466.293	503.88
466.512	488.88
466.732	483.88
466.951	473.88
467.171	454.88
467.391	484.88
467.61	485.88
467.829	501.88
468.049	497.88
468.268	457.88
468.488	478.88
468.707	439.88
468.927	461.88
469.146	457.88
469.365	454.88
469.585	469.88
469.804	475.88
470.023	478.88
470.243	484.88
470.462	496.88
470.681	511.88
470.901	499.88
471.12	474.88
471.339	461.88
471.558	481.88
471.777	470.88
471.997	460.88
472.216	474.88
472.435	474.88
472.654	463.88
472.873	454.88
473.092	448.88
473.311	472.88
473.53	447.88
473.749	468.88
473.968	516.88
474.187	609.88
474.406	616.88
474.625	500.88
474.844	483.88
475.063	469.88
475.282	443.88
475.501	491.88
475.72	502.88
475.939	467.88
476.158	477.88
476.377	491.88
476.596	491.88
476.814	483.88
477.033	510.88
477.252	497.88
477.471	490.88
477.69	498.88
477.908	513.88
478.127	523.88
478.346	522.88
478.564	539.88
478.783	555.88
479.002	571.88
479.22	564.88
479.439	584.88
479.658	569.88
479.876	595.88
480.095	604.88
480.313	601.88
480.532	623.88
480.751	610.88
480.969	571.88
481.188	585.88
481.406	597.88
481.624	569.88
481.843	562.88
482.061	540.88
482.28	550.88
482.498	552.88
482.717	548.88
482.935	520.88
483.153	555.88
483.372	555.88
483.59	565.88
483.808	542.88
484.027	525.88
484.245	549.88
484.463	569.88
484.681	567.88
484.9	538.88
485.118	560.88
485.336	553.88
485.554	562.88
485.772	577.88
485.99	552.88
486.209	576.88
486.427	586.88
486.645	579.88
486.863	609.88
487.081	589.88
487.299	601.88
487.517	561.88
487.735	569.88
487.953	593.88
488.171	572.88
488.389	589.88
488.607	587.88
488.825	580.88
489.043	593.88
489.261	604.88
489.479	596.88
489.696	576.88
489.914	591.88
490.132	629.88
490.35	627.88
490.568	605.88
490.786	631.88
491.003	627.88
491.221	636.88
491.439	631.88
491.657	669.88
491.874	659.88
492.092	665.88
492.31	649.88
492.527	682.88
492.745	665.88
492.963	677.88
493.18	693.88
493.398	680.88
493.615	671.88
493.833	687.88
494.05	675.88
494.268	680.88
494.485	666.88
494.703	689.88
494.92	680.88
495.138	682.88
495.355	712.88
495.573	684.88
495.79	679.88
496.008	692.88
496.225	701.88
496.442	684.88
496.66	699.88
496.877	711.88
497.094	694.88
497.312	721.88
497.529	733.88
497.746	735.88
497.963	744.88
498.181	782.88
498.398	800.88
498.615	825.88
498.832	843.88
499.049	857.88
499.267	845.88
499.484	949.88
499.701	977.88
499.918	1019.88
500.135	1105.88
500.352	1145.88
500.569	1201.88
500.786	1194.88
501.003	1155.88
501.22	1123.88
501.437	1052.88
501.654	997.88
501.871	962.88
502.088	913.88
502.305	868.88
502.522	838.88
502.739	815.88
502.956	797.88
503.172	745.88
503.389	776.88
503.606	757.88
503.823	751.88
504.04	746.88
504.256	737.88
504.473	752.88
504.69	725.88
504.907	751.88
505.123	691.88
505.34	706.88
505.557	680.88
505.773	664.88
505.99	651.88
506.207	643.88
506.423	667.88
506.64	662.88
506.856	639.88
507.073	655.88
507.289	644.88
507.506	639.88
507.722	645.88
507.939	662.88
508.155	643.88
508.372	629.88
508.588	623.88
508.805	628.88
509.021	607.88
509.238	622.88
509.454	630.88
509.67	649.88
509.887	617.88
510.103	604.88
510.319	616.88
510.536	718.88
510.752	1110.88
510.968	950.88
511.184	628.88
511.401	603.88
511.617	597.88
511.833	589.88
512.049	592.88
512.265	572.88
512.481	580.88
512.698	579.88
512.914	595.88
513.13	567.88
513.346	547.88
513.562	565.88
513.778	580.88
513.994	591.88
514.21	592.88
514.426	604.88
514.642	654.88
514.858	659.88
515.074	700.88
515.29	800.88
515.506	1212.88
515.721	1057.88
515.937	701.88
516.153	664.88
516.369	632.88
516.585	633.88
516.801	640.88
517.016	628.88
517.232	649.88
517.448	662.88
517.664	661.88
517.879	657.88
518.095	649.88
518.311	654.88
518.527	658.88
518.742	636.88
518.958	623.88
519.173	599.88
519.389	597.88
519.605	589.88
519.82	590.88
520.036	590.88
520.251	630.88
520.467	653.88
520.682	615.88
520.898	613.88
521.113	623.88
521.329	676.88
521.544	761.88
521.76	925.88
521.975	1553.88
522.19	1589.88
522.406	862.88
522.621	655.88
522.836	586.88
523.052	575.88
523.267	564.88
523.482	536.88
523.698	544.88
523.913	545.88
524.128	532.88
524.343	538.88
524.559	522.88
524.774	524.88
524.989	501.88
525.204	517.88
525.419	521.88
525.634	500.88
525.849	499.88
526.064	515.88
526.28	479.88
526.495	487.88
526.71	483.88
526.925	487.88
527.14	481.88
527.355	494.88
527.57	461.88
527.785	479.88
527.999	492.88
528.214	491.88
528.429	491.88
528.644	492.88
528.859	472.88
529.074	498.88
529.289	513.88
529.503	602.88
529.718	568.88
529.933	518.88
530.148	503.88
530.363	496.88
530.577	471.88
530.792	490.88
531.007	492.88
531.221	484.88
531.436	485.88
531.651	477.88
531.865	474.88
532.08	475.88
532.295	473.88
532.509	438.88
532.724	470.88
532.938	461.88
533.153	461.88
533.367	465.88
533.582	456.88
533.796	463.88
534.011	456.88
534.225	469.88
534.44	457.88
534.654	467.88
534.868	467.88
535.083	448.88
535.297	439.88
535.511	471.88
535.726	460.88
535.94	476.88
536.154	477.88
536.369	453.88
536.583	454.88
536.797	451.88
537.011	452.88
537.225	435.88
537.44	442.88
537.654	432.88
537.868	439.88
538.082	460.88
538.296	468.88
538.51	449.88
538.724	440.88
538.938	439.88
539.153	458.88
539.367	469.88
539.581	451.88
539.795	449.88
540.009	458.88
540.222	450.88
540.436	435.88
540.65	454.88
540.864	464.88
541.078	456.88
541.292	448.88
541.506	443.88
541.72	439.88
541.934	442.88
542.147	436.88
542.361	447.88
542.575	442.88
542.789	449.88
543.002	434.88
543.216	435.88
543.43	425.88
543.644	461.88
543.857	461.88
544.071	443.88
544.285	437.88
544.498	443.88
544.712	444.88
544.925	438.88
545.139	455.88
545.352	435.88
545.566	449.88
545.779	455.88
545.993	424.88
546.206	451.88
546.42	449.88
546.633	444.88
546.847	429.88
547.06	449.88
547.274	417.88
547.487	449.88
547.7	429.88
547.914	427.88
548.127	443.88
548.34	431.88
548.554	418.88
548.767	428.88
548.98	411.88
549.193	427.88
549.407	437.88
549.62	432.88
549.833	444.88
550.046	414.88
550.259	436.88
550.473	423.88
550.686	438.88
550.899	412.88
551.112	419.88
551.325	426.88
551.538	402.88
551.751	418.88
551.964	410.88
552.177	416.88
552.39	411.88
552.603	440.88
552.816	435.88
553.029	441.88
553.242	439.88
553.455	438.88
553.667	474.88
553.88	472.88
554.093	427.88
554.306	445.88
554.519	428.88
554.732	417.88
554.944	424.88
555.157	432.88
555.37	415.88
555.583	414.88
555.795	405.88
556.008	395.88
556.221	391.88
556.433	379.88
556.646	380.88
556.859	376.88
557.071	362.88
557.284	393.88
557.496	393.88
557.709	372.88
557.921	387.88
558.134	373.88
558.346	385.88
558.559	372.88
558.771	365.88
558.984	387.88
559.196	368.88
559.409	359.88
559.621	376.88
559.833	379.88
560.046	356.88
560.258	370.88
560.47	374.88
560.683	363.88
560.895	363.88
561.107	368.88
561.32	359.88
561.532	381.88
561.744	345.88
561.956	369.88
562.168	369.88
562.381	351.88
562.593	358.88
562.805	380.88
563.017	364.88
563.229	383.88
563.441	371.88
563.653	381.88
563.865	384.88
564.077	379.88
564.289	403.88
564.501	407.88
564.713	401.88
564.925	389.88
565.137	389.88
565.349	424.88
565.561	426.88
565.773	419.88
565.985	429.88
566.197	440.88
566.408	471.88
566.62	497.88
566.832	513.88
567.044	487.88
567.255	513.88
567.467	515.88
567.679	531.88
567.891	536.88
568.102	518.88
568.314	547.88
568.526	513.88
568.737	489.88
568.949	464.88
569.161	447.88
569.372	423.88
569.584	412.88
569.795	408.88
570.007	391.88
570.218	441.88
570.43	410.88
570.641	403.88
570.853	388.88
571.064	404.88
571.276	391.88
571.487	364.88
571.698	370.88
571.91	359.88
572.121	361.88
572.333	347.88
572.544	344.88
572.755	337.88
572.966	333.88
573.178	326.88
573.389	340.88
573.6	336.88
573.811	321.88
574.023	344.88
574.234	338.88
574.445	303.88
574.656	306.88
574.867	321.88
575.078	324.88
575.289	316.88
575.501	326.88
575.712	347.88
575.923	299.88
576.134	313.88
576.345	313.88
576.556	316.88
576.767	316.88
576.978	322.88
577.188	322.88
577.399	306.88
577.61	317.88
577.821	315.88
578.032	299.88
578.243	354.88
578.454	543.88
578.665	411.88
578.875	329.88
579.086	305.88
579.297	299.88
579.508	294.88
579.718	296.88
579.929	301.88
580.14	293.88
580.35	292.88
580.561	295.88
580.772	276.88
580.982	301.88
581.193	307.88
581.403	293.88
581.614	299.88
581.825	293.88
582.035	283.88
582.246	296.88
582.456	296.88
582.667	284.88
582.877	288.88
583.087	281.88
583.298	283.88
583.508	267.88
583.719	281.88
583.929	304.88
584.139	269.88
584.35	287.88
584.56	303.88
584.77	289.88
584.981	276.88
585.191	275.88
585.401	290.88
585.611	266.88
585.821	285.88
586.032	284.88
586.242	288.88
586.452	275.88
586.662	265.88
586.872	285.88
587.082	288.88
587.292	261.88
587.502	283.88
587.713	281.88
587.923	279.88
588.133	276.88
588.343	298.88
588.553	286.88
588.762	292.88
588.972	283.88
589.182	289.88
589.392	287.88
589.602	277.88
589.812	288.88
590.022	298.88
590.232	284.88
590.441	269.88
590.651	323.88
590.861	284.88
591.071	291.88
591.281	304.88
591.49	296.88
591.7	286.88
591.91	303.88
592.119	307.88
592.329	301.88
592.539	316.88
592.748	323.88
592.958	313.88
593.167	308.88
593.377	311.88
593.587	319.88
593.796	323.88
594.006	310.88
594.215	328.88
594.424	340.88
594.634	324.88
594.843	326.88
595.053	283.88
595.262	299.88
595.472	276.88
595.681	284.88
595.89	288.88
596.1	294.88
596.309	273.88
596.518	273.88
596.727	293.88
596.937	283.88
597.146	262.88
597.355	273.88
597.564	284.88
597.774	261.88
597.983	263.88
598.192	259.88
598.401	257.88
598.61	242.88
598.819	246.88
599.028	260.88
599.237	249.88
599.446	251.88
599.655	241.88
599.864	259.88
600.073	239.88
600.282	251.88
600.491	248.88
600.7	262.88
600.909	268.88
601.118	234.88
601.327	239.88
601.536	235.88
601.745	224.88
601.953	229.88
602.162	236.88
602.371	233.88
602.58	243.88
602.789	246.88
602.997	232.88
603.206	241.88
603.415	245.88
603.623	250.88
603.832	228.88
604.041	235.88
604.249	223.88
604.458	236.88
604.666	231.88
604.875	239.88
605.084	241.88
605.292	242.88
605.501	240.88
605.709	229.88
605.918	226.88
606.126	236.88
606.334	217.88
606.543	227.88
606.751	211.88
606.96	220.88
607.168	251.88
607.376	239.88
607.585	221.88
607.793	217.88
608.001	223.88
608.21	215.88
608.418	228.88
608.626	237.88
608.834	220.88
609.043	217.88
609.251	219.88
609.459	213.88
609.667	214.88
609.875	221.88
610.083	228.88
610.291	229.88
610.499	228.88
610.707	215.88
610.916	209.88
611.124	239.88
611.332	234.88
611.54	233.88
611.748	227.88
611.955	236.88
612.163	216.88
612.371	224.88
612.579	240.88
612.787	232.88
612.995	218.88
613.203	207.88
613.411	211.88
613.618	226.88
613.826	223.88
614.034	228.88
614.242	220.88
614.449	208.88
614.657	224.88
614.865	220.88
615.072	216.88
615.28	218.88
615.488	222.88
615.695	203.88
615.903	209.88
616.111	213.88
616.318	233.88
616.526	213.88
616.733	225.88
616.941	246.88
617.148	211.88
617.356	232.88
617.563	221.88
617.771	228.88
617.978	218.88
618.185	222.88
618.393	215.88
618.6	219.88
618.807	212.88
619.015	215.88
619.222	218.88
619.429	223.88
619.637	219.88
619.844	206.88
620.051	217.88
620.258	193.88
620.466	206.88
620.673	206.88
620.88	227.88
621.087	218.88
621.294	211.88
621.501	212.88
621.708	212.88
621.915	237.88
622.122	214.88
622.329	197.88
622.536	219.88
622.743	196.88
622.95	214.88
623.157	209.88
623.364	204.88
623.571	211.88
623.778	212.88
623.985	201.88
624.192	205.88
624.399	209.88
624.606	225.88
624.812	213.88
625.019	207.88
625.226	210.88
625.433	204.88
625.639	190.88
625.846	187.88
626.053	197.88
626.259	205.88
626.466	197.88
626.673	183.88
626.879	180.88
627.086	206.88
627.293	199.88
627.499	196.88
627.706	201.88
627.912	191.88
628.119	195.88
628.325	189.88
628.532	192.88
628.738	181.88
628.945	191.88
629.151	186.88
629.357	196.88
629.564	183.88
629.77	189.88
629.976	193.88
630.183	201.88
630.389	169.88
630.595	202.88
630.802	177.88
631.008	174.88
631.214	183.88
631.42	197.88
631.627	185.88
631.833	191.88
632.039	193.88
632.245	171.88
632.451	187.88
632.657	172.88
632.863	183.88
633.069	189.88
633.275	182.88
633.481	180.88
633.688	164.88
633.893	193.88
634.099	180.88
634.305	181.88
634.511	166.88
634.717	183.88
634.923	171.88
635.129	167.88
635.335	182.88
635.541	177.88
635.747	165.88
635.952	159.88
636.158	172.88
636.364	172.88
636.57	161.88
636.775	160.88
636.981	187.88
637.187	188.88
637.392	158.88
637.598	169.88
637.804	175.88
638.009	169.88
638.215	148.88
638.421	168.88
638.626	168.88
638.832	167.88
639.037	164.88
639.243	163.88
639.448	158.88
639.654	170.88
639.859	164.88
640.065	163.88
640.27	153.88
640.475	151.88
640.681	177.88
640.886	168.88
641.091	178.88
641.297	188.88
641.502	159.88
641.707	165.88
641.913	172.88
642.118	151.88
642.323	157.88
642.528	178.88
642.733	159.88
642.939	164.88
643.144	153.88
643.349	159.88
643.554	153.88
643.759	167.88
643.964	160.88
644.169	161.88
644.374	163.88
644.579	163.88
644.784	160.88
644.989	177.88
645.194	149.88
645.399	157.88
645.604	168.88
645.809	160.88
646.014	159.88
646.219	163.88
646.423	156.88
646.628	155.88
646.833	173.88
647.038	166.88
647.243	161.88
647.447	153.88
647.652	161.88
647.857	150.88
648.062	168.88
648.266	162.88
648.471	174.88
648.676	153.88
648.88	152.88
649.085	159.88
649.289	168.88
649.494	164.88
649.698	179.88
649.903	171.88
650.107	157.88
650.312	159.88
650.516	144.88
650.721	152.88
650.925	151.88
651.13	143.88
651.334	159.88
651.539	152.88
651.743	156.88
651.947	144.88
652.152	141.88
652.356	139.88
652.56	146.88
652.764	137.88
652.969	131.88
653.173	140.88
653.377	147.88
653.581	145.88
653.785	135.88
653.99	124.88
654.194	129.88
654.398	132.88
654.602	127.88
654.806	123.88
655.01	139.88
655.214	142.88
655.418	141.88
655.622	149.88
655.826	135.88
656.03	133.88
656.234	136.88
656.438	143.88
656.642	147.88
656.846	143.88
657.049	134.88
657.253	122.88
657.457	146.88
657.661	127.88
657.865	111.88
658.068	119.88
658.272	100.88
658.476	124.88
658.68	105.88
658.883	101.88
659.087	101.88
659.291	110.88
659.494	119.88
659.698	106.88
659.901	89.88
660.105	97.88
660.309	92.88
660.512	93.88
660.716	97.88
660.919	91.88
661.123	77.88
661.326	97.88
661.53	95.88
661.733	90.88
661.936	74.88
662.14	80.88
662.343	95.88
662.546	99.88
662.75	73.88
662.953	82.88
663.156	86.88
663.36	92.88
663.563	84.88
663.766	71.88
663.969	69.88
664.173	75.88
664.376	64.88
664.579	68.88
664.782	77.88
664.985	78.88
665.188	77.88
665.391	86.88
665.594	77.88
665.797	83.88
666	75.88
666.203	75.88
666.406	80.88
666.609	74.88
666.812	86.88
667.015	91.88
667.218	90.88
667.421	80.88
667.624	81.88
667.827	100.88
668.03	94.88
668.232	81.88
668.435	67.88
668.638	81.88
668.841	84.88
669.043	83.88
669.246	91.88
669.449	78.88
669.651	88.88
669.854	82.88
670.057	88.88
670.259	84.88
670.462	81.88
670.665	84.88
670.867	90.88
671.07	84.88
671.272	87.88
671.475	90.88
671.677	75.88
671.88	77.88
672.082	84.88
672.284	82.88
672.487	77.88
672.689	77.88
672.892	78.88
