Data from 1985.PennyLincolnUp.Lamp.En5.5.200Scan.071819.P1_HRD10591_17-02-09-970.txt Node
Date: Thu Jul 18 17:02:09 EDT 2019
User: cochatt
Spectrometer: HR+D1059
Trigger mode: 1
Integration Time (sec): 1.000000E-1
Scans to average: 1
Electric dark correction enabled: true
Nonlinearity correction enabled: false
Boxcar width: 0
XAxis mode: Wavelengths
Number of Pixels in Spectrum: 2048
>>>>>Begin Spectral Data<<<<<
223.165	-13.62
223.4	-13.62
223.635	-13.62
223.869	-6.62
224.104	-17.62
224.338	-19.62
224.573	-24.62
224.808	-20.62
225.042	-18.62
225.277	-6.62
225.511	8.38
225.746	7.38
225.98	6.38
226.215	19.38
226.449	8.38
226.683	23.38
226.918	27.38
227.152	27.38
227.387	36.38
227.621	45.38
227.856	60.38
228.09	59.38
228.324	69.38
228.559	66.38
228.793	85.38
229.027	104.38
229.262	105.38
229.496	108.38
229.73	130.38
229.964	153.38
230.199	107.38
230.433	125.38
230.667	111.38
230.901	125.38
231.136	116.38
231.37	118.38
231.604	122.38
231.838	122.38
232.072	118.38
232.306	117.38
232.541	119.38
232.775	133.38
233.009	125.38
233.243	122.38
233.477	116.38
233.711	116.38
233.945	113.38
234.179	131.38
234.413	133.38
234.647	120.38
234.881	119.38
235.115	123.38
235.349	109.38
235.583	131.38
235.817	115.38
236.051	129.38
236.285	135.38
236.519	139.38
236.753	122.38
236.987	157.38
237.221	179.38
237.455	201.38
237.689	180.38
237.922	146.38
238.156	145.38
238.39	149.38
238.624	137.38
238.858	140.38
239.091	128.38
239.325	128.38
239.559	133.38
239.793	133.38
240.027	135.38
240.26	145.38
240.494	167.38
240.728	164.38
240.961	159.38
241.195	151.38
241.429	132.38
241.662	139.38
241.896	143.38
242.13	149.38
242.363	143.38
242.597	133.38
242.83	128.38
243.064	134.38
243.298	153.38
243.531	147.38
243.765	153.38
243.998	162.38
244.232	157.38
244.465	133.38
244.699	145.38
244.932	156.38
245.166	151.38
245.399	150.38
245.633	137.38
245.866	150.38
246.099	141.38
246.333	162.38
246.566	155.38
246.8	147.38
247.033	167.38
247.266	165.38
247.5	183.38
247.733	164.38
247.966	170.38
248.2	163.38
248.433	175.38
248.666	191.38
248.899	205.38
249.133	195.38
249.366	204.38
249.599	201.38
249.832	193.38
250.066	183.38
250.299	188.38
250.532	199.38
250.765	206.38
250.998	220.38
251.231	228.38
251.465	208.38
251.698	210.38
251.931	198.38
252.164	194.38
252.397	180.38
252.63	193.38
252.863	207.38
253.096	210.38
253.329	231.38
253.562	238.38
253.795	224.38
254.028	222.38
254.261	223.38
254.494	211.38
254.727	262.38
254.96	271.38
255.193	272.38
255.426	232.38
255.659	237.38
255.892	235.38
256.124	204.38
256.357	215.38
256.59	212.38
256.823	214.38
257.056	201.38
257.289	199.38
257.521	215.38
257.754	204.38
257.987	209.38
258.22	223.38
258.452	224.38
258.685	210.38
258.918	210.38
259.151	221.38
259.383	223.38
259.616	218.38
259.849	247.38
260.081	239.38
260.314	267.38
260.547	265.38
260.779	244.38
261.012	252.38
261.244	241.38
261.477	219.38
261.71	235.38
261.942	229.38
262.175	251.38
262.407	241.38
262.64	227.38
262.872	236.38
263.105	201.38
263.337	220.38
263.57	216.38
263.802	232.38
264.035	230.38
264.267	219.38
264.499	217.38
264.732	234.38
264.964	233.38
265.197	226.38
265.429	230.38
265.661	233.38
265.894	236.38
266.126	221.38
266.358	234.38
266.591	234.38
266.823	219.38
267.055	248.38
267.287	250.38
267.52	251.38
267.752	250.38
267.984	211.38
268.216	242.38
268.448	240.38
268.681	237.38
268.913	269.38
269.145	269.38
269.377	291.38
269.609	292.38
269.841	276.38
270.073	277.38
270.306	309.38
270.538	311.38
270.77	307.38
271.002	312.38
271.234	329.38
271.466	322.38
271.698	329.38
271.93	311.38
272.162	343.38
272.394	330.38
272.626	323.38
272.858	307.38
273.09	298.38
273.322	293.38
273.553	292.38
273.785	286.38
274.017	283.38
274.249	291.38
274.481	276.38
274.713	276.38
274.945	277.38
275.176	264.38
275.408	293.38
275.64	287.38
275.872	299.38
276.104	289.38
276.335	289.38
276.567	291.38
276.799	308.38
277.031	304.38
277.262	336.38
277.494	361.38
277.726	331.38
277.957	313.38
278.189	306.38
278.421	299.38
278.652	288.38
278.884	288.38
279.115	270.38
279.347	294.38
279.579	292.38
279.81	308.38
280.042	301.38
280.273	295.38
280.505	285.38
280.736	303.38
280.968	300.38
281.199	280.38
281.431	285.38
281.662	298.38
281.894	297.38
282.125	303.38
282.356	312.38
282.588	316.38
282.819	333.38
283.051	311.38
283.282	314.38
283.513	296.38
283.745	298.38
283.976	296.38
284.207	322.38
284.439	323.38
284.67	311.38
284.901	323.38
285.132	309.38
285.364	290.38
285.595	321.38
285.826	308.38
286.057	317.38
286.288	316.38
286.52	311.38
286.751	303.38
286.982	342.38
287.213	323.38
287.444	321.38
287.675	320.38
287.906	330.38
288.138	329.38
288.369	341.38
288.6	324.38
288.831	326.38
289.062	344.38
289.293	322.38
289.524	320.38
289.755	333.38
289.986	320.38
290.217	337.38
290.448	311.38
290.679	324.38
290.91	339.38
291.141	313.38
291.371	354.38
291.602	339.38
291.833	329.38
292.064	333.38
292.295	324.38
292.526	338.38
292.757	346.38
292.987	337.38
293.218	335.38
293.449	324.38
293.68	333.38
293.91	352.38
294.141	327.38
294.372	346.38
294.603	338.38
294.833	341.38
295.064	336.38
295.295	336.38
295.525	324.38
295.756	347.38
295.987	359.38
296.217	369.38
296.448	365.38
296.679	353.38
296.909	352.38
297.14	342.38
297.37	355.38
297.601	351.38
297.831	331.38
298.062	342.38
298.292	360.38
298.523	355.38
298.753	351.38
298.984	359.38
299.214	356.38
299.445	353.38
299.675	368.38
299.905	342.38
300.136	359.38
300.366	348.38
300.597	377.38
300.827	379.38
301.057	379.38
301.288	394.38
301.518	382.38
301.748	395.38
301.979	365.38
302.209	374.38
302.439	389.38
302.669	383.38
302.9	363.38
303.13	370.38
303.36	359.38
303.59	383.38
303.82	395.38
304.051	396.38
304.281	383.38
304.511	365.38
304.741	370.38
304.971	376.38
305.201	370.38
305.431	364.38
305.661	393.38
305.891	378.38
306.121	373.38
306.352	374.38
306.582	375.38
306.812	378.38
307.042	392.38
307.272	364.38
307.502	369.38
307.731	382.38
307.961	367.38
308.191	375.38
308.421	381.38
308.651	377.38
308.881	369.38
309.111	385.38
309.341	379.38
309.571	405.38
309.8	405.38
310.03	406.38
310.26	424.38
310.49	412.38
310.72	418.38
310.949	415.38
311.179	435.38
311.409	464.38
311.639	417.38
311.868	410.38
312.098	416.38
312.328	425.38
312.557	432.38
312.787	445.38
313.017	435.38
313.246	436.38
313.476	409.38
313.706	431.38
313.935	428.38
314.165	433.38
314.394	448.38
314.624	445.38
314.853	437.38
315.083	426.38
315.312	433.38
315.542	410.38
315.771	407.38
316.001	418.38
316.23	420.38
316.46	419.38
316.689	419.38
316.919	433.38
317.148	423.38
317.377	425.38
317.607	439.38
317.836	413.38
318.065	434.38
318.295	432.38
318.524	426.38
318.753	429.38
318.983	413.38
319.212	415.38
319.441	433.38
319.67	435.38
319.9	421.38
320.129	417.38
320.358	434.38
320.587	442.38
320.816	431.38
321.046	439.38
321.275	449.38
321.504	456.38
321.733	461.38
321.962	452.38
322.191	441.38
322.42	472.38
322.649	477.38
322.878	464.38
323.108	478.38
323.337	503.38
323.566	513.38
323.795	526.38
324.024	586.38
324.253	679.38
324.482	929.38
324.71	1412.38
324.939	1931.38
325.168	1667.38
325.397	872.38
325.626	643.38
325.855	562.38
326.084	541.38
326.313	571.38
326.542	526.38
326.77	562.38
326.999	644.38
327.228	856.38
327.457	1213.38
327.686	1481.38
327.914	981.38
328.143	697.38
328.372	629.38
328.6	593.38
328.829	557.38
329.058	600.38
329.287	597.38
329.515	546.38
329.744	517.38
329.972	519.38
330.201	510.38
330.43	525.38
330.658	574.38
330.887	603.38
331.115	614.38
331.344	543.38
331.572	553.38
331.801	523.38
332.03	528.38
332.258	504.38
332.486	507.38
332.715	517.38
332.943	516.38
333.172	518.38
333.4	519.38
333.629	531.38
333.857	547.38
334.085	546.38
334.314	528.38
334.542	506.38
334.771	540.38
334.999	534.38
335.227	523.38
335.455	523.38
335.684	514.38
335.912	527.38
336.14	487.38
336.369	503.38
336.597	523.38
336.825	516.38
337.053	518.38
337.281	526.38
337.51	490.38
337.738	489.38
337.966	475.38
338.194	489.38
338.422	506.38
338.65	503.38
338.878	489.38
339.106	494.38
339.334	476.38
339.562	469.38
339.79	492.38
340.018	466.38
340.246	481.38
340.474	470.38
340.702	473.38
340.93	477.38
341.158	464.38
341.386	492.38
341.614	493.38
341.842	476.38
342.07	468.38
342.298	473.38
342.526	463.38
342.754	468.38
342.981	460.38
343.209	466.38
343.437	481.38
343.665	499.38
343.893	500.38
344.12	499.38
344.348	519.38
344.576	507.38
344.804	490.38
345.031	479.38
345.259	516.38
345.487	484.38
345.714	466.38
345.942	469.38
346.17	464.38
346.397	475.38
346.625	459.38
346.853	465.38
347.08	438.38
347.308	452.38
347.535	471.38
347.763	469.38
347.99	477.38
348.218	445.38
348.445	451.38
348.673	464.38
348.9	475.38
349.128	461.38
349.355	458.38
349.583	444.38
349.81	439.38
350.037	434.38
350.265	456.38
350.492	443.38
350.72	434.38
350.947	456.38
351.174	440.38
351.402	441.38
351.629	448.38
351.856	431.38
352.083	452.38
352.311	467.38
352.538	465.38
352.765	476.38
352.992	448.38
353.22	456.38
353.447	441.38
353.674	451.38
353.901	428.38
354.128	420.38
354.355	425.38
354.583	422.38
354.81	441.38
355.037	417.38
355.264	437.38
355.491	433.38
355.718	437.38
355.945	412.38
356.172	419.38
356.399	397.38
356.626	427.38
356.853	423.38
357.08	452.38
357.307	419.38
357.534	421.38
357.761	433.38
357.988	423.38
358.215	414.38
358.441	423.38
358.668	429.38
358.895	428.38
359.122	416.38
359.349	437.38
359.576	447.38
359.802	461.38
360.029	483.38
360.256	488.38
360.483	459.38
360.709	438.38
360.936	458.38
361.163	439.38
361.39	443.38
361.616	427.38
361.843	454.38
362.07	452.38
362.296	453.38
362.523	459.38
362.749	430.38
362.976	441.38
363.203	455.38
363.429	412.38
363.656	439.38
363.882	428.38
364.109	428.38
364.335	433.38
364.562	434.38
364.788	432.38
365.015	422.38
365.241	427.38
365.468	436.38
365.694	444.38
365.92	426.38
366.147	426.38
366.373	444.38
366.599	434.38
366.826	408.38
367.052	423.38
367.278	421.38
367.505	427.38
367.731	429.38
367.957	435.38
368.184	425.38
368.41	417.38
368.636	443.38
368.862	441.38
369.089	445.38
369.315	424.38
369.541	432.38
369.767	432.38
369.993	408.38
370.219	426.38
370.445	427.38
370.672	419.38
370.898	445.38
371.124	446.38
371.35	435.38
371.576	424.38
371.802	447.38
372.028	427.38
372.254	419.38
372.48	430.38
372.706	443.38
372.932	444.38
373.158	461.38
373.384	438.38
373.61	440.38
373.835	433.38
374.061	432.38
374.287	453.38
374.513	439.38
374.739	440.38
374.965	452.38
375.191	464.38
375.416	474.38
375.642	448.38
375.868	433.38
376.094	437.38
376.319	430.38
376.545	437.38
376.771	425.38
376.997	421.38
377.222	426.38
377.448	429.38
377.674	439.38
377.899	435.38
378.125	427.38
378.35	434.38
378.576	428.38
378.802	422.38
379.027	435.38
379.253	437.38
379.478	426.38
379.704	425.38
379.929	414.38
380.155	429.38
380.38	432.38
380.606	439.38
380.831	413.38
381.057	425.38
381.282	416.38
381.507	420.38
381.733	435.38
381.958	416.38
382.184	439.38
382.409	441.38
382.634	436.38
382.86	446.38
383.085	431.38
383.31	454.38
383.535	436.38
383.761	441.38
383.986	461.38
384.211	450.38
384.436	447.38
384.662	468.38
384.887	453.38
385.112	469.38
385.337	475.38
385.562	468.38
385.787	489.38
386.013	484.38
386.238	499.38
386.463	463.38
386.688	475.38
386.913	490.38
387.138	485.38
387.363	462.38
387.588	469.38
387.813	462.38
388.038	479.38
388.263	483.38
388.488	498.38
388.713	465.38
388.938	469.38
389.163	491.38
389.387	470.38
389.612	467.38
389.837	468.38
390.062	464.38
390.287	490.38
390.512	482.38
390.736	465.38
390.961	479.38
391.186	497.38
391.411	503.38
391.636	472.38
391.86	498.38
392.085	515.38
392.31	501.38
392.534	498.38
392.759	501.38
392.984	487.38
393.208	484.38
393.433	499.38
393.658	485.38
393.882	475.38
394.107	495.38
394.331	496.38
394.556	488.38
394.78	480.38
395.005	465.38
395.229	494.38
395.454	504.38
395.678	519.38
395.903	544.38
396.127	540.38
396.352	533.38
396.576	512.38
396.801	511.38
397.025	480.38
397.249	511.38
397.474	510.38
397.698	505.38
397.922	526.38
398.147	542.38
398.371	541.38
398.595	532.38
398.82	575.38
399.044	555.38
399.268	593.38
399.492	636.38
399.717	691.38
399.941	719.38
400.165	726.38
400.389	690.38
400.613	635.38
400.837	607.38
401.062	591.38
401.286	578.38
401.51	553.38
401.734	544.38
401.958	575.38
402.182	568.38
402.406	568.38
402.63	586.38
402.854	592.38
403.078	580.38
403.302	601.38
403.526	594.38
403.75	589.38
403.974	586.38
404.198	584.38
404.422	603.38
404.645	629.38
404.869	606.38
405.093	614.38
405.317	611.38
405.541	633.38
405.765	617.38
405.988	605.38
406.212	621.38
406.436	634.38
406.66	662.38
406.883	620.38
407.107	653.38
407.331	673.38
407.555	755.38
407.778	764.38
408.002	703.38
408.226	644.38
408.449	633.38
408.673	665.38
408.896	653.38
409.12	675.38
409.344	646.38
409.567	622.38
409.791	593.38
410.014	602.38
410.238	567.38
410.461	567.38
410.685	595.38
410.908	605.38
411.132	616.38
411.355	644.38
411.578	638.38
411.802	563.38
412.025	539.38
412.249	560.38
412.472	563.38
412.695	578.38
412.919	575.38
413.142	553.38
413.365	545.38
413.589	564.38
413.812	539.38
414.035	542.38
414.258	545.38
414.482	527.38
414.705	521.38
414.928	527.38
415.151	557.38
415.374	542.38
415.597	532.38
415.821	546.38
416.044	547.38
416.267	528.38
416.49	545.38
416.713	522.38
416.936	554.38
417.159	521.38
417.382	547.38
417.605	556.38
417.828	545.38
418.051	578.38
418.274	543.38
418.497	531.38
418.72	553.38
418.943	527.38
419.166	563.38
419.389	569.38
419.611	584.38
419.834	579.38
420.057	576.38
420.28	543.38
420.503	525.38
420.726	539.38
420.948	529.38
421.171	597.38
421.394	641.38
421.617	567.38
421.839	545.38
422.062	540.38
422.285	578.38
422.507	637.38
422.73	701.38
422.953	673.38
423.175	606.38
423.398	587.38
423.621	586.38
423.843	629.38
424.066	608.38
424.288	590.38
424.511	612.38
424.733	663.38
424.956	731.38
425.178	675.38
425.401	703.38
425.623	706.38
425.846	612.38
426.068	579.38
426.291	548.38
426.513	575.38
426.735	582.38
426.958	614.38
427.18	678.38
427.402	816.38
427.625	889.38
427.847	763.38
428.069	660.38
428.292	603.38
428.514	557.38
428.736	525.38
428.958	534.38
429.181	521.38
429.403	527.38
429.625	529.38
429.847	560.38
430.069	634.38
430.292	599.38
430.514	532.38
430.736	535.38
430.958	518.38
431.18	515.38
431.402	490.38
431.624	489.38
431.846	499.38
432.068	514.38
432.29	490.38
432.512	505.38
432.734	530.38
432.956	528.38
433.178	516.38
433.4	538.38
433.622	527.38
433.844	503.38
434.066	513.38
434.287	511.38
434.509	535.38
434.731	537.38
434.953	546.38
435.175	583.38
435.397	580.38
435.618	571.38
435.84	605.38
436.062	685.38
436.284	750.38
436.505	633.38
436.727	561.38
436.949	540.38
437.17	536.38
437.392	507.38
437.614	530.38
437.835	554.38
438.057	665.38
438.278	716.38
438.5	729.38
438.721	792.38
438.943	763.38
439.165	645.38
439.386	585.38
439.608	571.38
439.829	564.38
440.05	597.38
440.272	652.38
440.493	584.38
440.715	555.38
440.936	572.38
441.158	561.38
441.379	535.38
441.6	580.38
441.822	583.38
442.043	604.38
442.264	699.38
442.486	711.38
442.707	621.38
442.928	579.38
443.149	573.38
443.371	612.38
443.592	649.38
443.813	752.38
444.034	814.38
444.255	681.38
444.476	615.38
444.698	628.38
444.919	574.38
445.14	692.38
445.361	653.38
445.582	632.38
445.803	700.38
446.024	753.38
446.245	770.38
446.466	668.38
446.687	602.38
446.908	580.38
447.129	539.38
447.35	510.38
447.571	515.38
447.792	514.38
448.013	524.38
448.234	550.38
448.455	614.38
448.675	670.38
448.896	769.38
449.117	669.38
449.338	645.38
449.559	729.38
449.779	840.38
450	662.38
450.221	560.38
450.442	538.38
450.662	511.38
450.883	512.38
451.104	523.38
451.324	529.38
451.545	489.38
451.766	503.38
451.986	469.38
452.207	464.38
452.428	467.38
452.648	482.38
452.869	474.38
453.089	486.38
453.31	489.38
453.53	477.38
453.751	484.38
453.971	476.38
454.192	473.38
454.412	477.38
454.633	461.38
454.853	484.38
455.073	476.38
455.294	523.38
455.514	561.38
455.734	535.38
455.955	506.38
456.175	447.38
456.395	452.38
456.616	446.38
456.836	433.38
457.056	455.38
457.276	452.38
457.497	440.38
457.717	461.38
457.937	456.38
458.157	453.38
458.377	464.38
458.598	512.38
458.818	561.38
459.038	617.38
459.258	629.38
459.478	566.38
459.698	523.38
459.918	523.38
460.138	520.38
460.358	560.38
460.578	541.38
460.798	550.38
461.018	548.38
461.238	556.38
461.458	541.38
461.678	529.38
461.898	547.38
462.118	559.38
462.338	578.38
462.558	588.38
462.777	583.38
462.997	606.38
463.217	634.38
463.437	631.38
463.657	617.38
463.876	587.38
464.096	569.38
464.316	593.38
464.536	620.38
464.755	577.38
464.975	595.38
465.195	612.38
465.414	683.38
465.634	607.38
465.854	563.38
466.073	541.38
466.293	510.38
466.512	492.38
466.732	487.38
466.951	483.38
467.171	483.38
467.391	508.38
467.61	522.38
467.829	538.38
468.049	479.38
468.268	468.38
468.488	483.38
468.707	476.38
468.927	474.38
469.146	470.38
469.365	474.38
469.585	489.38
469.804	507.38
470.023	511.38
470.243	502.38
470.462	499.38
470.681	519.38
470.901	525.38
471.12	515.38
471.339	501.38
471.558	492.38
471.777	493.38
471.997	481.38
472.216	469.38
472.435	487.38
472.654	487.38
472.873	469.38
473.092	472.38
473.311	504.38
473.53	487.38
473.749	505.38
473.968	528.38
474.187	623.38
474.406	606.38
474.625	551.38
474.844	495.38
475.063	497.38
475.282	492.38
475.501	494.38
475.72	499.38
475.939	522.38
476.158	489.38
476.377	498.38
476.596	498.38
476.814	496.38
477.033	527.38
477.252	516.38
477.471	507.38
477.69	519.38
477.908	527.38
478.127	560.38
478.346	563.38
478.564	543.38
478.783	548.38
479.002	574.38
479.22	594.38
479.439	579.38
479.658	609.38
479.876	587.38
480.095	613.38
480.313	638.38
480.532	624.38
480.751	609.38
480.969	604.38
481.188	618.38
481.406	609.38
481.624	588.38
481.843	573.38
482.061	569.38
482.28	567.38
482.498	588.38
482.717	571.38
482.935	578.38
483.153	569.38
483.372	557.38
483.59	577.38
483.808	561.38
484.027	553.38
484.245	562.38
484.463	569.38
484.681	601.38
484.9	598.38
485.118	576.38
485.336	574.38
485.554	564.38
485.772	587.38
485.99	592.38
486.209	601.38
486.427	579.38
486.645	597.38
486.863	622.38
487.081	607.38
487.299	618.38
487.517	611.38
487.735	607.38
487.953	588.38
488.171	593.38
488.389	609.38
488.607	611.38
488.825	615.38
489.043	602.38
489.261	622.38
489.479	593.38
489.696	627.38
489.914	620.38
490.132	635.38
490.35	619.38
490.568	619.38
490.786	613.38
491.003	644.38
491.221	647.38
491.439	646.38
491.657	676.38
491.874	689.38
492.092	672.38
492.31	673.38
492.527	688.38
492.745	657.38
492.963	673.38
493.18	689.38
493.398	697.38
493.615	721.38
493.833	689.38
494.05	706.38
494.268	715.38
494.485	720.38
494.703	707.38
494.92	709.38
495.138	696.38
495.355	685.38
495.573	713.38
495.79	714.38
496.008	712.38
496.225	718.38
496.442	699.38
496.66	699.38
496.877	709.38
497.094	725.38
497.312	734.38
497.529	747.38
497.746	740.38
497.963	764.38
498.181	789.38
498.398	827.38
498.615	839.38
498.832	869.38
499.049	910.38
499.267	904.38
499.484	938.38
499.701	1039.38
499.918	1060.38
500.135	1134.38
500.352	1194.38
500.569	1205.38
500.786	1208.38
501.003	1191.38
501.22	1122.38
501.437	1079.38
501.654	988.38
501.871	987.38
502.088	940.38
502.305	893.38
502.522	872.38
502.739	845.38
502.956	818.38
503.172	795.38
503.389	786.38
503.606	774.38
503.823	756.38
504.04	755.38
504.256	751.38
504.473	719.38
504.69	737.38
504.907	717.38
505.123	700.38
505.34	696.38
505.557	680.38
505.773	675.38
505.99	691.38
506.207	689.38
506.423	683.38
506.64	662.38
506.856	666.38
507.073	637.38
507.289	679.38
507.506	640.38
507.722	676.38
507.939	665.38
508.155	654.38
508.372	639.38
508.588	642.38
508.805	620.38
509.021	642.38
509.238	652.38
509.454	634.38
509.67	649.38
509.887	623.38
510.103	643.38
510.319	639.38
510.536	723.38
510.752	1165.38
510.968	959.38
511.184	665.38
511.401	629.38
511.617	597.38
511.833	587.38
512.049	596.38
512.265	598.38
512.481	577.38
512.698	586.38
512.914	586.38
513.13	589.38
513.346	605.38
513.562	574.38
513.778	591.38
513.994	611.38
514.21	611.38
514.426	648.38
514.642	661.38
514.858	676.38
515.074	715.38
515.29	823.38
515.506	1256.38
515.721	1017.38
515.937	741.38
516.153	683.38
516.369	652.38
516.585	672.38
516.801	653.38
517.016	659.38
517.232	659.38
517.448	661.38
517.664	674.38
517.879	655.38
518.095	660.38
518.311	682.38
518.527	656.38
518.742	661.38
518.958	643.38
519.173	636.38
519.389	610.38
519.605	635.38
519.82	621.38
520.036	637.38
520.251	636.38
520.467	650.38
520.682	657.38
520.898	650.38
521.113	677.38
521.329	708.38
521.544	780.38
521.76	949.38
521.975	1581.38
522.19	1594.38
522.406	905.38
522.621	684.38
522.836	586.38
523.052	596.38
523.267	574.38
523.482	571.38
523.698	560.38
523.913	540.38
524.128	559.38
524.343	551.38
524.559	544.38
524.774	494.38
524.989	521.38
525.204	528.38
525.419	533.38
525.634	523.38
525.849	523.38
526.064	534.38
526.28	508.38
526.495	509.38
526.71	495.38
526.925	541.38
527.14	511.38
527.355	497.38
527.57	493.38
527.785	505.38
527.999	503.38
528.214	490.38
528.429	492.38
528.644	487.38
528.859	489.38
529.074	506.38
529.289	517.38
529.503	587.38
529.718	561.38
529.933	527.38
530.148	533.38
530.363	509.38
530.577	503.38
530.792	504.38
531.007	500.38
531.221	506.38
531.436	483.38
531.651	503.38
531.865	468.38
532.08	495.38
532.295	484.38
532.509	484.38
532.724	483.38
532.938	479.38
533.153	456.38
533.367	485.38
533.582	487.38
533.796	478.38
534.011	496.38
534.225	468.38
534.44	449.38
534.654	492.38
534.868	461.38
535.083	500.38
535.297	479.38
535.511	476.38
535.726	486.38
535.94	473.38
536.154	485.38
536.369	467.38
536.583	487.38
536.797	450.38
537.011	459.38
537.225	467.38
537.44	444.38
537.654	458.38
537.868	454.38
538.082	434.38
538.296	461.38
538.51	459.38
538.724	456.38
538.938	453.38
539.153	451.38
539.367	459.38
539.581	481.38
539.795	475.38
540.009	446.38
540.222	452.38
540.436	450.38
540.65	447.38
540.864	473.38
541.078	460.38
541.292	457.38
541.506	463.38
541.72	455.38
541.934	444.38
542.147	471.38
542.361	457.38
542.575	440.38
542.789	450.38
543.002	444.38
543.216	474.38
543.43	467.38
543.644	455.38
543.857	448.38
544.071	435.38
544.285	469.38
544.498	461.38
544.712	433.38
544.925	442.38
545.139	431.38
545.352	468.38
545.566	444.38
545.779	455.38
545.993	448.38
546.206	431.38
546.42	467.38
546.633	451.38
546.847	441.38
547.06	439.38
547.274	458.38
547.487	441.38
547.7	441.38
547.914	431.38
548.127	442.38
548.34	443.38
548.554	419.38
548.767	435.38
548.98	457.38
549.193	439.38
549.407	452.38
549.62	456.38
549.833	451.38
550.046	453.38
550.259	418.38
550.473	458.38
550.686	445.38
550.899	423.38
551.112	452.38
551.325	427.38
551.538	425.38
551.751	436.38
551.964	435.38
552.177	439.38
552.39	442.38
552.603	448.38
552.816	452.38
553.029	449.38
553.242	461.38
553.455	436.38
553.667	467.38
553.88	480.38
554.093	475.38
554.306	461.38
554.519	446.38
554.732	446.38
554.944	444.38
555.157	434.38
555.37	417.38
555.583	418.38
555.795	432.38
556.008	420.38
556.221	406.38
556.433	416.38
556.646	392.38
556.859	387.38
557.071	382.38
557.284	411.38
557.496	407.38
557.709	398.38
557.921	409.38
558.134	391.38
558.346	391.38
558.559	400.38
558.771	388.38
558.984	397.38
559.196	412.38
559.409	391.38
559.621	387.38
559.833	376.38
560.046	392.38
560.258	387.38
560.47	380.38
560.683	387.38
560.895	362.38
561.107	391.38
561.32	369.38
561.532	382.38
561.744	391.38
561.956	402.38
562.168	380.38
562.381	388.38
562.593	385.38
562.805	402.38
563.017	378.38
563.229	388.38
563.441	416.38
563.653	400.38
563.865	403.38
564.077	401.38
564.289	415.38
564.501	424.38
564.713	418.38
564.925	424.38
565.137	427.38
565.349	414.38
565.561	445.38
565.773	447.38
565.985	460.38
566.197	451.38
566.408	491.38
566.62	514.38
566.832	490.38
567.044	510.38
567.255	536.38
567.467	561.38
567.679	564.38
567.891	562.38
568.102	557.38
568.314	538.38
568.526	521.38
568.737	485.38
568.949	484.38
569.161	466.38
569.372	429.38
569.584	427.38
569.795	403.38
570.007	419.38
570.218	459.38
570.43	441.38
570.641	393.38
570.853	399.38
571.064	409.38
571.276	395.38
571.487	391.38
571.698	376.38
571.91	371.38
572.121	370.38
572.333	357.38
572.544	368.38
572.755	364.38
572.966	359.38
573.178	380.38
573.389	355.38
573.6	339.38
573.811	340.38
574.023	331.38
574.234	332.38
574.445	347.38
574.656	328.38
574.867	342.38
575.078	332.38
575.289	335.38
575.501	340.38
575.712	323.38
575.923	333.38
576.134	321.38
576.345	331.38
576.556	311.38
576.767	313.38
576.978	333.38
577.188	329.38
577.399	313.38
577.61	328.38
577.821	324.38
578.032	326.38
578.243	356.38
578.454	559.38
578.665	429.38
578.875	339.38
579.086	331.38
579.297	327.38
579.508	330.38
579.718	322.38
579.929	303.38
580.14	319.38
580.35	316.38
580.561	322.38
580.772	326.38
580.982	306.38
581.193	305.38
581.403	328.38
581.614	304.38
581.825	329.38
582.035	304.38
582.246	304.38
582.456	308.38
582.667	296.38
582.877	281.38
583.087	307.38
583.298	304.38
583.508	298.38
583.719	308.38
583.929	295.38
584.139	291.38
584.35	307.38
584.56	305.38
584.77	299.38
584.981	319.38
585.191	301.38
585.401	287.38
585.611	299.38
585.821	288.38
586.032	308.38
586.242	313.38
586.452	285.38
586.662	306.38
586.872	299.38
587.082	324.38
587.292	295.38
587.502	299.38
587.713	277.38
587.923	323.38
588.133	288.38
588.343	273.38
588.553	289.38
588.762	293.38
588.972	281.38
589.182	311.38
589.392	305.38
589.602	295.38
589.812	296.38
590.022	295.38
590.232	287.38
590.441	291.38
590.651	287.38
590.861	302.38
591.071	300.38
591.281	305.38
591.49	312.38
591.7	307.38
591.91	304.38
592.119	312.38
592.329	311.38
592.539	313.38
592.748	316.38
592.958	306.38
593.167	327.38
593.377	331.38
593.587	338.38
593.796	352.38
594.006	333.38
594.215	323.38
594.424	339.38
594.634	330.38
594.843	318.38
595.053	329.38
595.262	309.38
595.472	328.38
595.681	300.38
595.89	298.38
596.1	283.38
596.309	302.38
596.518	283.38
596.727	290.38
596.937	272.38
597.146	285.38
597.355	268.38
597.564	271.38
597.774	279.38
597.983	282.38
598.192	279.38
598.401	262.38
598.61	278.38
598.819	273.38
599.028	261.38
599.237	270.38
599.446	269.38
599.655	257.38
599.864	277.38
600.073	244.38
600.282	247.38
600.491	265.38
600.7	259.38
600.909	242.38
601.118	253.38
601.327	252.38
601.536	267.38
601.745	264.38
601.953	247.38
602.162	258.38
602.371	256.38
602.58	255.38
602.789	256.38
602.997	258.38
603.206	260.38
603.415	255.38
603.623	245.38
603.832	247.38
604.041	245.38
604.249	266.38
604.458	234.38
604.666	237.38
604.875	241.38
605.084	251.38
605.292	272.38
605.501	242.38
605.709	243.38
605.918	253.38
606.126	258.38
606.334	242.38
606.543	243.38
606.751	259.38
606.96	248.38
607.168	248.38
607.376	243.38
607.585	241.38
607.793	252.38
608.001	227.38
608.21	251.38
608.418	239.38
608.626	242.38
608.834	242.38
609.043	240.38
609.251	235.38
609.459	228.38
609.667	247.38
609.875	229.38
610.083	230.38
610.291	226.38
610.499	224.38
610.707	243.38
610.916	248.38
611.124	235.38
611.332	244.38
611.54	245.38
611.748	242.38
611.955	241.38
612.163	234.38
612.371	249.38
612.579	242.38
612.787	237.38
612.995	239.38
613.203	244.38
613.411	234.38
613.618	231.38
613.826	243.38
614.034	240.38
614.242	236.38
614.449	226.38
614.657	236.38
614.865	224.38
615.072	233.38
615.28	221.38
615.488	234.38
615.695	229.38
615.903	231.38
616.111	224.38
616.318	251.38
616.526	263.38
616.733	237.38
616.941	230.38
617.148	250.38
617.356	244.38
617.563	236.38
617.771	234.38
617.978	229.38
618.185	228.38
618.393	224.38
618.6	219.38
618.807	231.38
619.015	213.38
619.222	228.38
619.429	238.38
619.637	219.38
619.844	235.38
620.051	216.38
620.258	233.38
620.466	218.38
620.673	223.38
620.88	234.38
621.087	225.38
621.294	234.38
621.501	215.38
621.708	215.38
621.915	232.38
622.122	212.38
622.329	221.38
622.536	215.38
622.743	217.38
622.95	212.38
623.157	213.38
623.364	222.38
623.571	217.38
623.778	215.38
623.985	220.38
624.192	209.38
624.399	201.38
624.606	206.38
624.812	203.38
625.019	215.38
625.226	216.38
625.433	222.38
625.639	211.38
625.846	205.38
626.053	218.38
626.259	204.38
626.466	197.38
626.673	205.38
626.879	213.38
627.086	218.38
627.293	209.38
627.499	220.38
627.706	178.38
627.912	199.38
628.119	201.38
628.325	209.38
628.532	202.38
628.738	190.38
628.945	191.38
629.151	209.38
629.357	188.38
629.564	189.38
629.77	210.38
629.976	179.38
630.183	216.38
630.389	185.38
630.595	200.38
630.802	205.38
631.008	198.38
631.214	191.38
631.42	196.38
631.627	210.38
631.833	193.38
632.039	204.38
632.245	189.38
632.451	199.38
632.657	193.38
632.863	200.38
633.069	190.38
633.275	209.38
633.481	183.38
633.688	183.38
633.893	189.38
634.099	176.38
634.305	169.38
634.511	186.38
634.717	171.38
634.923	183.38
635.129	177.38
635.335	164.38
635.541	186.38
635.747	187.38
635.952	177.38
636.158	181.38
636.364	188.38
636.57	187.38
636.775	184.38
636.981	177.38
637.187	185.38
637.392	172.38
637.598	193.38
637.804	181.38
638.009	169.38
638.215	179.38
638.421	171.38
638.626	192.38
638.832	186.38
639.037	187.38
639.243	165.38
639.448	174.38
639.654	185.38
639.859	173.38
640.065	154.38
640.27	191.38
640.475	168.38
640.681	196.38
640.886	188.38
641.091	167.38
641.297	177.38
641.502	166.38
641.707	171.38
641.913	178.38
642.118	158.38
642.323	177.38
642.528	178.38
642.733	161.38
642.939	175.38
643.144	180.38
643.349	155.38
643.554	180.38
643.759	184.38
643.964	155.38
644.169	182.38
644.374	161.38
644.579	163.38
644.784	176.38
644.989	182.38
645.194	164.38
645.399	168.38
645.604	161.38
645.809	187.38
646.014	177.38
646.219	171.38
646.423	172.38
646.628	157.38
646.833	168.38
647.038	178.38
647.243	165.38
647.447	173.38
647.652	173.38
647.857	180.38
648.062	185.38
648.266	175.38
648.471	188.38
648.676	177.38
648.88	178.38
649.085	172.38
649.289	186.38
649.494	177.38
649.698	209.38
649.903	191.38
650.107	160.38
650.312	171.38
650.516	166.38
650.721	174.38
650.925	163.38
651.13	153.38
651.334	155.38
651.539	168.38
651.743	150.38
651.947	173.38
652.152	162.38
652.356	149.38
652.56	143.38
652.764	147.38
652.969	143.38
653.173	156.38
653.377	154.38
653.581	138.38
653.785	154.38
653.99	157.38
654.194	137.38
654.398	133.38
654.602	141.38
654.806	146.38
655.01	149.38
655.214	146.38
655.418	139.38
655.622	152.38
655.826	131.38
656.03	141.38
656.234	149.38
656.438	156.38
656.642	138.38
656.846	149.38
657.049	137.38
657.253	136.38
657.457	116.38
657.661	108.38
657.865	127.38
658.068	124.38
658.272	120.38
658.476	117.38
658.68	117.38
658.883	108.38
659.087	113.38
659.291	107.38
659.494	122.38
659.698	116.38
659.901	117.38
660.105	105.38
660.309	93.38
660.512	109.38
660.716	93.38
660.919	101.38
661.123	104.38
661.326	85.38
661.53	92.38
661.733	106.38
661.936	91.38
662.14	105.38
662.343	100.38
662.546	102.38
662.75	98.38
662.953	100.38
663.156	89.38
663.36	98.38
663.563	82.38
663.766	94.38
663.969	92.38
664.173	93.38
664.376	95.38
664.579	103.38
664.782	96.38
664.985	102.38
665.188	88.38
665.391	94.38
665.594	84.38
665.797	81.38
666	99.38
666.203	82.38
666.406	72.38
666.609	92.38
666.812	92.38
667.015	101.38
667.218	91.38
667.421	93.38
667.624	84.38
667.827	98.38
668.03	92.38
668.232	74.38
668.435	97.38
668.638	91.38
668.841	100.38
669.043	95.38
669.246	94.38
669.449	87.38
669.651	85.38
669.854	85.38
670.057	86.38
670.259	81.38
670.462	85.38
670.665	84.38
670.867	85.38
671.07	88.38
671.272	98.38
671.475	98.38
671.677	90.38
671.88	94.38
672.082	102.38
672.284	92.38
672.487	88.38
672.689	84.38
672.892	88.38
