Data from 1985.PennyLincolnUp.Lamp.En5.5.200Scan.071819.P1_HRD10591_17-03-44-972.txt Node
Date: Thu Jul 18 17:03:44 EDT 2019
User: cochatt
Spectrometer: HR+D1059
Trigger mode: 1
Integration Time (sec): 1.000000E-1
Scans to average: 1
Electric dark correction enabled: true
Nonlinearity correction enabled: false
Boxcar width: 0
XAxis mode: Wavelengths
Number of Pixels in Spectrum: 2048
>>>>>Begin Spectral Data<<<<<
223.165	-10.31
223.4	-10.31
223.635	-10.31
223.869	-23.31
224.104	-28.31
224.338	-3.31
224.573	-16.31
224.808	-12.31
225.042	-17.31
225.277	2.69
225.511	-4.31
225.746	6.69
225.98	4.69
226.215	-4.31
226.449	9.69
226.683	23.69
226.918	40.69
227.152	31.69
227.387	41.69
227.621	33.69
227.856	39.69
228.09	45.69
228.324	57.69
228.559	29.69
228.793	77.69
229.027	90.69
229.262	124.69
229.496	118.69
229.73	145.69
229.964	151.69
230.199	123.69
230.433	110.69
230.667	111.69
230.901	110.69
231.136	120.69
231.37	112.69
231.604	103.69
231.838	103.69
232.072	100.69
232.306	103.69
232.541	124.69
232.775	127.69
233.009	115.69
233.243	115.69
233.477	108.69
233.711	128.69
233.945	123.69
234.179	119.69
234.413	121.69
234.647	125.69
234.881	125.69
235.115	126.69
235.349	126.69
235.583	117.69
235.817	115.69
236.051	125.69
236.285	132.69
236.519	143.69
236.753	133.69
236.987	162.69
237.221	167.69
237.455	224.69
237.689	168.69
237.922	148.69
238.156	127.69
238.39	112.69
238.624	123.69
238.858	127.69
239.091	119.69
239.325	120.69
239.559	127.69
239.793	138.69
240.027	128.69
240.26	139.69
240.494	151.69
240.728	144.69
240.961	150.69
241.195	146.69
241.429	155.69
241.662	135.69
241.896	115.69
242.13	136.69
242.363	141.69
242.597	133.69
242.83	134.69
243.064	135.69
243.298	133.69
243.531	158.69
243.765	140.69
243.998	146.69
244.232	145.69
244.465	157.69
244.699	139.69
244.932	144.69
245.166	143.69
245.399	153.69
245.633	157.69
245.866	148.69
246.099	155.69
246.333	171.69
246.566	168.69
246.8	158.69
247.033	159.69
247.266	157.69
247.5	176.69
247.733	172.69
247.966	187.69
248.2	176.69
248.433	179.69
248.666	173.69
248.899	178.69
249.133	197.69
249.366	196.69
249.599	213.69
249.832	192.69
250.066	174.69
250.299	179.69
250.532	192.69
250.765	183.69
250.998	223.69
251.231	220.69
251.465	210.69
251.698	188.69
251.931	197.69
252.164	180.69
252.397	200.69
252.63	193.69
252.863	209.69
253.096	220.69
253.329	227.69
253.562	232.69
253.795	207.69
254.028	232.69
254.261	208.69
254.494	224.69
254.727	258.69
254.96	281.69
255.193	253.69
255.426	248.69
255.659	240.69
255.892	244.69
256.124	263.69
256.357	261.69
256.59	238.69
256.823	239.69
257.056	222.69
257.289	220.69
257.521	206.69
257.754	205.69
257.987	229.69
258.22	213.69
258.452	223.69
258.685	208.69
258.918	213.69
259.151	217.69
259.383	237.69
259.616	216.69
259.849	231.69
260.081	236.69
260.314	245.69
260.547	260.69
260.779	262.69
261.012	228.69
261.244	228.69
261.477	239.69
261.71	237.69
261.942	236.69
262.175	224.69
262.407	230.69
262.64	224.69
262.872	216.69
263.105	218.69
263.337	224.69
263.57	212.69
263.802	220.69
264.035	215.69
264.267	221.69
264.499	219.69
264.732	214.69
264.964	222.69
265.197	232.69
265.429	232.69
265.661	223.69
265.894	223.69
266.126	240.69
266.358	236.69
266.591	224.69
266.823	237.69
267.055	237.69
267.287	246.69
267.52	236.69
267.752	229.69
267.984	238.69
268.216	234.69
268.448	250.69
268.681	248.69
268.913	252.69
269.145	277.69
269.377	280.69
269.609	283.69
269.841	265.69
270.073	295.69
270.306	291.69
270.538	329.69
270.77	300.69
271.002	320.69
271.234	282.69
271.466	316.69
271.698	313.69
271.93	327.69
272.162	333.69
272.394	335.69
272.626	314.69
272.858	315.69
273.09	304.69
273.322	294.69
273.553	288.69
273.785	264.69
274.017	279.69
274.249	272.69
274.481	263.69
274.713	285.69
274.945	268.69
275.176	296.69
275.408	278.69
275.64	282.69
275.872	287.69
276.104	282.69
276.335	281.69
276.567	296.69
276.799	290.69
277.031	316.69
277.262	338.69
277.494	340.69
277.726	310.69
277.957	308.69
278.189	305.69
278.421	292.69
278.652	304.69
278.884	292.69
279.115	271.69
279.347	270.69
279.579	286.69
279.81	285.69
280.042	276.69
280.273	295.69
280.505	299.69
280.736	304.69
280.968	293.69
281.199	307.69
281.431	271.69
281.662	300.69
281.894	292.69
282.125	303.69
282.356	319.69
282.588	320.69
282.819	337.69
283.051	315.69
283.282	291.69
283.513	292.69
283.745	311.69
283.976	288.69
284.207	323.69
284.439	321.69
284.67	308.69
284.901	319.69
285.132	307.69
285.364	301.69
285.595	309.69
285.826	321.69
286.057	313.69
286.288	326.69
286.52	298.69
286.751	294.69
286.982	324.69
287.213	308.69
287.444	329.69
287.675	333.69
287.906	335.69
288.138	342.69
288.369	319.69
288.6	330.69
288.831	311.69
289.062	331.69
289.293	348.69
289.524	335.69
289.755	332.69
289.986	321.69
290.217	317.69
290.448	328.69
290.679	319.69
290.91	312.69
291.141	332.69
291.371	315.69
291.602	313.69
291.833	337.69
292.064	326.69
292.295	335.69
292.526	338.69
292.757	331.69
292.987	309.69
293.218	304.69
293.449	325.69
293.68	329.69
293.91	325.69
294.141	348.69
294.372	327.69
294.603	325.69
294.833	316.69
295.064	350.69
295.295	332.69
295.525	335.69
295.756	338.69
295.987	325.69
296.217	380.69
296.448	370.69
296.679	347.69
296.909	345.69
297.14	352.69
297.37	336.69
297.601	338.69
297.831	346.69
298.062	349.69
298.292	367.69
298.523	348.69
298.753	346.69
298.984	352.69
299.214	352.69
299.445	358.69
299.675	335.69
299.905	354.69
300.136	361.69
300.366	363.69
300.597	355.69
300.827	347.69
301.057	365.69
301.288	386.69
301.518	373.69
301.748	362.69
301.979	379.69
302.209	367.69
302.439	379.69
302.669	373.69
302.9	372.69
303.13	380.69
303.36	374.69
303.59	393.69
303.82	380.69
304.051	376.69
304.281	369.69
304.511	385.69
304.741	368.69
304.971	378.69
305.201	379.69
305.431	364.69
305.661	379.69
305.891	365.69
306.121	377.69
306.352	373.69
306.582	375.69
306.812	357.69
307.042	367.69
307.272	369.69
307.502	372.69
307.731	378.69
307.961	373.69
308.191	382.69
308.421	372.69
308.651	377.69
308.881	388.69
309.111	391.69
309.341	402.69
309.571	395.69
309.8	407.69
310.03	396.69
310.26	400.69
310.49	416.69
310.72	414.69
310.949	424.69
311.179	430.69
311.409	415.69
311.639	417.69
311.868	404.69
312.098	407.69
312.328	411.69
312.557	431.69
312.787	437.69
313.017	441.69
313.246	421.69
313.476	429.69
313.706	419.69
313.935	438.69
314.165	445.69
314.394	425.69
314.624	450.69
314.853	455.69
315.083	432.69
315.312	419.69
315.542	411.69
315.771	425.69
316.001	410.69
316.23	417.69
316.46	430.69
316.689	414.69
316.919	434.69
317.148	424.69
317.377	445.69
317.607	408.69
317.836	421.69
318.065	430.69
318.295	406.69
318.524	408.69
318.753	435.69
318.983	423.69
319.212	416.69
319.441	427.69
319.67	428.69
319.9	420.69
320.129	427.69
320.358	430.69
320.587	415.69
320.816	441.69
321.046	439.69
321.275	440.69
321.504	453.69
321.733	424.69
321.962	456.69
322.191	453.69
322.42	467.69
322.649	484.69
322.878	506.69
323.108	466.69
323.337	508.69
323.566	525.69
323.795	539.69
324.024	579.69
324.253	691.69
324.482	980.69
324.71	1474.69
324.939	2089.69
325.168	1763.69
325.397	910.69
325.626	661.69
325.855	571.69
326.084	525.69
326.313	545.69
326.542	546.69
326.77	583.69
326.999	665.69
327.228	881.69
327.457	1339.69
327.686	1577.69
327.914	1059.69
328.143	744.69
328.372	649.69
328.6	627.69
328.829	585.69
329.058	615.69
329.287	595.69
329.515	581.69
329.744	571.69
329.972	584.69
330.201	581.69
330.43	612.69
330.658	622.69
330.887	659.69
331.115	629.69
331.344	556.69
331.572	533.69
331.801	553.69
332.03	516.69
332.258	534.69
332.486	535.69
332.715	524.69
332.943	517.69
333.172	519.69
333.4	542.69
333.629	543.69
333.857	540.69
334.085	567.69
334.314	580.69
334.542	608.69
334.771	624.69
334.999	582.69
335.227	548.69
335.455	545.69
335.684	523.69
335.912	497.69
336.14	514.69
336.369	503.69
336.597	526.69
336.825	523.69
337.053	490.69
337.281	521.69
337.51	519.69
337.738	488.69
337.966	487.69
338.194	503.69
338.422	517.69
338.65	504.69
338.878	515.69
339.106	479.69
339.334	478.69
339.562	468.69
339.79	481.69
340.018	484.69
340.246	477.69
340.474	475.69
340.702	475.69
340.93	471.69
341.158	475.69
341.386	474.69
341.614	471.69
341.842	475.69
342.07	472.69
342.298	454.69
342.526	475.69
342.754	443.69
342.981	466.69
343.209	466.69
343.437	469.69
343.665	484.69
343.893	504.69
344.12	521.69
344.348	503.69
344.576	524.69
344.804	491.69
345.031	483.69
345.259	490.69
345.487	471.69
345.714	484.69
345.942	451.69
346.17	462.69
346.397	457.69
346.625	450.69
346.853	456.69
347.08	432.69
347.308	460.69
347.535	453.69
347.763	462.69
347.99	459.69
348.218	469.69
348.445	455.69
348.673	450.69
348.9	461.69
349.128	472.69
349.355	416.69
349.583	436.69
349.81	430.69
350.037	443.69
350.265	439.69
350.492	446.69
350.72	453.69
350.947	441.69
351.174	446.69
351.402	464.69
351.629	459.69
351.856	454.69
352.083	462.69
352.311	429.69
352.538	460.69
352.765	467.69
352.992	460.69
353.22	444.69
353.447	436.69
353.674	438.69
353.901	420.69
354.128	443.69
354.355	444.69
354.583	417.69
354.81	430.69
355.037	420.69
355.264	438.69
355.491	430.69
355.718	431.69
355.945	405.69
356.172	406.69
356.399	388.69
356.626	412.69
356.853	409.69
357.08	439.69
357.307	453.69
357.534	417.69
357.761	423.69
357.988	427.69
358.215	430.69
358.441	411.69
358.668	424.69
358.895	427.69
359.122	430.69
359.349	437.69
359.576	456.69
359.802	492.69
360.029	470.69
360.256	495.69
360.483	463.69
360.709	443.69
360.936	460.69
361.163	460.69
361.39	445.69
361.616	440.69
361.843	430.69
362.07	460.69
362.296	449.69
362.523	441.69
362.749	437.69
362.976	439.69
363.203	445.69
363.429	430.69
363.656	444.69
363.882	449.69
364.109	429.69
364.335	458.69
364.562	437.69
364.788	421.69
365.015	445.69
365.241	453.69
365.468	421.69
365.694	422.69
365.92	448.69
366.147	425.69
366.373	427.69
366.599	432.69
366.826	419.69
367.052	422.69
367.278	429.69
367.505	453.69
367.731	432.69
367.957	427.69
368.184	430.69
368.41	441.69
368.636	453.69
368.862	424.69
369.089	432.69
369.315	419.69
369.541	432.69
369.767	435.69
369.993	430.69
370.219	421.69
370.445	420.69
370.672	447.69
370.898	427.69
371.124	422.69
371.35	429.69
371.576	435.69
371.802	437.69
372.028	450.69
372.254	425.69
372.48	420.69
372.706	454.69
372.932	453.69
373.158	440.69
373.384	429.69
373.61	441.69
373.835	436.69
374.061	419.69
374.287	445.69
374.513	455.69
374.739	440.69
374.965	454.69
375.191	449.69
375.416	453.69
375.642	440.69
375.868	455.69
376.094	453.69
376.319	440.69
376.545	411.69
376.771	422.69
376.997	418.69
377.222	443.69
377.448	431.69
377.674	452.69
377.899	425.69
378.125	439.69
378.35	429.69
378.576	413.69
378.802	411.69
379.027	420.69
379.253	427.69
379.478	425.69
379.704	419.69
379.929	425.69
380.155	409.69
380.38	408.69
380.606	420.69
380.831	413.69
381.057	439.69
381.282	419.69
381.507	439.69
381.733	412.69
381.958	447.69
382.184	413.69
382.409	445.69
382.634	447.69
382.86	441.69
383.085	425.69
383.31	428.69
383.535	447.69
383.761	444.69
383.986	452.69
384.211	441.69
384.436	471.69
384.662	449.69
384.887	460.69
385.112	469.69
385.337	451.69
385.562	449.69
385.787	477.69
386.013	458.69
386.238	491.69
386.463	485.69
386.688	478.69
386.913	482.69
387.138	466.69
387.363	473.69
387.588	471.69
387.813	470.69
388.038	472.69
388.263	477.69
388.488	474.69
388.713	461.69
388.938	476.69
389.163	461.69
389.387	472.69
389.612	469.69
389.837	491.69
390.062	472.69
390.287	446.69
390.512	478.69
390.736	468.69
390.961	472.69
391.186	470.69
391.411	489.69
391.636	482.69
391.86	488.69
392.085	485.69
392.31	505.69
392.534	524.69
392.759	497.69
392.984	502.69
393.208	486.69
393.433	475.69
393.658	474.69
393.882	487.69
394.107	501.69
394.331	503.69
394.556	477.69
394.78	503.69
395.005	492.69
395.229	469.69
395.454	488.69
395.678	495.69
395.903	509.69
396.127	541.69
396.352	524.69
396.576	500.69
396.801	489.69
397.025	493.69
397.249	516.69
397.474	535.69
397.698	515.69
397.922	539.69
398.147	560.69
398.371	565.69
398.595	543.69
398.82	538.69
399.044	573.69
399.268	595.69
399.492	647.69
399.717	701.69
399.941	713.69
400.165	721.69
400.389	685.69
400.613	636.69
400.837	593.69
401.062	575.69
401.286	560.69
401.51	585.69
401.734	559.69
401.958	565.69
402.182	559.69
402.406	547.69
402.63	594.69
402.854	574.69
403.078	550.69
403.302	563.69
403.526	571.69
403.75	592.69
403.974	573.69
404.198	605.69
404.422	599.69
404.645	615.69
404.869	604.69
405.093	630.69
405.317	689.69
405.541	712.69
405.765	650.69
405.988	618.69
406.212	630.69
406.436	641.69
406.66	655.69
406.883	647.69
407.107	632.69
407.331	707.69
407.555	759.69
407.778	749.69
408.002	703.69
408.226	630.69
408.449	638.69
408.673	622.69
408.896	636.69
409.12	676.69
409.344	638.69
409.567	565.69
409.791	591.69
410.014	578.69
410.238	584.69
410.461	583.69
410.685	576.69
410.908	583.69
411.132	629.69
411.355	637.69
411.578	607.69
411.802	569.69
412.025	568.69
412.249	581.69
412.472	600.69
412.695	620.69
412.919	634.69
413.142	606.69
413.365	579.69
413.589	553.69
413.812	537.69
414.035	538.69
414.258	540.69
414.482	564.69
414.705	556.69
414.928	538.69
415.151	544.69
415.374	555.69
415.597	552.69
415.821	535.69
416.044	559.69
416.267	548.69
416.49	557.69
416.713	529.69
416.936	530.69
417.159	539.69
417.382	538.69
417.605	552.69
417.828	551.69
418.051	573.69
418.274	554.69
418.497	536.69
418.72	557.69
418.943	532.69
419.166	560.69
419.389	571.69
419.611	567.69
419.834	595.69
420.057	587.69
420.28	551.69
420.503	594.69
420.726	559.69
420.948	614.69
421.171	612.69
421.394	622.69
421.617	557.69
421.839	560.69
422.062	582.69
422.285	581.69
422.507	619.69
422.73	677.69
422.953	656.69
423.175	592.69
423.398	580.69
423.621	600.69
423.843	599.69
424.066	598.69
424.288	579.69
424.511	615.69
424.733	640.69
424.956	718.69
425.178	696.69
425.401	694.69
425.623	711.69
425.846	631.69
426.068	597.69
426.291	577.69
426.513	556.69
426.735	569.69
426.958	629.69
427.18	679.69
427.402	820.69
427.625	897.69
427.847	793.69
428.069	691.69
428.292	614.69
428.514	575.69
428.736	567.69
428.958	534.69
429.181	523.69
429.403	536.69
429.625	527.69
429.847	567.69
430.069	640.69
430.292	616.69
430.514	537.69
430.736	542.69
430.958	532.69
431.18	530.69
431.402	486.69
431.624	480.69
431.846	521.69
432.068	499.69
432.29	501.69
432.512	502.69
432.734	544.69
432.956	515.69
433.178	519.69
433.4	523.69
433.622	537.69
433.844	509.69
434.066	502.69
434.287	513.69
434.509	525.69
434.731	526.69
434.953	547.69
435.175	583.69
435.397	589.69
435.618	571.69
435.84	612.69
436.062	712.69
436.284	747.69
436.505	628.69
436.727	567.69
436.949	550.69
437.17	552.69
437.392	539.69
437.614	526.69
437.835	579.69
438.057	655.69
438.278	736.69
438.5	743.69
438.721	828.69
438.943	787.69
439.165	598.69
439.386	590.69
439.608	573.69
439.829	567.69
440.05	586.69
440.272	632.69
440.493	599.69
440.715	559.69
440.936	561.69
441.158	550.69
441.379	527.69
441.6	565.69
441.822	575.69
442.043	619.69
442.264	693.69
442.486	727.69
442.707	615.69
442.928	592.69
443.149	600.69
443.371	623.69
443.592	668.69
443.813	736.69
444.034	816.69
444.255	672.69
444.476	629.69
444.698	618.69
444.919	622.69
445.14	737.69
445.361	655.69
445.582	643.69
445.803	660.69
446.024	772.69
446.245	763.69
446.466	685.69
446.687	616.69
446.908	574.69
447.129	530.69
447.35	522.69
447.571	525.69
447.792	515.69
448.013	516.69
448.234	540.69
448.455	589.69
448.675	699.69
448.896	792.69
449.117	683.69
449.338	651.69
449.559	749.69
449.779	858.69
450	665.69
450.221	540.69
450.442	501.69
450.662	502.69
450.883	519.69
451.104	541.69
451.324	534.69
451.545	501.69
451.766	486.69
451.986	478.69
452.207	480.69
452.428	462.69
452.648	471.69
452.869	488.69
453.089	473.69
453.31	488.69
453.53	469.69
453.751	485.69
453.971	468.69
454.192	494.69
454.412	479.69
454.633	478.69
454.853	469.69
455.073	460.69
455.294	502.69
455.514	561.69
455.734	525.69
455.955	471.69
456.175	433.69
456.395	442.69
456.616	442.69
456.836	425.69
457.056	452.69
457.276	429.69
457.497	456.69
457.717	449.69
457.937	441.69
458.157	459.69
458.377	477.69
458.598	470.69
458.818	525.69
459.038	627.69
459.258	628.69
459.478	563.69
459.698	541.69
459.918	538.69
460.138	520.69
460.358	507.69
460.578	537.69
460.798	543.69
461.018	542.69
461.238	544.69
461.458	525.69
461.678	527.69
461.898	547.69
462.118	536.69
462.338	560.69
462.558	567.69
462.777	579.69
462.997	601.69
463.217	616.69
463.437	606.69
463.657	572.69
463.876	581.69
464.096	572.69
464.316	571.69
464.536	595.69
464.755	585.69
464.975	567.69
465.195	610.69
465.414	685.69
465.634	591.69
465.854	554.69
466.073	535.69
466.293	490.69
466.512	486.69
466.732	503.69
466.951	476.69
467.171	496.69
467.391	503.69
467.61	524.69
467.829	518.69
468.049	524.69
468.268	495.69
468.488	487.69
468.707	465.69
468.927	468.69
469.146	469.69
469.365	485.69
469.585	493.69
469.804	517.69
470.023	485.69
470.243	490.69
470.462	513.69
470.681	507.69
470.901	519.69
471.12	504.69
471.339	493.69
471.558	496.69
471.777	486.69
471.997	480.69
472.216	519.69
472.435	552.69
472.654	519.69
472.873	506.69
473.092	494.69
473.311	472.69
473.53	476.69
473.749	491.69
473.968	521.69
474.187	630.69
474.406	659.69
474.625	537.69
474.844	481.69
475.063	503.69
475.282	481.69
475.501	493.69
475.72	507.69
475.939	485.69
476.158	503.69
476.377	517.69
476.596	501.69
476.814	527.69
477.033	516.69
477.252	529.69
477.471	534.69
477.69	512.69
477.908	544.69
478.127	539.69
478.346	553.69
478.564	551.69
478.783	572.69
479.002	567.69
479.22	566.69
479.439	592.69
479.658	597.69
479.876	620.69
480.095	575.69
480.313	623.69
480.532	639.69
480.751	635.69
480.969	637.69
481.188	667.69
481.406	674.69
481.624	646.69
481.843	600.69
482.061	607.69
482.28	563.69
482.498	568.69
482.717	551.69
482.935	583.69
483.153	569.69
483.372	568.69
483.59	570.69
483.808	565.69
484.027	548.69
484.245	574.69
484.463	578.69
484.681	588.69
484.9	607.69
485.118	578.69
485.336	592.69
485.554	593.69
485.772	611.69
485.99	579.69
486.209	589.69
486.427	586.69
486.645	613.69
486.863	620.69
487.081	603.69
487.299	629.69
487.517	603.69
487.735	607.69
487.953	602.69
488.171	633.69
488.389	607.69
488.607	601.69
488.825	608.69
489.043	592.69
489.261	634.69
489.479	627.69
489.696	619.69
489.914	632.69
490.132	635.69
490.35	643.69
490.568	650.69
490.786	648.69
491.003	672.69
491.221	677.69
491.439	704.69
491.657	679.69
491.874	701.69
492.092	705.69
492.31	724.69
492.527	707.69
492.745	705.69
492.963	694.69
493.18	702.69
493.398	716.69
493.615	723.69
493.833	755.69
494.05	723.69
494.268	688.69
494.485	712.69
494.703	706.69
494.92	717.69
495.138	736.69
495.355	720.69
495.573	707.69
495.79	697.69
496.008	714.69
496.225	733.69
496.442	707.69
496.66	735.69
496.877	732.69
497.094	725.69
497.312	743.69
497.529	760.69
497.746	746.69
497.963	761.69
498.181	807.69
498.398	826.69
498.615	833.69
498.832	868.69
499.049	873.69
499.267	932.69
499.484	965.69
499.701	1023.69
499.918	1055.69
500.135	1150.69
500.352	1196.69
500.569	1223.69
500.786	1240.69
501.003	1197.69
501.22	1136.69
501.437	1098.69
501.654	1030.69
501.871	1009.69
502.088	944.69
502.305	921.69
502.522	869.69
502.739	860.69
502.956	826.69
503.172	787.69
503.389	775.69
503.606	778.69
503.823	752.69
504.04	770.69
504.256	749.69
504.473	756.69
504.69	748.69
504.907	740.69
505.123	719.69
505.34	715.69
505.557	691.69
505.773	699.69
505.99	689.69
506.207	674.69
506.423	701.69
506.64	691.69
506.856	696.69
507.073	673.69
507.289	664.69
507.506	647.69
507.722	667.69
507.939	678.69
508.155	657.69
508.372	637.69
508.588	635.69
508.805	624.69
509.021	618.69
509.238	653.69
509.454	659.69
509.67	662.69
509.887	624.69
510.103	644.69
510.319	644.69
510.536	716.69
510.752	1186.69
510.968	984.69
511.184	647.69
511.401	618.69
511.617	607.69
511.833	603.69
512.049	608.69
512.265	610.69
512.481	630.69
512.698	610.69
512.914	592.69
513.13	602.69
513.346	613.69
513.562	604.69
513.778	579.69
513.994	595.69
514.21	605.69
514.426	633.69
514.642	670.69
514.858	704.69
515.074	725.69
515.29	856.69
515.506	1227.69
515.721	1055.69
515.937	732.69
516.153	672.69
516.369	653.69
516.585	675.69
516.801	638.69
517.016	659.69
517.232	675.69
517.448	665.69
517.664	669.69
517.879	670.69
518.095	683.69
518.311	666.69
518.527	656.69
518.742	642.69
518.958	618.69
519.173	605.69
519.389	629.69
519.605	611.69
519.82	638.69
520.036	619.69
520.251	634.69
520.467	639.69
520.682	644.69
520.898	678.69
521.113	694.69
521.329	711.69
521.544	759.69
521.76	965.69
521.975	1592.69
522.19	1597.69
522.406	894.69
522.621	670.69
522.836	620.69
523.052	597.69
523.267	580.69
523.482	569.69
523.698	557.69
523.913	523.69
524.128	576.69
524.343	539.69
524.559	529.69
524.774	523.69
524.989	553.69
525.204	551.69
525.419	554.69
525.634	529.69
525.849	554.69
526.064	516.69
526.28	522.69
526.495	505.69
526.71	521.69
526.925	492.69
527.14	497.69
527.355	508.69
527.57	517.69
527.785	494.69
527.999	491.69
528.214	489.69
528.429	482.69
528.644	505.69
528.859	491.69
529.074	500.69
529.289	506.69
529.503	587.69
529.718	580.69
529.933	510.69
530.148	516.69
530.363	503.69
530.577	499.69
530.792	493.69
531.007	487.69
531.221	476.69
531.436	488.69
531.651	497.69
531.865	500.69
532.08	474.69
532.295	484.69
532.509	479.69
532.724	499.69
532.938	490.69
533.153	475.69
533.367	471.69
533.582	466.69
533.796	474.69
534.011	471.69
534.225	458.69
534.44	478.69
534.654	492.69
534.868	463.69
535.083	474.69
535.297	469.69
535.511	468.69
535.726	487.69
535.94	467.69
536.154	491.69
536.369	464.69
536.583	473.69
536.797	469.69
537.011	466.69
537.225	440.69
537.44	473.69
537.654	463.69
537.868	449.69
538.082	463.69
538.296	465.69
538.51	455.69
538.724	491.69
538.938	467.69
539.153	465.69
539.367	467.69
539.581	464.69
539.795	451.69
540.009	438.69
540.222	447.69
540.436	455.69
540.65	461.69
540.864	459.69
541.078	478.69
541.292	470.69
541.506	454.69
541.72	452.69
541.934	445.69
542.147	419.69
542.361	447.69
542.575	456.69
542.789	414.69
543.002	443.69
543.216	447.69
543.43	456.69
543.644	457.69
543.857	460.69
544.071	468.69
544.285	462.69
544.498	436.69
544.712	462.69
544.925	443.69
545.139	439.69
545.352	444.69
545.566	457.69
545.779	455.69
545.993	437.69
546.206	469.69
546.42	446.69
546.633	449.69
546.847	456.69
547.06	441.69
547.274	428.69
547.487	436.69
547.7	442.69
547.914	440.69
548.127	465.69
548.34	433.69
548.554	450.69
548.767	451.69
548.98	439.69
549.193	440.69
549.407	456.69
549.62	444.69
549.833	438.69
550.046	431.69
550.259	447.69
550.473	427.69
550.686	451.69
550.899	429.69
551.112	428.69
551.325	426.69
551.538	438.69
551.751	463.69
551.964	432.69
552.177	428.69
552.39	439.69
552.603	455.69
552.816	442.69
553.029	461.69
553.242	463.69
553.455	462.69
553.667	462.69
553.88	469.69
554.093	472.69
554.306	464.69
554.519	459.69
554.732	453.69
554.944	428.69
555.157	428.69
555.37	421.69
555.583	425.69
555.795	406.69
556.008	418.69
556.221	398.69
556.433	405.69
556.646	413.69
556.859	415.69
557.071	400.69
557.284	388.69
557.496	398.69
557.709	391.69
557.921	399.69
558.134	389.69
558.346	393.69
558.559	391.69
558.771	382.69
558.984	387.69
559.196	395.69
559.409	382.69
559.621	357.69
559.833	373.69
560.046	382.69
560.258	387.69
560.47	366.69
560.683	391.69
560.895	368.69
561.107	387.69
561.32	391.69
561.532	392.69
561.744	385.69
561.956	396.69
562.168	397.69
562.381	410.69
562.593	396.69
562.805	403.69
563.017	395.69
563.229	385.69
563.441	387.69
563.653	384.69
563.865	410.69
564.077	409.69
564.289	409.69
564.501	417.69
564.713	436.69
564.925	427.69
565.137	446.69
565.349	413.69
565.561	438.69
565.773	443.69
565.985	432.69
566.197	481.69
566.408	478.69
566.62	495.69
566.832	516.69
567.044	537.69
567.255	517.69
567.467	532.69
567.679	529.69
567.891	550.69
568.102	590.69
568.314	548.69
568.526	526.69
568.737	506.69
568.949	477.69
569.161	452.69
569.372	424.69
569.584	405.69
569.795	405.69
570.007	420.69
570.218	437.69
570.43	439.69
570.641	397.69
570.853	383.69
571.064	380.69
571.276	381.69
571.487	357.69
571.698	382.69
571.91	368.69
572.121	361.69
572.333	358.69
572.544	341.69
572.755	355.69
572.966	360.69
573.178	360.69
573.389	331.69
573.6	343.69
573.811	336.69
574.023	341.69
574.234	331.69
574.445	358.69
574.656	348.69
574.867	327.69
575.078	348.69
575.289	342.69
575.501	341.69
575.712	343.69
575.923	326.69
576.134	320.69
576.345	326.69
576.556	320.69
576.767	332.69
576.978	329.69
577.188	323.69
577.399	331.69
577.61	319.69
577.821	327.69
578.032	312.69
578.243	346.69
578.454	555.69
578.665	414.69
578.875	322.69
579.086	319.69
579.297	333.69
579.508	316.69
579.718	316.69
579.929	300.69
580.14	298.69
580.35	303.69
580.561	319.69
580.772	307.69
580.982	294.69
581.193	295.69
581.403	326.69
581.614	317.69
581.825	304.69
582.035	307.69
582.246	294.69
582.456	282.69
582.667	292.69
582.877	276.69
583.087	297.69
583.298	290.69
583.508	305.69
583.719	307.69
583.929	312.69
584.139	316.69
584.35	303.69
584.56	303.69
584.77	295.69
584.981	300.69
585.191	299.69
585.401	303.69
585.611	273.69
585.821	295.69
586.032	292.69
586.242	284.69
586.452	283.69
586.662	290.69
586.872	287.69
587.082	296.69
587.292	285.69
587.502	307.69
587.713	278.69
587.923	280.69
588.133	285.69
588.343	282.69
588.553	286.69
588.762	299.69
588.972	295.69
589.182	296.69
589.392	284.69
589.602	285.69
589.812	281.69
590.022	288.69
590.232	283.69
590.441	296.69
590.651	303.69
590.861	299.69
591.071	291.69
591.281	311.69
591.49	302.69
591.7	283.69
591.91	313.69
592.119	301.69
592.329	317.69
592.539	329.69
592.748	326.69
592.958	318.69
593.167	320.69
593.377	310.69
593.587	320.69
593.796	345.69
594.006	332.69
594.215	307.69
594.424	323.69
594.634	328.69
594.843	322.69
595.053	312.69
595.262	303.69
595.472	299.69
595.681	288.69
595.89	300.69
596.1	286.69
596.309	288.69
596.518	310.69
596.727	297.69
596.937	299.69
597.146	293.69
597.355	277.69
597.564	264.69
597.774	267.69
597.983	269.69
598.192	272.69
598.401	268.69
598.61	271.69
598.819	273.69
599.028	265.69
599.237	283.69
599.446	278.69
599.655	263.69
599.864	267.69
600.073	260.69
600.282	261.69
600.491	253.69
600.7	267.69
600.909	278.69
601.118	261.69
601.327	256.69
601.536	243.69
601.745	256.69
601.953	254.69
602.162	247.69
602.371	244.69
602.58	241.69
602.789	250.69
602.997	252.69
603.206	256.69
603.415	245.69
603.623	248.69
603.832	246.69
604.041	246.69
604.249	265.69
604.458	266.69
604.666	248.69
604.875	254.69
605.084	243.69
605.292	254.69
605.501	243.69
605.709	239.69
605.918	233.69
606.126	244.69
606.334	238.69
606.543	256.69
606.751	251.69
606.96	225.69
607.168	258.69
607.376	251.69
607.585	244.69
607.793	243.69
608.001	257.69
608.21	253.69
608.418	248.69
608.626	232.69
608.834	238.69
609.043	236.69
609.251	231.69
609.459	243.69
609.667	250.69
609.875	224.69
610.083	219.69
610.291	237.69
610.499	244.69
610.707	243.69
610.916	248.69
611.124	223.69
611.332	259.69
611.54	237.69
611.748	245.69
611.955	223.69
612.163	246.69
612.371	243.69
612.579	231.69
612.787	227.69
612.995	244.69
613.203	235.69
613.411	240.69
613.618	237.69
613.826	227.69
614.034	225.69
614.242	235.69
614.449	227.69
614.657	223.69
614.865	248.69
615.072	237.69
615.28	224.69
615.488	218.69
615.695	238.69
615.903	241.69
616.111	256.69
616.318	238.69
616.526	246.69
616.733	237.69
616.941	228.69
617.148	226.69
617.356	216.69
617.563	222.69
617.771	231.69
617.978	223.69
618.185	235.69
618.393	226.69
618.6	211.69
618.807	240.69
619.015	232.69
619.222	232.69
619.429	212.69
619.637	237.69
619.844	216.69
620.051	231.69
620.258	214.69
620.466	227.69
620.673	214.69
620.88	205.69
621.087	214.69
621.294	214.69
621.501	205.69
621.708	228.69
621.915	243.69
622.122	222.69
622.329	229.69
622.536	205.69
622.743	213.69
622.95	209.69
623.157	212.69
623.364	212.69
623.571	199.69
623.778	207.69
623.985	214.69
624.192	226.69
624.399	205.69
624.606	218.69
624.812	208.69
625.019	217.69
625.226	215.69
625.433	194.69
625.639	213.69
625.846	203.69
626.053	219.69
626.259	209.69
626.466	213.69
626.673	173.69
626.879	219.69
627.086	216.69
627.293	206.69
627.499	206.69
627.706	198.69
627.912	208.69
628.119	215.69
628.325	189.69
628.532	211.69
628.738	206.69
628.945	185.69
629.151	188.69
629.357	198.69
629.564	197.69
629.77	207.69
629.976	207.69
630.183	190.69
630.389	198.69
630.595	195.69
630.802	191.69
631.008	195.69
631.214	186.69
631.42	195.69
631.627	203.69
631.833	170.69
632.039	189.69
632.245	189.69
632.451	202.69
632.657	189.69
632.863	200.69
633.069	188.69
633.275	179.69
633.481	179.69
633.688	182.69
633.893	188.69
634.099	192.69
634.305	185.69
634.511	181.69
634.717	181.69
634.923	171.69
635.129	187.69
635.335	183.69
635.541	177.69
635.747	164.69
635.952	181.69
636.158	165.69
636.364	183.69
636.57	185.69
636.775	165.69
636.981	197.69
637.187	180.69
637.392	180.69
637.598	180.69
637.804	192.69
638.009	189.69
638.215	183.69
638.421	173.69
638.626	181.69
638.832	184.69
639.037	177.69
639.243	177.69
639.448	170.69
639.654	171.69
639.859	181.69
640.065	163.69
640.27	168.69
640.475	178.69
640.681	153.69
640.886	170.69
641.091	162.69
641.297	183.69
641.502	178.69
641.707	174.69
641.913	169.69
642.118	175.69
642.323	184.69
642.528	176.69
642.733	174.69
642.939	177.69
643.144	174.69
643.349	183.69
643.554	183.69
643.759	161.69
643.964	161.69
644.169	175.69
644.374	160.69
644.579	163.69
644.784	167.69
644.989	157.69
645.194	179.69
645.399	151.69
645.604	172.69
645.809	184.69
646.014	182.69
646.219	174.69
646.423	159.69
646.628	155.69
646.833	156.69
647.038	168.69
647.243	148.69
647.447	158.69
647.652	170.69
647.857	167.69
648.062	189.69
648.266	176.69
648.471	162.69
648.676	171.69
648.88	182.69
649.085	164.69
649.289	163.69
649.494	153.69
649.698	192.69
649.903	192.69
650.107	180.69
650.312	170.69
650.516	155.69
650.721	169.69
650.925	157.69
651.13	150.69
651.334	156.69
651.539	165.69
651.743	150.69
651.947	153.69
652.152	153.69
652.356	146.69
652.56	144.69
652.764	137.69
652.969	140.69
653.173	136.69
653.377	146.69
653.581	136.69
653.785	154.69
653.99	128.69
654.194	147.69
654.398	136.69
654.602	133.69
654.806	149.69
655.01	144.69
655.214	142.69
655.418	146.69
655.622	129.69
655.826	141.69
656.03	118.69
656.234	139.69
656.438	141.69
656.642	143.69
656.846	141.69
657.049	150.69
657.253	138.69
657.457	141.69
657.661	119.69
657.865	105.69
658.068	128.69
658.272	113.69
658.476	115.69
658.68	103.69
658.883	111.69
659.087	107.69
659.291	109.69
659.494	116.69
659.698	102.69
659.901	96.69
660.105	98.69
660.309	98.69
660.512	100.69
660.716	97.69
660.919	104.69
661.123	88.69
661.326	101.69
661.53	103.69
661.733	99.69
661.936	90.69
662.14	86.69
662.343	97.69
662.546	100.69
662.75	88.69
662.953	84.69
663.156	92.69
663.36	92.69
663.563	79.69
663.766	90.69
663.969	94.69
664.173	88.69
664.376	95.69
664.579	77.69
664.782	104.69
664.985	94.69
665.188	89.69
665.391	87.69
665.594	89.69
665.797	77.69
666	89.69
666.203	87.69
666.406	70.69
666.609	96.69
666.812	91.69
667.015	78.69
667.218	84.69
667.421	86.69
667.624	86.69
667.827	81.69
668.03	91.69
668.232	87.69
668.435	78.69
668.638	76.69
668.841	78.69
669.043	79.69
669.246	92.69
669.449	91.69
669.651	80.69
669.854	84.69
670.057	75.69
670.259	79.69
670.462	90.69
670.665	88.69
670.867	80.69
671.07	87.69
671.272	86.69
671.475	106.69
671.677	86.69
671.88	86.69
672.082	95.69
672.284	85.69
672.487	88.69
672.689	83.69
672.892	81.69
