Data from 1985.PennyLincolnUp.Lamp.En5.5.200Scan.071819.P1_HRD10591_17-04-23-971.txt Node
Date: Thu Jul 18 17:04:23 EDT 2019
User: cochatt
Spectrometer: HR+D1059
Trigger mode: 1
Integration Time (sec): 1.000000E-1
Scans to average: 1
Electric dark correction enabled: true
Nonlinearity correction enabled: false
Boxcar width: 0
XAxis mode: Wavelengths
Number of Pixels in Spectrum: 2048
>>>>>Begin Spectral Data<<<<<
223.165	-10.25
223.4	-10.25
223.635	-10.25
223.869	-18.25
224.104	-28.25
224.338	-31.25
224.573	-12.25
224.808	-11.25
225.042	-15.25
225.277	7.75
225.511	-3.25
225.746	-0.25
225.98	13.75
226.215	10.75
226.449	8.75
226.683	17.75
226.918	29.75
227.152	41.75
227.387	29.75
227.621	36.75
227.856	58.75
228.09	46.75
228.324	53.75
228.559	80.75
228.793	66.75
229.027	109.75
229.262	103.75
229.496	105.75
229.73	124.75
229.964	137.75
230.199	111.75
230.433	115.75
230.667	120.75
230.901	131.75
231.136	116.75
231.37	112.75
231.604	111.75
231.838	104.75
232.072	115.75
232.306	113.75
232.541	112.75
232.775	111.75
233.009	124.75
233.243	121.75
233.477	121.75
233.711	119.75
233.945	119.75
234.179	125.75
234.413	133.75
234.647	119.75
234.881	116.75
235.115	119.75
235.349	111.75
235.583	107.75
235.817	131.75
236.051	119.75
236.285	112.75
236.519	117.75
236.753	140.75
236.987	151.75
237.221	178.75
237.455	206.75
237.689	176.75
237.922	139.75
238.156	141.75
238.39	132.75
238.624	130.75
238.858	144.75
239.091	129.75
239.325	107.75
239.559	120.75
239.793	135.75
240.027	142.75
240.26	140.75
240.494	146.75
240.728	147.75
240.961	134.75
241.195	141.75
241.429	132.75
241.662	136.75
241.896	121.75
242.13	140.75
242.363	132.75
242.597	134.75
242.83	145.75
243.064	132.75
243.298	140.75
243.531	135.75
243.765	126.75
243.998	136.75
244.232	157.75
244.465	139.75
244.699	141.75
244.932	133.75
245.166	146.75
245.399	137.75
245.633	151.75
245.866	151.75
246.099	152.75
246.333	149.75
246.566	148.75
246.8	159.75
247.033	158.75
247.266	168.75
247.5	165.75
247.733	170.75
247.966	176.75
248.2	157.75
248.433	181.75
248.666	176.75
248.899	186.75
249.133	200.75
249.366	226.75
249.599	199.75
249.832	193.75
250.066	199.75
250.299	191.75
250.532	228.75
250.765	211.75
250.998	237.75
251.231	220.75
251.465	225.75
251.698	188.75
251.931	216.75
252.164	193.75
252.397	197.75
252.63	189.75
252.863	205.75
253.096	238.75
253.329	219.75
253.562	217.75
253.795	227.75
254.028	208.75
254.261	205.75
254.494	230.75
254.727	256.75
254.96	263.75
255.193	239.75
255.426	246.75
255.659	230.75
255.892	262.75
256.124	256.75
256.357	265.75
256.59	249.75
256.823	210.75
257.056	219.75
257.289	203.75
257.521	235.75
257.754	212.75
257.987	220.75
258.22	216.75
258.452	217.75
258.685	212.75
258.918	207.75
259.151	216.75
259.383	227.75
259.616	224.75
259.849	238.75
260.081	255.75
260.314	244.75
260.547	251.75
260.779	233.75
261.012	220.75
261.244	236.75
261.477	223.75
261.71	219.75
261.942	231.75
262.175	237.75
262.407	238.75
262.64	200.75
262.872	200.75
263.105	217.75
263.337	225.75
263.57	224.75
263.802	218.75
264.035	222.75
264.267	219.75
264.499	222.75
264.732	214.75
264.964	207.75
265.197	236.75
265.429	219.75
265.661	229.75
265.894	210.75
266.126	221.75
266.358	229.75
266.591	236.75
266.823	246.75
267.055	249.75
267.287	223.75
267.52	243.75
267.752	253.75
267.984	244.75
268.216	245.75
268.448	256.75
268.681	254.75
268.913	283.75
269.145	272.75
269.377	285.75
269.609	265.75
269.841	285.75
270.073	273.75
270.306	292.75
270.538	327.75
270.77	323.75
271.002	316.75
271.234	302.75
271.466	306.75
271.698	308.75
271.93	315.75
272.162	315.75
272.394	318.75
272.626	283.75
272.858	289.75
273.09	287.75
273.322	277.75
273.553	275.75
273.785	285.75
274.017	297.75
274.249	279.75
274.481	253.75
274.713	267.75
274.945	288.75
275.176	273.75
275.408	277.75
275.64	287.75
275.872	292.75
276.104	285.75
276.335	289.75
276.567	293.75
276.799	301.75
277.031	306.75
277.262	333.75
277.494	321.75
277.726	319.75
277.957	305.75
278.189	293.75
278.421	294.75
278.652	309.75
278.884	269.75
279.115	298.75
279.347	283.75
279.579	277.75
279.81	282.75
280.042	283.75
280.273	296.75
280.505	291.75
280.736	280.75
280.968	288.75
281.199	281.75
281.431	302.75
281.662	304.75
281.894	297.75
282.125	317.75
282.356	318.75
282.588	336.75
282.819	319.75
283.051	291.75
283.282	288.75
283.513	299.75
283.745	291.75
283.976	301.75
284.207	320.75
284.439	320.75
284.67	314.75
284.901	309.75
285.132	294.75
285.364	300.75
285.595	296.75
285.826	290.75
286.057	317.75
286.288	311.75
286.52	303.75
286.751	313.75
286.982	305.75
287.213	315.75
287.444	326.75
287.675	315.75
287.906	321.75
288.138	324.75
288.369	341.75
288.6	317.75
288.831	341.75
289.062	335.75
289.293	321.75
289.524	321.75
289.755	328.75
289.986	326.75
290.217	320.75
290.448	322.75
290.679	330.75
290.91	326.75
291.141	315.75
291.371	336.75
291.602	307.75
291.833	339.75
292.064	320.75
292.295	328.75
292.526	336.75
292.757	320.75
292.987	313.75
293.218	328.75
293.449	322.75
293.68	324.75
293.91	323.75
294.141	333.75
294.372	332.75
294.603	325.75
294.833	344.75
295.064	353.75
295.295	329.75
295.525	332.75
295.756	351.75
295.987	337.75
296.217	338.75
296.448	352.75
296.679	343.75
296.909	329.75
297.14	344.75
297.37	337.75
297.601	340.75
297.831	363.75
298.062	338.75
298.292	341.75
298.523	336.75
298.753	347.75
298.984	359.75
299.214	344.75
299.445	335.75
299.675	357.75
299.905	376.75
300.136	367.75
300.366	362.75
300.597	356.75
300.827	357.75
301.057	359.75
301.288	365.75
301.518	372.75
301.748	358.75
301.979	348.75
302.209	366.75
302.439	365.75
302.669	386.75
302.9	380.75
303.13	374.75
303.36	367.75
303.59	367.75
303.82	371.75
304.051	385.75
304.281	367.75
304.511	371.75
304.741	367.75
304.971	359.75
305.201	373.75
305.431	377.75
305.661	378.75
305.891	378.75
306.121	362.75
306.352	382.75
306.582	371.75
306.812	377.75
307.042	366.75
307.272	368.75
307.502	381.75
307.731	383.75
307.961	384.75
308.191	381.75
308.421	379.75
308.651	379.75
308.881	376.75
309.111	379.75
309.341	380.75
309.571	394.75
309.8	411.75
310.03	400.75
310.26	413.75
310.49	436.75
310.72	424.75
310.949	420.75
311.179	429.75
311.409	412.75
311.639	409.75
311.868	426.75
312.098	423.75
312.328	405.75
312.557	424.75
312.787	417.75
313.017	420.75
313.246	427.75
313.476	419.75
313.706	431.75
313.935	414.75
314.165	411.75
314.394	424.75
314.624	439.75
314.853	425.75
315.083	420.75
315.312	416.75
315.542	422.75
315.771	412.75
316.001	404.75
316.23	406.75
316.46	408.75
316.689	429.75
316.919	419.75
317.148	429.75
317.377	430.75
317.607	426.75
317.836	427.75
318.065	414.75
318.295	410.75
318.524	414.75
318.753	412.75
318.983	413.75
319.212	420.75
319.441	429.75
319.67	441.75
319.9	445.75
320.129	426.75
320.358	435.75
320.587	420.75
320.816	431.75
321.046	447.75
321.275	439.75
321.504	424.75
321.733	440.75
321.962	456.75
322.191	449.75
322.42	451.75
322.649	479.75
322.878	476.75
323.108	485.75
323.337	499.75
323.566	527.75
323.795	548.75
324.024	579.75
324.253	672.75
324.482	933.75
324.71	1435.75
324.939	1977.75
325.168	1680.75
325.397	891.75
325.626	645.75
325.855	563.75
326.084	525.75
326.313	528.75
326.542	511.75
326.77	581.75
326.999	679.75
327.228	884.75
327.457	1288.75
327.686	1486.75
327.914	1035.75
328.143	735.75
328.372	667.75
328.6	623.75
328.829	582.75
329.058	603.75
329.287	599.75
329.515	563.75
329.744	557.75
329.972	555.75
330.201	594.75
330.43	643.75
330.658	627.75
330.887	632.75
331.115	611.75
331.344	562.75
331.572	535.75
331.801	539.75
332.03	552.75
332.258	537.75
332.486	528.75
332.715	527.75
332.943	524.75
333.172	513.75
333.4	535.75
333.629	571.75
333.857	563.75
334.085	589.75
334.314	609.75
334.542	648.75
334.771	687.75
334.999	612.75
335.227	575.75
335.455	553.75
335.684	525.75
335.912	494.75
336.14	494.75
336.369	500.75
336.597	527.75
336.825	515.75
337.053	503.75
337.281	491.75
337.51	508.75
337.738	507.75
337.966	489.75
338.194	499.75
338.422	483.75
338.65	485.75
338.878	489.75
339.106	476.75
339.334	475.75
339.562	479.75
339.79	487.75
340.018	483.75
340.246	465.75
340.474	496.75
340.702	472.75
340.93	487.75
341.158	473.75
341.386	471.75
341.614	465.75
341.842	480.75
342.07	462.75
342.298	479.75
342.526	476.75
342.754	429.75
342.981	458.75
343.209	447.75
343.437	462.75
343.665	496.75
343.893	496.75
344.12	499.75
344.348	493.75
344.576	479.75
344.804	456.75
345.031	497.75
345.259	486.75
345.487	478.75
345.714	476.75
345.942	456.75
346.17	476.75
346.397	438.75
346.625	467.75
346.853	455.75
347.08	446.75
347.308	444.75
347.535	438.75
347.763	452.75
347.99	468.75
348.218	461.75
348.445	483.75
348.673	460.75
348.9	461.75
349.128	424.75
349.355	430.75
349.583	447.75
349.81	433.75
350.037	428.75
350.265	430.75
350.492	465.75
350.72	460.75
350.947	437.75
351.174	459.75
351.402	459.75
351.629	444.75
351.856	438.75
352.083	438.75
352.311	446.75
352.538	464.75
352.765	453.75
352.992	455.75
353.22	441.75
353.447	445.75
353.674	432.75
353.901	435.75
354.128	415.75
354.355	425.75
354.583	435.75
354.81	432.75
355.037	419.75
355.264	419.75
355.491	396.75
355.718	420.75
355.945	389.75
356.172	423.75
356.399	415.75
356.626	422.75
356.853	399.75
357.08	415.75
357.307	424.75
357.534	412.75
357.761	409.75
357.988	408.75
358.215	420.75
358.441	438.75
358.668	423.75
358.895	420.75
359.122	443.75
359.349	430.75
359.576	447.75
359.802	457.75
360.029	468.75
360.256	485.75
360.483	471.75
360.709	425.75
360.936	405.75
361.163	439.75
361.39	430.75
361.616	452.75
361.843	443.75
362.07	455.75
362.296	440.75
362.523	426.75
362.749	443.75
362.976	443.75
363.203	422.75
363.429	411.75
363.656	426.75
363.882	423.75
364.109	424.75
364.335	416.75
364.562	435.75
364.788	409.75
365.015	437.75
365.241	427.75
365.468	435.75
365.694	444.75
365.92	431.75
366.147	420.75
366.373	444.75
366.599	439.75
366.826	412.75
367.052	435.75
367.278	420.75
367.505	387.75
367.731	411.75
367.957	404.75
368.184	428.75
368.41	432.75
368.636	448.75
368.862	452.75
369.089	436.75
369.315	435.75
369.541	439.75
369.767	436.75
369.993	425.75
370.219	436.75
370.445	423.75
370.672	432.75
370.898	440.75
371.124	428.75
371.35	422.75
371.576	431.75
371.802	420.75
372.028	419.75
372.254	424.75
372.48	423.75
372.706	447.75
372.932	426.75
373.158	426.75
373.384	453.75
373.61	432.75
373.835	427.75
374.061	419.75
374.287	441.75
374.513	437.75
374.739	444.75
374.965	440.75
375.191	439.75
375.416	453.75
375.642	438.75
375.868	460.75
376.094	417.75
376.319	434.75
376.545	411.75
376.771	415.75
376.997	421.75
377.222	428.75
377.448	419.75
377.674	420.75
377.899	433.75
378.125	425.75
378.35	451.75
378.576	410.75
378.802	418.75
379.027	408.75
379.253	410.75
379.478	413.75
379.704	414.75
379.929	431.75
380.155	445.75
380.38	420.75
380.606	440.75
380.831	433.75
381.057	423.75
381.282	419.75
381.507	425.75
381.733	421.75
381.958	435.75
382.184	417.75
382.409	423.75
382.634	438.75
382.86	446.75
383.085	448.75
383.31	437.75
383.535	429.75
383.761	438.75
383.986	461.75
384.211	451.75
384.436	465.75
384.662	461.75
384.887	459.75
385.112	461.75
385.337	470.75
385.562	476.75
385.787	479.75
386.013	494.75
386.238	466.75
386.463	465.75
386.688	465.75
386.913	459.75
387.138	462.75
387.363	472.75
387.588	480.75
387.813	473.75
388.038	470.75
388.263	439.75
388.488	459.75
388.713	467.75
388.938	483.75
389.163	469.75
389.387	449.75
389.612	473.75
389.837	464.75
390.062	478.75
390.287	497.75
390.512	459.75
390.736	462.75
390.961	470.75
391.186	460.75
391.411	484.75
391.636	475.75
391.86	484.75
392.085	496.75
392.31	492.75
392.534	466.75
392.759	476.75
392.984	481.75
393.208	451.75
393.433	480.75
393.658	459.75
393.882	455.75
394.107	508.75
394.331	477.75
394.556	500.75
394.78	483.75
395.005	498.75
395.229	484.75
395.454	487.75
395.678	492.75
395.903	507.75
396.127	503.75
396.352	534.75
396.576	500.75
396.801	496.75
397.025	496.75
397.249	464.75
397.474	531.75
397.698	527.75
397.922	523.75
398.147	552.75
398.371	540.75
398.595	541.75
398.82	549.75
399.044	586.75
399.268	621.75
399.492	628.75
399.717	695.75
399.941	693.75
400.165	697.75
400.389	664.75
400.613	617.75
400.837	582.75
401.062	565.75
401.286	533.75
401.51	563.75
401.734	549.75
401.958	563.75
402.182	561.75
402.406	541.75
402.63	560.75
402.854	579.75
403.078	559.75
403.302	559.75
403.526	585.75
403.75	573.75
403.974	587.75
404.198	572.75
404.422	599.75
404.645	588.75
404.869	620.75
405.093	624.75
405.317	678.75
405.541	686.75
405.765	648.75
405.988	629.75
406.212	620.75
406.436	627.75
406.66	625.75
406.883	647.75
407.107	645.75
407.331	683.75
407.555	729.75
407.778	737.75
408.002	682.75
408.226	657.75
408.449	629.75
408.673	611.75
408.896	640.75
409.12	657.75
409.344	649.75
409.567	613.75
409.791	580.75
410.014	584.75
410.238	566.75
410.461	570.75
410.685	578.75
410.908	586.75
411.132	632.75
411.355	656.75
411.578	609.75
411.802	588.75
412.025	551.75
412.249	565.75
412.472	613.75
412.695	649.75
412.919	645.75
413.142	589.75
413.365	565.75
413.589	585.75
413.812	555.75
414.035	521.75
414.258	533.75
414.482	539.75
414.705	521.75
414.928	531.75
415.151	533.75
415.374	560.75
415.597	545.75
415.821	526.75
416.044	528.75
416.267	515.75
416.49	538.75
416.713	529.75
416.936	555.75
417.159	529.75
417.382	530.75
417.605	532.75
417.828	546.75
418.051	543.75
418.274	523.75
418.497	538.75
418.72	518.75
418.943	524.75
419.166	549.75
419.389	573.75
419.611	584.75
419.834	565.75
420.057	589.75
420.28	549.75
420.503	574.75
420.726	574.75
420.948	572.75
421.171	590.75
421.394	631.75
421.617	576.75
421.839	555.75
422.062	548.75
422.285	564.75
422.507	606.75
422.73	661.75
422.953	636.75
423.175	563.75
423.398	571.75
423.621	565.75
423.843	586.75
424.066	581.75
424.288	575.75
424.511	608.75
424.733	645.75
424.956	721.75
425.178	683.75
425.401	702.75
425.623	694.75
425.846	605.75
426.068	556.75
426.291	568.75
426.513	579.75
426.735	587.75
426.958	634.75
427.18	677.75
427.402	779.75
427.625	876.75
427.847	756.75
428.069	673.75
428.292	624.75
428.514	587.75
428.736	543.75
428.958	548.75
429.181	525.75
429.403	509.75
429.625	533.75
429.847	550.75
430.069	612.75
430.292	609.75
430.514	539.75
430.736	531.75
430.958	518.75
431.18	520.75
431.402	501.75
431.624	477.75
431.846	485.75
432.068	458.75
432.29	495.75
432.512	496.75
432.734	500.75
432.956	509.75
433.178	518.75
433.4	497.75
433.622	490.75
433.844	497.75
434.066	491.75
434.287	469.75
434.509	523.75
434.731	539.75
434.953	524.75
435.175	549.75
435.397	565.75
435.618	538.75
435.84	605.75
436.062	686.75
436.284	743.75
436.505	617.75
436.727	575.75
436.949	525.75
437.17	516.75
437.392	510.75
437.614	529.75
437.835	576.75
438.057	655.75
438.278	717.75
438.5	744.75
438.721	774.75
438.943	751.75
439.165	609.75
439.386	548.75
439.608	566.75
439.829	558.75
440.05	572.75
440.272	623.75
440.493	581.75
440.715	563.75
440.936	545.75
441.158	545.75
441.379	544.75
441.6	544.75
441.822	570.75
442.043	608.75
442.264	684.75
442.486	711.75
442.707	620.75
442.928	584.75
443.149	589.75
443.371	590.75
443.592	639.75
443.813	741.75
444.034	803.75
444.255	661.75
444.476	608.75
444.698	610.75
444.919	619.75
445.14	717.75
445.361	662.75
445.582	625.75
445.803	662.75
446.024	742.75
446.245	730.75
446.466	689.75
446.687	577.75
446.908	559.75
447.129	515.75
447.35	509.75
447.571	503.75
447.792	515.75
448.013	527.75
448.234	527.75
448.455	563.75
448.675	661.75
448.896	773.75
449.117	639.75
449.338	639.75
449.559	694.75
449.779	788.75
450	640.75
450.221	553.75
450.442	511.75
450.662	485.75
450.883	484.75
451.104	524.75
451.324	500.75
451.545	485.75
451.766	480.75
451.986	479.75
452.207	471.75
452.428	450.75
452.648	462.75
452.869	462.75
453.089	496.75
453.31	492.75
453.53	484.75
453.751	472.75
453.971	480.75
454.192	491.75
454.412	458.75
454.633	455.75
454.853	448.75
455.073	468.75
455.294	499.75
455.514	534.75
455.734	525.75
455.955	467.75
456.175	451.75
456.395	453.75
456.616	439.75
456.836	429.75
457.056	414.75
457.276	443.75
457.497	453.75
457.717	453.75
457.937	459.75
458.157	448.75
458.377	457.75
458.598	485.75
458.818	537.75
459.038	611.75
459.258	601.75
459.478	549.75
459.698	514.75
459.918	503.75
460.138	503.75
460.358	506.75
460.578	549.75
460.798	526.75
461.018	542.75
461.238	532.75
461.458	554.75
461.678	518.75
461.898	560.75
462.118	524.75
462.338	563.75
462.558	572.75
462.777	565.75
462.997	600.75
463.217	623.75
463.437	621.75
463.657	594.75
463.876	592.75
464.096	575.75
464.316	569.75
464.536	600.75
464.755	577.75
464.975	585.75
465.195	586.75
465.414	635.75
465.634	568.75
465.854	529.75
466.073	525.75
466.293	511.75
466.512	473.75
466.732	456.75
466.951	502.75
467.171	472.75
467.391	477.75
467.61	487.75
467.829	501.75
468.049	501.75
468.268	497.75
468.488	478.75
468.707	481.75
468.927	477.75
469.146	474.75
469.365	464.75
469.585	474.75
469.804	488.75
470.023	481.75
470.243	500.75
470.462	511.75
470.681	510.75
470.901	531.75
471.12	473.75
471.339	500.75
471.558	496.75
471.777	475.75
471.997	485.75
472.216	513.75
472.435	544.75
472.654	539.75
472.873	524.75
473.092	504.75
473.311	468.75
473.53	507.75
473.749	504.75
473.968	519.75
474.187	597.75
474.406	629.75
474.625	527.75
474.844	501.75
475.063	497.75
475.282	485.75
475.501	491.75
475.72	505.75
475.939	499.75
476.158	458.75
476.377	503.75
476.596	485.75
476.814	513.75
477.033	515.75
477.252	514.75
477.471	522.75
477.69	538.75
477.908	537.75
478.127	554.75
478.346	546.75
478.564	551.75
478.783	564.75
479.002	550.75
479.22	568.75
479.439	578.75
479.658	591.75
479.876	589.75
480.095	611.75
480.313	648.75
480.532	619.75
480.751	609.75
480.969	639.75
481.188	686.75
481.406	768.75
481.624	659.75
481.843	618.75
482.061	583.75
482.28	597.75
482.498	567.75
482.717	598.75
482.935	578.75
483.153	569.75
483.372	581.75
483.59	558.75
483.808	572.75
484.027	572.75
484.245	557.75
484.463	553.75
484.681	579.75
484.9	575.75
485.118	592.75
485.336	581.75
485.554	592.75
485.772	576.75
485.99	578.75
486.209	565.75
486.427	575.75
486.645	581.75
486.863	611.75
487.081	603.75
487.299	594.75
487.517	597.75
487.735	596.75
487.953	606.75
488.171	596.75
488.389	597.75
488.607	587.75
488.825	601.75
489.043	638.75
489.261	631.75
489.479	635.75
489.696	628.75
489.914	612.75
490.132	637.75
490.35	655.75
490.568	633.75
490.786	633.75
491.003	653.75
491.221	669.75
491.439	663.75
491.657	693.75
491.874	708.75
492.092	713.75
492.31	693.75
492.527	724.75
492.745	715.75
492.963	719.75
493.18	726.75
493.398	698.75
493.615	737.75
493.833	736.75
494.05	736.75
494.268	716.75
494.485	705.75
494.703	701.75
494.92	708.75
495.138	696.75
495.355	750.75
495.573	726.75
495.79	733.75
496.008	725.75
496.225	713.75
496.442	714.75
496.66	731.75
496.877	731.75
497.094	718.75
497.312	715.75
497.529	727.75
497.746	758.75
497.963	781.75
498.181	796.75
498.398	825.75
498.615	845.75
498.832	872.75
499.049	896.75
499.267	872.75
499.484	938.75
499.701	997.75
499.918	1041.75
500.135	1132.75
500.352	1213.75
500.569	1212.75
500.786	1220.75
501.003	1196.75
501.22	1129.75
501.437	1054.75
501.654	1019.75
501.871	963.75
502.088	929.75
502.305	886.75
502.522	889.75
502.739	838.75
502.956	806.75
503.172	772.75
503.389	761.75
503.606	760.75
503.823	769.75
504.04	736.75
504.256	711.75
504.473	723.75
504.69	740.75
504.907	745.75
505.123	719.75
505.34	722.75
505.557	684.75
505.773	707.75
505.99	681.75
506.207	678.75
506.423	649.75
506.64	680.75
506.856	654.75
507.073	672.75
507.289	665.75
507.506	649.75
507.722	649.75
507.939	637.75
508.155	668.75
508.372	643.75
508.588	610.75
508.805	612.75
509.021	606.75
509.238	644.75
509.454	643.75
509.67	633.75
509.887	623.75
510.103	624.75
510.319	616.75
510.536	698.75
510.752	1132.75
510.968	913.75
511.184	615.75
511.401	618.75
511.617	606.75
511.833	623.75
512.049	623.75
512.265	607.75
512.481	602.75
512.698	587.75
512.914	580.75
513.13	595.75
513.346	583.75
513.562	567.75
513.778	614.75
513.994	608.75
514.21	574.75
514.426	629.75
514.642	661.75
514.858	677.75
515.074	702.75
515.29	816.75
515.506	1164.75
515.721	978.75
515.937	725.75
516.153	643.75
516.369	620.75
516.585	625.75
516.801	643.75
517.016	657.75
517.232	635.75
517.448	668.75
517.664	634.75
517.879	690.75
518.095	688.75
518.311	643.75
518.527	630.75
518.742	656.75
518.958	627.75
519.173	637.75
519.389	622.75
519.605	613.75
519.82	609.75
520.036	619.75
520.251	627.75
520.467	641.75
520.682	625.75
520.898	637.75
521.113	661.75
521.329	672.75
521.544	753.75
521.76	920.75
521.975	1455.75
522.19	1479.75
522.406	845.75
522.621	655.75
522.836	598.75
523.052	594.75
523.267	571.75
523.482	543.75
523.698	547.75
523.913	547.75
524.128	550.75
524.343	539.75
524.559	505.75
524.774	525.75
524.989	529.75
525.204	513.75
525.419	539.75
525.634	524.75
525.849	522.75
526.064	496.75
526.28	491.75
526.495	483.75
526.71	491.75
526.925	520.75
527.14	479.75
527.355	497.75
527.57	481.75
527.785	495.75
527.999	492.75
528.214	465.75
528.429	516.75
528.644	485.75
528.859	492.75
529.074	521.75
529.289	497.75
529.503	585.75
529.718	561.75
529.933	536.75
530.148	520.75
530.363	506.75
530.577	485.75
530.792	461.75
531.007	498.75
531.221	492.75
531.436	478.75
531.651	491.75
531.865	496.75
532.08	482.75
532.295	465.75
532.509	471.75
532.724	466.75
532.938	473.75
533.153	508.75
533.367	478.75
533.582	471.75
533.796	459.75
534.011	480.75
534.225	473.75
534.44	463.75
534.654	479.75
534.868	476.75
535.083	459.75
535.297	457.75
535.511	458.75
535.726	495.75
535.94	488.75
536.154	434.75
536.369	468.75
536.583	464.75
536.797	461.75
537.011	458.75
537.225	462.75
537.44	450.75
537.654	435.75
537.868	446.75
538.082	459.75
538.296	445.75
538.51	451.75
538.724	463.75
538.938	466.75
539.153	470.75
539.367	479.75
539.581	449.75
539.795	441.75
540.009	457.75
540.222	450.75
540.436	448.75
540.65	448.75
540.864	464.75
541.078	446.75
541.292	456.75
541.506	451.75
541.72	444.75
541.934	463.75
542.147	440.75
542.361	451.75
542.575	443.75
542.789	457.75
543.002	439.75
543.216	443.75
543.43	444.75
543.644	440.75
543.857	448.75
544.071	457.75
544.285	449.75
544.498	430.75
544.712	436.75
544.925	459.75
545.139	447.75
545.352	414.75
545.566	423.75
545.779	459.75
545.993	439.75
546.206	428.75
546.42	446.75
546.633	429.75
546.847	426.75
547.06	449.75
547.274	443.75
547.487	451.75
547.7	417.75
547.914	448.75
548.127	431.75
548.34	417.75
548.554	423.75
548.767	432.75
548.98	437.75
549.193	443.75
549.407	427.75
549.62	446.75
549.833	445.75
550.046	423.75
550.259	434.75
550.473	432.75
550.686	425.75
550.899	438.75
551.112	435.75
551.325	424.75
551.538	415.75
551.751	426.75
551.964	428.75
552.177	445.75
552.39	439.75
552.603	443.75
552.816	456.75
553.029	429.75
553.242	465.75
553.455	444.75
553.667	448.75
553.88	457.75
554.093	479.75
554.306	443.75
554.519	436.75
554.732	423.75
554.944	452.75
555.157	415.75
555.37	419.75
555.583	415.75
555.795	427.75
556.008	412.75
556.221	400.75
556.433	408.75
556.646	396.75
556.859	395.75
557.071	401.75
557.284	391.75
557.496	396.75
557.709	387.75
557.921	407.75
558.134	393.75
558.346	381.75
558.559	400.75
558.771	392.75
558.984	381.75
559.196	383.75
559.409	386.75
559.621	380.75
559.833	367.75
560.046	381.75
560.258	372.75
560.47	387.75
560.683	381.75
560.895	375.75
561.107	373.75
561.32	373.75
561.532	369.75
561.744	399.75
561.956	391.75
562.168	382.75
562.381	397.75
562.593	384.75
562.805	375.75
563.017	368.75
563.229	385.75
563.441	381.75
563.653	406.75
563.865	379.75
564.077	388.75
564.289	396.75
564.501	391.75
564.713	401.75
564.925	398.75
565.137	394.75
565.349	416.75
565.561	435.75
565.773	443.75
565.985	451.75
566.197	463.75
566.408	488.75
566.62	484.75
566.832	528.75
567.044	515.75
567.255	531.75
567.467	558.75
567.679	539.75
567.891	541.75
568.102	569.75
568.314	549.75
568.526	493.75
568.737	484.75
568.949	454.75
569.161	465.75
569.372	435.75
569.584	412.75
569.795	408.75
570.007	419.75
570.218	445.75
570.43	427.75
570.641	390.75
570.853	385.75
571.064	390.75
571.276	395.75
571.487	382.75
571.698	361.75
571.91	352.75
572.121	352.75
572.333	358.75
572.544	351.75
572.755	360.75
572.966	343.75
573.178	337.75
573.389	330.75
573.6	355.75
573.811	341.75
574.023	342.75
574.234	339.75
574.445	350.75
574.656	326.75
574.867	341.75
575.078	339.75
575.289	318.75
575.501	326.75
575.712	328.75
575.923	331.75
576.134	314.75
576.345	320.75
576.556	327.75
576.767	338.75
576.978	305.75
577.188	325.75
577.399	304.75
577.61	325.75
577.821	304.75
578.032	327.75
578.243	354.75
578.454	525.75
578.665	424.75
578.875	360.75
579.086	307.75
579.297	299.75
579.508	302.75
579.718	282.75
579.929	295.75
580.14	281.75
580.35	305.75
580.561	305.75
580.772	294.75
580.982	288.75
581.193	301.75
581.403	290.75
581.614	311.75
581.825	301.75
582.035	321.75
582.246	324.75
582.456	290.75
582.667	279.75
582.877	293.75
583.087	311.75
583.298	283.75
583.508	283.75
583.719	301.75
583.929	293.75
584.139	300.75
584.35	286.75
584.56	285.75
584.77	293.75
584.981	309.75
585.191	294.75
585.401	286.75
585.611	297.75
585.821	289.75
586.032	273.75
586.242	285.75
586.452	289.75
586.662	296.75
586.872	293.75
587.082	285.75
587.292	297.75
587.502	289.75
587.713	284.75
587.923	263.75
588.133	292.75
588.343	279.75
588.553	292.75
588.762	272.75
588.972	290.75
589.182	279.75
589.392	293.75
589.602	302.75
589.812	293.75
590.022	294.75
590.232	297.75
590.441	294.75
590.651	285.75
590.861	285.75
591.071	268.75
591.281	277.75
591.49	299.75
591.7	308.75
591.91	313.75
592.119	320.75
592.329	314.75
592.539	327.75
592.748	311.75
592.958	336.75
593.167	304.75
593.377	347.75
593.587	326.75
593.796	336.75
594.006	332.75
594.215	297.75
594.424	315.75
594.634	335.75
594.843	314.75
595.053	307.75
595.262	308.75
595.472	320.75
595.681	303.75
595.89	299.75
596.1	295.75
596.309	283.75
596.518	283.75
596.727	264.75
596.937	271.75
597.146	288.75
597.355	267.75
597.564	278.75
597.774	264.75
597.983	269.75
598.192	279.75
598.401	248.75
598.61	244.75
598.819	252.75
599.028	254.75
599.237	247.75
599.446	261.75
599.655	245.75
599.864	266.75
600.073	257.75
600.282	260.75
600.491	253.75
600.7	242.75
600.909	247.75
601.118	240.75
601.327	243.75
601.536	257.75
601.745	247.75
601.953	250.75
602.162	251.75
602.371	259.75
602.58	241.75
602.789	256.75
602.997	244.75
603.206	238.75
603.415	249.75
603.623	250.75
603.832	231.75
604.041	257.75
604.249	259.75
604.458	243.75
604.666	244.75
604.875	223.75
605.084	245.75
605.292	247.75
605.501	249.75
605.709	239.75
605.918	229.75
606.126	241.75
606.334	239.75
606.543	241.75
606.751	243.75
606.96	243.75
607.168	247.75
607.376	236.75
607.585	234.75
607.793	226.75
608.001	220.75
608.21	235.75
608.418	227.75
608.626	224.75
608.834	232.75
609.043	236.75
609.251	238.75
609.459	251.75
609.667	233.75
609.875	228.75
610.083	220.75
610.291	238.75
610.499	221.75
610.707	233.75
610.916	232.75
611.124	241.75
611.332	246.75
611.54	244.75
611.748	233.75
611.955	239.75
612.163	222.75
612.371	239.75
612.579	228.75
612.787	236.75
612.995	230.75
613.203	226.75
613.411	223.75
613.618	226.75
613.826	233.75
614.034	225.75
614.242	225.75
614.449	237.75
614.657	224.75
614.865	212.75
615.072	228.75
615.28	222.75
615.488	220.75
615.695	225.75
615.903	222.75
616.111	229.75
616.318	255.75
616.526	236.75
616.733	235.75
616.941	213.75
617.148	221.75
617.356	243.75
617.563	235.75
617.771	239.75
617.978	227.75
618.185	220.75
618.393	222.75
618.6	229.75
618.807	225.75
619.015	223.75
619.222	217.75
619.429	204.75
619.637	215.75
619.844	239.75
620.051	229.75
620.258	227.75
620.466	212.75
620.673	213.75
620.88	216.75
621.087	220.75
621.294	218.75
621.501	213.75
621.708	221.75
621.915	234.75
622.122	236.75
622.329	226.75
622.536	221.75
622.743	226.75
622.95	200.75
623.157	207.75
623.364	200.75
623.571	213.75
623.778	212.75
623.985	202.75
624.192	214.75
624.399	217.75
624.606	213.75
624.812	197.75
625.019	205.75
625.226	226.75
625.433	208.75
625.639	223.75
625.846	201.75
626.053	191.75
626.259	193.75
626.466	207.75
626.673	201.75
626.879	208.75
627.086	216.75
627.293	203.75
627.499	213.75
627.706	199.75
627.912	203.75
628.119	205.75
628.325	196.75
628.532	190.75
628.738	193.75
628.945	207.75
629.151	184.75
629.357	185.75
629.564	193.75
629.77	202.75
629.976	195.75
630.183	193.75
630.389	184.75
630.595	188.75
630.802	211.75
631.008	195.75
631.214	187.75
631.42	193.75
631.627	190.75
631.833	183.75
632.039	185.75
632.245	185.75
632.451	191.75
632.657	188.75
632.863	192.75
633.069	182.75
633.275	183.75
633.481	175.75
633.688	176.75
633.893	189.75
634.099	186.75
634.305	192.75
634.511	180.75
634.717	167.75
634.923	168.75
635.129	173.75
635.335	175.75
635.541	191.75
635.747	186.75
635.952	181.75
636.158	169.75
636.364	184.75
636.57	184.75
636.775	185.75
636.981	174.75
637.187	184.75
637.392	175.75
637.598	188.75
637.804	179.75
638.009	187.75
638.215	185.75
638.421	178.75
638.626	186.75
638.832	181.75
639.037	173.75
639.243	158.75
639.448	177.75
639.654	174.75
639.859	167.75
640.065	166.75
640.27	177.75
640.475	181.75
640.681	178.75
640.886	166.75
641.091	164.75
641.297	173.75
641.502	187.75
641.707	168.75
641.913	163.75
642.118	161.75
642.323	182.75
642.528	161.75
642.733	179.75
642.939	161.75
643.144	155.75
643.349	157.75
643.554	174.75
643.759	167.75
643.964	161.75
644.169	166.75
644.374	150.75
644.579	165.75
644.784	186.75
644.989	169.75
645.194	153.75
645.399	159.75
645.604	168.75
645.809	181.75
646.014	166.75
646.219	172.75
646.423	161.75
646.628	151.75
646.833	155.75
647.038	159.75
647.243	162.75
647.447	165.75
647.652	168.75
647.857	174.75
648.062	176.75
648.266	167.75
648.471	167.75
648.676	175.75
648.88	152.75
649.085	172.75
649.289	177.75
649.494	171.75
649.698	191.75
649.903	180.75
650.107	163.75
650.312	151.75
650.516	168.75
650.721	171.75
650.925	165.75
651.13	157.75
651.334	162.75
651.539	168.75
651.743	160.75
651.947	151.75
652.152	142.75
652.356	143.75
652.56	149.75
652.764	129.75
652.969	150.75
653.173	139.75
653.377	136.75
653.581	126.75
653.785	139.75
653.99	139.75
654.194	134.75
654.398	149.75
654.602	127.75
654.806	129.75
655.01	163.75
655.214	154.75
655.418	124.75
655.622	143.75
655.826	145.75
656.03	134.75
656.234	140.75
656.438	140.75
656.642	159.75
656.846	141.75
657.049	122.75
657.253	129.75
657.457	122.75
657.661	122.75
657.865	117.75
658.068	118.75
658.272	117.75
658.476	116.75
658.68	99.75
658.883	113.75
659.087	103.75
659.291	107.75
659.494	102.75
659.698	112.75
659.901	117.75
660.105	103.75
660.309	96.75
660.512	101.75
660.716	100.75
660.919	92.75
661.123	121.75
661.326	77.75
661.53	97.75
661.733	100.75
661.936	90.75
662.14	90.75
662.343	99.75
662.546	110.75
662.75	103.75
662.953	97.75
663.156	88.75
663.36	96.75
663.563	100.75
663.766	104.75
663.969	85.75
664.173	94.75
664.376	98.75
664.579	83.75
664.782	85.75
664.985	108.75
665.188	73.75
665.391	87.75
665.594	84.75
665.797	80.75
666	81.75
666.203	105.75
666.406	85.75
666.609	69.75
666.812	92.75
667.015	95.75
667.218	83.75
667.421	76.75
667.624	73.75
667.827	75.75
668.03	76.75
668.232	81.75
668.435	86.75
668.638	83.75
668.841	87.75
669.043	85.75
669.246	86.75
669.449	80.75
669.651	83.75
669.854	87.75
670.057	89.75
670.259	77.75
670.462	79.75
670.665	81.75
670.867	82.75
671.07	90.75
671.272	87.75
671.475	82.75
671.677	80.75
671.88	79.75
672.082	74.75
672.284	93.75
672.487	77.75
672.689	93.75
672.892	70.75
