Data from 1985.PennyLincolnUp.Lamp.En5.5.200Scan.071819.P1_HRD10591_17-03-48-970.txt Node
Date: Thu Jul 18 17:03:48 EDT 2019
User: cochatt
Spectrometer: HR+D1059
Trigger mode: 1
Integration Time (sec): 1.000000E-1
Scans to average: 1
Electric dark correction enabled: true
Nonlinearity correction enabled: false
Boxcar width: 0
XAxis mode: Wavelengths
Number of Pixels in Spectrum: 2048
>>>>>Begin Spectral Data<<<<<
223.165	-30.31
223.4	-30.31
223.635	-30.31
223.869	-13.31
224.104	-2.31
224.338	-13.31
224.573	-20.31
224.808	-5.31
225.042	-13.31
225.277	-6.31
225.511	-3.31
225.746	2.69
225.98	-3.31
226.215	16.69
226.449	16.69
226.683	20.69
226.918	29.69
227.152	24.69
227.387	36.69
227.621	27.69
227.856	37.69
228.09	46.69
228.324	60.69
228.559	51.69
228.793	68.69
229.027	77.69
229.262	93.69
229.496	105.69
229.73	128.69
229.964	140.69
230.199	136.69
230.433	100.69
230.667	117.69
230.901	108.69
231.136	115.69
231.37	115.69
231.604	105.69
231.838	119.69
232.072	103.69
232.306	106.69
232.541	127.69
232.775	120.69
233.009	108.69
233.243	116.69
233.477	114.69
233.711	118.69
233.945	108.69
234.179	122.69
234.413	107.69
234.647	113.69
234.881	120.69
235.115	121.69
235.349	108.69
235.583	134.69
235.817	124.69
236.051	139.69
236.285	135.69
236.519	138.69
236.753	118.69
236.987	147.69
237.221	179.69
237.455	232.69
237.689	178.69
237.922	143.69
238.156	140.69
238.39	146.69
238.624	109.69
238.858	120.69
239.091	132.69
239.325	130.69
239.559	132.69
239.793	106.69
240.027	146.69
240.26	146.69
240.494	145.69
240.728	139.69
240.961	146.69
241.195	154.69
241.429	140.69
241.662	124.69
241.896	133.69
242.13	138.69
242.363	135.69
242.597	121.69
242.83	131.69
243.064	132.69
243.298	135.69
243.531	142.69
243.765	135.69
243.998	128.69
244.232	141.69
244.465	139.69
244.699	164.69
244.932	152.69
245.166	148.69
245.399	136.69
245.633	142.69
245.866	158.69
246.099	145.69
246.333	152.69
246.566	130.69
246.8	160.69
247.033	164.69
247.266	173.69
247.5	166.69
247.733	168.69
247.966	172.69
248.2	169.69
248.433	168.69
248.666	166.69
248.899	172.69
249.133	189.69
249.366	212.69
249.599	188.69
249.832	173.69
250.066	166.69
250.299	186.69
250.532	201.69
250.765	202.69
250.998	226.69
251.231	222.69
251.465	192.69
251.698	211.69
251.931	202.69
252.164	196.69
252.397	194.69
252.63	215.69
252.863	205.69
253.096	209.69
253.329	225.69
253.562	232.69
253.795	201.69
254.028	213.69
254.261	208.69
254.494	200.69
254.727	232.69
254.96	283.69
255.193	274.69
255.426	245.69
255.659	240.69
255.892	222.69
256.124	246.69
256.357	245.69
256.59	232.69
256.823	227.69
257.056	211.69
257.289	222.69
257.521	206.69
257.754	229.69
257.987	214.69
258.22	237.69
258.452	204.69
258.685	215.69
258.918	203.69
259.151	222.69
259.383	229.69
259.616	210.69
259.849	228.69
260.081	254.69
260.314	241.69
260.547	268.69
260.779	260.69
261.012	254.69
261.244	219.69
261.477	225.69
261.71	214.69
261.942	237.69
262.175	235.69
262.407	232.69
262.64	212.69
262.872	221.69
263.105	215.69
263.337	217.69
263.57	227.69
263.802	232.69
264.035	222.69
264.267	216.69
264.499	211.69
264.732	224.69
264.964	227.69
265.197	217.69
265.429	244.69
265.661	227.69
265.894	231.69
266.126	247.69
266.358	246.69
266.591	234.69
266.823	229.69
267.055	226.69
267.287	236.69
267.52	223.69
267.752	228.69
267.984	252.69
268.216	233.69
268.448	256.69
268.681	247.69
268.913	260.69
269.145	280.69
269.377	268.69
269.609	273.69
269.841	283.69
270.073	283.69
270.306	294.69
270.538	307.69
270.77	325.69
271.002	294.69
271.234	295.69
271.466	312.69
271.698	318.69
271.93	311.69
272.162	326.69
272.394	306.69
272.626	318.69
272.858	321.69
273.09	293.69
273.322	280.69
273.553	280.69
273.785	276.69
274.017	279.69
274.249	280.69
274.481	268.69
274.713	273.69
274.945	279.69
275.176	297.69
275.408	294.69
275.64	288.69
275.872	273.69
276.104	277.69
276.335	282.69
276.567	285.69
276.799	286.69
277.031	301.69
277.262	331.69
277.494	333.69
277.726	309.69
277.957	310.69
278.189	308.69
278.421	277.69
278.652	296.69
278.884	279.69
279.115	290.69
279.347	294.69
279.579	297.69
279.81	279.69
280.042	289.69
280.273	293.69
280.505	301.69
280.736	288.69
280.968	282.69
281.199	292.69
281.431	289.69
281.662	288.69
281.894	293.69
282.125	283.69
282.356	304.69
282.588	320.69
282.819	328.69
283.051	305.69
283.282	294.69
283.513	302.69
283.745	313.69
283.976	311.69
284.207	315.69
284.439	313.69
284.67	316.69
284.901	314.69
285.132	304.69
285.364	305.69
285.595	294.69
285.826	310.69
286.057	323.69
286.288	294.69
286.52	331.69
286.751	319.69
286.982	330.69
287.213	315.69
287.444	306.69
287.675	326.69
287.906	331.69
288.138	328.69
288.369	325.69
288.6	327.69
288.831	325.69
289.062	324.69
289.293	326.69
289.524	320.69
289.755	326.69
289.986	321.69
290.217	312.69
290.448	320.69
290.679	307.69
290.91	336.69
291.141	333.69
291.371	327.69
291.602	322.69
291.833	324.69
292.064	332.69
292.295	315.69
292.526	326.69
292.757	331.69
292.987	317.69
293.218	321.69
293.449	334.69
293.68	326.69
293.91	334.69
294.141	310.69
294.372	330.69
294.603	313.69
294.833	330.69
295.064	314.69
295.295	332.69
295.525	316.69
295.756	332.69
295.987	338.69
296.217	370.69
296.448	369.69
296.679	347.69
296.909	328.69
297.14	332.69
297.37	331.69
297.601	334.69
297.831	330.69
298.062	339.69
298.292	335.69
298.523	354.69
298.753	336.69
298.984	333.69
299.214	359.69
299.445	347.69
299.675	333.69
299.905	362.69
300.136	371.69
300.366	359.69
300.597	342.69
300.827	369.69
301.057	381.69
301.288	372.69
301.518	372.69
301.748	365.69
301.979	372.69
302.209	374.69
302.439	374.69
302.669	387.69
302.9	372.69
303.13	365.69
303.36	371.69
303.59	372.69
303.82	392.69
304.051	377.69
304.281	376.69
304.511	378.69
304.741	375.69
304.971	372.69
305.201	371.69
305.431	372.69
305.661	375.69
305.891	357.69
306.121	354.69
306.352	354.69
306.582	370.69
306.812	359.69
307.042	400.69
307.272	374.69
307.502	389.69
307.731	374.69
307.961	378.69
308.191	391.69
308.421	375.69
308.651	383.69
308.881	377.69
309.111	389.69
309.341	370.69
309.571	406.69
309.8	400.69
310.03	409.69
310.26	401.69
310.49	414.69
310.72	416.69
310.949	422.69
311.179	446.69
311.409	414.69
311.639	404.69
311.868	398.69
312.098	423.69
312.328	424.69
312.557	428.69
312.787	444.69
313.017	425.69
313.246	426.69
313.476	398.69
313.706	427.69
313.935	421.69
314.165	448.69
314.394	448.69
314.624	436.69
314.853	434.69
315.083	427.69
315.312	424.69
315.542	406.69
315.771	412.69
316.001	429.69
316.23	434.69
316.46	414.69
316.689	412.69
316.919	409.69
317.148	433.69
317.377	422.69
317.607	416.69
317.836	419.69
318.065	413.69
318.295	429.69
318.524	429.69
318.753	445.69
318.983	427.69
319.212	414.69
319.441	430.69
319.67	429.69
319.9	429.69
320.129	424.69
320.358	413.69
320.587	419.69
320.816	440.69
321.046	424.69
321.275	454.69
321.504	436.69
321.733	440.69
321.962	465.69
322.191	453.69
322.42	477.69
322.649	468.69
322.878	489.69
323.108	501.69
323.337	509.69
323.566	505.69
323.795	561.69
324.024	603.69
324.253	697.69
324.482	959.69
324.71	1406.69
324.939	2081.69
325.168	1744.69
325.397	935.69
325.626	652.69
325.855	562.69
326.084	538.69
326.313	520.69
326.542	544.69
326.77	578.69
326.999	662.69
327.228	898.69
327.457	1295.69
327.686	1527.69
327.914	1042.69
328.143	730.69
328.372	651.69
328.6	618.69
328.829	576.69
329.058	584.69
329.287	616.69
329.515	575.69
329.744	544.69
329.972	538.69
330.201	578.69
330.43	615.69
330.658	637.69
330.887	652.69
331.115	624.69
331.344	564.69
331.572	553.69
331.801	541.69
332.03	552.69
332.258	528.69
332.486	519.69
332.715	524.69
332.943	539.69
333.172	542.69
333.4	534.69
333.629	551.69
333.857	580.69
334.085	586.69
334.314	580.69
334.542	638.69
334.771	646.69
334.999	581.69
335.227	534.69
335.455	532.69
335.684	522.69
335.912	506.69
336.14	496.69
336.369	527.69
336.597	517.69
336.825	542.69
337.053	508.69
337.281	506.69
337.51	487.69
337.738	510.69
337.966	475.69
338.194	471.69
338.422	497.69
338.65	486.69
338.878	481.69
339.106	485.69
339.334	490.69
339.562	486.69
339.79	476.69
340.018	467.69
340.246	467.69
340.474	482.69
340.702	474.69
340.93	459.69
341.158	457.69
341.386	467.69
341.614	490.69
341.842	471.69
342.07	453.69
342.298	460.69
342.526	458.69
342.754	456.69
342.981	458.69
343.209	457.69
343.437	483.69
343.665	499.69
343.893	500.69
344.12	518.69
344.348	508.69
344.576	480.69
344.804	506.69
345.031	502.69
345.259	481.69
345.487	451.69
345.714	460.69
345.942	433.69
346.17	450.69
346.397	446.69
346.625	443.69
346.853	443.69
347.08	456.69
347.308	461.69
347.535	470.69
347.763	456.69
347.99	468.69
348.218	458.69
348.445	461.69
348.673	466.69
348.9	465.69
349.128	445.69
349.355	441.69
349.583	439.69
349.81	439.69
350.037	430.69
350.265	452.69
350.492	448.69
350.72	437.69
350.947	443.69
351.174	443.69
351.402	456.69
351.629	458.69
351.856	470.69
352.083	460.69
352.311	440.69
352.538	448.69
352.765	457.69
352.992	441.69
353.22	455.69
353.447	423.69
353.674	425.69
353.901	433.69
354.128	419.69
354.355	424.69
354.583	420.69
354.81	441.69
355.037	422.69
355.264	436.69
355.491	416.69
355.718	414.69
355.945	412.69
356.172	402.69
356.399	410.69
356.626	408.69
356.853	434.69
357.08	406.69
357.307	399.69
357.534	408.69
357.761	401.69
357.988	410.69
358.215	414.69
358.441	443.69
358.668	406.69
358.895	444.69
359.122	428.69
359.349	447.69
359.576	450.69
359.802	457.69
360.029	468.69
360.256	474.69
360.483	478.69
360.709	445.69
360.936	442.69
361.163	435.69
361.39	450.69
361.616	442.69
361.843	442.69
362.07	445.69
362.296	435.69
362.523	428.69
362.749	435.69
362.976	424.69
363.203	450.69
363.429	427.69
363.656	448.69
363.882	433.69
364.109	412.69
364.335	438.69
364.562	422.69
364.788	429.69
365.015	421.69
365.241	424.69
365.468	427.69
365.694	438.69
365.92	438.69
366.147	439.69
366.373	437.69
366.599	416.69
366.826	413.69
367.052	430.69
367.278	422.69
367.505	412.69
367.731	406.69
367.957	411.69
368.184	431.69
368.41	435.69
368.636	438.69
368.862	439.69
369.089	442.69
369.315	414.69
369.541	445.69
369.767	413.69
369.993	397.69
370.219	420.69
370.445	435.69
370.672	423.69
370.898	420.69
371.124	436.69
371.35	432.69
371.576	437.69
371.802	432.69
372.028	419.69
372.254	438.69
372.48	425.69
372.706	452.69
372.932	447.69
373.158	444.69
373.384	435.69
373.61	438.69
373.835	452.69
374.061	444.69
374.287	454.69
374.513	436.69
374.739	445.69
374.965	466.69
375.191	444.69
375.416	468.69
375.642	433.69
375.868	438.69
376.094	423.69
376.319	426.69
376.545	439.69
376.771	441.69
376.997	422.69
377.222	436.69
377.448	424.69
377.674	414.69
377.899	451.69
378.125	429.69
378.35	411.69
378.576	428.69
378.802	419.69
379.027	427.69
379.253	429.69
379.478	402.69
379.704	411.69
379.929	427.69
380.155	434.69
380.38	434.69
380.606	433.69
380.831	426.69
381.057	423.69
381.282	423.69
381.507	435.69
381.733	425.69
381.958	442.69
382.184	439.69
382.409	427.69
382.634	434.69
382.86	443.69
383.085	449.69
383.31	448.69
383.535	420.69
383.761	448.69
383.986	443.69
384.211	458.69
384.436	443.69
384.662	458.69
384.887	491.69
385.112	462.69
385.337	468.69
385.562	483.69
385.787	467.69
386.013	477.69
386.238	482.69
386.463	478.69
386.688	462.69
386.913	434.69
387.138	477.69
387.363	489.69
387.588	452.69
387.813	472.69
388.038	465.69
388.263	484.69
388.488	467.69
388.713	466.69
388.938	475.69
389.163	459.69
389.387	492.69
389.612	465.69
389.837	471.69
390.062	463.69
390.287	471.69
390.512	469.69
390.736	464.69
390.961	475.69
391.186	476.69
391.411	463.69
391.636	486.69
391.86	481.69
392.085	498.69
392.31	507.69
392.534	474.69
392.759	490.69
392.984	483.69
393.208	482.69
393.433	505.69
393.658	485.69
393.882	480.69
394.107	476.69
394.331	495.69
394.556	499.69
394.78	503.69
395.005	492.69
395.229	494.69
395.454	493.69
395.678	497.69
395.903	523.69
396.127	504.69
396.352	518.69
396.576	510.69
396.801	512.69
397.025	498.69
397.249	502.69
397.474	534.69
397.698	508.69
397.922	521.69
398.147	518.69
398.371	540.69
398.595	541.69
398.82	534.69
399.044	567.69
399.268	616.69
399.492	636.69
399.717	707.69
399.941	715.69
400.165	697.69
400.389	698.69
400.613	593.69
400.837	572.69
401.062	554.69
401.286	568.69
401.51	564.69
401.734	546.69
401.958	585.69
402.182	552.69
402.406	558.69
402.63	595.69
402.854	580.69
403.078	569.69
403.302	602.69
403.526	596.69
403.75	573.69
403.974	597.69
404.198	562.69
404.422	585.69
404.645	612.69
404.869	612.69
405.093	626.69
405.317	662.69
405.541	714.69
405.765	614.69
405.988	604.69
406.212	614.69
406.436	610.69
406.66	632.69
406.883	625.69
407.107	642.69
407.331	688.69
407.555	750.69
407.778	733.69
408.002	686.69
408.226	648.69
408.449	632.69
408.673	628.69
408.896	638.69
409.12	673.69
409.344	646.69
409.567	620.69
409.791	582.69
410.014	605.69
410.238	573.69
410.461	562.69
410.685	578.69
410.908	582.69
411.132	601.69
411.355	650.69
411.578	630.69
411.802	566.69
412.025	553.69
412.249	590.69
412.472	597.69
412.695	652.69
412.919	630.69
413.142	579.69
413.365	560.69
413.589	548.69
413.812	533.69
414.035	556.69
414.258	526.69
414.482	529.69
414.705	546.69
414.928	532.69
415.151	547.69
415.374	524.69
415.597	532.69
415.821	534.69
416.044	540.69
416.267	533.69
416.49	529.69
416.713	526.69
416.936	539.69
417.159	535.69
417.382	533.69
417.605	546.69
417.828	530.69
418.051	573.69
418.274	543.69
418.497	539.69
418.72	533.69
418.943	534.69
419.166	544.69
419.389	599.69
419.611	576.69
419.834	562.69
420.057	571.69
420.28	581.69
420.503	564.69
420.726	557.69
420.948	579.69
421.171	605.69
421.394	619.69
421.617	559.69
421.839	540.69
422.062	544.69
422.285	557.69
422.507	610.69
422.73	674.69
422.953	651.69
423.175	617.69
423.398	569.69
423.621	582.69
423.843	602.69
424.066	569.69
424.288	588.69
424.511	576.69
424.733	648.69
424.956	742.69
425.178	708.69
425.401	669.69
425.623	706.69
425.846	604.69
426.068	593.69
426.291	595.69
426.513	565.69
426.735	555.69
426.958	630.69
427.18	699.69
427.402	845.69
427.625	881.69
427.847	750.69
428.069	678.69
428.292	609.69
428.514	558.69
428.736	546.69
428.958	530.69
429.181	531.69
429.403	537.69
429.625	551.69
429.847	565.69
430.069	626.69
430.292	645.69
430.514	549.69
430.736	532.69
430.958	521.69
431.18	503.69
431.402	522.69
431.624	492.69
431.846	500.69
432.068	520.69
432.29	502.69
432.512	498.69
432.734	514.69
432.956	505.69
433.178	498.69
433.4	525.69
433.622	497.69
433.844	514.69
434.066	509.69
434.287	499.69
434.509	500.69
434.731	531.69
434.953	563.69
435.175	553.69
435.397	570.69
435.618	572.69
435.84	607.69
436.062	688.69
436.284	740.69
436.505	629.69
436.727	556.69
436.949	538.69
437.17	540.69
437.392	527.69
437.614	540.69
437.835	560.69
438.057	670.69
438.278	740.69
438.5	712.69
438.721	812.69
438.943	773.69
439.165	622.69
439.386	581.69
439.608	576.69
439.829	566.69
440.05	597.69
440.272	635.69
440.493	595.69
440.715	568.69
440.936	544.69
441.158	550.69
441.379	548.69
441.6	577.69
441.822	564.69
442.043	578.69
442.264	712.69
442.486	700.69
442.707	605.69
442.928	601.69
443.149	609.69
443.371	608.69
443.592	640.69
443.813	756.69
444.034	804.69
444.255	652.69
444.476	641.69
444.698	619.69
444.919	592.69
445.14	728.69
445.361	654.69
445.582	640.69
445.803	664.69
446.024	768.69
446.245	762.69
446.466	679.69
446.687	594.69
446.908	556.69
447.129	529.69
447.35	528.69
447.571	507.69
447.792	512.69
448.013	529.69
448.234	547.69
448.455	591.69
448.675	659.69
448.896	804.69
449.117	663.69
449.338	632.69
449.559	748.69
449.779	831.69
450	652.69
450.221	553.69
450.442	526.69
450.662	497.69
450.883	526.69
451.104	533.69
451.324	523.69
451.545	490.69
451.766	488.69
451.986	469.69
452.207	463.69
452.428	439.69
452.648	458.69
452.869	466.69
453.089	474.69
453.31	486.69
453.53	504.69
453.751	465.69
453.971	460.69
454.192	468.69
454.412	490.69
454.633	457.69
454.853	470.69
455.073	462.69
455.294	480.69
455.514	539.69
455.734	518.69
455.955	475.69
456.175	458.69
456.395	457.69
456.616	458.69
456.836	461.69
457.056	447.69
457.276	427.69
457.497	476.69
457.717	435.69
457.937	489.69
458.157	435.69
458.377	472.69
458.598	489.69
458.818	547.69
459.038	579.69
459.258	628.69
459.478	546.69
459.698	507.69
459.918	545.69
460.138	544.69
460.358	542.69
460.578	533.69
460.798	540.69
461.018	522.69
461.238	542.69
461.458	543.69
461.678	514.69
461.898	529.69
462.118	534.69
462.338	566.69
462.558	559.69
462.777	576.69
462.997	577.69
463.217	616.69
463.437	615.69
463.657	612.69
463.876	578.69
464.096	585.69
464.316	598.69
464.536	610.69
464.755	602.69
464.975	601.69
465.195	617.69
465.414	669.69
465.634	583.69
465.854	548.69
466.073	534.69
466.293	509.69
466.512	505.69
466.732	469.69
466.951	474.69
467.171	479.69
467.391	483.69
467.61	516.69
467.829	517.69
468.049	512.69
468.268	497.69
468.488	483.69
468.707	460.69
468.927	483.69
469.146	469.69
469.365	499.69
469.585	472.69
469.804	489.69
470.023	500.69
470.243	502.69
470.462	500.69
470.681	523.69
470.901	522.69
471.12	492.69
471.339	484.69
471.558	505.69
471.777	508.69
471.997	467.69
472.216	499.69
472.435	530.69
472.654	506.69
472.873	489.69
473.092	464.69
473.311	470.69
473.53	492.69
473.749	514.69
473.968	527.69
474.187	621.69
474.406	634.69
474.625	512.69
474.844	502.69
475.063	494.69
475.282	485.69
475.501	480.69
475.72	521.69
475.939	522.69
476.158	491.69
476.377	514.69
476.596	512.69
476.814	520.69
477.033	514.69
477.252	501.69
477.471	497.69
477.69	540.69
477.908	522.69
478.127	550.69
478.346	549.69
478.564	563.69
478.783	578.69
479.002	554.69
479.22	573.69
479.439	572.69
479.658	589.69
479.876	594.69
480.095	590.69
480.313	635.69
480.532	626.69
480.751	611.69
480.969	601.69
481.188	651.69
481.406	718.69
481.624	655.69
481.843	612.69
482.061	581.69
482.28	550.69
482.498	564.69
482.717	590.69
482.935	588.69
483.153	580.69
483.372	571.69
483.59	565.69
483.808	556.69
484.027	550.69
484.245	574.69
484.463	566.69
484.681	587.69
484.9	612.69
485.118	584.69
485.336	601.69
485.554	580.69
485.772	588.69
485.99	576.69
486.209	598.69
486.427	618.69
486.645	601.69
486.863	610.69
487.081	611.69
487.299	610.69
487.517	598.69
487.735	600.69
487.953	605.69
488.171	596.69
488.389	600.69
488.607	618.69
488.825	635.69
489.043	610.69
489.261	632.69
489.479	590.69
489.696	626.69
489.914	624.69
490.132	632.69
490.35	644.69
490.568	628.69
490.786	666.69
491.003	640.69
491.221	681.69
491.439	672.69
491.657	692.69
491.874	686.69
492.092	697.69
492.31	703.69
492.527	715.69
492.745	698.69
492.963	712.69
493.18	708.69
493.398	740.69
493.615	753.69
493.833	700.69
494.05	721.69
494.268	713.69
494.485	708.69
494.703	733.69
494.92	692.69
495.138	710.69
495.355	706.69
495.573	712.69
495.79	737.69
496.008	729.69
496.225	716.69
496.442	714.69
496.66	716.69
496.877	706.69
497.094	756.69
497.312	738.69
497.529	730.69
497.746	779.69
497.963	790.69
498.181	794.69
498.398	832.69
498.615	822.69
498.832	857.69
499.049	907.69
499.267	898.69
499.484	936.69
499.701	987.69
499.918	1043.69
500.135	1133.69
500.352	1175.69
500.569	1216.69
500.786	1224.69
501.003	1180.69
501.22	1106.69
501.437	1068.69
501.654	1029.69
501.871	987.69
502.088	924.69
502.305	893.69
502.522	896.69
502.739	862.69
502.956	814.69
503.172	780.69
503.389	790.69
503.606	757.69
503.823	779.69
504.04	757.69
504.256	747.69
504.473	749.69
504.69	774.69
504.907	740.69
505.123	714.69
505.34	695.69
505.557	676.69
505.773	698.69
505.99	693.69
506.207	680.69
506.423	684.69
506.64	693.69
506.856	662.69
507.073	642.69
507.289	656.69
507.506	653.69
507.722	634.69
507.939	685.69
508.155	664.69
508.372	618.69
508.588	621.69
508.805	625.69
509.021	632.69
509.238	626.69
509.454	660.69
509.67	631.69
509.887	633.69
510.103	635.69
510.319	643.69
510.536	731.69
510.752	1184.69
510.968	965.69
511.184	658.69
511.401	637.69
511.617	609.69
511.833	616.69
512.049	616.69
512.265	609.69
512.481	597.69
512.698	603.69
512.914	620.69
513.13	603.69
513.346	609.69
513.562	592.69
513.778	584.69
513.994	620.69
514.21	637.69
514.426	638.69
514.642	672.69
514.858	701.69
515.074	711.69
515.29	846.69
515.506	1244.69
515.721	1045.69
515.937	704.69
516.153	668.69
516.369	650.69
516.585	644.69
516.801	636.69
517.016	674.69
517.232	654.69
517.448	664.69
517.664	668.69
517.879	670.69
518.095	673.69
518.311	680.69
518.527	650.69
518.742	638.69
518.958	641.69
519.173	628.69
519.389	633.69
519.605	606.69
519.82	598.69
520.036	635.69
520.251	646.69
520.467	643.69
520.682	660.69
520.898	656.69
521.113	687.69
521.329	686.69
521.544	774.69
521.76	983.69
521.975	1594.69
522.19	1632.69
522.406	888.69
522.621	674.69
522.836	621.69
523.052	597.69
523.267	562.69
523.482	567.69
523.698	554.69
523.913	565.69
524.128	566.69
524.343	544.69
524.559	528.69
524.774	525.69
524.989	558.69
525.204	523.69
525.419	514.69
525.634	533.69
525.849	525.69
526.064	492.69
526.28	512.69
526.495	493.69
526.71	501.69
526.925	499.69
527.14	509.69
527.355	499.69
527.57	477.69
527.785	491.69
527.999	497.69
528.214	499.69
528.429	501.69
528.644	523.69
528.859	484.69
529.074	498.69
529.289	526.69
529.503	590.69
529.718	570.69
529.933	540.69
530.148	500.69
530.363	519.69
530.577	503.69
530.792	445.69
531.007	477.69
531.221	491.69
531.436	496.69
531.651	486.69
531.865	500.69
532.08	480.69
532.295	500.69
532.509	484.69
532.724	470.69
532.938	480.69
533.153	460.69
533.367	461.69
533.582	490.69
533.796	470.69
534.011	477.69
534.225	469.69
534.44	469.69
534.654	449.69
534.868	463.69
535.083	477.69
535.297	445.69
535.511	457.69
535.726	504.69
535.94	467.69
536.154	480.69
536.369	477.69
536.583	464.69
536.797	468.69
537.011	439.69
537.225	450.69
537.44	460.69
537.654	458.69
537.868	441.69
538.082	452.69
538.296	471.69
538.51	451.69
538.724	467.69
538.938	440.69
539.153	440.69
539.367	460.69
539.581	461.69
539.795	465.69
540.009	456.69
540.222	442.69
540.436	451.69
540.65	442.69
540.864	472.69
541.078	475.69
541.292	445.69
541.506	457.69
541.72	447.69
541.934	453.69
542.147	450.69
542.361	461.69
542.575	443.69
542.789	440.69
543.002	445.69
543.216	460.69
543.43	455.69
543.644	442.69
543.857	444.69
544.071	453.69
544.285	440.69
544.498	454.69
544.712	453.69
544.925	425.69
545.139	447.69
545.352	444.69
545.566	453.69
545.779	452.69
545.993	435.69
546.206	451.69
546.42	473.69
546.633	440.69
546.847	442.69
547.06	442.69
547.274	428.69
547.487	434.69
547.7	447.69
547.914	436.69
548.127	442.69
548.34	428.69
548.554	429.69
548.767	437.69
548.98	439.69
549.193	445.69
549.407	437.69
549.62	456.69
549.833	454.69
550.046	427.69
550.259	434.69
550.473	424.69
550.686	434.69
550.899	442.69
551.112	418.69
551.325	431.69
551.538	442.69
551.751	436.69
551.964	440.69
552.177	447.69
552.39	417.69
552.603	424.69
552.816	453.69
553.029	448.69
553.242	460.69
553.455	451.69
553.667	463.69
553.88	483.69
554.093	472.69
554.306	454.69
554.519	436.69
554.732	443.69
554.944	437.69
555.157	429.69
555.37	417.69
555.583	447.69
555.795	421.69
556.008	406.69
556.221	397.69
556.433	412.69
556.646	400.69
556.859	408.69
557.071	385.69
557.284	387.69
557.496	379.69
557.709	400.69
557.921	391.69
558.134	400.69
558.346	385.69
558.559	389.69
558.771	401.69
558.984	380.69
559.196	374.69
559.409	371.69
559.621	380.69
559.833	381.69
560.046	389.69
560.258	378.69
560.47	373.69
560.683	389.69
560.895	381.69
561.107	389.69
561.32	394.69
561.532	390.69
561.744	382.69
561.956	390.69
562.168	368.69
562.381	382.69
562.593	376.69
562.805	380.69
563.017	388.69
563.229	394.69
563.441	405.69
563.653	397.69
563.865	375.69
564.077	383.69
564.289	392.69
564.501	407.69
564.713	399.69
564.925	407.69
565.137	409.69
565.349	405.69
565.561	428.69
565.773	430.69
565.985	443.69
566.197	448.69
566.408	483.69
566.62	481.69
566.832	526.69
567.044	514.69
567.255	520.69
567.467	520.69
567.679	553.69
567.891	575.69
568.102	532.69
568.314	540.69
568.526	525.69
568.737	491.69
568.949	475.69
569.161	437.69
569.372	432.69
569.584	436.69
569.795	411.69
570.007	420.69
570.218	434.69
570.43	426.69
570.641	422.69
570.853	397.69
571.064	396.69
571.276	402.69
571.487	378.69
571.698	376.69
571.91	374.69
572.121	365.69
572.333	359.69
572.544	363.69
572.755	359.69
572.966	355.69
573.178	333.69
573.389	339.69
573.6	331.69
573.811	349.69
574.023	321.69
574.234	329.69
574.445	349.69
574.656	339.69
574.867	338.69
575.078	359.69
575.289	347.69
575.501	331.69
575.712	322.69
575.923	331.69
576.134	330.69
576.345	324.69
576.556	335.69
576.767	313.69
576.978	313.69
577.188	335.69
577.399	302.69
577.61	306.69
577.821	333.69
578.032	309.69
578.243	372.69
578.454	568.69
578.665	397.69
578.875	314.69
579.086	298.69
579.297	314.69
579.508	313.69
579.718	304.69
579.929	315.69
580.14	306.69
580.35	290.69
580.561	305.69
580.772	302.69
580.982	290.69
581.193	316.69
581.403	287.69
581.614	318.69
581.825	290.69
582.035	291.69
582.246	297.69
582.456	289.69
582.667	304.69
582.877	290.69
583.087	299.69
583.298	300.69
583.508	312.69
583.719	306.69
583.929	301.69
584.139	285.69
584.35	277.69
584.56	297.69
584.77	308.69
584.981	307.69
585.191	304.69
585.401	296.69
585.611	283.69
585.821	277.69
586.032	289.69
586.242	294.69
586.452	304.69
586.662	288.69
586.872	298.69
587.082	286.69
587.292	294.69
587.502	287.69
587.713	298.69
587.923	290.69
588.133	298.69
588.343	285.69
588.553	280.69
588.762	280.69
588.972	284.69
589.182	277.69
589.392	296.69
589.602	285.69
589.812	287.69
590.022	296.69
590.232	280.69
590.441	295.69
590.651	290.69
590.861	299.69
591.071	302.69
591.281	269.69
591.49	278.69
591.7	296.69
591.91	303.69
592.119	308.69
592.329	295.69
592.539	299.69
592.748	336.69
592.958	300.69
593.167	338.69
593.377	329.69
593.587	336.69
593.796	317.69
594.006	331.69
594.215	323.69
594.424	342.69
594.634	343.69
594.843	308.69
595.053	308.69
595.262	311.69
595.472	312.69
595.681	297.69
595.89	284.69
596.1	280.69
596.309	279.69
596.518	283.69
596.727	277.69
596.937	272.69
597.146	276.69
597.355	283.69
597.564	286.69
597.774	276.69
597.983	265.69
598.192	278.69
598.401	266.69
598.61	281.69
598.819	280.69
599.028	275.69
599.237	254.69
599.446	257.69
599.655	272.69
599.864	256.69
600.073	274.69
600.282	242.69
600.491	261.69
600.7	257.69
600.909	244.69
601.118	238.69
601.327	241.69
601.536	248.69
601.745	249.69
601.953	236.69
602.162	246.69
602.371	247.69
602.58	255.69
602.789	249.69
602.997	232.69
603.206	266.69
603.415	251.69
603.623	233.69
603.832	240.69
604.041	232.69
604.249	260.69
604.458	253.69
604.666	245.69
604.875	257.69
605.084	238.69
605.292	229.69
605.501	247.69
605.709	224.69
605.918	230.69
606.126	234.69
606.334	236.69
606.543	249.69
606.751	250.69
606.96	224.69
607.168	246.69
607.376	250.69
607.585	248.69
607.793	247.69
608.001	257.69
608.21	229.69
608.418	227.69
608.626	221.69
608.834	231.69
609.043	243.69
609.251	234.69
609.459	238.69
609.667	246.69
609.875	242.69
610.083	238.69
610.291	241.69
610.499	226.69
610.707	237.69
610.916	229.69
611.124	225.69
611.332	229.69
611.54	251.69
611.748	231.69
611.955	225.69
612.163	230.69
612.371	246.69
612.579	232.69
612.787	234.69
612.995	249.69
613.203	237.69
613.411	231.69
613.618	231.69
613.826	227.69
614.034	231.69
614.242	211.69
614.449	232.69
614.657	241.69
614.865	224.69
615.072	225.69
615.28	218.69
615.488	229.69
615.695	224.69
615.903	220.69
616.111	215.69
616.318	217.69
616.526	232.69
616.733	240.69
616.941	225.69
617.148	225.69
617.356	232.69
617.563	210.69
617.771	232.69
617.978	213.69
618.185	215.69
618.393	226.69
618.6	235.69
618.807	218.69
619.015	225.69
619.222	218.69
619.429	217.69
619.637	245.69
619.844	214.69
620.051	217.69
620.258	223.69
620.466	222.69
620.673	223.69
620.88	209.69
621.087	201.69
621.294	205.69
621.501	213.69
621.708	221.69
621.915	211.69
622.122	231.69
622.329	209.69
622.536	218.69
622.743	200.69
622.95	213.69
623.157	216.69
623.364	219.69
623.571	204.69
623.778	203.69
623.985	213.69
624.192	209.69
624.399	198.69
624.606	205.69
624.812	194.69
625.019	204.69
625.226	199.69
625.433	211.69
625.639	206.69
625.846	206.69
626.053	192.69
626.259	218.69
626.466	200.69
626.673	204.69
626.879	189.69
627.086	216.69
627.293	204.69
627.499	208.69
627.706	197.69
627.912	195.69
628.119	199.69
628.325	196.69
628.532	202.69
628.738	195.69
628.945	179.69
629.151	189.69
629.357	188.69
629.564	199.69
629.77	201.69
629.976	196.69
630.183	206.69
630.389	196.69
630.595	184.69
630.802	193.69
631.008	178.69
631.214	182.69
631.42	179.69
631.627	187.69
631.833	182.69
632.039	193.69
632.245	182.69
632.451	182.69
632.657	178.69
632.863	166.69
633.069	183.69
633.275	188.69
633.481	193.69
633.688	183.69
633.893	190.69
634.099	170.69
634.305	172.69
634.511	191.69
634.717	166.69
634.923	181.69
635.129	184.69
635.335	185.69
635.541	180.69
635.747	168.69
635.952	177.69
636.158	188.69
636.364	189.69
636.57	178.69
636.775	174.69
636.981	162.69
637.187	178.69
637.392	168.69
637.598	173.69
637.804	166.69
638.009	182.69
638.215	177.69
638.421	173.69
638.626	184.69
638.832	186.69
639.037	165.69
639.243	163.69
639.448	180.69
639.654	189.69
639.859	176.69
640.065	173.69
640.27	177.69
640.475	166.69
640.681	176.69
640.886	169.69
641.091	166.69
641.297	170.69
641.502	171.69
641.707	166.69
641.913	173.69
642.118	163.69
642.323	178.69
642.528	163.69
642.733	166.69
642.939	153.69
643.144	158.69
643.349	167.69
643.554	166.69
643.759	174.69
643.964	145.69
644.169	181.69
644.374	163.69
644.579	176.69
644.784	173.69
644.989	163.69
645.194	166.69
645.399	167.69
645.604	171.69
645.809	168.69
646.014	165.69
646.219	169.69
646.423	151.69
646.628	151.69
646.833	170.69
647.038	164.69
647.243	171.69
647.447	187.69
647.652	170.69
647.857	164.69
648.062	165.69
648.266	164.69
648.471	169.69
648.676	156.69
648.88	169.69
649.085	171.69
649.289	176.69
649.494	167.69
649.698	184.69
649.903	180.69
650.107	162.69
650.312	165.69
650.516	160.69
650.721	153.69
650.925	154.69
651.13	153.69
651.334	151.69
651.539	145.69
651.743	155.69
651.947	142.69
652.152	144.69
652.356	141.69
652.56	146.69
652.764	142.69
652.969	139.69
653.173	150.69
653.377	140.69
653.581	136.69
653.785	153.69
653.99	137.69
654.194	124.69
654.398	135.69
654.602	130.69
654.806	132.69
655.01	143.69
655.214	141.69
655.418	130.69
655.622	136.69
655.826	143.69
656.03	143.69
656.234	146.69
656.438	148.69
656.642	138.69
656.846	146.69
657.049	116.69
657.253	134.69
657.457	124.69
657.661	122.69
657.865	114.69
658.068	115.69
658.272	107.69
658.476	112.69
658.68	104.69
658.883	105.69
659.087	96.69
659.291	105.69
659.494	94.69
659.698	112.69
659.901	99.69
660.105	95.69
660.309	100.69
660.512	95.69
660.716	92.69
660.919	94.69
661.123	91.69
661.326	92.69
661.53	94.69
661.733	104.69
661.936	106.69
662.14	81.69
662.343	80.69
662.546	85.69
662.75	92.69
662.953	89.69
663.156	95.69
663.36	91.69
663.563	76.69
663.766	72.69
663.969	75.69
664.173	88.69
664.376	84.69
664.579	67.69
664.782	64.69
664.985	80.69
665.188	81.69
665.391	85.69
665.594	72.69
665.797	89.69
666	89.69
666.203	84.69
666.406	86.69
666.609	73.69
666.812	85.69
667.015	72.69
667.218	77.69
667.421	78.69
667.624	81.69
667.827	73.69
668.03	81.69
668.232	84.69
668.435	85.69
668.638	88.69
668.841	82.69
669.043	82.69
669.246	86.69
669.449	84.69
669.651	81.69
669.854	75.69
670.057	90.69
670.259	81.69
670.462	69.69
670.665	81.69
670.867	86.69
671.07	84.69
671.272	85.69
671.475	90.69
671.677	68.69
671.88	80.69
672.082	81.69
672.284	83.69
672.487	83.69
672.689	77.69
672.892	86.69
