Data from 1985.PennyLincolnUp.Lamp.En5.5.200Scan.071819.P1_HRD10591_17-03-52-971.txt Node
Date: Thu Jul 18 17:03:52 EDT 2019
User: cochatt
Spectrometer: HR+D1059
Trigger mode: 1
Integration Time (sec): 1.000000E-1
Scans to average: 1
Electric dark correction enabled: true
Nonlinearity correction enabled: false
Boxcar width: 0
XAxis mode: Wavelengths
Number of Pixels in Spectrum: 2048
>>>>>Begin Spectral Data<<<<<
223.165	-13.94
223.4	-13.94
223.635	-13.94
223.869	-12.94
224.104	-7.94
224.338	-13.94
224.573	1.06
224.808	-13.94
225.042	-4.94
225.277	-9.94
225.511	-5.94
225.746	3.06
225.98	9.06
226.215	1.06
226.449	17.06
226.683	18.06
226.918	7.06
227.152	27.06
227.387	31.06
227.621	43.06
227.856	47.06
228.09	44.06
228.324	43.06
228.559	55.06
228.793	68.06
229.027	96.06
229.262	106.06
229.496	108.06
229.73	119.06
229.964	134.06
230.199	117.06
230.433	106.06
230.667	103.06
230.901	105.06
231.136	98.06
231.37	106.06
231.604	119.06
231.838	118.06
232.072	109.06
232.306	108.06
232.541	118.06
232.775	106.06
233.009	119.06
233.243	111.06
233.477	111.06
233.711	106.06
233.945	114.06
234.179	120.06
234.413	120.06
234.647	100.06
234.881	126.06
235.115	101.06
235.349	115.06
235.583	126.06
235.817	114.06
236.051	123.06
236.285	126.06
236.519	130.06
236.753	137.06
236.987	159.06
237.221	174.06
237.455	208.06
237.689	157.06
237.922	130.06
238.156	117.06
238.39	132.06
238.624	123.06
238.858	141.06
239.091	123.06
239.325	124.06
239.559	133.06
239.793	113.06
240.027	129.06
240.26	128.06
240.494	150.06
240.728	147.06
240.961	144.06
241.195	135.06
241.429	127.06
241.662	146.06
241.896	132.06
242.13	139.06
242.363	139.06
242.597	141.06
242.83	142.06
243.064	149.06
243.298	137.06
243.531	133.06
243.765	131.06
243.998	122.06
244.232	156.06
244.465	153.06
244.699	155.06
244.932	143.06
245.166	136.06
245.399	137.06
245.633	146.06
245.866	132.06
246.099	136.06
246.333	155.06
246.566	152.06
246.8	148.06
247.033	145.06
247.266	160.06
247.5	148.06
247.733	156.06
247.966	158.06
248.2	166.06
248.433	173.06
248.666	187.06
248.899	191.06
249.133	183.06
249.366	202.06
249.599	193.06
249.832	185.06
250.066	193.06
250.299	183.06
250.532	187.06
250.765	209.06
250.998	230.06
251.231	224.06
251.465	212.06
251.698	193.06
251.931	200.06
252.164	185.06
252.397	187.06
252.63	195.06
252.863	211.06
253.096	214.06
253.329	215.06
253.562	222.06
253.795	214.06
254.028	208.06
254.261	214.06
254.494	210.06
254.727	247.06
254.96	267.06
255.193	266.06
255.426	222.06
255.659	214.06
255.892	245.06
256.124	247.06
256.357	231.06
256.59	247.06
256.823	221.06
257.056	202.06
257.289	211.06
257.521	220.06
257.754	204.06
257.987	202.06
258.22	222.06
258.452	226.06
258.685	209.06
258.918	219.06
259.151	207.06
259.383	215.06
259.616	225.06
259.849	218.06
260.081	214.06
260.314	252.06
260.547	256.06
260.779	242.06
261.012	240.06
261.244	214.06
261.477	238.06
261.71	239.06
261.942	222.06
262.175	234.06
262.407	219.06
262.64	225.06
262.872	219.06
263.105	214.06
263.337	219.06
263.57	203.06
263.802	203.06
264.035	215.06
264.267	233.06
264.499	219.06
264.732	227.06
264.964	233.06
265.197	226.06
265.429	236.06
265.661	222.06
265.894	222.06
266.126	223.06
266.358	230.06
266.591	210.06
266.823	224.06
267.055	229.06
267.287	233.06
267.52	217.06
267.752	250.06
267.984	234.06
268.216	238.06
268.448	253.06
268.681	241.06
268.913	256.06
269.145	268.06
269.377	298.06
269.609	264.06
269.841	277.06
270.073	286.06
270.306	292.06
270.538	311.06
270.77	320.06
271.002	315.06
271.234	292.06
271.466	299.06
271.698	320.06
271.93	310.06
272.162	312.06
272.394	310.06
272.626	309.06
272.858	293.06
273.09	276.06
273.322	274.06
273.553	274.06
273.785	277.06
274.017	273.06
274.249	283.06
274.481	281.06
274.713	289.06
274.945	306.06
275.176	256.06
275.408	276.06
275.64	278.06
275.872	285.06
276.104	281.06
276.335	291.06
276.567	275.06
276.799	289.06
277.031	310.06
277.262	320.06
277.494	328.06
277.726	315.06
277.957	301.06
278.189	293.06
278.421	286.06
278.652	298.06
278.884	278.06
279.115	295.06
279.347	277.06
279.579	284.06
279.81	295.06
280.042	283.06
280.273	288.06
280.505	291.06
280.736	274.06
280.968	283.06
281.199	287.06
281.431	285.06
281.662	289.06
281.894	282.06
282.125	291.06
282.356	324.06
282.588	315.06
282.819	314.06
283.051	294.06
283.282	290.06
283.513	300.06
283.745	322.06
283.976	304.06
284.207	310.06
284.439	310.06
284.67	299.06
284.901	288.06
285.132	310.06
285.364	310.06
285.595	312.06
285.826	306.06
286.057	309.06
286.288	302.06
286.52	300.06
286.751	310.06
286.982	303.06
287.213	298.06
287.444	336.06
287.675	320.06
287.906	325.06
288.138	329.06
288.369	321.06
288.6	322.06
288.831	339.06
289.062	317.06
289.293	314.06
289.524	328.06
289.755	314.06
289.986	328.06
290.217	310.06
290.448	318.06
290.679	321.06
290.91	332.06
291.141	331.06
291.371	313.06
291.602	338.06
291.833	336.06
292.064	308.06
292.295	306.06
292.526	312.06
292.757	316.06
292.987	328.06
293.218	325.06
293.449	318.06
293.68	308.06
293.91	326.06
294.141	317.06
294.372	334.06
294.603	330.06
294.833	331.06
295.064	329.06
295.295	314.06
295.525	330.06
295.756	324.06
295.987	338.06
296.217	345.06
296.448	359.06
296.679	351.06
296.909	348.06
297.14	319.06
297.37	314.06
297.601	346.06
297.831	330.06
298.062	338.06
298.292	346.06
298.523	338.06
298.753	338.06
298.984	344.06
299.214	366.06
299.445	338.06
299.675	354.06
299.905	350.06
300.136	351.06
300.366	346.06
300.597	340.06
300.827	365.06
301.057	360.06
301.288	354.06
301.518	394.06
301.748	356.06
301.979	389.06
302.209	368.06
302.439	371.06
302.669	384.06
302.9	348.06
303.13	347.06
303.36	375.06
303.59	393.06
303.82	377.06
304.051	372.06
304.281	368.06
304.511	355.06
304.741	352.06
304.971	355.06
305.201	375.06
305.431	366.06
305.661	361.06
305.891	370.06
306.121	384.06
306.352	375.06
306.582	368.06
306.812	374.06
307.042	385.06
307.272	362.06
307.502	382.06
307.731	375.06
307.961	355.06
308.191	400.06
308.421	371.06
308.651	374.06
308.881	384.06
309.111	374.06
309.341	376.06
309.571	393.06
309.8	387.06
310.03	407.06
310.26	406.06
310.49	388.06
310.72	409.06
310.949	428.06
311.179	439.06
311.409	400.06
311.639	408.06
311.868	382.06
312.098	414.06
312.328	432.06
312.557	442.06
312.787	434.06
313.017	415.06
313.246	432.06
313.476	398.06
313.706	400.06
313.935	400.06
314.165	432.06
314.394	420.06
314.624	424.06
314.853	414.06
315.083	425.06
315.312	417.06
315.542	396.06
315.771	408.06
316.001	418.06
316.23	409.06
316.46	405.06
316.689	391.06
316.919	424.06
317.148	428.06
317.377	415.06
317.607	423.06
317.836	423.06
318.065	425.06
318.295	419.06
318.524	403.06
318.753	442.06
318.983	438.06
319.212	426.06
319.441	413.06
319.67	417.06
319.9	423.06
320.129	426.06
320.358	413.06
320.587	419.06
320.816	412.06
321.046	446.06
321.275	423.06
321.504	422.06
321.733	444.06
321.962	449.06
322.191	455.06
322.42	466.06
322.649	475.06
322.878	485.06
323.108	471.06
323.337	515.06
323.566	506.06
323.795	548.06
324.024	575.06
324.253	686.06
324.482	978.06
324.71	1431.06
324.939	2032.06
325.168	1700.06
325.397	896.06
325.626	664.06
325.855	549.06
326.084	562.06
326.313	519.06
326.542	538.06
326.77	585.06
326.999	676.06
327.228	857.06
327.457	1301.06
327.686	1481.06
327.914	1045.06
328.143	730.06
328.372	640.06
328.6	623.06
328.829	592.06
329.058	594.06
329.287	587.06
329.515	582.06
329.744	550.06
329.972	556.06
330.201	580.06
330.43	614.06
330.658	622.06
330.887	642.06
331.115	608.06
331.344	545.06
331.572	527.06
331.801	543.06
332.03	524.06
332.258	546.06
332.486	499.06
332.715	491.06
332.943	494.06
333.172	530.06
333.4	532.06
333.629	544.06
333.857	568.06
334.085	583.06
334.314	600.06
334.542	640.06
334.771	635.06
334.999	566.06
335.227	548.06
335.455	525.06
335.684	498.06
335.912	502.06
336.14	486.06
336.369	509.06
336.597	511.06
336.825	498.06
337.053	494.06
337.281	504.06
337.51	473.06
337.738	489.06
337.966	473.06
338.194	490.06
338.422	502.06
338.65	477.06
338.878	473.06
339.106	471.06
339.334	497.06
339.562	472.06
339.79	481.06
340.018	453.06
340.246	454.06
340.474	475.06
340.702	464.06
340.93	469.06
341.158	473.06
341.386	468.06
341.614	483.06
341.842	486.06
342.07	463.06
342.298	455.06
342.526	452.06
342.754	456.06
342.981	444.06
343.209	447.06
343.437	463.06
343.665	478.06
343.893	510.06
344.12	503.06
344.348	515.06
344.576	498.06
344.804	498.06
345.031	491.06
345.259	489.06
345.487	491.06
345.714	469.06
345.942	442.06
346.17	450.06
346.397	440.06
346.625	448.06
346.853	444.06
347.08	442.06
347.308	452.06
347.535	449.06
347.763	460.06
347.99	455.06
348.218	460.06
348.445	445.06
348.673	447.06
348.9	469.06
349.128	444.06
349.355	433.06
349.583	449.06
349.81	424.06
350.037	437.06
350.265	447.06
350.492	449.06
350.72	433.06
350.947	458.06
351.174	459.06
351.402	449.06
351.629	445.06
351.856	435.06
352.083	457.06
352.311	449.06
352.538	469.06
352.765	456.06
352.992	454.06
353.22	439.06
353.447	428.06
353.674	440.06
353.901	424.06
354.128	440.06
354.355	404.06
354.583	417.06
354.81	422.06
355.037	404.06
355.264	427.06
355.491	420.06
355.718	404.06
355.945	432.06
356.172	402.06
356.399	400.06
356.626	419.06
356.853	401.06
357.08	415.06
357.307	411.06
357.534	423.06
357.761	391.06
357.988	425.06
358.215	404.06
358.441	417.06
358.668	431.06
358.895	404.06
359.122	417.06
359.349	418.06
359.576	438.06
359.802	436.06
360.029	468.06
360.256	499.06
360.483	469.06
360.709	442.06
360.936	462.06
361.163	431.06
361.39	439.06
361.616	437.06
361.843	438.06
362.07	442.06
362.296	443.06
362.523	440.06
362.749	448.06
362.976	424.06
363.203	426.06
363.429	422.06
363.656	431.06
363.882	418.06
364.109	407.06
364.335	404.06
364.562	415.06
364.788	411.06
365.015	409.06
365.241	421.06
365.468	406.06
365.694	433.06
365.92	430.06
366.147	406.06
366.373	414.06
366.599	418.06
366.826	419.06
367.052	413.06
367.278	406.06
367.505	418.06
367.731	422.06
367.957	409.06
368.184	435.06
368.41	436.06
368.636	442.06
368.862	436.06
369.089	435.06
369.315	402.06
369.541	407.06
369.767	411.06
369.993	420.06
370.219	417.06
370.445	435.06
370.672	440.06
370.898	417.06
371.124	428.06
371.35	405.06
371.576	434.06
371.802	426.06
372.028	400.06
372.254	418.06
372.48	418.06
372.706	421.06
372.932	426.06
373.158	432.06
373.384	443.06
373.61	448.06
373.835	434.06
374.061	444.06
374.287	433.06
374.513	446.06
374.739	459.06
374.965	454.06
375.191	439.06
375.416	448.06
375.642	435.06
375.868	421.06
376.094	417.06
376.319	423.06
376.545	418.06
376.771	410.06
376.997	406.06
377.222	424.06
377.448	424.06
377.674	397.06
377.899	423.06
378.125	417.06
378.35	414.06
378.576	406.06
378.802	422.06
379.027	403.06
379.253	412.06
379.478	420.06
379.704	432.06
379.929	424.06
380.155	427.06
380.38	443.06
380.606	419.06
380.831	419.06
381.057	422.06
381.282	418.06
381.507	412.06
381.733	445.06
381.958	418.06
382.184	413.06
382.409	427.06
382.634	430.06
382.86	443.06
383.085	422.06
383.31	432.06
383.535	442.06
383.761	424.06
383.986	430.06
384.211	443.06
384.436	451.06
384.662	453.06
384.887	461.06
385.112	467.06
385.337	473.06
385.562	464.06
385.787	464.06
386.013	470.06
386.238	476.06
386.463	498.06
386.688	487.06
386.913	471.06
387.138	445.06
387.363	454.06
387.588	468.06
387.813	449.06
388.038	462.06
388.263	446.06
388.488	464.06
388.713	472.06
388.938	467.06
389.163	454.06
389.387	458.06
389.612	453.06
389.837	464.06
390.062	464.06
390.287	455.06
390.512	437.06
390.736	469.06
390.961	467.06
391.186	452.06
391.411	470.06
391.636	488.06
391.86	511.06
392.085	506.06
392.31	480.06
392.534	473.06
392.759	453.06
392.984	470.06
393.208	484.06
393.433	479.06
393.658	474.06
393.882	459.06
394.107	470.06
394.331	466.06
394.556	494.06
394.78	510.06
395.005	492.06
395.229	498.06
395.454	476.06
395.678	504.06
395.903	491.06
396.127	531.06
396.352	529.06
396.576	516.06
396.801	491.06
397.025	498.06
397.249	496.06
397.474	502.06
397.698	509.06
397.922	519.06
398.147	522.06
398.371	545.06
398.595	530.06
398.82	542.06
399.044	567.06
399.268	568.06
399.492	623.06
399.717	682.06
399.941	714.06
400.165	691.06
400.389	692.06
400.613	640.06
400.837	572.06
401.062	560.06
401.286	553.06
401.51	549.06
401.734	522.06
401.958	564.06
402.182	575.06
402.406	563.06
402.63	563.06
402.854	569.06
403.078	553.06
403.302	569.06
403.526	577.06
403.75	572.06
403.974	574.06
404.198	592.06
404.422	584.06
404.645	574.06
404.869	609.06
405.093	630.06
405.317	682.06
405.541	670.06
405.765	637.06
405.988	612.06
406.212	607.06
406.436	632.06
406.66	628.06
406.883	608.06
407.107	648.06
407.331	677.06
407.555	729.06
407.778	726.06
408.002	698.06
408.226	633.06
408.449	631.06
408.673	612.06
408.896	654.06
409.12	681.06
409.344	641.06
409.567	582.06
409.791	580.06
410.014	574.06
410.238	537.06
410.461	567.06
410.685	568.06
410.908	585.06
411.132	623.06
411.355	634.06
411.578	601.06
411.802	579.06
412.025	563.06
412.249	586.06
412.472	608.06
412.695	647.06
412.919	644.06
413.142	571.06
413.365	553.06
413.589	555.06
413.812	544.06
414.035	542.06
414.258	531.06
414.482	532.06
414.705	529.06
414.928	531.06
415.151	529.06
415.374	517.06
415.597	542.06
415.821	511.06
416.044	523.06
416.267	494.06
416.49	531.06
416.713	520.06
416.936	522.06
417.159	530.06
417.382	519.06
417.605	520.06
417.828	540.06
418.051	574.06
418.274	534.06
418.497	519.06
418.72	536.06
418.943	531.06
419.166	544.06
419.389	594.06
419.611	568.06
419.834	564.06
420.057	588.06
420.28	547.06
420.503	562.06
420.726	562.06
420.948	559.06
421.171	586.06
421.394	605.06
421.617	596.06
421.839	546.06
422.062	546.06
422.285	541.06
422.507	582.06
422.73	677.06
422.953	658.06
423.175	605.06
423.398	577.06
423.621	544.06
423.843	592.06
424.066	608.06
424.288	571.06
424.511	610.06
424.733	648.06
424.956	710.06
425.178	685.06
425.401	690.06
425.623	680.06
425.846	624.06
426.068	567.06
426.291	573.06
426.513	572.06
426.735	552.06
426.958	615.06
427.18	673.06
427.402	805.06
427.625	871.06
427.847	783.06
428.069	668.06
428.292	628.06
428.514	559.06
428.736	546.06
428.958	531.06
429.181	514.06
429.403	499.06
429.625	534.06
429.847	580.06
430.069	610.06
430.292	576.06
430.514	522.06
430.736	539.06
430.958	495.06
431.18	502.06
431.402	490.06
431.624	503.06
431.846	507.06
432.068	522.06
432.29	508.06
432.512	501.06
432.734	479.06
432.956	516.06
433.178	519.06
433.4	503.06
433.622	500.06
433.844	512.06
434.066	504.06
434.287	500.06
434.509	513.06
434.731	550.06
434.953	546.06
435.175	543.06
435.397	569.06
435.618	550.06
435.84	594.06
436.062	697.06
436.284	735.06
436.505	592.06
436.727	561.06
436.949	530.06
437.17	527.06
437.392	529.06
437.614	524.06
437.835	556.06
438.057	638.06
438.278	735.06
438.5	724.06
438.721	815.06
438.943	779.06
439.165	606.06
439.386	585.06
439.608	579.06
439.829	576.06
440.05	569.06
440.272	615.06
440.493	608.06
440.715	546.06
440.936	536.06
441.158	541.06
441.379	553.06
441.6	539.06
441.822	564.06
442.043	593.06
442.264	676.06
442.486	717.06
442.707	638.06
442.928	544.06
443.149	584.06
443.371	592.06
443.592	628.06
443.813	723.06
444.034	807.06
444.255	674.06
444.476	591.06
444.698	592.06
444.919	608.06
445.14	698.06
445.361	668.06
445.582	634.06
445.803	674.06
446.024	747.06
446.245	754.06
446.466	697.06
446.687	589.06
446.908	588.06
447.129	536.06
447.35	510.06
447.571	524.06
447.792	502.06
448.013	517.06
448.234	517.06
448.455	577.06
448.675	688.06
448.896	786.06
449.117	646.06
449.338	647.06
449.559	735.06
449.779	831.06
450	643.06
450.221	544.06
450.442	501.06
450.662	515.06
450.883	484.06
451.104	515.06
451.324	496.06
451.545	486.06
451.766	488.06
451.986	463.06
452.207	456.06
452.428	455.06
452.648	462.06
452.869	470.06
453.089	472.06
453.31	466.06
453.53	479.06
453.751	457.06
453.971	462.06
454.192	472.06
454.412	456.06
454.633	451.06
454.853	460.06
455.073	454.06
455.294	492.06
455.514	530.06
455.734	540.06
455.955	464.06
456.175	462.06
456.395	441.06
456.616	448.06
456.836	427.06
457.056	446.06
457.276	451.06
457.497	459.06
457.717	447.06
457.937	441.06
458.157	446.06
458.377	453.06
458.598	477.06
458.818	535.06
459.038	614.06
459.258	651.06
459.478	534.06
459.698	512.06
459.918	530.06
460.138	510.06
460.358	523.06
460.578	546.06
460.798	508.06
461.018	530.06
461.238	532.06
461.458	546.06
461.678	537.06
461.898	533.06
462.118	547.06
462.338	528.06
462.558	558.06
462.777	572.06
462.997	583.06
463.217	608.06
463.437	616.06
463.657	591.06
463.876	579.06
464.096	566.06
464.316	564.06
464.536	580.06
464.755	601.06
464.975	591.06
465.195	610.06
465.414	668.06
465.634	589.06
465.854	536.06
466.073	536.06
466.293	498.06
466.512	482.06
466.732	476.06
466.951	480.06
467.171	471.06
467.391	472.06
467.61	472.06
467.829	494.06
468.049	501.06
468.268	486.06
468.488	470.06
468.707	461.06
468.927	472.06
469.146	469.06
469.365	458.06
469.585	460.06
469.804	480.06
470.023	497.06
470.243	485.06
470.462	491.06
470.681	517.06
470.901	500.06
471.12	482.06
471.339	492.06
471.558	479.06
471.777	514.06
471.997	486.06
472.216	497.06
472.435	528.06
472.654	512.06
472.873	503.06
473.092	492.06
473.311	478.06
473.53	482.06
473.749	507.06
473.968	506.06
474.187	610.06
474.406	640.06
474.625	539.06
474.844	501.06
475.063	482.06
475.282	500.06
475.501	510.06
475.72	508.06
475.939	506.06
476.158	493.06
476.377	502.06
476.596	496.06
476.814	519.06
477.033	514.06
477.252	527.06
477.471	518.06
477.69	522.06
477.908	507.06
478.127	544.06
478.346	546.06
478.564	522.06
478.783	578.06
479.002	570.06
479.22	583.06
479.439	584.06
479.658	594.06
479.876	603.06
480.095	601.06
480.313	643.06
480.532	624.06
480.751	625.06
480.969	614.06
481.188	664.06
481.406	729.06
481.624	642.06
481.843	600.06
482.061	588.06
482.28	560.06
482.498	549.06
482.717	555.06
482.935	564.06
483.153	583.06
483.372	543.06
483.59	565.06
483.808	558.06
484.027	556.06
484.245	569.06
484.463	568.06
484.681	570.06
484.9	591.06
485.118	592.06
485.336	555.06
485.554	573.06
485.772	584.06
485.99	586.06
486.209	571.06
486.427	593.06
486.645	587.06
486.863	609.06
487.081	597.06
487.299	606.06
487.517	591.06
487.735	584.06
487.953	600.06
488.171	602.06
488.389	600.06
488.607	605.06
488.825	611.06
489.043	601.06
489.261	607.06
489.479	624.06
489.696	603.06
489.914	631.06
490.132	623.06
490.35	609.06
490.568	636.06
490.786	651.06
491.003	669.06
491.221	665.06
491.439	663.06
491.657	693.06
491.874	698.06
492.092	683.06
492.31	686.06
492.527	707.06
492.745	696.06
492.963	698.06
493.18	709.06
493.398	734.06
493.615	692.06
493.833	670.06
494.05	705.06
494.268	701.06
494.485	712.06
494.703	702.06
494.92	701.06
495.138	695.06
495.355	696.06
495.573	726.06
495.79	690.06
496.008	723.06
496.225	690.06
496.442	714.06
496.66	707.06
496.877	707.06
497.094	710.06
497.312	722.06
497.529	756.06
497.746	771.06
497.963	768.06
498.181	798.06
498.398	786.06
498.615	814.06
498.832	864.06
499.049	871.06
499.267	908.06
499.484	978.06
499.701	986.06
499.918	1044.06
500.135	1125.06
500.352	1210.06
500.569	1207.06
500.786	1215.06
501.003	1175.06
501.22	1101.06
501.437	1073.06
501.654	1006.06
501.871	998.06
502.088	922.06
502.305	886.06
502.522	836.06
502.739	839.06
502.956	806.06
503.172	790.06
503.389	747.06
503.606	800.06
503.823	728.06
504.04	746.06
504.256	745.06
504.473	741.06
504.69	716.06
504.907	742.06
505.123	715.06
505.34	702.06
505.557	674.06
505.773	684.06
505.99	666.06
506.207	677.06
506.423	678.06
506.64	683.06
506.856	663.06
507.073	635.06
507.289	660.06
507.506	652.06
507.722	641.06
507.939	686.06
508.155	649.06
508.372	636.06
508.588	633.06
508.805	630.06
509.021	623.06
509.238	671.06
509.454	640.06
509.67	636.06
509.887	629.06
510.103	615.06
510.319	644.06
510.536	741.06
510.752	1139.06
510.968	942.06
511.184	648.06
511.401	617.06
511.617	607.06
511.833	624.06
512.049	600.06
512.265	620.06
512.481	598.06
512.698	579.06
512.914	585.06
513.13	615.06
513.346	593.06
513.562	581.06
513.778	595.06
513.994	611.06
514.21	647.06
514.426	630.06
514.642	647.06
514.858	690.06
515.074	726.06
515.29	847.06
515.506	1218.06
515.721	1053.06
515.937	732.06
516.153	666.06
516.369	677.06
516.585	627.06
516.801	656.06
517.016	636.06
517.232	644.06
517.448	679.06
517.664	672.06
517.879	666.06
518.095	649.06
518.311	635.06
518.527	638.06
518.742	630.06
518.958	634.06
519.173	620.06
519.389	599.06
519.605	626.06
519.82	617.06
520.036	627.06
520.251	650.06
520.467	656.06
520.682	640.06
520.898	637.06
521.113	644.06
521.329	693.06
521.544	762.06
521.76	927.06
521.975	1494.06
522.19	1554.06
522.406	873.06
522.621	663.06
522.836	602.06
523.052	577.06
523.267	574.06
523.482	567.06
523.698	576.06
523.913	559.06
524.128	537.06
524.343	536.06
524.559	531.06
524.774	511.06
524.989	503.06
525.204	535.06
525.419	507.06
525.634	502.06
525.849	505.06
526.064	522.06
526.28	487.06
526.495	502.06
526.71	514.06
526.925	495.06
527.14	521.06
527.355	500.06
527.57	486.06
527.785	469.06
527.999	460.06
528.214	474.06
528.429	495.06
528.644	507.06
528.859	492.06
529.074	491.06
529.289	518.06
529.503	601.06
529.718	579.06
529.933	513.06
530.148	523.06
530.363	502.06
530.577	481.06
530.792	500.06
531.007	482.06
531.221	463.06
531.436	479.06
531.651	474.06
531.865	495.06
532.08	481.06
532.295	496.06
532.509	473.06
532.724	500.06
532.938	475.06
533.153	485.06
533.367	487.06
533.582	463.06
533.796	483.06
534.011	479.06
534.225	465.06
534.44	470.06
534.654	479.06
534.868	472.06
535.083	462.06
535.297	464.06
535.511	474.06
535.726	471.06
535.94	465.06
536.154	481.06
536.369	483.06
536.583	458.06
536.797	483.06
537.011	454.06
537.225	443.06
537.44	456.06
537.654	467.06
537.868	449.06
538.082	451.06
538.296	455.06
538.51	445.06
538.724	456.06
538.938	474.06
539.153	446.06
539.367	460.06
539.581	435.06
539.795	459.06
540.009	458.06
540.222	448.06
540.436	446.06
540.65	441.06
540.864	456.06
541.078	455.06
541.292	456.06
541.506	451.06
541.72	454.06
541.934	432.06
542.147	440.06
542.361	459.06
542.575	423.06
542.789	449.06
543.002	440.06
543.216	445.06
543.43	468.06
543.644	455.06
543.857	426.06
544.071	442.06
544.285	452.06
544.498	434.06
544.712	440.06
544.925	447.06
545.139	452.06
545.352	429.06
545.566	444.06
545.779	422.06
545.993	439.06
546.206	444.06
546.42	443.06
546.633	434.06
546.847	454.06
547.06	430.06
547.274	446.06
547.487	424.06
547.7	452.06
547.914	419.06
548.127	437.06
548.34	453.06
548.554	449.06
548.767	445.06
548.98	438.06
549.193	438.06
549.407	447.06
549.62	451.06
549.833	437.06
550.046	440.06
550.259	432.06
550.473	435.06
550.686	427.06
550.899	442.06
551.112	423.06
551.325	434.06
551.538	427.06
551.751	424.06
551.964	436.06
552.177	436.06
552.39	434.06
552.603	423.06
552.816	432.06
553.029	448.06
553.242	456.06
553.455	467.06
553.667	483.06
553.88	455.06
554.093	456.06
554.306	444.06
554.519	444.06
554.732	415.06
554.944	432.06
555.157	418.06
555.37	422.06
555.583	395.06
555.795	408.06
556.008	407.06
556.221	416.06
556.433	395.06
556.646	409.06
556.859	398.06
557.071	360.06
557.284	389.06
557.496	386.06
557.709	393.06
557.921	399.06
558.134	387.06
558.346	388.06
558.559	378.06
558.771	375.06
558.984	374.06
559.196	384.06
559.409	399.06
559.621	374.06
559.833	364.06
560.046	376.06
560.258	382.06
560.47	373.06
560.683	376.06
560.895	399.06
561.107	365.06
561.32	366.06
561.532	388.06
561.744	368.06
561.956	381.06
562.168	368.06
562.381	385.06
562.593	381.06
562.805	377.06
563.017	375.06
563.229	398.06
563.441	385.06
563.653	379.06
563.865	390.06
564.077	366.06
564.289	397.06
564.501	401.06
564.713	404.06
564.925	405.06
565.137	417.06
565.349	417.06
565.561	404.06
565.773	451.06
565.985	464.06
566.197	471.06
566.408	484.06
566.62	492.06
566.832	501.06
567.044	500.06
567.255	511.06
567.467	537.06
567.679	524.06
567.891	553.06
568.102	544.06
568.314	551.06
568.526	521.06
568.737	490.06
568.949	466.06
569.161	412.06
569.372	450.06
569.584	415.06
569.795	402.06
570.007	397.06
570.218	447.06
570.43	428.06
570.641	399.06
570.853	376.06
571.064	379.06
571.276	374.06
571.487	374.06
571.698	372.06
571.91	379.06
572.121	366.06
572.333	367.06
572.544	347.06
572.755	366.06
572.966	350.06
573.178	339.06
573.389	350.06
573.6	342.06
573.811	340.06
574.023	335.06
574.234	307.06
574.445	347.06
574.656	338.06
574.867	341.06
575.078	325.06
575.289	311.06
575.501	322.06
575.712	331.06
575.923	325.06
576.134	325.06
576.345	314.06
576.556	332.06
576.767	319.06
576.978	322.06
577.188	334.06
577.399	323.06
577.61	313.06
577.821	314.06
578.032	311.06
578.243	340.06
578.454	544.06
578.665	421.06
578.875	338.06
579.086	296.06
579.297	310.06
579.508	311.06
579.718	310.06
579.929	295.06
580.14	319.06
580.35	290.06
580.561	294.06
580.772	299.06
580.982	295.06
581.193	308.06
581.403	292.06
581.614	289.06
581.825	299.06
582.035	296.06
582.246	290.06
582.456	278.06
582.667	305.06
582.877	284.06
583.087	284.06
583.298	272.06
583.508	295.06
583.719	273.06
583.929	313.06
584.139	281.06
584.35	297.06
584.56	289.06
584.77	294.06
584.981	280.06
585.191	312.06
585.401	289.06
585.611	291.06
585.821	291.06
586.032	275.06
586.242	309.06
586.452	288.06
586.662	291.06
586.872	273.06
587.082	289.06
587.292	295.06
587.502	282.06
587.713	263.06
587.923	287.06
588.133	283.06
588.343	295.06
588.553	288.06
588.762	278.06
588.972	272.06
589.182	305.06
589.392	288.06
589.602	294.06
589.812	299.06
590.022	288.06
590.232	287.06
590.441	287.06
590.651	292.06
590.861	290.06
591.071	276.06
591.281	286.06
591.49	294.06
591.7	286.06
591.91	298.06
592.119	308.06
592.329	313.06
592.539	313.06
592.748	306.06
592.958	308.06
593.167	336.06
593.377	338.06
593.587	335.06
593.796	313.06
594.006	326.06
594.215	327.06
594.424	311.06
594.634	298.06
594.843	301.06
595.053	298.06
595.262	286.06
595.472	296.06
595.681	303.06
595.89	280.06
596.1	291.06
596.309	267.06
596.518	294.06
596.727	278.06
596.937	272.06
597.146	269.06
597.355	280.06
597.564	277.06
597.774	258.06
597.983	256.06
598.192	242.06
598.401	267.06
598.61	260.06
598.819	264.06
599.028	265.06
599.237	262.06
599.446	267.06
599.655	273.06
599.864	251.06
600.073	264.06
600.282	234.06
600.491	244.06
600.7	260.06
600.909	255.06
601.118	265.06
601.327	242.06
601.536	235.06
601.745	244.06
601.953	241.06
602.162	243.06
602.371	239.06
602.58	228.06
602.789	249.06
602.997	244.06
603.206	232.06
603.415	248.06
603.623	246.06
603.832	224.06
604.041	241.06
604.249	245.06
604.458	242.06
604.666	229.06
604.875	229.06
605.084	217.06
605.292	239.06
605.501	225.06
605.709	233.06
605.918	226.06
606.126	242.06
606.334	231.06
606.543	231.06
606.751	230.06
606.96	225.06
607.168	225.06
607.376	232.06
607.585	245.06
607.793	240.06
608.001	238.06
608.21	229.06
608.418	224.06
608.626	231.06
608.834	234.06
609.043	238.06
609.251	255.06
609.459	247.06
609.667	231.06
609.875	217.06
610.083	229.06
610.291	228.06
610.499	233.06
610.707	242.06
610.916	231.06
611.124	236.06
611.332	215.06
611.54	232.06
611.748	230.06
611.955	238.06
612.163	231.06
612.371	219.06
612.579	231.06
612.787	227.06
612.995	214.06
613.203	236.06
613.411	221.06
613.618	216.06
613.826	227.06
614.034	221.06
614.242	227.06
614.449	232.06
614.657	208.06
614.865	220.06
615.072	220.06
615.28	223.06
615.488	218.06
615.695	222.06
615.903	218.06
616.111	246.06
616.318	226.06
616.526	219.06
616.733	216.06
616.941	215.06
617.148	237.06
617.356	226.06
617.563	234.06
617.771	204.06
617.978	218.06
618.185	211.06
618.393	218.06
618.6	234.06
618.807	212.06
619.015	218.06
619.222	218.06
619.429	212.06
619.637	223.06
619.844	223.06
620.051	201.06
620.258	211.06
620.466	220.06
620.673	211.06
620.88	211.06
621.087	213.06
621.294	210.06
621.501	216.06
621.708	212.06
621.915	211.06
622.122	210.06
622.329	209.06
622.536	222.06
622.743	209.06
622.95	186.06
623.157	201.06
623.364	200.06
623.571	201.06
623.778	205.06
623.985	209.06
624.192	201.06
624.399	220.06
624.606	212.06
624.812	203.06
625.019	193.06
625.226	197.06
625.433	209.06
625.639	204.06
625.846	198.06
626.053	215.06
626.259	207.06
626.466	211.06
626.673	182.06
626.879	208.06
627.086	191.06
627.293	191.06
627.499	212.06
627.706	210.06
627.912	188.06
628.119	188.06
628.325	201.06
628.532	192.06
628.738	199.06
628.945	200.06
629.151	193.06
629.357	197.06
629.564	197.06
629.77	202.06
629.976	209.06
630.183	202.06
630.389	203.06
630.595	190.06
630.802	197.06
631.008	181.06
631.214	193.06
631.42	183.06
631.627	181.06
631.833	195.06
632.039	185.06
632.245	176.06
632.451	191.06
632.657	171.06
632.863	183.06
633.069	175.06
633.275	194.06
633.481	182.06
633.688	187.06
633.893	183.06
634.099	179.06
634.305	170.06
634.511	181.06
634.717	188.06
634.923	163.06
635.129	168.06
635.335	175.06
635.541	163.06
635.747	184.06
635.952	164.06
636.158	177.06
636.364	178.06
636.57	188.06
636.775	167.06
636.981	185.06
637.187	182.06
637.392	178.06
637.598	178.06
637.804	159.06
638.009	174.06
638.215	168.06
638.421	160.06
638.626	169.06
638.832	165.06
639.037	162.06
639.243	156.06
639.448	161.06
639.654	161.06
639.859	170.06
640.065	176.06
640.27	154.06
640.475	153.06
640.681	154.06
640.886	168.06
641.091	163.06
641.297	164.06
641.502	149.06
641.707	167.06
641.913	169.06
642.118	174.06
642.323	158.06
642.528	158.06
642.733	148.06
642.939	163.06
643.144	177.06
643.349	162.06
643.554	159.06
643.759	163.06
643.964	163.06
644.169	178.06
644.374	146.06
644.579	152.06
644.784	151.06
644.989	150.06
645.194	160.06
645.399	166.06
645.604	168.06
645.809	147.06
646.014	163.06
646.219	159.06
646.423	163.06
646.628	159.06
646.833	176.06
647.038	164.06
647.243	163.06
647.447	158.06
647.652	155.06
647.857	156.06
648.062	157.06
648.266	176.06
648.471	175.06
648.676	163.06
648.88	170.06
649.085	163.06
649.289	147.06
649.494	170.06
649.698	188.06
649.903	159.06
650.107	172.06
650.312	155.06
650.516	176.06
650.721	155.06
650.925	145.06
651.13	143.06
651.334	141.06
651.539	143.06
651.743	142.06
651.947	159.06
652.152	131.06
652.356	135.06
652.56	128.06
652.764	140.06
652.969	141.06
653.173	130.06
653.377	137.06
653.581	151.06
653.785	135.06
653.99	132.06
654.194	139.06
654.398	130.06
654.602	138.06
654.806	134.06
655.01	148.06
655.214	148.06
655.418	136.06
655.622	120.06
655.826	127.06
656.03	121.06
656.234	124.06
656.438	142.06
656.642	154.06
656.846	136.06
657.049	144.06
657.253	121.06
657.457	128.06
657.661	110.06
657.865	107.06
658.068	122.06
658.272	101.06
658.476	96.06
658.68	122.06
658.883	114.06
659.087	112.06
659.291	88.06
659.494	119.06
659.698	87.06
659.901	108.06
660.105	77.06
660.309	91.06
660.512	101.06
660.716	103.06
660.919	99.06
661.123	107.06
661.326	92.06
661.53	80.06
661.733	87.06
661.936	91.06
662.14	87.06
662.343	82.06
662.546	75.06
662.75	86.06
662.953	90.06
663.156	93.06
663.36	88.06
663.563	81.06
663.766	80.06
663.969	69.06
664.173	84.06
664.376	77.06
664.579	88.06
664.782	60.06
664.985	69.06
665.188	74.06
665.391	71.06
665.594	74.06
665.797	79.06
666	86.06
666.203	83.06
666.406	76.06
666.609	79.06
666.812	76.06
667.015	91.06
667.218	75.06
667.421	79.06
667.624	75.06
667.827	95.06
668.03	82.06
668.232	82.06
668.435	73.06
668.638	81.06
668.841	94.06
669.043	76.06
669.246	73.06
669.449	73.06
669.651	57.06
669.854	83.06
670.057	79.06
670.259	88.06
670.462	99.06
670.665	73.06
670.867	71.06
671.07	84.06
671.272	80.06
671.475	77.06
671.677	88.06
671.88	74.06
672.082	75.06
672.284	90.06
672.487	75.06
672.689	83.06
672.892	74.06
