Data from 1985.PennyLincolnUp.Lamp.En5.5.200Scan.071819.P1_HRD10591_17-02-39-970.txt Node
Date: Thu Jul 18 17:02:39 EDT 2019
User: cochatt
Spectrometer: HR+D1059
Trigger mode: 1
Integration Time (sec): 1.000000E-1
Scans to average: 1
Electric dark correction enabled: true
Nonlinearity correction enabled: false
Boxcar width: 0
XAxis mode: Wavelengths
Number of Pixels in Spectrum: 2048
>>>>>Begin Spectral Data<<<<<
223.165	-23.62
223.4	-23.62
223.635	-23.62
223.869	-14.62
224.104	-12.62
224.338	-2.62
224.573	-6.62
224.808	-7.62
225.042	0.38
225.277	-15.62
225.511	-4.62
225.746	-3.62
225.98	3.38
226.215	7.38
226.449	5.38
226.683	11.38
226.918	24.38
227.152	39.38
227.387	34.38
227.621	40.38
227.856	51.38
228.09	41.38
228.324	51.38
228.559	44.38
228.793	59.38
229.027	93.38
229.262	103.38
229.496	114.38
229.73	130.38
229.964	141.38
230.199	115.38
230.433	96.38
230.667	106.38
230.901	113.38
231.136	119.38
231.37	103.38
231.604	112.38
231.838	115.38
232.072	110.38
232.306	106.38
232.541	104.38
232.775	110.38
233.009	106.38
233.243	106.38
233.477	100.38
233.711	103.38
233.945	113.38
234.179	130.38
234.413	115.38
234.647	100.38
234.881	116.38
235.115	113.38
235.349	119.38
235.583	120.38
235.817	119.38
236.051	115.38
236.285	124.38
236.519	122.38
236.753	126.38
236.987	145.38
237.221	171.38
237.455	233.38
237.689	183.38
237.922	144.38
238.156	136.38
238.39	126.38
238.624	123.38
238.858	138.38
239.091	141.38
239.325	125.38
239.559	126.38
239.793	122.38
240.027	130.38
240.26	146.38
240.494	143.38
240.728	146.38
240.961	150.38
241.195	146.38
241.429	140.38
241.662	132.38
241.896	131.38
242.13	127.38
242.363	129.38
242.597	138.38
242.83	137.38
243.064	154.38
243.298	147.38
243.531	130.38
243.765	147.38
243.998	131.38
244.232	146.38
244.465	152.38
244.699	144.38
244.932	146.38
245.166	137.38
245.399	149.38
245.633	138.38
245.866	138.38
246.099	137.38
246.333	151.38
246.566	156.38
246.8	150.38
247.033	148.38
247.266	172.38
247.5	174.38
247.733	168.38
247.966	154.38
248.2	171.38
248.433	174.38
248.666	177.38
248.899	187.38
249.133	198.38
249.366	215.38
249.599	186.38
249.832	190.38
250.066	187.38
250.299	197.38
250.532	192.38
250.765	187.38
250.998	222.38
251.231	212.38
251.465	197.38
251.698	212.38
251.931	198.38
252.164	194.38
252.397	194.38
252.63	197.38
252.863	202.38
253.096	209.38
253.329	210.38
253.562	216.38
253.795	219.38
254.028	214.38
254.261	215.38
254.494	223.38
254.727	248.38
254.96	271.38
255.193	259.38
255.426	230.38
255.659	227.38
255.892	225.38
256.124	227.38
256.357	204.38
256.59	226.38
256.823	223.38
257.056	215.38
257.289	211.38
257.521	216.38
257.754	210.38
257.987	211.38
258.22	212.38
258.452	209.38
258.685	194.38
258.918	200.38
259.151	198.38
259.383	217.38
259.616	211.38
259.849	224.38
260.081	236.38
260.314	240.38
260.547	256.38
260.779	229.38
261.012	244.38
261.244	226.38
261.477	243.38
261.71	222.38
261.942	228.38
262.175	241.38
262.407	239.38
262.64	223.38
262.872	222.38
263.105	220.38
263.337	215.38
263.57	207.38
263.802	240.38
264.035	232.38
264.267	216.38
264.499	232.38
264.732	227.38
264.964	224.38
265.197	209.38
265.429	216.38
265.661	224.38
265.894	223.38
266.126	244.38
266.358	222.38
266.591	223.38
266.823	238.38
267.055	229.38
267.287	249.38
267.52	242.38
267.752	233.38
267.984	243.38
268.216	227.38
268.448	229.38
268.681	245.38
268.913	248.38
269.145	282.38
269.377	277.38
269.609	287.38
269.841	279.38
270.073	284.38
270.306	305.38
270.538	324.38
270.77	312.38
271.002	313.38
271.234	302.38
271.466	295.38
271.698	323.38
271.93	317.38
272.162	330.38
272.394	327.38
272.626	315.38
272.858	305.38
273.09	284.38
273.322	275.38
273.553	271.38
273.785	287.38
274.017	257.38
274.249	280.38
274.481	271.38
274.713	285.38
274.945	284.38
275.176	292.38
275.408	282.38
275.64	273.38
275.872	277.38
276.104	280.38
276.335	308.38
276.567	276.38
276.799	291.38
277.031	312.38
277.262	324.38
277.494	332.38
277.726	305.38
277.957	319.38
278.189	283.38
278.421	296.38
278.652	290.38
278.884	280.38
279.115	282.38
279.347	287.38
279.579	293.38
279.81	288.38
280.042	293.38
280.273	312.38
280.505	296.38
280.736	291.38
280.968	284.38
281.199	289.38
281.431	292.38
281.662	310.38
281.894	290.38
282.125	295.38
282.356	313.38
282.588	311.38
282.819	318.38
283.051	294.38
283.282	318.38
283.513	305.38
283.745	288.38
283.976	301.38
284.207	332.38
284.439	308.38
284.67	290.38
284.901	318.38
285.132	315.38
285.364	306.38
285.595	309.38
285.826	308.38
286.057	313.38
286.288	320.38
286.52	308.38
286.751	294.38
286.982	328.38
287.213	326.38
287.444	324.38
287.675	323.38
287.906	336.38
288.138	340.38
288.369	354.38
288.6	316.38
288.831	322.38
289.062	315.38
289.293	325.38
289.524	316.38
289.755	315.38
289.986	292.38
290.217	323.38
290.448	319.38
290.679	315.38
290.91	304.38
291.141	324.38
291.371	329.38
291.602	319.38
291.833	310.38
292.064	314.38
292.295	319.38
292.526	336.38
292.757	335.38
292.987	313.38
293.218	313.38
293.449	333.38
293.68	320.38
293.91	331.38
294.141	334.38
294.372	324.38
294.603	319.38
294.833	324.38
295.064	312.38
295.295	347.38
295.525	336.38
295.756	332.38
295.987	358.38
296.217	373.38
296.448	361.38
296.679	344.38
296.909	341.38
297.14	336.38
297.37	335.38
297.601	327.38
297.831	324.38
298.062	335.38
298.292	351.38
298.523	341.38
298.753	351.38
298.984	342.38
299.214	337.38
299.445	338.38
299.675	348.38
299.905	330.38
300.136	339.38
300.366	339.38
300.597	368.38
300.827	358.38
301.057	377.38
301.288	386.38
301.518	386.38
301.748	360.38
301.979	388.38
302.209	372.38
302.439	363.38
302.669	374.38
302.9	354.38
303.13	362.38
303.36	379.38
303.59	384.38
303.82	378.38
304.051	366.38
304.281	371.38
304.511	370.38
304.741	371.38
304.971	388.38
305.201	379.38
305.431	357.38
305.661	364.38
305.891	387.38
306.121	366.38
306.352	361.38
306.582	363.38
306.812	375.38
307.042	378.38
307.272	368.38
307.502	375.38
307.731	364.38
307.961	363.38
308.191	375.38
308.421	369.38
308.651	383.38
308.881	374.38
309.111	390.38
309.341	394.38
309.571	386.38
309.8	372.38
310.03	409.38
310.26	409.38
310.49	396.38
310.72	422.38
310.949	433.38
311.179	435.38
311.409	420.38
311.639	414.38
311.868	411.38
312.098	420.38
312.328	399.38
312.557	437.38
312.787	454.38
313.017	438.38
313.246	423.38
313.476	439.38
313.706	432.38
313.935	414.38
314.165	419.38
314.394	436.38
314.624	435.38
314.853	415.38
315.083	415.38
315.312	440.38
315.542	443.38
315.771	421.38
316.001	400.38
316.23	404.38
316.46	395.38
316.689	432.38
316.919	421.38
317.148	423.38
317.377	432.38
317.607	422.38
317.836	460.38
318.065	430.38
318.295	401.38
318.524	416.38
318.753	435.38
318.983	428.38
319.212	408.38
319.441	424.38
319.67	433.38
319.9	424.38
320.129	425.38
320.358	405.38
320.587	434.38
320.816	434.38
321.046	436.38
321.275	435.38
321.504	441.38
321.733	447.38
321.962	454.38
322.191	457.38
322.42	468.38
322.649	470.38
322.878	458.38
323.108	494.38
323.337	501.38
323.566	530.38
323.795	566.38
324.024	590.38
324.253	678.38
324.482	970.38
324.71	1437.38
324.939	2098.38
325.168	1756.38
325.397	893.38
325.626	684.38
325.855	597.38
326.084	527.38
326.313	530.38
326.542	554.38
326.77	564.38
326.999	670.38
327.228	867.38
327.457	1308.38
327.686	1548.38
327.914	1043.38
328.143	678.38
328.372	645.38
328.6	597.38
328.829	588.38
329.058	580.38
329.287	594.38
329.515	581.38
329.744	548.38
329.972	543.38
330.201	549.38
330.43	567.38
330.658	608.38
330.887	630.38
331.115	620.38
331.344	575.38
331.572	532.38
331.801	511.38
332.03	531.38
332.258	525.38
332.486	526.38
332.715	523.38
332.943	518.38
333.172	507.38
333.4	524.38
333.629	523.38
333.857	546.38
334.085	539.38
334.314	538.38
334.542	552.38
334.771	538.38
334.999	545.38
335.227	540.38
335.455	510.38
335.684	509.38
335.912	504.38
336.14	505.38
336.369	486.38
336.597	498.38
336.825	516.38
337.053	515.38
337.281	511.38
337.51	487.38
337.738	480.38
337.966	478.38
338.194	508.38
338.422	513.38
338.65	496.38
338.878	481.38
339.106	470.38
339.334	454.38
339.562	479.38
339.79	475.38
340.018	453.38
340.246	467.38
340.474	484.38
340.702	465.38
340.93	479.38
341.158	475.38
341.386	482.38
341.614	492.38
341.842	468.38
342.07	467.38
342.298	464.38
342.526	476.38
342.754	456.38
342.981	452.38
343.209	447.38
343.437	472.38
343.665	493.38
343.893	492.38
344.12	519.38
344.348	489.38
344.576	501.38
344.804	478.38
345.031	506.38
345.259	486.38
345.487	471.38
345.714	467.38
345.942	462.38
346.17	466.38
346.397	452.38
346.625	466.38
346.853	457.38
347.08	447.38
347.308	442.38
347.535	467.38
347.763	460.38
347.99	461.38
348.218	451.38
348.445	462.38
348.673	461.38
348.9	451.38
349.128	432.38
349.355	447.38
349.583	450.38
349.81	446.38
350.037	426.38
350.265	431.38
350.492	432.38
350.72	434.38
350.947	456.38
351.174	463.38
351.402	444.38
351.629	456.38
351.856	444.38
352.083	470.38
352.311	479.38
352.538	453.38
352.765	476.38
352.992	447.38
353.22	419.38
353.447	463.38
353.674	456.38
353.901	422.38
354.128	419.38
354.355	431.38
354.583	424.38
354.81	428.38
355.037	417.38
355.264	427.38
355.491	412.38
355.718	414.38
355.945	420.38
356.172	431.38
356.399	414.38
356.626	434.38
356.853	414.38
357.08	403.38
357.307	432.38
357.534	419.38
357.761	409.38
357.988	419.38
358.215	406.38
358.441	416.38
358.668	430.38
358.895	417.38
359.122	416.38
359.349	436.38
359.576	464.38
359.802	449.38
360.029	491.38
360.256	506.38
360.483	480.38
360.709	438.38
360.936	441.38
361.163	468.38
361.39	444.38
361.616	436.38
361.843	434.38
362.07	436.38
362.296	468.38
362.523	452.38
362.749	427.38
362.976	449.38
363.203	429.38
363.429	431.38
363.656	428.38
363.882	420.38
364.109	428.38
364.335	434.38
364.562	417.38
364.788	423.38
365.015	415.38
365.241	420.38
365.468	426.38
365.694	429.38
365.92	440.38
366.147	436.38
366.373	438.38
366.599	431.38
366.826	427.38
367.052	408.38
367.278	421.38
367.505	412.38
367.731	402.38
367.957	421.38
368.184	437.38
368.41	438.38
368.636	433.38
368.862	435.38
369.089	438.38
369.315	423.38
369.541	441.38
369.767	406.38
369.993	428.38
370.219	412.38
370.445	411.38
370.672	410.38
370.898	419.38
371.124	438.38
371.35	450.38
371.576	425.38
371.802	440.38
372.028	427.38
372.254	442.38
372.48	423.38
372.706	422.38
372.932	432.38
373.158	433.38
373.384	422.38
373.61	430.38
373.835	444.38
374.061	440.38
374.287	435.38
374.513	427.38
374.739	449.38
374.965	434.38
375.191	447.38
375.416	442.38
375.642	440.38
375.868	419.38
376.094	428.38
376.319	432.38
376.545	420.38
376.771	408.38
376.997	424.38
377.222	405.38
377.448	409.38
377.674	411.38
377.899	411.38
378.125	419.38
378.35	418.38
378.576	431.38
378.802	424.38
379.027	412.38
379.253	405.38
379.478	414.38
379.704	418.38
379.929	416.38
380.155	415.38
380.38	412.38
380.606	407.38
380.831	396.38
381.057	406.38
381.282	410.38
381.507	411.38
381.733	409.38
381.958	434.38
382.184	438.38
382.409	438.38
382.634	446.38
382.86	412.38
383.085	428.38
383.31	425.38
383.535	434.38
383.761	446.38
383.986	461.38
384.211	454.38
384.436	463.38
384.662	454.38
384.887	451.38
385.112	479.38
385.337	455.38
385.562	468.38
385.787	466.38
386.013	475.38
386.238	484.38
386.463	501.38
386.688	471.38
386.913	489.38
387.138	462.38
387.363	461.38
387.588	457.38
387.813	465.38
388.038	484.38
388.263	456.38
388.488	476.38
388.713	470.38
388.938	476.38
389.163	455.38
389.387	481.38
389.612	479.38
389.837	465.38
390.062	458.38
390.287	463.38
390.512	464.38
390.736	467.38
390.961	463.38
391.186	467.38
391.411	469.38
391.636	475.38
391.86	471.38
392.085	489.38
392.31	496.38
392.534	483.38
392.759	495.38
392.984	491.38
393.208	481.38
393.433	495.38
393.658	480.38
393.882	471.38
394.107	476.38
394.331	465.38
394.556	473.38
394.78	477.38
395.005	500.38
395.229	470.38
395.454	492.38
395.678	515.38
395.903	510.38
396.127	528.38
396.352	533.38
396.576	498.38
396.801	514.38
397.025	506.38
397.249	517.38
397.474	514.38
397.698	519.38
397.922	528.38
398.147	533.38
398.371	542.38
398.595	532.38
398.82	530.38
399.044	574.38
399.268	583.38
399.492	644.38
399.717	681.38
399.941	712.38
400.165	710.38
400.389	674.38
400.613	615.38
400.837	591.38
401.062	588.38
401.286	560.38
401.51	555.38
401.734	560.38
401.958	566.38
402.182	552.38
402.406	558.38
402.63	564.38
402.854	580.38
403.078	580.38
403.302	583.38
403.526	586.38
403.75	578.38
403.974	595.38
404.198	588.38
404.422	574.38
404.645	568.38
404.869	609.38
405.093	600.38
405.317	641.38
405.541	650.38
405.765	611.38
405.988	588.38
406.212	594.38
406.436	617.38
406.66	643.38
406.883	628.38
407.107	687.38
407.331	699.38
407.555	769.38
407.778	759.38
408.002	687.38
408.226	640.38
408.449	657.38
408.673	610.38
408.896	638.38
409.12	680.38
409.344	647.38
409.567	610.38
409.791	599.38
410.014	573.38
410.238	588.38
410.461	579.38
410.685	574.38
410.908	575.38
411.132	620.38
411.355	626.38
411.578	615.38
411.802	558.38
412.025	572.38
412.249	569.38
412.472	594.38
412.695	605.38
412.919	584.38
413.142	566.38
413.365	556.38
413.589	548.38
413.812	553.38
414.035	531.38
414.258	540.38
414.482	532.38
414.705	543.38
414.928	544.38
415.151	519.38
415.374	535.38
415.597	537.38
415.821	538.38
416.044	523.38
416.267	534.38
416.49	528.38
416.713	537.38
416.936	535.38
417.159	536.38
417.382	524.38
417.605	536.38
417.828	558.38
418.051	542.38
418.274	530.38
418.497	523.38
418.72	549.38
418.943	530.38
419.166	553.38
419.389	566.38
419.611	594.38
419.834	550.38
420.057	574.38
420.28	560.38
420.503	547.38
420.726	540.38
420.948	544.38
421.171	576.38
421.394	625.38
421.617	566.38
421.839	544.38
422.062	567.38
422.285	564.38
422.507	611.38
422.73	689.38
422.953	662.38
423.175	571.38
423.398	582.38
423.621	562.38
423.843	584.38
424.066	599.38
424.288	591.38
424.511	619.38
424.733	671.38
424.956	705.38
425.178	710.38
425.401	673.38
425.623	715.38
425.846	606.38
426.068	574.38
426.291	574.38
426.513	549.38
426.735	563.38
426.958	631.38
427.18	679.38
427.402	825.38
427.625	892.38
427.847	769.38
428.069	635.38
428.292	617.38
428.514	538.38
428.736	529.38
428.958	529.38
429.181	542.38
429.403	528.38
429.625	535.38
429.847	546.38
430.069	616.38
430.292	596.38
430.514	528.38
430.736	513.38
430.958	490.38
431.18	497.38
431.402	510.38
431.624	501.38
431.846	500.38
432.068	520.38
432.29	511.38
432.512	498.38
432.734	532.38
432.956	532.38
433.178	541.38
433.4	530.38
433.622	488.38
433.844	508.38
434.066	512.38
434.287	517.38
434.509	514.38
434.731	535.38
434.953	539.38
435.175	538.38
435.397	568.38
435.618	563.38
435.84	606.38
436.062	709.38
436.284	741.38
436.505	634.38
436.727	597.38
436.949	516.38
437.17	517.38
437.392	533.38
437.614	542.38
437.835	569.38
438.057	652.38
438.278	743.38
438.5	745.38
438.721	827.38
438.943	785.38
439.165	628.38
439.386	591.38
439.608	596.38
439.829	570.38
440.05	581.38
440.272	627.38
440.493	598.38
440.715	569.38
440.936	553.38
441.158	538.38
441.379	544.38
441.6	556.38
441.822	582.38
442.043	609.38
442.264	686.38
442.486	742.38
442.707	617.38
442.928	594.38
443.149	604.38
443.371	611.38
443.592	649.38
443.813	736.38
444.034	806.38
444.255	679.38
444.476	612.38
444.698	592.38
444.919	609.38
445.14	713.38
445.361	642.38
445.582	620.38
445.803	675.38
446.024	774.38
446.245	766.38
446.466	694.38
446.687	569.38
446.908	585.38
447.129	543.38
447.35	542.38
447.571	506.38
447.792	501.38
448.013	523.38
448.234	516.38
448.455	574.38
448.675	702.38
448.896	788.38
449.117	660.38
449.338	624.38
449.559	726.38
449.779	824.38
450	655.38
450.221	554.38
450.442	517.38
450.662	512.38
450.883	508.38
451.104	529.38
451.324	529.38
451.545	482.38
451.766	494.38
451.986	452.38
452.207	450.38
452.428	447.38
452.648	449.38
452.869	455.38
453.089	500.38
453.31	492.38
453.53	460.38
453.751	473.38
453.971	472.38
454.192	479.38
454.412	475.38
454.633	466.38
454.853	479.38
455.073	453.38
455.294	496.38
455.514	542.38
455.734	555.38
455.955	456.38
456.175	460.38
456.395	446.38
456.616	437.38
456.836	420.38
457.056	432.38
457.276	417.38
457.497	447.38
457.717	472.38
457.937	440.38
458.157	454.38
458.377	475.38
458.598	490.38
458.818	534.38
459.038	610.38
459.258	625.38
459.478	562.38
459.698	510.38
459.918	522.38
460.138	517.38
460.358	523.38
460.578	507.38
460.798	543.38
461.018	543.38
461.238	538.38
461.458	530.38
461.678	533.38
461.898	532.38
462.118	550.38
462.338	566.38
462.558	571.38
462.777	581.38
462.997	603.38
463.217	605.38
463.437	650.38
463.657	601.38
463.876	592.38
464.096	594.38
464.316	601.38
464.536	590.38
464.755	587.38
464.975	609.38
465.195	618.38
465.414	684.38
465.634	601.38
465.854	558.38
466.073	534.38
466.293	501.38
466.512	475.38
466.732	506.38
466.951	474.38
467.171	489.38
467.391	490.38
467.61	508.38
467.829	510.38
468.049	455.38
468.268	485.38
468.488	471.38
468.707	486.38
468.927	488.38
469.146	482.38
469.365	466.38
469.585	467.38
469.804	482.38
470.023	481.38
470.243	463.38
470.462	508.38
470.681	522.38
470.901	522.38
471.12	495.38
471.339	497.38
471.558	510.38
471.777	498.38
471.997	488.38
472.216	471.38
472.435	494.38
472.654	487.38
472.873	484.38
473.092	480.38
473.311	481.38
473.53	478.38
473.749	495.38
473.968	522.38
474.187	612.38
474.406	623.38
474.625	520.38
474.844	485.38
475.063	484.38
475.282	487.38
475.501	473.38
475.72	487.38
475.939	486.38
476.158	521.38
476.377	509.38
476.596	507.38
476.814	516.38
477.033	524.38
477.252	516.38
477.471	519.38
477.69	532.38
477.908	551.38
478.127	550.38
478.346	568.38
478.564	552.38
478.783	568.38
479.002	555.38
479.22	558.38
479.439	571.38
479.658	594.38
479.876	576.38
480.095	606.38
480.313	614.38
480.532	614.38
480.751	626.38
480.969	616.38
481.188	611.38
481.406	623.38
481.624	604.38
481.843	584.38
482.061	574.38
482.28	582.38
482.498	570.38
482.717	553.38
482.935	562.38
483.153	540.38
483.372	576.38
483.59	571.38
483.808	562.38
484.027	569.38
484.245	587.38
484.463	578.38
484.681	581.38
484.9	595.38
485.118	592.38
485.336	594.38
485.554	592.38
485.772	572.38
485.99	576.38
486.209	602.38
486.427	580.38
486.645	601.38
486.863	621.38
487.081	624.38
487.299	614.38
487.517	609.38
487.735	588.38
487.953	606.38
488.171	627.38
488.389	572.38
488.607	605.38
488.825	609.38
489.043	618.38
489.261	611.38
489.479	595.38
489.696	618.38
489.914	614.38
490.132	624.38
490.35	650.38
490.568	646.38
490.786	643.38
491.003	654.38
491.221	650.38
491.439	680.38
491.657	692.38
491.874	680.38
492.092	666.38
492.31	691.38
492.527	681.38
492.745	664.38
492.963	688.38
493.18	673.38
493.398	706.38
493.615	717.38
493.833	709.38
494.05	692.38
494.268	696.38
494.485	675.38
494.703	697.38
494.92	720.38
495.138	710.38
495.355	720.38
495.573	702.38
495.79	719.38
496.008	716.38
496.225	700.38
496.442	695.38
496.66	706.38
496.877	708.38
497.094	728.38
497.312	727.38
497.529	740.38
497.746	761.38
497.963	769.38
498.181	791.38
498.398	812.38
498.615	844.38
498.832	860.38
499.049	888.38
499.267	912.38
499.484	938.38
499.701	1002.38
499.918	1051.38
500.135	1115.38
500.352	1231.38
500.569	1226.38
500.786	1227.38
501.003	1183.38
501.22	1115.38
501.437	1066.38
501.654	1016.38
501.871	980.38
502.088	923.38
502.305	894.38
502.522	864.38
502.739	850.38
502.956	817.38
503.172	767.38
503.389	752.38
503.606	754.38
503.823	768.38
504.04	743.38
504.256	736.38
504.473	737.38
504.69	747.38
504.907	758.38
505.123	728.38
505.34	709.38
505.557	679.38
505.773	709.38
505.99	682.38
506.207	700.38
506.423	694.38
506.64	658.38
506.856	657.38
507.073	672.38
507.289	649.38
507.506	668.38
507.722	688.38
507.939	687.38
508.155	672.38
508.372	649.38
508.588	650.38
508.805	643.38
509.021	636.38
509.238	656.38
509.454	658.38
509.67	643.38
509.887	626.38
510.103	630.38
510.319	653.38
510.536	713.38
510.752	1148.38
510.968	977.38
511.184	650.38
511.401	623.38
511.617	619.38
511.833	571.38
512.049	582.38
512.265	564.38
512.481	611.38
512.698	583.38
512.914	602.38
513.13	595.38
513.346	606.38
513.562	606.38
513.778	601.38
513.994	588.38
514.21	637.38
514.426	625.38
514.642	648.38
514.858	710.38
515.074	735.38
515.29	843.38
515.506	1258.38
515.721	1073.38
515.937	737.38
516.153	671.38
516.369	654.38
516.585	642.38
516.801	650.38
517.016	641.38
517.232	667.38
517.448	673.38
517.664	660.38
517.879	680.38
518.095	665.38
518.311	667.38
518.527	669.38
518.742	658.38
518.958	643.38
519.173	630.38
519.389	616.38
519.605	625.38
519.82	616.38
520.036	619.38
520.251	645.38
520.467	658.38
520.682	656.38
520.898	666.38
521.113	677.38
521.329	719.38
521.544	769.38
521.76	960.38
521.975	1599.38
522.19	1660.38
522.406	897.38
522.621	664.38
522.836	603.38
523.052	595.38
523.267	568.38
523.482	566.38
523.698	547.38
523.913	545.38
524.128	543.38
524.343	545.38
524.559	523.38
524.774	525.38
524.989	528.38
525.204	522.38
525.419	546.38
525.634	523.38
525.849	528.38
526.064	522.38
526.28	505.38
526.495	509.38
526.71	485.38
526.925	464.38
527.14	499.38
527.355	487.38
527.57	473.38
527.785	483.38
527.999	472.38
528.214	491.38
528.429	492.38
528.644	481.38
528.859	499.38
529.074	483.38
529.289	500.38
529.503	598.38
529.718	568.38
529.933	536.38
530.148	525.38
530.363	486.38
530.577	498.38
530.792	485.38
531.007	488.38
531.221	488.38
531.436	494.38
531.651	511.38
531.865	502.38
532.08	491.38
532.295	483.38
532.509	489.38
532.724	491.38
532.938	487.38
533.153	474.38
533.367	461.38
533.582	462.38
533.796	459.38
534.011	464.38
534.225	464.38
534.44	489.38
534.654	468.38
534.868	464.38
535.083	467.38
535.297	458.38
535.511	454.38
535.726	489.38
535.94	482.38
536.154	469.38
536.369	472.38
536.583	476.38
536.797	472.38
537.011	446.38
537.225	476.38
537.44	466.38
537.654	462.38
537.868	471.38
538.082	456.38
538.296	487.38
538.51	444.38
538.724	474.38
538.938	469.38
539.153	454.38
539.367	470.38
539.581	466.38
539.795	466.38
540.009	436.38
540.222	440.38
540.436	456.38
540.65	450.38
540.864	455.38
541.078	450.38
541.292	471.38
541.506	451.38
541.72	449.38
541.934	428.38
542.147	444.38
542.361	462.38
542.575	446.38
542.789	426.38
543.002	443.38
543.216	462.38
543.43	458.38
543.644	465.38
543.857	432.38
544.071	460.38
544.285	458.38
544.498	437.38
544.712	458.38
544.925	448.38
545.139	430.38
545.352	445.38
545.566	444.38
545.779	445.38
545.993	440.38
546.206	442.38
546.42	435.38
546.633	463.38
546.847	427.38
547.06	435.38
547.274	417.38
547.487	443.38
547.7	442.38
547.914	427.38
548.127	434.38
548.34	432.38
548.554	436.38
548.767	437.38
548.98	439.38
549.193	435.38
549.407	441.38
549.62	452.38
549.833	437.38
550.046	426.38
550.259	436.38
550.473	442.38
550.686	418.38
550.899	424.38
551.112	449.38
551.325	418.38
551.538	415.38
551.751	424.38
551.964	439.38
552.177	439.38
552.39	444.38
552.603	444.38
552.816	453.38
553.029	442.38
553.242	456.38
553.455	478.38
553.667	465.38
553.88	470.38
554.093	455.38
554.306	431.38
554.519	443.38
554.732	422.38
554.944	420.38
555.157	413.38
555.37	422.38
555.583	411.38
555.795	427.38
556.008	426.38
556.221	407.38
556.433	398.38
556.646	384.38
556.859	383.38
557.071	393.38
557.284	379.38
557.496	390.38
557.709	393.38
557.921	388.38
558.134	390.38
558.346	386.38
558.559	388.38
558.771	383.38
558.984	384.38
559.196	372.38
559.409	386.38
559.621	390.38
559.833	363.38
560.046	373.38
560.258	374.38
560.47	384.38
560.683	379.38
560.895	374.38
561.107	378.38
561.32	390.38
561.532	378.38
561.744	380.38
561.956	388.38
562.168	390.38
562.381	397.38
562.593	390.38
562.805	391.38
563.017	392.38
563.229	368.38
563.441	392.38
563.653	396.38
563.865	404.38
564.077	392.38
564.289	398.38
564.501	394.38
564.713	409.38
564.925	434.38
565.137	424.38
565.349	414.38
565.561	421.38
565.773	426.38
565.985	449.38
566.197	436.38
566.408	473.38
566.62	489.38
566.832	494.38
567.044	518.38
567.255	512.38
567.467	540.38
567.679	543.38
567.891	560.38
568.102	554.38
568.314	551.38
568.526	525.38
568.737	506.38
568.949	487.38
569.161	455.38
569.372	430.38
569.584	435.38
569.795	419.38
570.007	433.38
570.218	423.38
570.43	453.38
570.641	397.38
570.853	394.38
571.064	376.38
571.276	382.38
571.487	387.38
571.698	375.38
571.91	374.38
572.121	361.38
572.333	331.38
572.544	360.38
572.755	345.38
572.966	361.38
573.178	326.38
573.389	340.38
573.6	339.38
573.811	317.38
574.023	320.38
574.234	335.38
574.445	330.38
574.656	338.38
574.867	320.38
575.078	318.38
575.289	318.38
575.501	345.38
575.712	316.38
575.923	313.38
576.134	315.38
576.345	321.38
576.556	336.38
576.767	322.38
576.978	324.38
577.188	319.38
577.399	324.38
577.61	322.38
577.821	315.38
578.032	328.38
578.243	344.38
578.454	551.38
578.665	422.38
578.875	343.38
579.086	314.38
579.297	325.38
579.508	313.38
579.718	318.38
579.929	322.38
580.14	310.38
580.35	306.38
580.561	304.38
580.772	294.38
580.982	296.38
581.193	297.38
581.403	299.38
581.614	302.38
581.825	298.38
582.035	298.38
582.246	296.38
582.456	290.38
582.667	284.38
582.877	274.38
583.087	286.38
583.298	295.38
583.508	305.38
583.719	303.38
583.929	280.38
584.139	312.38
584.35	308.38
584.56	282.38
584.77	308.38
584.981	286.38
585.191	292.38
585.401	294.38
585.611	276.38
585.821	293.38
586.032	286.38
586.242	292.38
586.452	268.38
586.662	275.38
586.872	284.38
587.082	262.38
587.292	275.38
587.502	272.38
587.713	284.38
587.923	281.38
588.133	295.38
588.343	296.38
588.553	292.38
588.762	296.38
588.972	282.38
589.182	297.38
589.392	317.38
589.602	298.38
589.812	290.38
590.022	304.38
590.232	298.38
590.441	276.38
590.651	298.38
590.861	289.38
591.071	293.38
591.281	279.38
591.49	314.38
591.7	288.38
591.91	293.38
592.119	296.38
592.329	318.38
592.539	328.38
592.748	307.38
592.958	327.38
593.167	329.38
593.377	340.38
593.587	328.38
593.796	308.38
594.006	327.38
594.215	323.38
594.424	322.38
594.634	332.38
594.843	299.38
595.053	324.38
595.262	290.38
595.472	310.38
595.681	302.38
595.89	288.38
596.1	266.38
596.309	272.38
596.518	280.38
596.727	281.38
596.937	276.38
597.146	286.38
597.355	285.38
597.564	273.38
597.774	262.38
597.983	268.38
598.192	258.38
598.401	264.38
598.61	252.38
598.819	285.38
599.028	243.38
599.237	265.38
599.446	244.38
599.655	256.38
599.864	260.38
600.073	254.38
600.282	265.38
600.491	258.38
600.7	259.38
600.909	240.38
601.118	235.38
601.327	242.38
601.536	244.38
601.745	247.38
601.953	237.38
602.162	236.38
602.371	256.38
602.58	239.38
602.789	238.38
602.997	242.38
603.206	259.38
603.415	238.38
603.623	262.38
603.832	234.38
604.041	254.38
604.249	239.38
604.458	235.38
604.666	227.38
604.875	215.38
605.084	221.38
605.292	235.38
605.501	257.38
605.709	217.38
605.918	235.38
606.126	238.38
606.334	240.38
606.543	222.38
606.751	229.38
606.96	219.38
607.168	250.38
607.376	228.38
607.585	243.38
607.793	229.38
608.001	237.38
608.21	205.38
608.418	239.38
608.626	220.38
608.834	220.38
609.043	235.38
609.251	231.38
609.459	233.38
609.667	225.38
609.875	213.38
610.083	233.38
610.291	223.38
610.499	227.38
610.707	226.38
610.916	240.38
611.124	227.38
611.332	242.38
611.54	242.38
611.748	221.38
611.955	230.38
612.163	234.38
612.371	236.38
612.579	219.38
612.787	225.38
612.995	239.38
613.203	240.38
613.411	229.38
613.618	229.38
613.826	222.38
614.034	233.38
614.242	220.38
614.449	219.38
614.657	211.38
614.865	223.38
615.072	235.38
615.28	229.38
615.488	234.38
615.695	227.38
615.903	235.38
616.111	233.38
616.318	225.38
616.526	228.38
616.733	228.38
616.941	213.38
617.148	236.38
617.356	237.38
617.563	227.38
617.771	232.38
617.978	235.38
618.185	233.38
618.393	220.38
618.6	224.38
618.807	229.38
619.015	220.38
619.222	218.38
619.429	219.38
619.637	242.38
619.844	231.38
620.051	211.38
620.258	232.38
620.466	208.38
620.673	215.38
620.88	203.38
621.087	211.38
621.294	225.38
621.501	213.38
621.708	226.38
621.915	215.38
622.122	215.38
622.329	226.38
622.536	196.38
622.743	201.38
622.95	210.38
623.157	213.38
623.364	214.38
623.571	215.38
623.778	203.38
623.985	227.38
624.192	214.38
624.399	218.38
624.606	195.38
624.812	174.38
625.019	203.38
625.226	195.38
625.433	216.38
625.639	213.38
625.846	214.38
626.053	215.38
626.259	205.38
626.466	199.38
626.673	182.38
626.879	205.38
627.086	211.38
627.293	192.38
627.499	194.38
627.706	192.38
627.912	203.38
628.119	204.38
628.325	198.38
628.532	177.38
628.738	194.38
628.945	194.38
629.151	196.38
629.357	187.38
629.564	196.38
629.77	197.38
629.976	183.38
630.183	196.38
630.389	203.38
630.595	178.38
630.802	187.38
631.008	190.38
631.214	186.38
631.42	203.38
631.627	184.38
631.833	183.38
632.039	166.38
632.245	184.38
632.451	182.38
632.657	171.38
632.863	189.38
633.069	175.38
633.275	182.38
633.481	188.38
633.688	176.38
633.893	190.38
634.099	184.38
634.305	183.38
634.511	174.38
634.717	180.38
634.923	182.38
635.129	168.38
635.335	180.38
635.541	182.38
635.747	166.38
635.952	174.38
636.158	175.38
636.364	172.38
636.57	191.38
636.775	172.38
636.981	177.38
637.187	170.38
637.392	188.38
637.598	172.38
637.804	163.38
638.009	178.38
638.215	178.38
638.421	145.38
638.626	164.38
638.832	166.38
639.037	176.38
639.243	151.38
639.448	167.38
639.654	178.38
639.859	165.38
640.065	177.38
640.27	174.38
640.475	171.38
640.681	174.38
640.886	168.38
641.091	151.38
641.297	174.38
641.502	169.38
641.707	170.38
641.913	172.38
642.118	162.38
642.323	157.38
642.528	171.38
642.733	151.38
642.939	150.38
643.144	146.38
643.349	153.38
643.554	168.38
643.759	160.38
643.964	158.38
644.169	152.38
644.374	178.38
644.579	150.38
644.784	160.38
644.989	159.38
645.194	153.38
645.399	142.38
645.604	152.38
645.809	166.38
646.014	163.38
646.219	165.38
646.423	165.38
646.628	175.38
646.833	157.38
647.038	148.38
647.243	181.38
647.447	162.38
647.652	154.38
647.857	162.38
648.062	174.38
648.266	144.38
648.471	158.38
648.676	158.38
648.88	175.38
649.085	171.38
649.289	167.38
649.494	167.38
649.698	181.38
649.903	168.38
650.107	174.38
650.312	156.38
650.516	149.38
650.721	153.38
650.925	168.38
651.13	151.38
651.334	142.38
651.539	160.38
651.743	145.38
651.947	131.38
652.152	150.38
652.356	139.38
652.56	138.38
652.764	140.38
652.969	143.38
653.173	131.38
653.377	140.38
653.581	129.38
653.785	141.38
653.99	132.38
654.194	118.38
654.398	135.38
654.602	148.38
654.806	144.38
655.01	140.38
655.214	145.38
655.418	140.38
655.622	121.38
655.826	142.38
656.03	134.38
656.234	128.38
656.438	139.38
656.642	128.38
656.846	136.38
657.049	131.38
657.253	120.38
657.457	124.38
657.661	92.38
657.865	113.38
658.068	116.38
658.272	122.38
658.476	115.38
658.68	107.38
658.883	100.38
659.087	94.38
659.291	108.38
659.494	102.38
659.698	92.38
659.901	96.38
660.105	97.38
660.309	102.38
660.512	88.38
660.716	100.38
660.919	92.38
661.123	95.38
661.326	94.38
661.53	86.38
661.733	93.38
661.936	81.38
662.14	94.38
662.343	87.38
662.546	84.38
662.75	79.38
662.953	82.38
663.156	76.38
663.36	94.38
663.563	83.38
663.766	74.38
663.969	74.38
664.173	91.38
664.376	83.38
664.579	65.38
664.782	73.38
664.985	85.38
665.188	76.38
665.391	78.38
665.594	77.38
665.797	89.38
666	93.38
666.203	93.38
666.406	76.38
666.609	89.38
666.812	77.38
667.015	83.38
667.218	76.38
667.421	87.38
667.624	82.38
667.827	97.38
668.03	87.38
668.232	73.38
668.435	73.38
668.638	77.38
668.841	71.38
669.043	80.38
669.246	79.38
669.449	75.38
669.651	84.38
669.854	91.38
670.057	78.38
670.259	81.38
670.462	71.38
670.665	76.38
670.867	73.38
671.07	82.38
671.272	95.38
671.475	87.38
671.677	80.38
671.88	87.38
672.082	90.38
672.284	75.38
672.487	92.38
672.689	70.38
672.892	70.38
