Data from 1985.PennyLincolnUp.Lamp.En5.5.200Scan.071819.P1_HRD10591_17-02-15-970.txt Node
Date: Thu Jul 18 17:02:15 EDT 2019
User: cochatt
Spectrometer: HR+D1059
Trigger mode: 1
Integration Time (sec): 1.000000E-1
Scans to average: 1
Electric dark correction enabled: true
Nonlinearity correction enabled: false
Boxcar width: 0
XAxis mode: Wavelengths
Number of Pixels in Spectrum: 2048
>>>>>Begin Spectral Data<<<<<
223.165	-1.06
223.4	-1.06
223.635	-1.06
223.869	-25.06
224.104	-16.06
224.338	-3.06
224.573	-21.06
224.808	-9.06
225.042	-10.06
225.277	-0.06
225.511	-12.06
225.746	3.94
225.98	4.94
226.215	5.94
226.449	-3.06
226.683	27.94
226.918	20.94
227.152	36.94
227.387	15.94
227.621	34.94
227.856	33.94
228.09	48.94
228.324	42.94
228.559	57.94
228.793	69.94
229.027	83.94
229.262	89.94
229.496	117.94
229.73	106.94
229.964	131.94
230.199	117.94
230.433	117.94
230.667	93.94
230.901	99.94
231.136	118.94
231.37	89.94
231.604	119.94
231.838	118.94
232.072	101.94
232.306	121.94
232.541	105.94
232.775	106.94
233.009	120.94
233.243	117.94
233.477	120.94
233.711	125.94
233.945	104.94
234.179	109.94
234.413	115.94
234.647	127.94
234.881	114.94
235.115	107.94
235.349	119.94
235.583	129.94
235.817	112.94
236.051	119.94
236.285	115.94
236.519	140.94
236.753	131.94
236.987	140.94
237.221	176.94
237.455	201.94
237.689	163.94
237.922	127.94
238.156	118.94
238.39	114.94
238.624	108.94
238.858	115.94
239.091	113.94
239.325	116.94
239.559	115.94
239.793	122.94
240.027	121.94
240.26	145.94
240.494	148.94
240.728	138.94
240.961	147.94
241.195	130.94
241.429	133.94
241.662	135.94
241.896	137.94
242.13	132.94
242.363	117.94
242.597	129.94
242.83	130.94
243.064	132.94
243.298	138.94
243.531	154.94
243.765	133.94
243.998	131.94
244.232	144.94
244.465	136.94
244.699	139.94
244.932	139.94
245.166	133.94
245.399	161.94
245.633	149.94
245.866	142.94
246.099	145.94
246.333	145.94
246.566	149.94
246.8	150.94
247.033	148.94
247.266	157.94
247.5	149.94
247.733	159.94
247.966	155.94
248.2	164.94
248.433	169.94
248.666	169.94
248.899	188.94
249.133	185.94
249.366	181.94
249.599	183.94
249.832	159.94
250.066	168.94
250.299	178.94
250.532	183.94
250.765	195.94
250.998	209.94
251.231	198.94
251.465	183.94
251.698	187.94
251.931	180.94
252.164	178.94
252.397	197.94
252.63	206.94
252.863	190.94
253.096	217.94
253.329	216.94
253.562	188.94
253.795	204.94
254.028	206.94
254.261	207.94
254.494	211.94
254.727	234.94
254.96	253.94
255.193	242.94
255.426	234.94
255.659	203.94
255.892	215.94
256.124	187.94
256.357	199.94
256.59	213.94
256.823	206.94
257.056	203.94
257.289	185.94
257.521	193.94
257.754	195.94
257.987	192.94
258.22	207.94
258.452	208.94
258.685	209.94
258.918	212.94
259.151	211.94
259.383	208.94
259.616	207.94
259.849	216.94
260.081	220.94
260.314	233.94
260.547	238.94
260.779	243.94
261.012	217.94
261.244	223.94
261.477	211.94
261.71	210.94
261.942	220.94
262.175	224.94
262.407	231.94
262.64	211.94
262.872	219.94
263.105	198.94
263.337	221.94
263.57	220.94
263.802	204.94
264.035	189.94
264.267	211.94
264.499	221.94
264.732	233.94
264.964	210.94
265.197	209.94
265.429	208.94
265.661	232.94
265.894	216.94
266.126	210.94
266.358	207.94
266.591	223.94
266.823	229.94
267.055	226.94
267.287	213.94
267.52	223.94
267.752	214.94
267.984	218.94
268.216	245.94
268.448	229.94
268.681	236.94
268.913	243.94
269.145	269.94
269.377	267.94
269.609	269.94
269.841	270.94
270.073	256.94
270.306	289.94
270.538	316.94
270.77	298.94
271.002	281.94
271.234	273.94
271.466	292.94
271.698	303.94
271.93	310.94
272.162	297.94
272.394	321.94
272.626	287.94
272.858	283.94
273.09	270.94
273.322	278.94
273.553	269.94
273.785	275.94
274.017	283.94
274.249	262.94
274.481	262.94
274.713	260.94
274.945	254.94
275.176	264.94
275.408	248.94
275.64	279.94
275.872	252.94
276.104	277.94
276.335	260.94
276.567	259.94
276.799	290.94
277.031	280.94
277.262	309.94
277.494	316.94
277.726	294.94
277.957	281.94
278.189	309.94
278.421	279.94
278.652	271.94
278.884	292.94
279.115	278.94
279.347	282.94
279.579	282.94
279.81	276.94
280.042	266.94
280.273	274.94
280.505	255.94
280.736	275.94
280.968	283.94
281.199	297.94
281.431	276.94
281.662	283.94
281.894	280.94
282.125	282.94
282.356	292.94
282.588	324.94
282.819	313.94
283.051	294.94
283.282	273.94
283.513	286.94
283.745	287.94
283.976	291.94
284.207	301.94
284.439	277.94
284.67	278.94
284.901	322.94
285.132	297.94
285.364	300.94
285.595	285.94
285.826	288.94
286.057	288.94
286.288	290.94
286.52	293.94
286.751	290.94
286.982	307.94
287.213	305.94
287.444	293.94
287.675	306.94
287.906	326.94
288.138	319.94
288.369	322.94
288.6	297.94
288.831	306.94
289.062	307.94
289.293	306.94
289.524	318.94
289.755	314.94
289.986	312.94
290.217	330.94
290.448	309.94
290.679	321.94
290.91	306.94
291.141	291.94
291.371	315.94
291.602	319.94
291.833	307.94
292.064	314.94
292.295	304.94
292.526	313.94
292.757	321.94
292.987	311.94
293.218	312.94
293.449	307.94
293.68	319.94
293.91	311.94
294.141	309.94
294.372	315.94
294.603	308.94
294.833	297.94
295.064	320.94
295.295	320.94
295.525	309.94
295.756	310.94
295.987	323.94
296.217	331.94
296.448	342.94
296.679	319.94
296.909	324.94
297.14	307.94
297.37	320.94
297.601	332.94
297.831	336.94
298.062	323.94
298.292	324.94
298.523	319.94
298.753	315.94
298.984	336.94
299.214	312.94
299.445	333.94
299.675	345.94
299.905	351.94
300.136	338.94
300.366	338.94
300.597	352.94
300.827	338.94
301.057	354.94
301.288	361.94
301.518	351.94
301.748	360.94
301.979	358.94
302.209	337.94
302.439	339.94
302.669	357.94
302.9	367.94
303.13	345.94
303.36	358.94
303.59	379.94
303.82	377.94
304.051	347.94
304.281	345.94
304.511	337.94
304.741	353.94
304.971	371.94
305.201	356.94
305.431	358.94
305.661	348.94
305.891	359.94
306.121	332.94
306.352	339.94
306.582	357.94
306.812	363.94
307.042	370.94
307.272	367.94
307.502	344.94
307.731	351.94
307.961	367.94
308.191	362.94
308.421	344.94
308.651	364.94
308.881	363.94
309.111	370.94
309.341	355.94
309.571	369.94
309.8	379.94
310.03	392.94
310.26	388.94
310.49	389.94
310.72	402.94
310.949	398.94
311.179	398.94
311.409	390.94
311.639	390.94
311.868	390.94
312.098	403.94
312.328	387.94
312.557	402.94
312.787	433.94
313.017	450.94
313.246	421.94
313.476	374.94
313.706	381.94
313.935	403.94
314.165	406.94
314.394	426.94
314.624	433.94
314.853	410.94
315.083	406.94
315.312	406.94
315.542	404.94
315.771	380.94
316.001	403.94
316.23	395.94
316.46	394.94
316.689	405.94
316.919	395.94
317.148	389.94
317.377	408.94
317.607	398.94
317.836	409.94
318.065	396.94
318.295	405.94
318.524	395.94
318.753	409.94
318.983	390.94
319.212	403.94
319.441	403.94
319.67	423.94
319.9	404.94
320.129	392.94
320.358	414.94
320.587	393.94
320.816	414.94
321.046	410.94
321.275	427.94
321.504	420.94
321.733	409.94
321.962	400.94
322.191	449.94
322.42	447.94
322.649	438.94
322.878	459.94
323.108	466.94
323.337	484.94
323.566	477.94
323.795	526.94
324.024	551.94
324.253	665.94
324.482	892.94
324.71	1325.94
324.939	1871.94
325.168	1595.94
325.397	858.94
325.626	620.94
325.855	527.94
326.084	520.94
326.313	499.94
326.542	529.94
326.77	567.94
326.999	639.94
327.228	796.94
327.457	1199.94
327.686	1421.94
327.914	967.94
328.143	656.94
328.372	588.94
328.6	547.94
328.829	535.94
329.058	541.94
329.287	564.94
329.515	507.94
329.744	500.94
329.972	496.94
330.201	500.94
330.43	501.94
330.658	552.94
330.887	582.94
331.115	568.94
331.344	512.94
331.572	521.94
331.801	490.94
332.03	517.94
332.258	494.94
332.486	462.94
332.715	476.94
332.943	497.94
333.172	482.94
333.4	512.94
333.629	503.94
333.857	508.94
334.085	492.94
334.314	513.94
334.542	495.94
334.771	505.94
334.999	488.94
335.227	501.94
335.455	501.94
335.684	507.94
335.912	508.94
336.14	482.94
336.369	476.94
336.597	494.94
336.825	487.94
337.053	487.94
337.281	483.94
337.51	467.94
337.738	466.94
337.966	471.94
338.194	480.94
338.422	481.94
338.65	438.94
338.878	447.94
339.106	458.94
339.334	456.94
339.562	451.94
339.79	464.94
340.018	436.94
340.246	450.94
340.474	429.94
340.702	456.94
340.93	459.94
341.158	461.94
341.386	436.94
341.614	441.94
341.842	439.94
342.07	429.94
342.298	449.94
342.526	441.94
342.754	437.94
342.981	441.94
343.209	454.94
343.437	444.94
343.665	450.94
343.893	466.94
344.12	493.94
344.348	484.94
344.576	471.94
344.804	464.94
345.031	461.94
345.259	472.94
345.487	449.94
345.714	450.94
345.942	455.94
346.17	446.94
346.397	439.94
346.625	436.94
346.853	436.94
347.08	429.94
347.308	449.94
347.535	436.94
347.763	437.94
347.99	431.94
348.218	465.94
348.445	439.94
348.673	444.94
348.9	434.94
349.128	428.94
349.355	434.94
349.583	419.94
349.81	401.94
350.037	428.94
350.265	415.94
350.492	436.94
350.72	425.94
350.947	435.94
351.174	439.94
351.402	440.94
351.629	445.94
351.856	418.94
352.083	436.94
352.311	442.94
352.538	443.94
352.765	448.94
352.992	431.94
353.22	423.94
353.447	408.94
353.674	435.94
353.901	407.94
354.128	423.94
354.355	407.94
354.583	400.94
354.81	397.94
355.037	405.94
355.264	388.94
355.491	395.94
355.718	383.94
355.945	407.94
356.172	411.94
356.399	409.94
356.626	409.94
356.853	405.94
357.08	408.94
357.307	391.94
357.534	408.94
357.761	411.94
357.988	426.94
358.215	413.94
358.441	413.94
358.668	404.94
358.895	413.94
359.122	421.94
359.349	431.94
359.576	424.94
359.802	428.94
360.029	455.94
360.256	476.94
360.483	449.94
360.709	431.94
360.936	420.94
361.163	420.94
361.39	413.94
361.616	405.94
361.843	428.94
362.07	436.94
362.296	401.94
362.523	423.94
362.749	412.94
362.976	419.94
363.203	418.94
363.429	408.94
363.656	435.94
363.882	420.94
364.109	420.94
364.335	415.94
364.562	406.94
364.788	396.94
365.015	392.94
365.241	423.94
365.468	440.94
365.694	430.94
365.92	407.94
366.147	410.94
366.373	405.94
366.599	410.94
366.826	396.94
367.052	416.94
367.278	405.94
367.505	410.94
367.731	408.94
367.957	408.94
368.184	412.94
368.41	427.94
368.636	424.94
368.862	437.94
369.089	407.94
369.315	406.94
369.541	389.94
369.767	373.94
369.993	388.94
370.219	407.94
370.445	395.94
370.672	414.94
370.898	414.94
371.124	396.94
371.35	428.94
371.576	405.94
371.802	431.94
372.028	397.94
372.254	392.94
372.48	389.94
372.706	413.94
372.932	424.94
373.158	415.94
373.384	417.94
373.61	431.94
373.835	409.94
374.061	400.94
374.287	413.94
374.513	423.94
374.739	421.94
374.965	418.94
375.191	422.94
375.416	427.94
375.642	434.94
375.868	433.94
376.094	407.94
376.319	376.94
376.545	412.94
376.771	410.94
376.997	398.94
377.222	401.94
377.448	401.94
377.674	397.94
377.899	401.94
378.125	411.94
378.35	406.94
378.576	405.94
378.802	408.94
379.027	402.94
379.253	405.94
379.478	387.94
379.704	414.94
379.929	386.94
380.155	399.94
380.38	396.94
380.606	399.94
380.831	396.94
381.057	423.94
381.282	403.94
381.507	408.94
381.733	424.94
381.958	413.94
382.184	395.94
382.409	413.94
382.634	417.94
382.86	416.94
383.085	420.94
383.31	405.94
383.535	433.94
383.761	437.94
383.986	433.94
384.211	424.94
384.436	439.94
384.662	435.94
384.887	421.94
385.112	454.94
385.337	441.94
385.562	467.94
385.787	440.94
386.013	451.94
386.238	460.94
386.463	478.94
386.688	456.94
386.913	454.94
387.138	451.94
387.363	443.94
387.588	445.94
387.813	454.94
388.038	459.94
388.263	438.94
388.488	447.94
388.713	445.94
388.938	490.94
389.163	465.94
389.387	460.94
389.612	455.94
389.837	457.94
390.062	459.94
390.287	451.94
390.512	432.94
390.736	468.94
390.961	463.94
391.186	467.94
391.411	465.94
391.636	475.94
391.86	475.94
392.085	484.94
392.31	480.94
392.534	483.94
392.759	462.94
392.984	461.94
393.208	439.94
393.433	470.94
393.658	459.94
393.882	452.94
394.107	454.94
394.331	467.94
394.556	466.94
394.78	463.94
395.005	471.94
395.229	460.94
395.454	482.94
395.678	488.94
395.903	478.94
396.127	481.94
396.352	497.94
396.576	475.94
396.801	468.94
397.025	476.94
397.249	494.94
397.474	495.94
397.698	496.94
397.922	512.94
398.147	504.94
398.371	522.94
398.595	539.94
398.82	533.94
399.044	528.94
399.268	563.94
399.492	613.94
399.717	668.94
399.941	694.94
400.165	684.94
400.389	645.94
400.613	602.94
400.837	556.94
401.062	547.94
401.286	533.94
401.51	497.94
401.734	513.94
401.958	542.94
402.182	527.94
402.406	549.94
402.63	530.94
402.854	537.94
403.078	549.94
403.302	539.94
403.526	551.94
403.75	571.94
403.974	559.94
404.198	541.94
404.422	538.94
404.645	545.94
404.869	568.94
405.093	563.94
405.317	587.94
405.541	594.94
405.765	553.94
405.988	559.94
406.212	590.94
406.436	592.94
406.66	612.94
406.883	599.94
407.107	617.94
407.331	667.94
407.555	712.94
407.778	721.94
408.002	653.94
408.226	603.94
408.449	609.94
408.673	595.94
408.896	625.94
409.12	640.94
409.344	635.94
409.567	553.94
409.791	566.94
410.014	545.94
410.238	531.94
410.461	560.94
410.685	535.94
410.908	538.94
411.132	581.94
411.355	608.94
411.578	576.94
411.802	540.94
412.025	526.94
412.249	530.94
412.472	532.94
412.695	506.94
412.919	535.94
413.142	514.94
413.365	525.94
413.589	524.94
413.812	509.94
414.035	514.94
414.258	512.94
414.482	531.94
414.705	511.94
414.928	517.94
415.151	522.94
415.374	522.94
415.597	543.94
415.821	513.94
416.044	527.94
416.267	511.94
416.49	512.94
416.713	500.94
416.936	490.94
417.159	503.94
417.382	523.94
417.605	491.94
417.828	496.94
418.051	523.94
418.274	524.94
418.497	516.94
418.72	516.94
418.943	492.94
419.166	530.94
419.389	575.94
419.611	543.94
419.834	535.94
420.057	535.94
420.28	517.94
420.503	523.94
420.726	521.94
420.948	519.94
421.171	580.94
421.394	589.94
421.617	542.94
421.839	518.94
422.062	526.94
422.285	521.94
422.507	593.94
422.73	682.94
422.953	599.94
423.175	551.94
423.398	549.94
423.621	552.94
423.843	579.94
424.066	564.94
424.288	561.94
424.511	580.94
424.733	652.94
424.956	693.94
425.178	642.94
425.401	661.94
425.623	689.94
425.846	570.94
426.068	571.94
426.291	556.94
426.513	537.94
426.735	555.94
426.958	587.94
427.18	651.94
427.402	771.94
427.625	844.94
427.847	705.94
428.069	624.94
428.292	554.94
428.514	526.94
428.736	509.94
428.958	504.94
429.181	499.94
429.403	493.94
429.625	521.94
429.847	520.94
430.069	596.94
430.292	575.94
430.514	522.94
430.736	514.94
430.958	484.94
431.18	482.94
431.402	470.94
431.624	476.94
431.846	489.94
432.068	489.94
432.29	486.94
432.512	483.94
432.734	495.94
432.956	491.94
433.178	509.94
433.4	503.94
433.622	509.94
433.844	485.94
434.066	514.94
434.287	476.94
434.509	502.94
434.731	495.94
434.953	520.94
435.175	542.94
435.397	554.94
435.618	559.94
435.84	580.94
436.062	651.94
436.284	708.94
436.505	595.94
436.727	523.94
436.949	501.94
437.17	485.94
437.392	513.94
437.614	540.94
437.835	538.94
438.057	618.94
438.278	683.94
438.5	693.94
438.721	768.94
438.943	722.94
439.165	590.94
439.386	558.94
439.608	534.94
439.829	560.94
440.05	559.94
440.272	592.94
440.493	552.94
440.715	528.94
440.936	505.94
441.158	510.94
441.379	523.94
441.6	515.94
441.822	542.94
442.043	579.94
442.264	656.94
442.486	699.94
442.707	603.94
442.928	563.94
443.149	572.94
443.371	590.94
443.592	625.94
443.813	700.94
444.034	757.94
444.255	649.94
444.476	596.94
444.698	580.94
444.919	574.94
445.14	690.94
445.361	634.94
445.582	597.94
445.803	651.94
446.024	742.94
446.245	708.94
446.466	663.94
446.687	575.94
446.908	543.94
447.129	517.94
447.35	521.94
447.571	483.94
447.792	485.94
448.013	462.94
448.234	505.94
448.455	563.94
448.675	684.94
448.896	727.94
449.117	658.94
449.338	603.94
449.559	716.94
449.779	789.94
450	633.94
450.221	512.94
450.442	501.94
450.662	500.94
450.883	501.94
451.104	506.94
451.324	516.94
451.545	452.94
451.766	469.94
451.986	435.94
452.207	456.94
452.428	441.94
452.648	467.94
452.869	455.94
453.089	452.94
453.31	465.94
453.53	458.94
453.751	442.94
453.971	440.94
454.192	454.94
454.412	444.94
454.633	427.94
454.853	445.94
455.073	438.94
455.294	470.94
455.514	538.94
455.734	509.94
455.955	430.94
456.175	427.94
456.395	412.94
456.616	412.94
456.836	433.94
457.056	419.94
457.276	409.94
457.497	431.94
457.717	418.94
457.937	426.94
458.157	442.94
458.377	436.94
458.598	460.94
458.818	530.94
459.038	563.94
459.258	591.94
459.478	528.94
459.698	470.94
459.918	493.94
460.138	499.94
460.358	520.94
460.578	537.94
460.798	523.94
461.018	499.94
461.238	546.94
461.458	540.94
461.678	509.94
461.898	532.94
462.118	511.94
462.338	532.94
462.558	519.94
462.777	538.94
462.997	589.94
463.217	607.94
463.437	600.94
463.657	565.94
463.876	554.94
464.096	575.94
464.316	564.94
464.536	549.94
464.755	564.94
464.975	554.94
465.195	582.94
465.414	635.94
465.634	573.94
465.854	538.94
466.073	520.94
466.293	469.94
466.512	468.94
466.732	486.94
466.951	466.94
467.171	460.94
467.391	466.94
467.61	468.94
467.829	492.94
468.049	471.94
468.268	455.94
468.488	440.94
468.707	437.94
468.927	450.94
469.146	437.94
469.365	447.94
469.585	434.94
469.804	461.94
470.023	479.94
470.243	468.94
470.462	480.94
470.681	505.94
470.901	489.94
471.12	471.94
471.339	476.94
471.558	472.94
471.777	488.94
471.997	462.94
472.216	459.94
472.435	467.94
472.654	469.94
472.873	449.94
473.092	445.94
473.311	461.94
473.53	458.94
473.749	470.94
473.968	498.94
474.187	599.94
474.406	588.94
474.625	503.94
474.844	462.94
475.063	458.94
475.282	457.94
475.501	469.94
475.72	489.94
475.939	469.94
476.158	496.94
476.377	475.94
476.596	481.94
476.814	502.94
477.033	496.94
477.252	496.94
477.471	482.94
477.69	508.94
477.908	533.94
478.127	535.94
478.346	521.94
478.564	537.94
478.783	536.94
479.002	557.94
479.22	530.94
479.439	554.94
479.658	584.94
479.876	562.94
480.095	565.94
480.313	611.94
480.532	605.94
480.751	601.94
480.969	598.94
481.188	594.94
481.406	596.94
481.624	547.94
481.843	550.94
482.061	556.94
482.28	521.94
482.498	529.94
482.717	527.94
482.935	566.94
483.153	532.94
483.372	546.94
483.59	523.94
483.808	525.94
484.027	529.94
484.245	546.94
484.463	537.94
484.681	549.94
484.9	533.94
485.118	563.94
485.336	532.94
485.554	571.94
485.772	538.94
485.99	563.94
486.209	573.94
486.427	546.94
486.645	569.94
486.863	575.94
487.081	582.94
487.299	553.94
487.517	577.94
487.735	589.94
487.953	543.94
488.171	584.94
488.389	546.94
488.607	573.94
488.825	588.94
489.043	574.94
489.261	572.94
489.479	583.94
489.696	583.94
489.914	587.94
490.132	594.94
490.35	589.94
490.568	582.94
490.786	612.94
491.003	627.94
491.221	614.94
491.439	643.94
491.657	607.94
491.874	638.94
492.092	659.94
492.31	658.94
492.527	636.94
492.745	651.94
492.963	643.94
493.18	649.94
493.398	666.94
493.615	643.94
493.833	660.94
494.05	682.94
494.268	663.94
494.485	687.94
494.703	669.94
494.92	701.94
495.138	647.94
495.355	685.94
495.573	669.94
495.79	698.94
496.008	691.94
496.225	656.94
496.442	690.94
496.66	682.94
496.877	694.94
497.094	678.94
497.312	691.94
497.529	713.94
497.746	728.94
497.963	723.94
498.181	757.94
498.398	775.94
498.615	781.94
498.832	838.94
499.049	839.94
499.267	843.94
499.484	892.94
499.701	953.94
499.918	1018.94
500.135	1062.94
500.352	1140.94
500.569	1149.94
500.786	1160.94
501.003	1123.94
501.22	1062.94
501.437	1013.94
501.654	967.94
501.871	927.94
502.088	894.94
502.305	864.94
502.522	823.94
502.739	797.94
502.956	743.94
503.172	769.94
503.389	736.94
503.606	742.94
503.823	746.94
504.04	710.94
504.256	727.94
504.473	703.94
504.69	716.94
504.907	699.94
505.123	681.94
505.34	684.94
505.557	669.94
505.773	656.94
505.99	676.94
506.207	644.94
506.423	652.94
506.64	633.94
506.856	634.94
507.073	645.94
507.289	630.94
507.506	617.94
507.722	634.94
507.939	626.94
508.155	618.94
508.372	600.94
508.588	592.94
508.805	599.94
509.021	609.94
509.238	626.94
509.454	629.94
509.67	599.94
509.887	612.94
510.103	604.94
510.319	627.94
510.536	719.94
510.752	1137.94
510.968	931.94
511.184	643.94
511.401	581.94
511.617	571.94
511.833	561.94
512.049	576.94
512.265	552.94
512.481	573.94
512.698	555.94
512.914	548.94
513.13	574.94
513.346	561.94
513.562	562.94
513.778	584.94
513.994	581.94
514.21	566.94
514.426	593.94
514.642	654.94
514.858	652.94
515.074	666.94
515.29	809.94
515.506	1166.94
515.721	1017.94
515.937	689.94
516.153	637.94
516.369	613.94
516.585	616.94
516.801	600.94
517.016	616.94
517.232	645.94
517.448	612.94
517.664	650.94
517.879	639.94
518.095	666.94
518.311	647.94
518.527	628.94
518.742	604.94
518.958	597.94
519.173	616.94
519.389	580.94
519.605	585.94
519.82	573.94
520.036	604.94
520.251	573.94
520.467	617.94
520.682	624.94
520.898	602.94
521.113	614.94
521.329	679.94
521.544	706.94
521.76	881.94
521.975	1505.94
522.19	1510.94
522.406	848.94
522.621	649.94
522.836	623.94
523.052	553.94
523.267	542.94
523.482	503.94
523.698	540.94
523.913	531.94
524.128	526.94
524.343	521.94
524.559	509.94
524.774	523.94
524.989	533.94
525.204	514.94
525.419	508.94
525.634	509.94
525.849	489.94
526.064	504.94
526.28	491.94
526.495	474.94
526.71	477.94
526.925	458.94
527.14	472.94
527.355	468.94
527.57	485.94
527.785	460.94
527.999	455.94
528.214	489.94
528.429	468.94
528.644	471.94
528.859	482.94
529.074	470.94
529.289	499.94
529.503	553.94
529.718	552.94
529.933	500.94
530.148	474.94
530.363	479.94
530.577	466.94
530.792	447.94
531.007	481.94
531.221	465.94
531.436	429.94
531.651	457.94
531.865	462.94
532.08	455.94
532.295	441.94
532.509	453.94
532.724	470.94
532.938	456.94
533.153	466.94
533.367	439.94
533.582	433.94
533.796	446.94
534.011	457.94
534.225	458.94
534.44	457.94
534.654	458.94
534.868	433.94
535.083	465.94
535.297	457.94
535.511	452.94
535.726	436.94
535.94	456.94
536.154	437.94
536.369	437.94
536.583	425.94
536.797	445.94
537.011	422.94
537.225	446.94
537.44	458.94
537.654	454.94
537.868	437.94
538.082	437.94
538.296	423.94
538.51	431.94
538.724	433.94
538.938	421.94
539.153	423.94
539.367	440.94
539.581	436.94
539.795	440.94
540.009	428.94
540.222	433.94
540.436	421.94
540.65	432.94
540.864	427.94
541.078	442.94
541.292	463.94
541.506	422.94
541.72	424.94
541.934	419.94
542.147	415.94
542.361	425.94
542.575	432.94
542.789	426.94
543.002	419.94
543.216	420.94
543.43	424.94
543.644	437.94
543.857	423.94
544.071	440.94
544.285	430.94
544.498	418.94
544.712	412.94
544.925	435.94
545.139	413.94
545.352	415.94
545.566	435.94
545.779	410.94
545.993	425.94
546.206	452.94
546.42	447.94
546.633	423.94
546.847	427.94
547.06	420.94
547.274	409.94
547.487	397.94
547.7	431.94
547.914	433.94
548.127	409.94
548.34	423.94
548.554	432.94
548.767	423.94
548.98	417.94
549.193	436.94
549.407	422.94
549.62	435.94
549.833	435.94
550.046	408.94
550.259	413.94
550.473	419.94
550.686	433.94
550.899	420.94
551.112	420.94
551.325	425.94
551.538	406.94
551.751	395.94
551.964	423.94
552.177	432.94
552.39	397.94
552.603	419.94
552.816	430.94
553.029	425.94
553.242	439.94
553.455	448.94
553.667	436.94
553.88	457.94
554.093	440.94
554.306	434.94
554.519	433.94
554.732	435.94
554.944	402.94
555.157	398.94
555.37	395.94
555.583	397.94
555.795	404.94
556.008	397.94
556.221	385.94
556.433	380.94
556.646	387.94
556.859	378.94
557.071	383.94
557.284	383.94
557.496	395.94
557.709	370.94
557.921	371.94
558.134	385.94
558.346	383.94
558.559	341.94
558.771	381.94
558.984	369.94
559.196	374.94
559.409	371.94
559.621	372.94
559.833	363.94
560.046	371.94
560.258	364.94
560.47	352.94
560.683	351.94
560.895	378.94
561.107	364.94
561.32	368.94
561.532	365.94
561.744	359.94
561.956	352.94
562.168	353.94
562.381	361.94
562.593	381.94
562.805	369.94
563.017	375.94
563.229	363.94
563.441	375.94
563.653	371.94
563.865	373.94
564.077	396.94
564.289	391.94
564.501	391.94
564.713	395.94
564.925	385.94
565.137	389.94
565.349	410.94
565.561	425.94
565.773	416.94
565.985	442.94
566.197	438.94
566.408	437.94
566.62	460.94
566.832	513.94
567.044	487.94
567.255	501.94
567.467	515.94
567.679	503.94
567.891	532.94
568.102	519.94
568.314	539.94
568.526	501.94
568.737	472.94
568.949	452.94
569.161	427.94
569.372	397.94
569.584	396.94
569.795	407.94
570.007	396.94
570.218	427.94
570.43	405.94
570.641	373.94
570.853	354.94
571.064	387.94
571.276	355.94
571.487	361.94
571.698	369.94
571.91	333.94
572.121	358.94
572.333	341.94
572.544	330.94
572.755	343.94
572.966	331.94
573.178	323.94
573.389	327.94
573.6	329.94
573.811	317.94
574.023	331.94
574.234	314.94
574.445	311.94
574.656	316.94
574.867	310.94
575.078	311.94
575.289	325.94
575.501	317.94
575.712	323.94
575.923	307.94
576.134	299.94
576.345	327.94
576.556	313.94
576.767	327.94
576.978	317.94
577.188	320.94
577.399	315.94
577.61	312.94
577.821	278.94
578.032	323.94
578.243	328.94
578.454	538.94
578.665	391.94
578.875	305.94
579.086	297.94
579.297	291.94
579.508	286.94
579.718	295.94
579.929	304.94
580.14	289.94
580.35	309.94
580.561	304.94
580.772	289.94
580.982	289.94
581.193	277.94
581.403	301.94
581.614	316.94
581.825	281.94
582.035	277.94
582.246	287.94
582.456	274.94
582.667	292.94
582.877	277.94
583.087	290.94
583.298	280.94
583.508	287.94
583.719	269.94
583.929	294.94
584.139	299.94
584.35	288.94
584.56	274.94
584.77	268.94
584.981	268.94
585.191	284.94
585.401	282.94
585.611	277.94
585.821	279.94
586.032	292.94
586.242	288.94
586.452	312.94
586.662	280.94
586.872	276.94
587.082	281.94
587.292	289.94
587.502	278.94
587.713	277.94
587.923	272.94
588.133	272.94
588.343	263.94
588.553	282.94
588.762	274.94
588.972	288.94
589.182	269.94
589.392	295.94
589.602	277.94
589.812	281.94
590.022	293.94
590.232	287.94
590.441	290.94
590.651	265.94
590.861	276.94
591.071	282.94
591.281	285.94
591.49	290.94
591.7	291.94
591.91	289.94
592.119	296.94
592.329	306.94
592.539	299.94
592.748	298.94
592.958	305.94
593.167	312.94
593.377	305.94
593.587	320.94
593.796	321.94
594.006	308.94
594.215	313.94
594.424	314.94
594.634	303.94
594.843	293.94
595.053	300.94
595.262	288.94
595.472	291.94
595.681	294.94
595.89	275.94
596.1	274.94
596.309	280.94
596.518	266.94
596.727	272.94
596.937	269.94
597.146	267.94
597.355	263.94
597.564	255.94
597.774	261.94
597.983	262.94
598.192	253.94
598.401	244.94
598.61	265.94
598.819	260.94
599.028	256.94
599.237	257.94
599.446	256.94
599.655	234.94
599.864	268.94
600.073	227.94
600.282	253.94
600.491	234.94
600.7	251.94
600.909	236.94
601.118	234.94
601.327	229.94
601.536	236.94
601.745	233.94
601.953	250.94
602.162	243.94
602.371	233.94
602.58	244.94
602.789	232.94
602.997	219.94
603.206	251.94
603.415	249.94
603.623	236.94
603.832	236.94
604.041	243.94
604.249	244.94
604.458	235.94
604.666	232.94
604.875	231.94
605.084	223.94
605.292	225.94
605.501	237.94
605.709	217.94
605.918	233.94
606.126	241.94
606.334	247.94
606.543	242.94
606.751	230.94
606.96	229.94
607.168	233.94
607.376	206.94
607.585	225.94
607.793	225.94
608.001	224.94
608.21	221.94
608.418	231.94
608.626	228.94
608.834	221.94
609.043	226.94
609.251	219.94
609.459	214.94
609.667	220.94
609.875	219.94
610.083	226.94
610.291	231.94
610.499	241.94
610.707	221.94
610.916	226.94
611.124	255.94
611.332	241.94
611.54	231.94
611.748	226.94
611.955	220.94
612.163	223.94
612.371	226.94
612.579	209.94
612.787	224.94
612.995	229.94
613.203	217.94
613.411	216.94
613.618	227.94
613.826	223.94
614.034	233.94
614.242	222.94
614.449	231.94
614.657	206.94
614.865	220.94
615.072	224.94
615.28	215.94
615.488	241.94
615.695	212.94
615.903	218.94
616.111	220.94
616.318	216.94
616.526	226.94
616.733	223.94
616.941	241.94
617.148	223.94
617.356	224.94
617.563	217.94
617.771	214.94
617.978	216.94
618.185	212.94
618.393	210.94
618.6	196.94
618.807	206.94
619.015	218.94
619.222	224.94
619.429	212.94
619.637	225.94
619.844	220.94
620.051	219.94
620.258	203.94
620.466	207.94
620.673	191.94
620.88	194.94
621.087	205.94
621.294	189.94
621.501	204.94
621.708	203.94
621.915	222.94
622.122	198.94
622.329	196.94
622.536	205.94
622.743	207.94
622.95	201.94
623.157	195.94
623.364	201.94
623.571	191.94
623.778	206.94
623.985	216.94
624.192	197.94
624.399	191.94
624.606	192.94
624.812	195.94
625.019	201.94
625.226	187.94
625.433	203.94
625.639	203.94
625.846	203.94
626.053	186.94
626.259	185.94
626.466	195.94
626.673	203.94
626.879	181.94
627.086	204.94
627.293	198.94
627.499	190.94
627.706	204.94
627.912	191.94
628.119	205.94
628.325	188.94
628.532	183.94
628.738	186.94
628.945	182.94
629.151	188.94
629.357	191.94
629.564	204.94
629.77	195.94
629.976	185.94
630.183	178.94
630.389	178.94
630.595	182.94
630.802	192.94
631.008	176.94
631.214	183.94
631.42	180.94
631.627	185.94
631.833	177.94
632.039	182.94
632.245	165.94
632.451	180.94
632.657	183.94
632.863	200.94
633.069	181.94
633.275	184.94
633.481	157.94
633.688	177.94
633.893	187.94
634.099	178.94
634.305	179.94
634.511	170.94
634.717	172.94
634.923	170.94
635.129	183.94
635.335	175.94
635.541	176.94
635.747	168.94
635.952	148.94
636.158	160.94
636.364	195.94
636.57	179.94
636.775	181.94
636.981	166.94
637.187	169.94
637.392	165.94
637.598	150.94
637.804	180.94
638.009	186.94
638.215	168.94
638.421	158.94
638.626	164.94
638.832	173.94
639.037	163.94
639.243	165.94
639.448	158.94
639.654	173.94
639.859	151.94
640.065	183.94
640.27	170.94
640.475	157.94
640.681	160.94
640.886	158.94
641.091	167.94
641.297	161.94
641.502	163.94
641.707	161.94
641.913	191.94
642.118	157.94
642.323	160.94
642.528	165.94
642.733	157.94
642.939	167.94
643.144	155.94
643.349	159.94
643.554	151.94
643.759	160.94
643.964	161.94
644.169	159.94
644.374	157.94
644.579	152.94
644.784	163.94
644.989	151.94
645.194	157.94
645.399	178.94
645.604	168.94
645.809	157.94
646.014	180.94
646.219	167.94
646.423	164.94
646.628	154.94
646.833	177.94
647.038	168.94
647.243	179.94
647.447	161.94
647.652	149.94
647.857	168.94
648.062	174.94
648.266	177.94
648.471	177.94
648.676	170.94
648.88	179.94
649.085	152.94
649.289	156.94
649.494	170.94
649.698	187.94
649.903	173.94
650.107	163.94
650.312	161.94
650.516	166.94
650.721	164.94
650.925	153.94
651.13	154.94
651.334	149.94
651.539	144.94
651.743	141.94
651.947	162.94
652.152	155.94
652.356	151.94
652.56	144.94
652.764	138.94
652.969	142.94
653.173	129.94
653.377	138.94
653.581	129.94
653.785	131.94
653.99	139.94
654.194	126.94
654.398	142.94
654.602	130.94
654.806	145.94
655.01	135.94
655.214	147.94
655.418	137.94
655.622	138.94
655.826	121.94
656.03	128.94
656.234	147.94
656.438	145.94
656.642	151.94
656.846	129.94
657.049	130.94
657.253	120.94
657.457	129.94
657.661	119.94
657.865	115.94
658.068	103.94
658.272	109.94
658.476	106.94
658.68	95.94
658.883	104.94
659.087	98.94
659.291	91.94
659.494	91.94
659.698	92.94
659.901	86.94
660.105	105.94
660.309	89.94
660.512	83.94
660.716	105.94
660.919	97.94
661.123	104.94
661.326	98.94
661.53	87.94
661.733	84.94
661.936	90.94
662.14	100.94
662.343	84.94
662.546	87.94
662.75	95.94
662.953	78.94
663.156	76.94
663.36	86.94
663.563	79.94
663.766	82.94
663.969	83.94
664.173	94.94
664.376	69.94
664.579	90.94
664.782	83.94
664.985	82.94
665.188	81.94
665.391	75.94
665.594	83.94
665.797	82.94
666	88.94
666.203	74.94
666.406	68.94
666.609	88.94
666.812	88.94
667.015	76.94
667.218	71.94
667.421	88.94
667.624	69.94
667.827	87.94
668.03	83.94
668.232	84.94
668.435	89.94
668.638	80.94
668.841	71.94
669.043	83.94
669.246	98.94
669.449	92.94
669.651	89.94
669.854	82.94
670.057	78.94
670.259	88.94
670.462	78.94
670.665	83.94
670.867	85.94
671.07	94.94
671.272	87.94
671.475	91.94
671.677	89.94
671.88	91.94
672.082	90.94
672.284	88.94
672.487	85.94
672.689	85.94
672.892	90.94
