Data from 1985.PennyLincolnUp.Lamp.En5.5.200Scan.071819.P1_HRD10591_17-02-32-970.txt Node
Date: Thu Jul 18 17:02:32 EDT 2019
User: cochatt
Spectrometer: HR+D1059
Trigger mode: 1
Integration Time (sec): 1.000000E-1
Scans to average: 1
Electric dark correction enabled: true
Nonlinearity correction enabled: false
Boxcar width: 0
XAxis mode: Wavelengths
Number of Pixels in Spectrum: 2048
>>>>>Begin Spectral Data<<<<<
223.165	-12.62
223.4	-12.62
223.635	-12.62
223.869	-14.62
224.104	-23.62
224.338	-15.62
224.573	-15.62
224.808	-8.62
225.042	-2.62
225.277	0.38
225.511	4.38
225.746	-8.62
225.98	8.38
226.215	8.38
226.449	21.38
226.683	24.38
226.918	3.38
227.152	31.38
227.387	26.38
227.621	39.38
227.856	45.38
228.09	49.38
228.324	48.38
228.559	65.38
228.793	46.38
229.027	102.38
229.262	113.38
229.496	110.38
229.73	104.38
229.964	151.38
230.199	120.38
230.433	116.38
230.667	118.38
230.901	117.38
231.136	123.38
231.37	110.38
231.604	109.38
231.838	118.38
232.072	121.38
232.306	108.38
232.541	124.38
232.775	112.38
233.009	136.38
233.243	121.38
233.477	121.38
233.711	118.38
233.945	127.38
234.179	110.38
234.413	117.38
234.647	112.38
234.881	108.38
235.115	121.38
235.349	131.38
235.583	126.38
235.817	118.38
236.051	127.38
236.285	124.38
236.519	135.38
236.753	139.38
236.987	155.38
237.221	189.38
237.455	215.38
237.689	167.38
237.922	130.38
238.156	140.38
238.39	124.38
238.624	131.38
238.858	135.38
239.091	129.38
239.325	119.38
239.559	135.38
239.793	141.38
240.027	120.38
240.26	150.38
240.494	154.38
240.728	151.38
240.961	139.38
241.195	136.38
241.429	128.38
241.662	135.38
241.896	135.38
242.13	123.38
242.363	137.38
242.597	131.38
242.83	149.38
243.064	149.38
243.298	151.38
243.531	143.38
243.765	131.38
243.998	138.38
244.232	148.38
244.465	165.38
244.699	143.38
244.932	141.38
245.166	147.38
245.399	138.38
245.633	133.38
245.866	142.38
246.099	157.38
246.333	154.38
246.566	160.38
246.8	146.38
247.033	157.38
247.266	165.38
247.5	156.38
247.733	173.38
247.966	167.38
248.2	177.38
248.433	163.38
248.666	197.38
248.899	195.38
249.133	195.38
249.366	193.38
249.599	203.38
249.832	199.38
250.066	185.38
250.299	179.38
250.532	179.38
250.765	221.38
250.998	221.38
251.231	209.38
251.465	204.38
251.698	215.38
251.931	192.38
252.164	187.38
252.397	182.38
252.63	193.38
252.863	204.38
253.096	225.38
253.329	226.38
253.562	215.38
253.795	224.38
254.028	213.38
254.261	203.38
254.494	224.38
254.727	247.38
254.96	279.38
255.193	254.38
255.426	237.38
255.659	225.38
255.892	241.38
256.124	220.38
256.357	219.38
256.59	209.38
256.823	211.38
257.056	213.38
257.289	203.38
257.521	213.38
257.754	214.38
257.987	215.38
258.22	200.38
258.452	197.38
258.685	205.38
258.918	220.38
259.151	208.38
259.383	200.38
259.616	227.38
259.849	229.38
260.081	251.38
260.314	265.38
260.547	269.38
260.779	252.38
261.012	235.38
261.244	225.38
261.477	239.38
261.71	223.38
261.942	236.38
262.175	240.38
262.407	232.38
262.64	214.38
262.872	207.38
263.105	225.38
263.337	230.38
263.57	236.38
263.802	231.38
264.035	224.38
264.267	215.38
264.499	215.38
264.732	216.38
264.964	218.38
265.197	228.38
265.429	229.38
265.661	216.38
265.894	218.38
266.126	225.38
266.358	221.38
266.591	238.38
266.823	245.38
267.055	247.38
267.287	221.38
267.52	221.38
267.752	235.38
267.984	238.38
268.216	245.38
268.448	245.38
268.681	264.38
268.913	256.38
269.145	279.38
269.377	287.38
269.609	285.38
269.841	282.38
270.073	293.38
270.306	302.38
270.538	317.38
270.77	329.38
271.002	317.38
271.234	310.38
271.466	305.38
271.698	323.38
271.93	310.38
272.162	331.38
272.394	330.38
272.626	303.38
272.858	304.38
273.09	286.38
273.322	290.38
273.553	280.38
273.785	286.38
274.017	285.38
274.249	279.38
274.481	298.38
274.713	265.38
274.945	281.38
275.176	260.38
275.408	286.38
275.64	309.38
275.872	276.38
276.104	278.38
276.335	283.38
276.567	300.38
276.799	307.38
277.031	323.38
277.262	336.38
277.494	337.38
277.726	309.38
277.957	299.38
278.189	304.38
278.421	284.38
278.652	291.38
278.884	301.38
279.115	299.38
279.347	287.38
279.579	304.38
279.81	309.38
280.042	291.38
280.273	276.38
280.505	292.38
280.736	286.38
280.968	284.38
281.199	291.38
281.431	293.38
281.662	293.38
281.894	282.38
282.125	306.38
282.356	307.38
282.588	331.38
282.819	318.38
283.051	307.38
283.282	313.38
283.513	296.38
283.745	309.38
283.976	300.38
284.207	303.38
284.439	308.38
284.67	318.38
284.901	310.38
285.132	279.38
285.364	314.38
285.595	323.38
285.826	292.38
286.057	313.38
286.288	319.38
286.52	302.38
286.751	311.38
286.982	323.38
287.213	319.38
287.444	324.38
287.675	324.38
287.906	334.38
288.138	337.38
288.369	336.38
288.6	349.38
288.831	333.38
289.062	323.38
289.293	325.38
289.524	357.38
289.755	343.38
289.986	318.38
290.217	314.38
290.448	319.38
290.679	326.38
290.91	336.38
291.141	323.38
291.371	329.38
291.602	316.38
291.833	329.38
292.064	325.38
292.295	306.38
292.526	332.38
292.757	308.38
292.987	317.38
293.218	337.38
293.449	336.38
293.68	315.38
293.91	334.38
294.141	325.38
294.372	327.38
294.603	350.38
294.833	340.38
295.064	311.38
295.295	332.38
295.525	332.38
295.756	336.38
295.987	347.38
296.217	365.38
296.448	367.38
296.679	335.38
296.909	329.38
297.14	343.38
297.37	360.38
297.601	339.38
297.831	341.38
298.062	339.38
298.292	342.38
298.523	326.38
298.753	355.38
298.984	352.38
299.214	363.38
299.445	356.38
299.675	358.38
299.905	368.38
300.136	362.38
300.366	348.38
300.597	361.38
300.827	361.38
301.057	360.38
301.288	389.38
301.518	375.38
301.748	385.38
301.979	368.38
302.209	366.38
302.439	359.38
302.669	384.38
302.9	375.38
303.13	396.38
303.36	377.38
303.59	376.38
303.82	382.38
304.051	392.38
304.281	377.38
304.511	375.38
304.741	369.38
304.971	359.38
305.201	375.38
305.431	373.38
305.661	372.38
305.891	364.38
306.121	377.38
306.352	386.38
306.582	383.38
306.812	372.38
307.042	384.38
307.272	377.38
307.502	363.38
307.731	353.38
307.961	368.38
308.191	378.38
308.421	358.38
308.651	373.38
308.881	391.38
309.111	387.38
309.341	396.38
309.571	429.38
309.8	401.38
310.03	387.38
310.26	402.38
310.49	409.38
310.72	409.38
310.949	439.38
311.179	423.38
311.409	407.38
311.639	410.38
311.868	422.38
312.098	400.38
312.328	432.38
312.557	445.38
312.787	434.38
313.017	454.38
313.246	433.38
313.476	412.38
313.706	419.38
313.935	424.38
314.165	417.38
314.394	439.38
314.624	423.38
314.853	423.38
315.083	427.38
315.312	434.38
315.542	426.38
315.771	413.38
316.001	421.38
316.23	426.38
316.46	425.38
316.689	415.38
316.919	420.38
317.148	437.38
317.377	448.38
317.607	420.38
317.836	430.38
318.065	433.38
318.295	416.38
318.524	412.38
318.753	412.38
318.983	426.38
319.212	421.38
319.441	437.38
319.67	419.38
319.9	444.38
320.129	400.38
320.358	447.38
320.587	433.38
320.816	447.38
321.046	467.38
321.275	447.38
321.504	433.38
321.733	435.38
321.962	473.38
322.191	461.38
322.42	464.38
322.649	471.38
322.878	493.38
323.108	497.38
323.337	504.38
323.566	525.38
323.795	560.38
324.024	606.38
324.253	702.38
324.482	947.38
324.71	1451.38
324.939	2019.38
325.168	1728.38
325.397	901.38
325.626	677.38
325.855	581.38
326.084	566.38
326.313	525.38
326.542	521.38
326.77	597.38
326.999	673.38
327.228	865.38
327.457	1263.38
327.686	1561.38
327.914	1058.38
328.143	697.38
328.372	627.38
328.6	609.38
328.829	573.38
329.058	601.38
329.287	614.38
329.515	564.38
329.744	531.38
329.972	539.38
330.201	549.38
330.43	548.38
330.658	589.38
330.887	621.38
331.115	610.38
331.344	552.38
331.572	535.38
331.801	536.38
332.03	498.38
332.258	525.38
332.486	517.38
332.715	516.38
332.943	527.38
333.172	527.38
333.4	505.38
333.629	533.38
333.857	552.38
334.085	567.38
334.314	555.38
334.542	568.38
334.771	535.38
334.999	527.38
335.227	547.38
335.455	521.38
335.684	542.38
335.912	510.38
336.14	503.38
336.369	510.38
336.597	492.38
336.825	524.38
337.053	505.38
337.281	505.38
337.51	501.38
337.738	501.38
337.966	501.38
338.194	488.38
338.422	485.38
338.65	491.38
338.878	493.38
339.106	478.38
339.334	481.38
339.562	472.38
339.79	470.38
340.018	478.38
340.246	451.38
340.474	462.38
340.702	474.38
340.93	479.38
341.158	457.38
341.386	465.38
341.614	482.38
341.842	472.38
342.07	482.38
342.298	465.38
342.526	472.38
342.754	471.38
342.981	467.38
343.209	466.38
343.437	473.38
343.665	489.38
343.893	481.38
344.12	527.38
344.348	511.38
344.576	510.38
344.804	503.38
345.031	484.38
345.259	504.38
345.487	469.38
345.714	460.38
345.942	460.38
346.17	465.38
346.397	446.38
346.625	481.38
346.853	459.38
347.08	469.38
347.308	458.38
347.535	452.38
347.763	463.38
347.99	460.38
348.218	462.38
348.445	470.38
348.673	471.38
348.9	452.38
349.128	448.38
349.355	441.38
349.583	441.38
349.81	424.38
350.037	438.38
350.265	449.38
350.492	437.38
350.72	440.38
350.947	469.38
351.174	445.38
351.402	470.38
351.629	445.38
351.856	443.38
352.083	469.38
352.311	452.38
352.538	492.38
352.765	485.38
352.992	484.38
353.22	427.38
353.447	433.38
353.674	439.38
353.901	446.38
354.128	420.38
354.355	428.38
354.583	423.38
354.81	439.38
355.037	430.38
355.264	431.38
355.491	419.38
355.718	419.38
355.945	418.38
356.172	421.38
356.399	417.38
356.626	423.38
356.853	420.38
357.08	451.38
357.307	424.38
357.534	415.38
357.761	400.38
357.988	413.38
358.215	428.38
358.441	434.38
358.668	424.38
358.895	440.38
359.122	439.38
359.349	465.38
359.576	457.38
359.802	467.38
360.029	474.38
360.256	508.38
360.483	478.38
360.709	450.38
360.936	461.38
361.163	450.38
361.39	451.38
361.616	474.38
361.843	452.38
362.07	450.38
362.296	480.38
362.523	460.38
362.749	425.38
362.976	472.38
363.203	447.38
363.429	409.38
363.656	429.38
363.882	423.38
364.109	417.38
364.335	436.38
364.562	420.38
364.788	448.38
365.015	423.38
365.241	421.38
365.468	442.38
365.694	427.38
365.92	438.38
366.147	443.38
366.373	403.38
366.599	438.38
366.826	443.38
367.052	429.38
367.278	435.38
367.505	428.38
367.731	431.38
367.957	439.38
368.184	432.38
368.41	445.38
368.636	444.38
368.862	446.38
369.089	433.38
369.315	437.38
369.541	439.38
369.767	427.38
369.993	417.38
370.219	432.38
370.445	436.38
370.672	425.38
370.898	425.38
371.124	431.38
371.35	431.38
371.576	444.38
371.802	427.38
372.028	435.38
372.254	430.38
372.48	427.38
372.706	431.38
372.932	445.38
373.158	445.38
373.384	430.38
373.61	432.38
373.835	440.38
374.061	429.38
374.287	451.38
374.513	422.38
374.739	468.38
374.965	454.38
375.191	437.38
375.416	435.38
375.642	441.38
375.868	444.38
376.094	432.38
376.319	423.38
376.545	444.38
376.771	396.38
376.997	415.38
377.222	439.38
377.448	420.38
377.674	427.38
377.899	421.38
378.125	449.38
378.35	431.38
378.576	411.38
378.802	422.38
379.027	412.38
379.253	426.38
379.478	401.38
379.704	421.38
379.929	419.38
380.155	437.38
380.38	415.38
380.606	438.38
380.831	431.38
381.057	415.38
381.282	428.38
381.507	423.38
381.733	434.38
381.958	449.38
382.184	441.38
382.409	452.38
382.634	448.38
382.86	437.38
383.085	424.38
383.31	451.38
383.535	445.38
383.761	449.38
383.986	490.38
384.211	450.38
384.436	444.38
384.662	452.38
384.887	477.38
385.112	486.38
385.337	471.38
385.562	473.38
385.787	476.38
386.013	485.38
386.238	480.38
386.463	475.38
386.688	500.38
386.913	467.38
387.138	462.38
387.363	490.38
387.588	477.38
387.813	472.38
388.038	472.38
388.263	477.38
388.488	483.38
388.713	473.38
388.938	469.38
389.163	465.38
389.387	485.38
389.612	476.38
389.837	450.38
390.062	471.38
390.287	476.38
390.512	452.38
390.736	490.38
390.961	469.38
391.186	480.38
391.411	480.38
391.636	501.38
391.86	483.38
392.085	495.38
392.31	507.38
392.534	507.38
392.759	489.38
392.984	491.38
393.208	511.38
393.433	486.38
393.658	490.38
393.882	492.38
394.107	479.38
394.331	466.38
394.556	482.38
394.78	472.38
395.005	459.38
395.229	484.38
395.454	499.38
395.678	533.38
395.903	525.38
396.127	537.38
396.352	541.38
396.576	519.38
396.801	497.38
397.025	503.38
397.249	511.38
397.474	516.38
397.698	533.38
397.922	517.38
398.147	540.38
398.371	527.38
398.595	537.38
398.82	543.38
399.044	591.38
399.268	629.38
399.492	646.38
399.717	687.38
399.941	693.38
400.165	699.38
400.389	705.38
400.613	645.38
400.837	584.38
401.062	568.38
401.286	573.38
401.51	542.38
401.734	567.38
401.958	541.38
402.182	579.38
402.406	591.38
402.63	590.38
402.854	593.38
403.078	571.38
403.302	590.38
403.526	591.38
403.75	585.38
403.974	584.38
404.198	571.38
404.422	581.38
404.645	591.38
404.869	620.38
405.093	626.38
405.317	629.38
405.541	643.38
405.765	602.38
405.988	586.38
406.212	620.38
406.436	625.38
406.66	650.38
406.883	608.38
407.107	667.38
407.331	674.38
407.555	756.38
407.778	779.38
408.002	701.38
408.226	661.38
408.449	635.38
408.673	603.38
408.896	672.38
409.12	666.38
409.344	673.38
409.567	596.38
409.791	577.38
410.014	581.38
410.238	570.38
410.461	586.38
410.685	568.38
410.908	574.38
411.132	625.38
411.355	643.38
411.578	624.38
411.802	583.38
412.025	566.38
412.249	557.38
412.472	589.38
412.695	566.38
412.919	568.38
413.142	542.38
413.365	551.38
413.589	557.38
413.812	555.38
414.035	555.38
414.258	533.38
414.482	526.38
414.705	523.38
414.928	546.38
415.151	532.38
415.374	551.38
415.597	547.38
415.821	543.38
416.044	556.38
416.267	544.38
416.49	519.38
416.713	514.38
416.936	534.38
417.159	521.38
417.382	533.38
417.605	557.38
417.828	533.38
418.051	572.38
418.274	565.38
418.497	507.38
418.72	525.38
418.943	546.38
419.166	545.38
419.389	580.38
419.611	572.38
419.834	565.38
420.057	567.38
420.28	545.38
420.503	555.38
420.726	541.38
420.948	550.38
421.171	597.38
421.394	627.38
421.617	572.38
421.839	568.38
422.062	555.38
422.285	589.38
422.507	607.38
422.73	683.38
422.953	663.38
423.175	601.38
423.398	575.38
423.621	576.38
423.843	616.38
424.066	607.38
424.288	614.38
424.511	606.38
424.733	666.38
424.956	716.38
425.178	679.38
425.401	670.38
425.623	708.38
425.846	611.38
426.068	601.38
426.291	592.38
426.513	588.38
426.735	565.38
426.958	623.38
427.18	710.38
427.402	839.38
427.625	876.38
427.847	775.38
428.069	668.38
428.292	591.38
428.514	557.38
428.736	541.38
428.958	529.38
429.181	503.38
429.403	515.38
429.625	517.38
429.847	566.38
430.069	624.38
430.292	623.38
430.514	548.38
430.736	542.38
430.958	547.38
431.18	533.38
431.402	503.38
431.624	502.38
431.846	507.38
432.068	497.38
432.29	530.38
432.512	526.38
432.734	496.38
432.956	517.38
433.178	509.38
433.4	544.38
433.622	523.38
433.844	512.38
434.066	501.38
434.287	497.38
434.509	529.38
434.731	539.38
434.953	544.38
435.175	566.38
435.397	591.38
435.618	573.38
435.84	638.38
436.062	689.38
436.284	750.38
436.505	632.38
436.727	545.38
436.949	555.38
437.17	523.38
437.392	517.38
437.614	553.38
437.835	559.38
438.057	659.38
438.278	731.38
438.5	737.38
438.721	840.38
438.943	799.38
439.165	637.38
439.386	581.38
439.608	571.38
439.829	563.38
440.05	609.38
440.272	641.38
440.493	604.38
440.715	564.38
440.936	556.38
441.158	545.38
441.379	521.38
441.6	555.38
441.822	577.38
442.043	618.38
442.264	675.38
442.486	741.38
442.707	620.38
442.928	579.38
443.149	597.38
443.371	618.38
443.592	664.38
443.813	761.38
444.034	799.38
444.255	677.38
444.476	621.38
444.698	619.38
444.919	615.38
445.14	716.38
445.361	655.38
445.582	604.38
445.803	677.38
446.024	757.38
446.245	742.38
446.466	705.38
446.687	600.38
446.908	569.38
447.129	532.38
447.35	517.38
447.571	525.38
447.792	513.38
448.013	507.38
448.234	524.38
448.455	603.38
448.675	694.38
448.896	793.38
449.117	679.38
449.338	627.38
449.559	718.38
449.779	844.38
450	663.38
450.221	571.38
450.442	529.38
450.662	517.38
450.883	519.38
451.104	525.38
451.324	517.38
451.545	523.38
451.766	489.38
451.986	483.38
452.207	464.38
452.428	454.38
452.648	480.38
452.869	489.38
453.089	495.38
453.31	491.38
453.53	462.38
453.751	475.38
453.971	455.38
454.192	489.38
454.412	461.38
454.633	462.38
454.853	460.38
455.073	467.38
455.294	479.38
455.514	547.38
455.734	526.38
455.955	462.38
456.175	438.38
456.395	430.38
456.616	458.38
456.836	445.38
457.056	437.38
457.276	424.38
457.497	459.38
457.717	457.38
457.937	454.38
458.157	437.38
458.377	454.38
458.598	486.38
458.818	534.38
459.038	619.38
459.258	645.38
459.478	534.38
459.698	521.38
459.918	520.38
460.138	521.38
460.358	545.38
460.578	554.38
460.798	544.38
461.018	551.38
461.238	555.38
461.458	553.38
461.678	543.38
461.898	551.38
462.118	559.38
462.338	551.38
462.558	574.38
462.777	575.38
462.997	592.38
463.217	640.38
463.437	640.38
463.657	604.38
463.876	586.38
464.096	598.38
464.316	592.38
464.536	585.38
464.755	589.38
464.975	605.38
465.195	606.38
465.414	637.38
465.634	579.38
465.854	565.38
466.073	525.38
466.293	532.38
466.512	483.38
466.732	509.38
466.951	513.38
467.171	477.38
467.391	486.38
467.61	491.38
467.829	507.38
468.049	479.38
468.268	496.38
468.488	472.38
468.707	490.38
468.927	471.38
469.146	468.38
469.365	480.38
469.585	486.38
469.804	493.38
470.023	511.38
470.243	503.38
470.462	519.38
470.681	528.38
470.901	545.38
471.12	514.38
471.339	521.38
471.558	491.38
471.777	481.38
471.997	485.38
472.216	473.38
472.435	495.38
472.654	487.38
472.873	489.38
473.092	476.38
473.311	471.38
473.53	479.38
473.749	486.38
473.968	530.38
474.187	624.38
474.406	620.38
474.625	524.38
474.844	492.38
475.063	472.38
475.282	483.38
475.501	502.38
475.72	488.38
475.939	494.38
476.158	489.38
476.377	499.38
476.596	499.38
476.814	516.38
477.033	501.38
477.252	529.38
477.471	523.38
477.69	532.38
477.908	533.38
478.127	544.38
478.346	552.38
478.564	570.38
478.783	571.38
479.002	575.38
479.22	571.38
479.439	588.38
479.658	581.38
479.876	601.38
480.095	599.38
480.313	635.38
480.532	619.38
480.751	635.38
480.969	597.38
481.188	587.38
481.406	621.38
481.624	588.38
481.843	575.38
482.061	575.38
482.28	553.38
482.498	550.38
482.717	569.38
482.935	553.38
483.153	577.38
483.372	576.38
483.59	547.38
483.808	576.38
484.027	556.38
484.245	544.38
484.463	571.38
484.681	571.38
484.9	592.38
485.118	581.38
485.336	581.38
485.554	581.38
485.772	566.38
485.99	605.38
486.209	579.38
486.427	596.38
486.645	577.38
486.863	615.38
487.081	616.38
487.299	613.38
487.517	597.38
487.735	601.38
487.953	601.38
488.171	607.38
488.389	590.38
488.607	602.38
488.825	617.38
489.043	606.38
489.261	605.38
489.479	586.38
489.696	615.38
489.914	634.38
490.132	614.38
490.35	614.38
490.568	641.38
490.786	636.38
491.003	641.38
491.221	670.38
491.439	681.38
491.657	671.38
491.874	677.38
492.092	693.38
492.31	693.38
492.527	684.38
492.745	701.38
492.963	702.38
493.18	688.38
493.398	698.38
493.615	683.38
493.833	700.38
494.05	705.38
494.268	686.38
494.485	704.38
494.703	701.38
494.92	709.38
495.138	693.38
495.355	710.38
495.573	743.38
495.79	719.38
496.008	709.38
496.225	715.38
496.442	717.38
496.66	732.38
496.877	709.38
497.094	719.38
497.312	736.38
497.529	739.38
497.746	751.38
497.963	782.38
498.181	804.38
498.398	820.38
498.615	835.38
498.832	883.38
499.049	877.38
499.267	911.38
499.484	960.38
499.701	998.38
499.918	1064.38
500.135	1119.38
500.352	1199.38
500.569	1261.38
500.786	1224.38
501.003	1192.38
501.22	1157.38
501.437	1077.38
501.654	1060.38
501.871	989.38
502.088	938.38
502.305	880.38
502.522	866.38
502.739	852.38
502.956	811.38
503.172	797.38
503.389	772.38
503.606	768.38
503.823	765.38
504.04	771.38
504.256	744.38
504.473	731.38
504.69	730.38
504.907	738.38
505.123	727.38
505.34	715.38
505.557	682.38
505.773	714.38
505.99	722.38
506.207	676.38
506.423	674.38
506.64	673.38
506.856	679.38
507.073	673.38
507.289	656.38
507.506	662.38
507.722	651.38
507.939	676.38
508.155	667.38
508.372	642.38
508.588	645.38
508.805	632.38
509.021	635.38
509.238	650.38
509.454	664.38
509.67	624.38
509.887	634.38
510.103	620.38
510.319	633.38
510.536	722.38
510.752	1173.38
510.968	981.38
511.184	645.38
511.401	622.38
511.617	620.38
511.833	586.38
512.049	584.38
512.265	603.38
512.481	601.38
512.698	620.38
512.914	611.38
513.13	616.38
513.346	617.38
513.562	606.38
513.778	588.38
513.994	632.38
514.21	588.38
514.426	633.38
514.642	662.38
514.858	702.38
515.074	729.38
515.29	845.38
515.506	1240.38
515.721	1059.38
515.937	713.38
516.153	674.38
516.369	655.38
516.585	663.38
516.801	661.38
517.016	647.38
517.232	649.38
517.448	673.38
517.664	659.38
517.879	667.38
518.095	667.38
518.311	659.38
518.527	643.38
518.742	647.38
518.958	636.38
519.173	631.38
519.389	629.38
519.605	619.38
519.82	612.38
520.036	616.38
520.251	647.38
520.467	679.38
520.682	647.38
520.898	666.38
521.113	659.38
521.329	709.38
521.544	788.38
521.76	966.38
521.975	1624.38
522.19	1603.38
522.406	898.38
522.621	679.38
522.836	631.38
523.052	604.38
523.267	563.38
523.482	587.38
523.698	563.38
523.913	569.38
524.128	564.38
524.343	557.38
524.559	523.38
524.774	528.38
524.989	547.38
525.204	543.38
525.419	534.38
525.634	525.38
525.849	525.38
526.064	511.38
526.28	511.38
526.495	489.38
526.71	503.38
526.925	501.38
527.14	485.38
527.355	499.38
527.57	494.38
527.785	486.38
527.999	487.38
528.214	482.38
528.429	492.38
528.644	504.38
528.859	497.38
529.074	488.38
529.289	532.38
529.503	618.38
529.718	592.38
529.933	536.38
530.148	501.38
530.363	509.38
530.577	497.38
530.792	486.38
531.007	471.38
531.221	483.38
531.436	508.38
531.651	481.38
531.865	479.38
532.08	492.38
532.295	485.38
532.509	493.38
532.724	476.38
532.938	488.38
533.153	484.38
533.367	465.38
533.582	497.38
533.796	482.38
534.011	478.38
534.225	470.38
534.44	473.38
534.654	455.38
534.868	475.38
535.083	485.38
535.297	464.38
535.511	461.38
535.726	478.38
535.94	487.38
536.154	459.38
536.369	456.38
536.583	442.38
536.797	467.38
537.011	462.38
537.225	440.38
537.44	458.38
537.654	455.38
537.868	463.38
538.082	461.38
538.296	462.38
538.51	450.38
538.724	453.38
538.938	463.38
539.153	446.38
539.367	464.38
539.581	474.38
539.795	448.38
540.009	437.38
540.222	439.38
540.436	475.38
540.65	444.38
540.864	439.38
541.078	454.38
541.292	464.38
541.506	464.38
541.72	461.38
541.934	439.38
542.147	458.38
542.361	452.38
542.575	461.38
542.789	454.38
543.002	443.38
543.216	445.38
543.43	453.38
543.644	435.38
543.857	434.38
544.071	425.38
544.285	457.38
544.498	472.38
544.712	461.38
544.925	465.38
545.139	441.38
545.352	439.38
545.566	466.38
545.779	443.38
545.993	455.38
546.206	443.38
546.42	467.38
546.633	427.38
546.847	441.38
547.06	444.38
547.274	442.38
547.487	469.38
547.7	445.38
547.914	445.38
548.127	439.38
548.34	453.38
548.554	425.38
548.767	462.38
548.98	457.38
549.193	431.38
549.407	433.38
549.62	425.38
549.833	429.38
550.046	440.38
550.259	439.38
550.473	433.38
550.686	437.38
550.899	432.38
551.112	460.38
551.325	459.38
551.538	450.38
551.751	426.38
551.964	423.38
552.177	437.38
552.39	433.38
552.603	466.38
552.816	454.38
553.029	445.38
553.242	450.38
553.455	457.38
553.667	472.38
553.88	490.38
554.093	484.38
554.306	454.38
554.519	457.38
554.732	441.38
554.944	449.38
555.157	452.38
555.37	435.38
555.583	401.38
555.795	410.38
556.008	400.38
556.221	419.38
556.433	410.38
556.646	384.38
556.859	392.38
557.071	408.38
557.284	397.38
557.496	400.38
557.709	389.38
557.921	373.38
558.134	392.38
558.346	391.38
558.559	401.38
558.771	375.38
558.984	373.38
559.196	388.38
559.409	391.38
559.621	391.38
559.833	399.38
560.046	385.38
560.258	378.38
560.47	371.38
560.683	376.38
560.895	383.38
561.107	387.38
561.32	378.38
561.532	383.38
561.744	401.38
561.956	402.38
562.168	396.38
562.381	396.38
562.593	377.38
562.805	389.38
563.017	382.38
563.229	399.38
563.441	389.38
563.653	401.38
563.865	396.38
564.077	403.38
564.289	395.38
564.501	410.38
564.713	407.38
564.925	417.38
565.137	415.38
565.349	431.38
565.561	425.38
565.773	419.38
565.985	449.38
566.197	461.38
566.408	477.38
566.62	498.38
566.832	528.38
567.044	543.38
567.255	527.38
567.467	541.38
567.679	542.38
567.891	571.38
568.102	584.38
568.314	564.38
568.526	543.38
568.737	505.38
568.949	488.38
569.161	447.38
569.372	435.38
569.584	429.38
569.795	446.38
570.007	399.38
570.218	443.38
570.43	449.38
570.641	392.38
570.853	401.38
571.064	388.38
571.276	381.38
571.487	387.38
571.698	373.38
571.91	371.38
572.121	371.38
572.333	379.38
572.544	355.38
572.755	357.38
572.966	359.38
573.178	355.38
573.389	350.38
573.6	341.38
573.811	342.38
574.023	332.38
574.234	347.38
574.445	372.38
574.656	335.38
574.867	338.38
575.078	322.38
575.289	322.38
575.501	324.38
575.712	348.38
575.923	319.38
576.134	348.38
576.345	342.38
576.556	336.38
576.767	334.38
576.978	322.38
577.188	345.38
577.399	343.38
577.61	324.38
577.821	320.38
578.032	323.38
578.243	345.38
578.454	541.38
578.665	421.38
578.875	314.38
579.086	331.38
579.297	318.38
579.508	307.38
579.718	327.38
579.929	299.38
580.14	297.38
580.35	293.38
580.561	299.38
580.772	296.38
580.982	303.38
581.193	315.38
581.403	294.38
581.614	317.38
581.825	306.38
582.035	283.38
582.246	302.38
582.456	288.38
582.667	305.38
582.877	295.38
583.087	300.38
583.298	287.38
583.508	283.38
583.719	284.38
583.929	287.38
584.139	297.38
584.35	281.38
584.56	296.38
584.77	275.38
584.981	293.38
585.191	302.38
585.401	315.38
585.611	286.38
585.821	287.38
586.032	310.38
586.242	284.38
586.452	287.38
586.662	312.38
586.872	297.38
587.082	281.38
587.292	299.38
587.502	305.38
587.713	288.38
587.923	292.38
588.133	294.38
588.343	282.38
588.553	276.38
588.762	289.38
588.972	287.38
589.182	300.38
589.392	288.38
589.602	293.38
589.812	305.38
590.022	288.38
590.232	283.38
590.441	289.38
590.651	302.38
590.861	291.38
591.071	291.38
591.281	283.38
591.49	286.38
591.7	296.38
591.91	323.38
592.119	307.38
592.329	302.38
592.539	333.38
592.748	330.38
592.958	317.38
593.167	345.38
593.377	342.38
593.587	348.38
593.796	328.38
594.006	324.38
594.215	329.38
594.424	345.38
594.634	324.38
594.843	315.38
595.053	311.38
595.262	312.38
595.472	284.38
595.681	302.38
595.89	294.38
596.1	296.38
596.309	294.38
596.518	283.38
596.727	273.38
596.937	281.38
597.146	279.38
597.355	276.38
597.564	264.38
597.774	281.38
597.983	267.38
598.192	259.38
598.401	272.38
598.61	258.38
598.819	254.38
599.028	261.38
599.237	251.38
599.446	250.38
599.655	263.38
599.864	258.38
600.073	265.38
600.282	258.38
600.491	267.38
600.7	266.38
600.909	243.38
601.118	235.38
601.327	249.38
601.536	239.38
601.745	249.38
601.953	249.38
602.162	237.38
602.371	249.38
602.58	247.38
602.789	241.38
602.997	247.38
603.206	247.38
603.415	256.38
603.623	231.38
603.832	238.38
604.041	250.38
604.249	233.38
604.458	237.38
604.666	220.38
604.875	240.38
605.084	234.38
605.292	232.38
605.501	245.38
605.709	243.38
605.918	237.38
606.126	236.38
606.334	231.38
606.543	245.38
606.751	234.38
606.96	218.38
607.168	246.38
607.376	240.38
607.585	252.38
607.793	236.38
608.001	244.38
608.21	236.38
608.418	222.38
608.626	231.38
608.834	230.38
609.043	227.38
609.251	223.38
609.459	234.38
609.667	237.38
609.875	228.38
610.083	237.38
610.291	233.38
610.499	228.38
610.707	240.38
610.916	242.38
611.124	220.38
611.332	233.38
611.54	248.38
611.748	228.38
611.955	245.38
612.163	232.38
612.371	236.38
612.579	237.38
612.787	225.38
612.995	233.38
613.203	231.38
613.411	232.38
613.618	237.38
613.826	227.38
614.034	237.38
614.242	219.38
614.449	216.38
614.657	216.38
614.865	235.38
615.072	236.38
615.28	224.38
615.488	253.38
615.695	225.38
615.903	225.38
616.111	227.38
616.318	234.38
616.526	222.38
616.733	231.38
616.941	219.38
617.148	209.38
617.356	232.38
617.563	214.38
617.771	221.38
617.978	203.38
618.185	215.38
618.393	220.38
618.6	212.38
618.807	221.38
619.015	230.38
619.222	215.38
619.429	223.38
619.637	205.38
619.844	218.38
620.051	220.38
620.258	225.38
620.466	219.38
620.673	210.38
620.88	219.38
621.087	223.38
621.294	221.38
621.501	221.38
621.708	209.38
621.915	229.38
622.122	218.38
622.329	223.38
622.536	233.38
622.743	212.38
622.95	211.38
623.157	217.38
623.364	214.38
623.571	223.38
623.778	215.38
623.985	205.38
624.192	204.38
624.399	223.38
624.606	202.38
624.812	208.38
625.019	199.38
625.226	210.38
625.433	227.38
625.639	220.38
625.846	196.38
626.053	197.38
626.259	210.38
626.466	209.38
626.673	190.38
626.879	206.38
627.086	207.38
627.293	209.38
627.499	203.38
627.706	195.38
627.912	213.38
628.119	211.38
628.325	205.38
628.532	217.38
628.738	201.38
628.945	179.38
629.151	193.38
629.357	187.38
629.564	185.38
629.77	187.38
629.976	198.38
630.183	200.38
630.389	196.38
630.595	197.38
630.802	200.38
631.008	181.38
631.214	198.38
631.42	197.38
631.627	184.38
631.833	191.38
632.039	191.38
632.245	195.38
632.451	180.38
632.657	202.38
632.863	169.38
633.069	183.38
633.275	177.38
633.481	196.38
633.688	185.38
633.893	183.38
634.099	193.38
634.305	185.38
634.511	191.38
634.717	179.38
634.923	156.38
635.129	174.38
635.335	170.38
635.541	171.38
635.747	175.38
635.952	179.38
636.158	191.38
636.364	181.38
636.57	176.38
636.775	176.38
636.981	181.38
637.187	208.38
637.392	167.38
637.598	179.38
637.804	169.38
638.009	181.38
638.215	174.38
638.421	167.38
638.626	165.38
638.832	175.38
639.037	182.38
639.243	175.38
639.448	173.38
639.654	178.38
639.859	195.38
640.065	183.38
640.27	175.38
640.475	159.38
640.681	155.38
640.886	158.38
641.091	153.38
641.297	177.38
641.502	191.38
641.707	168.38
641.913	171.38
642.118	168.38
642.323	164.38
642.528	167.38
642.733	181.38
642.939	169.38
643.144	161.38
643.349	178.38
643.554	165.38
643.759	165.38
643.964	150.38
644.169	172.38
644.374	158.38
644.579	171.38
644.784	171.38
644.989	163.38
645.194	169.38
645.399	182.38
645.604	159.38
645.809	173.38
646.014	180.38
646.219	163.38
646.423	161.38
646.628	175.38
646.833	165.38
647.038	163.38
647.243	151.38
647.447	175.38
647.652	166.38
647.857	153.38
648.062	167.38
648.266	159.38
648.471	186.38
648.676	171.38
648.88	176.38
649.085	166.38
649.289	167.38
649.494	175.38
649.698	199.38
649.903	176.38
650.107	179.38
650.312	169.38
650.516	161.38
650.721	156.38
650.925	149.38
651.13	153.38
651.334	150.38
651.539	145.38
651.743	141.38
651.947	144.38
652.152	152.38
652.356	150.38
652.56	143.38
652.764	145.38
652.969	153.38
653.173	149.38
653.377	150.38
653.581	143.38
653.785	156.38
653.99	140.38
654.194	150.38
654.398	141.38
654.602	149.38
654.806	125.38
655.01	146.38
655.214	158.38
655.418	133.38
655.622	147.38
655.826	134.38
656.03	154.38
656.234	149.38
656.438	141.38
656.642	132.38
656.846	155.38
657.049	142.38
657.253	144.38
657.457	128.38
657.661	129.38
657.865	119.38
658.068	112.38
658.272	116.38
658.476	95.38
658.68	112.38
658.883	106.38
659.087	106.38
659.291	105.38
659.494	99.38
659.698	101.38
659.901	99.38
660.105	108.38
660.309	99.38
660.512	109.38
660.716	87.38
660.919	87.38
661.123	93.38
661.326	100.38
661.53	97.38
661.733	96.38
661.936	89.38
662.14	95.38
662.343	97.38
662.546	89.38
662.75	86.38
662.953	91.38
663.156	89.38
663.36	73.38
663.563	76.38
663.766	87.38
663.969	95.38
664.173	87.38
664.376	87.38
664.579	82.38
664.782	90.38
664.985	75.38
665.188	74.38
665.391	85.38
665.594	86.38
665.797	77.38
666	91.38
666.203	84.38
666.406	72.38
666.609	100.38
666.812	80.38
667.015	81.38
667.218	92.38
667.421	85.38
667.624	72.38
667.827	95.38
668.03	87.38
668.232	81.38
668.435	77.38
668.638	79.38
668.841	77.38
669.043	81.38
669.246	80.38
669.449	91.38
669.651	87.38
669.854	77.38
670.057	88.38
670.259	86.38
670.462	75.38
670.665	93.38
670.867	91.38
671.07	86.38
671.272	91.38
671.475	82.38
671.677	80.38
671.88	89.38
672.082	89.38
672.284	79.38
672.487	81.38
672.689	96.38
672.892	83.38
