Data from 1985.PennyLincolnUp.Lamp.En5.5.200Scan.071819.P1_HRD10591_17-03-10-971.txt Node
Date: Thu Jul 18 17:03:10 EDT 2019
User: cochatt
Spectrometer: HR+D1059
Trigger mode: 1
Integration Time (sec): 1.000000E-1
Scans to average: 1
Electric dark correction enabled: true
Nonlinearity correction enabled: false
Boxcar width: 0
XAxis mode: Wavelengths
Number of Pixels in Spectrum: 2048
>>>>>Begin Spectral Data<<<<<
223.165	-4.31
223.4	-4.31
223.635	-4.31
223.869	-11.31
224.104	-16.31
224.338	-6.31
224.573	-21.31
224.808	-20.31
225.042	0.69
225.277	-10.31
225.511	2.69
225.746	-1.31
225.98	0.69
226.215	6.69
226.449	17.69
226.683	15.69
226.918	15.69
227.152	31.69
227.387	35.69
227.621	41.69
227.856	27.69
228.09	38.69
228.324	27.69
228.559	57.69
228.793	67.69
229.027	95.69
229.262	104.69
229.496	108.69
229.73	124.69
229.964	143.69
230.199	111.69
230.433	105.69
230.667	118.69
230.901	104.69
231.136	109.69
231.37	111.69
231.604	111.69
231.838	113.69
232.072	99.69
232.306	102.69
232.541	98.69
232.775	121.69
233.009	118.69
233.243	105.69
233.477	110.69
233.711	119.69
233.945	111.69
234.179	108.69
234.413	121.69
234.647	121.69
234.881	115.69
235.115	118.69
235.349	121.69
235.583	118.69
235.817	122.69
236.051	118.69
236.285	124.69
236.519	122.69
236.753	116.69
236.987	149.69
237.221	183.69
237.455	225.69
237.689	165.69
237.922	141.69
238.156	119.69
238.39	132.69
238.624	126.69
238.858	118.69
239.091	127.69
239.325	116.69
239.559	135.69
239.793	124.69
240.027	136.69
240.26	140.69
240.494	156.69
240.728	138.69
240.961	127.69
241.195	132.69
241.429	148.69
241.662	129.69
241.896	126.69
242.13	120.69
242.363	106.69
242.597	138.69
242.83	146.69
243.064	138.69
243.298	152.69
243.531	126.69
243.765	126.69
243.998	138.69
244.232	140.69
244.465	138.69
244.699	137.69
244.932	157.69
245.166	149.69
245.399	154.69
245.633	128.69
245.866	139.69
246.099	153.69
246.333	154.69
246.566	154.69
246.8	154.69
247.033	160.69
247.266	166.69
247.5	178.69
247.733	156.69
247.966	166.69
248.2	167.69
248.433	168.69
248.666	183.69
248.899	172.69
249.133	188.69
249.366	192.69
249.599	194.69
249.832	173.69
250.066	172.69
250.299	174.69
250.532	178.69
250.765	215.69
250.998	220.69
251.231	224.69
251.465	206.69
251.698	195.69
251.931	200.69
252.164	187.69
252.397	195.69
252.63	176.69
252.863	186.69
253.096	198.69
253.329	226.69
253.562	209.69
253.795	227.69
254.028	203.69
254.261	206.69
254.494	206.69
254.727	249.69
254.96	281.69
255.193	267.69
255.426	244.69
255.659	213.69
255.892	228.69
256.124	205.69
256.357	230.69
256.59	207.69
256.823	208.69
257.056	190.69
257.289	204.69
257.521	216.69
257.754	216.69
257.987	211.69
258.22	207.69
258.452	196.69
258.685	211.69
258.918	204.69
259.151	210.69
259.383	199.69
259.616	203.69
259.849	204.69
260.081	230.69
260.314	244.69
260.547	262.69
260.779	262.69
261.012	230.69
261.244	228.69
261.477	207.69
261.71	215.69
261.942	229.69
262.175	226.69
262.407	224.69
262.64	223.69
262.872	212.69
263.105	212.69
263.337	217.69
263.57	219.69
263.802	218.69
264.035	213.69
264.267	207.69
264.499	207.69
264.732	216.69
264.964	225.69
265.197	231.69
265.429	233.69
265.661	230.69
265.894	212.69
266.126	216.69
266.358	217.69
266.591	241.69
266.823	242.69
267.055	218.69
267.287	241.69
267.52	229.69
267.752	240.69
267.984	228.69
268.216	241.69
268.448	251.69
268.681	250.69
268.913	260.69
269.145	272.69
269.377	276.69
269.609	266.69
269.841	270.69
270.073	291.69
270.306	290.69
270.538	329.69
270.77	325.69
271.002	304.69
271.234	297.69
271.466	307.69
271.698	296.69
271.93	302.69
272.162	320.69
272.394	328.69
272.626	333.69
272.858	293.69
273.09	283.69
273.322	286.69
273.553	280.69
273.785	260.69
274.017	281.69
274.249	292.69
274.481	295.69
274.713	271.69
274.945	281.69
275.176	274.69
275.408	284.69
275.64	289.69
275.872	262.69
276.104	272.69
276.335	270.69
276.567	302.69
276.799	302.69
277.031	311.69
277.262	330.69
277.494	319.69
277.726	310.69
277.957	310.69
278.189	282.69
278.421	292.69
278.652	285.69
278.884	294.69
279.115	276.69
279.347	291.69
279.579	290.69
279.81	296.69
280.042	275.69
280.273	282.69
280.505	308.69
280.736	289.69
280.968	274.69
281.199	282.69
281.431	289.69
281.662	273.69
281.894	296.69
282.125	292.69
282.356	318.69
282.588	320.69
282.819	316.69
283.051	301.69
283.282	287.69
283.513	297.69
283.745	316.69
283.976	299.69
284.207	318.69
284.439	295.69
284.67	313.69
284.901	290.69
285.132	295.69
285.364	315.69
285.595	304.69
285.826	286.69
286.057	317.69
286.288	296.69
286.52	305.69
286.751	322.69
286.982	325.69
287.213	312.69
287.444	303.69
287.675	323.69
287.906	302.69
288.138	323.69
288.369	334.69
288.6	328.69
288.831	325.69
289.062	318.69
289.293	322.69
289.524	322.69
289.755	320.69
289.986	313.69
290.217	303.69
290.448	302.69
290.679	319.69
290.91	331.69
291.141	324.69
291.371	297.69
291.602	292.69
291.833	315.69
292.064	319.69
292.295	320.69
292.526	320.69
292.757	332.69
292.987	302.69
293.218	312.69
293.449	332.69
293.68	329.69
293.91	329.69
294.141	347.69
294.372	317.69
294.603	333.69
294.833	314.69
295.064	315.69
295.295	315.69
295.525	316.69
295.756	331.69
295.987	325.69
296.217	348.69
296.448	366.69
296.679	339.69
296.909	329.69
297.14	328.69
297.37	339.69
297.601	337.69
297.831	334.69
298.062	333.69
298.292	322.69
298.523	351.69
298.753	350.69
298.984	331.69
299.214	355.69
299.445	339.69
299.675	368.69
299.905	368.69
300.136	346.69
300.366	355.69
300.597	346.69
300.827	359.69
301.057	356.69
301.288	377.69
301.518	371.69
301.748	372.69
301.979	386.69
302.209	372.69
302.439	357.69
302.669	366.69
302.9	359.69
303.13	362.69
303.36	370.69
303.59	361.69
303.82	380.69
304.051	390.69
304.281	386.69
304.511	361.69
304.741	376.69
304.971	357.69
305.201	358.69
305.431	366.69
305.661	370.69
305.891	354.69
306.121	368.69
306.352	370.69
306.582	379.69
306.812	374.69
307.042	374.69
307.272	361.69
307.502	366.69
307.731	366.69
307.961	368.69
308.191	366.69
308.421	370.69
308.651	357.69
308.881	372.69
309.111	374.69
309.341	374.69
309.571	382.69
309.8	402.69
310.03	395.69
310.26	412.69
310.49	415.69
310.72	398.69
310.949	434.69
311.179	459.69
311.409	413.69
311.639	392.69
311.868	430.69
312.098	410.69
312.328	400.69
312.557	421.69
312.787	439.69
313.017	441.69
313.246	427.69
313.476	435.69
313.706	402.69
313.935	435.69
314.165	416.69
314.394	449.69
314.624	431.69
314.853	424.69
315.083	424.69
315.312	423.69
315.542	406.69
315.771	406.69
316.001	401.69
316.23	407.69
316.46	408.69
316.689	418.69
316.919	410.69
317.148	433.69
317.377	435.69
317.607	424.69
317.836	425.69
318.065	420.69
318.295	413.69
318.524	413.69
318.753	402.69
318.983	440.69
319.212	394.69
319.441	419.69
319.67	422.69
319.9	428.69
320.129	406.69
320.358	424.69
320.587	407.69
320.816	419.69
321.046	440.69
321.275	457.69
321.504	441.69
321.733	438.69
321.962	468.69
322.191	443.69
322.42	462.69
322.649	475.69
322.878	500.69
323.108	494.69
323.337	518.69
323.566	533.69
323.795	550.69
324.024	596.69
324.253	686.69
324.482	965.69
324.71	1441.69
324.939	1982.69
325.168	1744.69
325.397	916.69
325.626	653.69
325.855	546.69
326.084	528.69
326.313	519.69
326.542	544.69
326.77	560.69
326.999	647.69
327.228	867.69
327.457	1302.69
327.686	1574.69
327.914	1024.69
328.143	713.69
328.372	638.69
328.6	622.69
328.829	595.69
329.058	606.69
329.287	620.69
329.515	579.69
329.744	519.69
329.972	509.69
330.201	544.69
330.43	571.69
330.658	619.69
330.887	625.69
331.115	614.69
331.344	549.69
331.572	537.69
331.801	521.69
332.03	538.69
332.258	519.69
332.486	523.69
332.715	500.69
332.943	517.69
333.172	518.69
333.4	536.69
333.629	537.69
333.857	569.69
334.085	563.69
334.314	542.69
334.542	560.69
334.771	553.69
334.999	544.69
335.227	544.69
335.455	550.69
335.684	523.69
335.912	508.69
336.14	483.69
336.369	512.69
336.597	506.69
336.825	508.69
337.053	499.69
337.281	493.69
337.51	487.69
337.738	491.69
337.966	491.69
338.194	471.69
338.422	495.69
338.65	481.69
338.878	499.69
339.106	459.69
339.334	477.69
339.562	485.69
339.79	440.69
340.018	461.69
340.246	469.69
340.474	464.69
340.702	471.69
340.93	490.69
341.158	486.69
341.386	475.69
341.614	494.69
341.842	464.69
342.07	450.69
342.298	467.69
342.526	450.69
342.754	486.69
342.981	468.69
343.209	459.69
343.437	470.69
343.665	485.69
343.893	516.69
344.12	500.69
344.348	497.69
344.576	471.69
344.804	495.69
345.031	494.69
345.259	510.69
345.487	483.69
345.714	453.69
345.942	466.69
346.17	458.69
346.397	458.69
346.625	471.69
346.853	450.69
347.08	440.69
347.308	446.69
347.535	455.69
347.763	464.69
347.99	472.69
348.218	459.69
348.445	465.69
348.673	441.69
348.9	473.69
349.128	454.69
349.355	453.69
349.583	432.69
349.81	462.69
350.037	446.69
350.265	440.69
350.492	438.69
350.72	443.69
350.947	430.69
351.174	464.69
351.402	456.69
351.629	448.69
351.856	447.69
352.083	447.69
352.311	457.69
352.538	464.69
352.765	470.69
352.992	458.69
353.22	459.69
353.447	443.69
353.674	431.69
353.901	439.69
354.128	438.69
354.355	420.69
354.583	397.69
354.81	426.69
355.037	432.69
355.264	426.69
355.491	419.69
355.718	424.69
355.945	434.69
356.172	411.69
356.399	414.69
356.626	408.69
356.853	454.69
357.08	407.69
357.307	432.69
357.534	413.69
357.761	404.69
357.988	422.69
358.215	438.69
358.441	425.69
358.668	420.69
358.895	425.69
359.122	428.69
359.349	435.69
359.576	428.69
359.802	445.69
360.029	487.69
360.256	493.69
360.483	469.69
360.709	456.69
360.936	444.69
361.163	446.69
361.39	449.69
361.616	440.69
361.843	448.69
362.07	444.69
362.296	423.69
362.523	420.69
362.749	447.69
362.976	434.69
363.203	447.69
363.429	438.69
363.656	430.69
363.882	430.69
364.109	427.69
364.335	425.69
364.562	426.69
364.788	430.69
365.015	427.69
365.241	419.69
365.468	418.69
365.694	417.69
365.92	424.69
366.147	440.69
366.373	411.69
366.599	418.69
366.826	397.69
367.052	421.69
367.278	425.69
367.505	435.69
367.731	432.69
367.957	434.69
368.184	415.69
368.41	430.69
368.636	438.69
368.862	434.69
369.089	421.69
369.315	451.69
369.541	432.69
369.767	422.69
369.993	407.69
370.219	427.69
370.445	422.69
370.672	418.69
370.898	403.69
371.124	423.69
371.35	419.69
371.576	417.69
371.802	433.69
372.028	414.69
372.254	426.69
372.48	401.69
372.706	423.69
372.932	425.69
373.158	435.69
373.384	436.69
373.61	426.69
373.835	419.69
374.061	417.69
374.287	428.69
374.513	427.69
374.739	418.69
374.965	443.69
375.191	432.69
375.416	437.69
375.642	423.69
375.868	435.69
376.094	424.69
376.319	435.69
376.545	423.69
376.771	410.69
376.997	414.69
377.222	427.69
377.448	397.69
377.674	411.69
377.899	427.69
378.125	402.69
378.35	405.69
378.576	409.69
378.802	421.69
379.027	421.69
379.253	427.69
379.478	413.69
379.704	410.69
379.929	415.69
380.155	414.69
380.38	421.69
380.606	421.69
380.831	401.69
381.057	424.69
381.282	445.69
381.507	449.69
381.733	425.69
381.958	434.69
382.184	415.69
382.409	428.69
382.634	427.69
382.86	434.69
383.085	451.69
383.31	436.69
383.535	437.69
383.761	448.69
383.986	453.69
384.211	454.69
384.436	458.69
384.662	458.69
384.887	448.69
385.112	460.69
385.337	470.69
385.562	454.69
385.787	455.69
386.013	464.69
386.238	480.69
386.463	486.69
386.688	473.69
386.913	459.69
387.138	465.69
387.363	480.69
387.588	444.69
387.813	472.69
388.038	453.69
388.263	475.69
388.488	477.69
388.713	454.69
388.938	467.69
389.163	460.69
389.387	483.69
389.612	466.69
389.837	456.69
390.062	463.69
390.287	463.69
390.512	464.69
390.736	468.69
390.961	485.69
391.186	473.69
391.411	474.69
391.636	502.69
391.86	466.69
392.085	491.69
392.31	499.69
392.534	504.69
392.759	487.69
392.984	478.69
393.208	459.69
393.433	464.69
393.658	470.69
393.882	475.69
394.107	501.69
394.331	469.69
394.556	496.69
394.78	476.69
395.005	470.69
395.229	491.69
395.454	476.69
395.678	500.69
395.903	517.69
396.127	528.69
396.352	535.69
396.576	489.69
396.801	504.69
397.025	498.69
397.249	512.69
397.474	478.69
397.698	510.69
397.922	528.69
398.147	534.69
398.371	551.69
398.595	552.69
398.82	555.69
399.044	574.69
399.268	603.69
399.492	658.69
399.717	688.69
399.941	708.69
400.165	724.69
400.389	672.69
400.613	642.69
400.837	602.69
401.062	592.69
401.286	564.69
401.51	548.69
401.734	550.69
401.958	552.69
402.182	559.69
402.406	578.69
402.63	576.69
402.854	571.69
403.078	570.69
403.302	577.69
403.526	572.69
403.75	607.69
403.974	585.69
404.198	581.69
404.422	585.69
404.645	566.69
404.869	600.69
405.093	607.69
405.317	614.69
405.541	666.69
405.765	619.69
405.988	592.69
406.212	582.69
406.436	607.69
406.66	643.69
406.883	616.69
407.107	663.69
407.331	678.69
407.555	752.69
407.778	744.69
408.002	662.69
408.226	668.69
408.449	632.69
408.673	611.69
408.896	652.69
409.12	662.69
409.344	658.69
409.567	607.69
409.791	581.69
410.014	568.69
410.238	563.69
410.461	544.69
410.685	566.69
410.908	571.69
411.132	603.69
411.355	647.69
411.578	618.69
411.802	581.69
412.025	539.69
412.249	560.69
412.472	585.69
412.695	613.69
412.919	620.69
413.142	570.69
413.365	542.69
413.589	553.69
413.812	526.69
414.035	533.69
414.258	540.69
414.482	521.69
414.705	526.69
414.928	544.69
415.151	523.69
415.374	533.69
415.597	527.69
415.821	529.69
416.044	529.69
416.267	531.69
416.49	523.69
416.713	498.69
416.936	544.69
417.159	550.69
417.382	538.69
417.605	532.69
417.828	560.69
418.051	538.69
418.274	535.69
418.497	506.69
418.72	525.69
418.943	512.69
419.166	559.69
419.389	568.69
419.611	575.69
419.834	551.69
420.057	544.69
420.28	556.69
420.503	555.69
420.726	534.69
420.948	544.69
421.171	587.69
421.394	623.69
421.617	575.69
421.839	556.69
422.062	552.69
422.285	568.69
422.507	615.69
422.73	695.69
422.953	642.69
423.175	598.69
423.398	564.69
423.621	571.69
423.843	593.69
424.066	602.69
424.288	585.69
424.511	606.69
424.733	638.69
424.956	709.69
425.178	689.69
425.401	688.69
425.623	712.69
425.846	622.69
426.068	591.69
426.291	582.69
426.513	570.69
426.735	567.69
426.958	592.69
427.18	674.69
427.402	809.69
427.625	882.69
427.847	778.69
428.069	672.69
428.292	610.69
428.514	571.69
428.736	549.69
428.958	536.69
429.181	511.69
429.403	530.69
429.625	533.69
429.847	562.69
430.069	632.69
430.292	611.69
430.514	564.69
430.736	540.69
430.958	514.69
431.18	509.69
431.402	507.69
431.624	502.69
431.846	506.69
432.068	501.69
432.29	487.69
432.512	518.69
432.734	512.69
432.956	499.69
433.178	527.69
433.4	514.69
433.622	506.69
433.844	514.69
434.066	502.69
434.287	508.69
434.509	514.69
434.731	527.69
434.953	542.69
435.175	533.69
435.397	561.69
435.618	558.69
435.84	604.69
436.062	676.69
436.284	740.69
436.505	610.69
436.727	584.69
436.949	523.69
437.17	526.69
437.392	534.69
437.614	532.69
437.835	566.69
438.057	654.69
438.278	752.69
438.5	747.69
438.721	793.69
438.943	780.69
439.165	625.69
439.386	584.69
439.608	582.69
439.829	560.69
440.05	600.69
440.272	617.69
440.493	590.69
440.715	558.69
440.936	535.69
441.158	547.69
441.379	519.69
441.6	586.69
441.822	574.69
442.043	597.69
442.264	648.69
442.486	734.69
442.707	635.69
442.928	581.69
443.149	575.69
443.371	622.69
443.592	641.69
443.813	741.69
444.034	784.69
444.255	672.69
444.476	612.69
444.698	598.69
444.919	587.69
445.14	738.69
445.361	649.69
445.582	632.69
445.803	695.69
446.024	770.69
446.245	766.69
446.466	686.69
446.687	612.69
446.908	560.69
447.129	538.69
447.35	523.69
447.571	534.69
447.792	526.69
448.013	524.69
448.234	551.69
448.455	585.69
448.675	691.69
448.896	784.69
449.117	655.69
449.338	622.69
449.559	729.69
449.779	839.69
450	646.69
450.221	561.69
450.442	500.69
450.662	492.69
450.883	523.69
451.104	520.69
451.324	501.69
451.545	476.69
451.766	496.69
451.986	444.69
452.207	484.69
452.428	476.69
452.648	481.69
452.869	477.69
453.089	470.69
453.31	491.69
453.53	467.69
453.751	466.69
453.971	468.69
454.192	462.69
454.412	467.69
454.633	474.69
454.853	452.69
455.073	463.69
455.294	494.69
455.514	568.69
455.734	537.69
455.955	457.69
456.175	438.69
456.395	446.69
456.616	432.69
456.836	445.69
457.056	436.69
457.276	422.69
457.497	437.69
457.717	423.69
457.937	431.69
458.157	446.69
458.377	465.69
458.598	494.69
458.818	524.69
459.038	611.69
459.258	628.69
459.478	539.69
459.698	515.69
459.918	519.69
460.138	503.69
460.358	527.69
460.578	540.69
460.798	535.69
461.018	553.69
461.238	531.69
461.458	534.69
461.678	537.69
461.898	533.69
462.118	545.69
462.338	542.69
462.558	556.69
462.777	577.69
462.997	609.69
463.217	623.69
463.437	612.69
463.657	595.69
463.876	578.69
464.096	585.69
464.316	568.69
464.536	599.69
464.755	602.69
464.975	604.69
465.195	601.69
465.414	666.69
465.634	593.69
465.854	558.69
466.073	530.69
466.293	483.69
466.512	473.69
466.732	484.69
466.951	482.69
467.171	484.69
467.391	478.69
467.61	501.69
467.829	497.69
468.049	503.69
468.268	483.69
468.488	480.69
468.707	452.69
468.927	468.69
469.146	444.69
469.365	477.69
469.585	479.69
469.804	500.69
470.023	506.69
470.243	496.69
470.462	501.69
470.681	508.69
470.901	516.69
471.12	491.69
471.339	485.69
471.558	503.69
471.777	477.69
471.997	475.69
472.216	470.69
472.435	504.69
472.654	482.69
472.873	475.69
473.092	459.69
473.311	498.69
473.53	487.69
473.749	491.69
473.968	535.69
474.187	626.69
474.406	644.69
474.625	559.69
474.844	483.69
475.063	486.69
475.282	491.69
475.501	473.69
475.72	501.69
475.939	508.69
476.158	490.69
476.377	492.69
476.596	502.69
476.814	531.69
477.033	517.69
477.252	522.69
477.471	519.69
477.69	515.69
477.908	518.69
478.127	548.69
478.346	528.69
478.564	547.69
478.783	534.69
479.002	560.69
479.22	564.69
479.439	580.69
479.658	595.69
479.876	593.69
480.095	584.69
480.313	621.69
480.532	616.69
480.751	619.69
480.969	631.69
481.188	635.69
481.406	632.69
481.624	588.69
481.843	572.69
482.061	575.69
482.28	569.69
482.498	547.69
482.717	553.69
482.935	567.69
483.153	540.69
483.372	570.69
483.59	569.69
483.808	547.69
484.027	562.69
484.245	558.69
484.463	558.69
484.681	591.69
484.9	560.69
485.118	582.69
485.336	560.69
485.554	561.69
485.772	585.69
485.99	586.69
486.209	593.69
486.427	592.69
486.645	603.69
486.863	604.69
487.081	619.69
487.299	606.69
487.517	612.69
487.735	623.69
487.953	608.69
488.171	605.69
488.389	600.69
488.607	593.69
488.825	608.69
489.043	585.69
489.261	588.69
489.479	609.69
489.696	622.69
489.914	588.69
490.132	628.69
490.35	635.69
490.568	640.69
490.786	643.69
491.003	667.69
491.221	673.69
491.439	666.69
491.657	666.69
491.874	665.69
492.092	669.69
492.31	692.69
492.527	671.69
492.745	682.69
492.963	681.69
493.18	680.69
493.398	677.69
493.615	699.69
493.833	720.69
494.05	700.69
494.268	725.69
494.485	706.69
494.703	720.69
494.92	720.69
495.138	708.69
495.355	686.69
495.573	694.69
495.79	723.69
496.008	718.69
496.225	718.69
496.442	707.69
496.66	717.69
496.877	743.69
497.094	716.69
497.312	724.69
497.529	758.69
497.746	756.69
497.963	772.69
498.181	795.69
498.398	791.69
498.615	832.69
498.832	889.69
499.049	855.69
499.267	924.69
499.484	937.69
499.701	1018.69
499.918	1032.69
500.135	1137.69
500.352	1185.69
500.569	1219.69
500.786	1228.69
501.003	1172.69
501.22	1112.69
501.437	1076.69
501.654	1013.69
501.871	1011.69
502.088	940.69
502.305	891.69
502.522	846.69
502.739	816.69
502.956	805.69
503.172	784.69
503.389	785.69
503.606	753.69
503.823	766.69
504.04	748.69
504.256	759.69
504.473	750.69
504.69	729.69
504.907	747.69
505.123	706.69
505.34	695.69
505.557	711.69
505.773	705.69
505.99	702.69
506.207	677.69
506.423	681.69
506.64	673.69
506.856	688.69
507.073	653.69
507.289	664.69
507.506	656.69
507.722	651.69
507.939	682.69
508.155	663.69
508.372	630.69
508.588	630.69
508.805	640.69
509.021	622.69
509.238	647.69
509.454	644.69
509.67	627.69
509.887	638.69
510.103	644.69
510.319	630.69
510.536	706.69
510.752	1189.69
510.968	1000.69
511.184	662.69
511.401	622.69
511.617	608.69
511.833	628.69
512.049	612.69
512.265	583.69
512.481	594.69
512.698	580.69
512.914	572.69
513.13	599.69
513.346	570.69
513.562	594.69
513.778	607.69
513.994	628.69
514.21	620.69
514.426	617.69
514.642	658.69
514.858	700.69
515.074	728.69
515.29	865.69
515.506	1310.69
515.721	1072.69
515.937	740.69
516.153	691.69
516.369	652.69
516.585	645.69
516.801	651.69
517.016	632.69
517.232	655.69
517.448	666.69
517.664	680.69
517.879	658.69
518.095	675.69
518.311	678.69
518.527	633.69
518.742	634.69
518.958	627.69
519.173	619.69
519.389	622.69
519.605	636.69
519.82	617.69
520.036	610.69
520.251	650.69
520.467	657.69
520.682	649.69
520.898	654.69
521.113	677.69
521.329	698.69
521.544	772.69
521.76	978.69
521.975	1660.69
522.19	1652.69
522.406	898.69
522.621	691.69
522.836	625.69
523.052	607.69
523.267	572.69
523.482	563.69
523.698	553.69
523.913	549.69
524.128	558.69
524.343	524.69
524.559	536.69
524.774	526.69
524.989	508.69
525.204	525.69
525.419	544.69
525.634	522.69
525.849	515.69
526.064	516.69
526.28	513.69
526.495	513.69
526.71	507.69
526.925	502.69
527.14	498.69
527.355	488.69
527.57	482.69
527.785	478.69
527.999	501.69
528.214	498.69
528.429	506.69
528.644	480.69
528.859	494.69
529.074	516.69
529.289	502.69
529.503	580.69
529.718	567.69
529.933	560.69
530.148	522.69
530.363	486.69
530.577	488.69
530.792	480.69
531.007	497.69
531.221	487.69
531.436	474.69
531.651	483.69
531.865	482.69
532.08	471.69
532.295	464.69
532.509	469.69
532.724	481.69
532.938	481.69
533.153	475.69
533.367	483.69
533.582	465.69
533.796	443.69
534.011	481.69
534.225	453.69
534.44	446.69
534.654	463.69
534.868	460.69
535.083	446.69
535.297	468.69
535.511	460.69
535.726	498.69
535.94	463.69
536.154	464.69
536.369	473.69
536.583	460.69
536.797	472.69
537.011	460.69
537.225	464.69
537.44	454.69
537.654	456.69
537.868	473.69
538.082	452.69
538.296	464.69
538.51	447.69
538.724	442.69
538.938	450.69
539.153	445.69
539.367	470.69
539.581	463.69
539.795	459.69
540.009	447.69
540.222	456.69
540.436	447.69
540.65	464.69
540.864	445.69
541.078	475.69
541.292	470.69
541.506	442.69
541.72	460.69
541.934	436.69
542.147	448.69
542.361	435.69
542.575	441.69
542.789	456.69
543.002	425.69
543.216	452.69
543.43	461.69
543.644	439.69
543.857	437.69
544.071	466.69
544.285	471.69
544.498	453.69
544.712	451.69
544.925	438.69
545.139	464.69
545.352	447.69
545.566	441.69
545.779	422.69
545.993	452.69
546.206	450.69
546.42	431.69
546.633	442.69
546.847	441.69
547.06	436.69
547.274	423.69
547.487	434.69
547.7	433.69
547.914	440.69
548.127	416.69
548.34	430.69
548.554	442.69
548.767	434.69
548.98	433.69
549.193	430.69
549.407	447.69
549.62	457.69
549.833	432.69
550.046	434.69
550.259	434.69
550.473	422.69
550.686	409.69
550.899	432.69
551.112	440.69
551.325	432.69
551.538	433.69
551.751	428.69
551.964	402.69
552.177	422.69
552.39	434.69
552.603	432.69
552.816	449.69
553.029	463.69
553.242	414.69
553.455	440.69
553.667	440.69
553.88	477.69
554.093	459.69
554.306	454.69
554.519	430.69
554.732	432.69
554.944	432.69
555.157	421.69
555.37	412.69
555.583	424.69
555.795	418.69
556.008	424.69
556.221	404.69
556.433	407.69
556.646	388.69
556.859	404.69
557.071	395.69
557.284	402.69
557.496	396.69
557.709	394.69
557.921	378.69
558.134	376.69
558.346	388.69
558.559	403.69
558.771	376.69
558.984	369.69
559.196	376.69
559.409	374.69
559.621	386.69
559.833	382.69
560.046	370.69
560.258	384.69
560.47	386.69
560.683	374.69
560.895	390.69
561.107	380.69
561.32	394.69
561.532	379.69
561.744	400.69
561.956	380.69
562.168	363.69
562.381	386.69
562.593	382.69
562.805	380.69
563.017	366.69
563.229	378.69
563.441	378.69
563.653	386.69
563.865	390.69
564.077	393.69
564.289	381.69
564.501	401.69
564.713	400.69
564.925	414.69
565.137	408.69
565.349	438.69
565.561	435.69
565.773	442.69
565.985	436.69
566.197	448.69
566.408	461.69
566.62	496.69
566.832	504.69
567.044	508.69
567.255	514.69
567.467	535.69
567.679	526.69
567.891	561.69
568.102	583.69
568.314	525.69
568.526	522.69
568.737	512.69
568.949	484.69
569.161	442.69
569.372	420.69
569.584	406.69
569.795	408.69
570.007	408.69
570.218	457.69
570.43	427.69
570.641	370.69
570.853	406.69
571.064	394.69
571.276	393.69
571.487	390.69
571.698	353.69
571.91	369.69
572.121	354.69
572.333	331.69
572.544	338.69
572.755	339.69
572.966	336.69
573.178	339.69
573.389	346.69
573.6	353.69
573.811	340.69
574.023	318.69
574.234	339.69
574.445	321.69
574.656	314.69
574.867	345.69
575.078	331.69
575.289	327.69
575.501	331.69
575.712	332.69
575.923	325.69
576.134	329.69
576.345	339.69
576.556	330.69
576.767	311.69
576.978	319.69
577.188	316.69
577.399	316.69
577.61	307.69
577.821	315.69
578.032	321.69
578.243	338.69
578.454	563.69
578.665	429.69
578.875	314.69
579.086	297.69
579.297	311.69
579.508	298.69
579.718	309.69
579.929	304.69
580.14	312.69
580.35	288.69
580.561	314.69
580.772	293.69
580.982	306.69
581.193	297.69
581.403	284.69
581.614	308.69
581.825	300.69
582.035	302.69
582.246	289.69
582.456	304.69
582.667	302.69
582.877	281.69
583.087	299.69
583.298	288.69
583.508	278.69
583.719	294.69
583.929	280.69
584.139	284.69
584.35	301.69
584.56	291.69
584.77	268.69
584.981	283.69
585.191	284.69
585.401	310.69
585.611	302.69
585.821	284.69
586.032	295.69
586.242	263.69
586.452	293.69
586.662	280.69
586.872	296.69
587.082	281.69
587.292	304.69
587.502	298.69
587.713	272.69
587.923	290.69
588.133	297.69
588.343	296.69
588.553	287.69
588.762	287.69
588.972	274.69
589.182	295.69
589.392	277.69
589.602	284.69
589.812	294.69
590.022	288.69
590.232	280.69
590.441	285.69
590.651	296.69
590.861	273.69
591.071	286.69
591.281	283.69
591.49	311.69
591.7	312.69
591.91	291.69
592.119	295.69
592.329	302.69
592.539	308.69
592.748	309.69
592.958	316.69
593.167	311.69
593.377	319.69
593.587	315.69
593.796	316.69
594.006	319.69
594.215	322.69
594.424	324.69
594.634	308.69
594.843	308.69
595.053	307.69
595.262	304.69
595.472	320.69
595.681	291.69
595.89	280.69
596.1	298.69
596.309	295.69
596.518	259.69
596.727	277.69
596.937	259.69
597.146	266.69
597.355	265.69
597.564	249.69
597.774	259.69
597.983	242.69
598.192	248.69
598.401	256.69
598.61	256.69
598.819	247.69
599.028	264.69
599.237	273.69
599.446	258.69
599.655	260.69
599.864	252.69
600.073	231.69
600.282	256.69
600.491	248.69
600.7	262.69
600.909	232.69
601.118	236.69
601.327	241.69
601.536	229.69
601.745	240.69
601.953	233.69
602.162	233.69
602.371	244.69
602.58	254.69
602.789	240.69
602.997	246.69
603.206	225.69
603.415	245.69
603.623	240.69
603.832	227.69
604.041	245.69
604.249	233.69
604.458	228.69
604.666	227.69
604.875	232.69
605.084	231.69
605.292	251.69
605.501	238.69
605.709	225.69
605.918	219.69
606.126	247.69
606.334	227.69
606.543	227.69
606.751	236.69
606.96	217.69
607.168	239.69
607.376	223.69
607.585	236.69
607.793	239.69
608.001	224.69
608.21	231.69
608.418	231.69
608.626	232.69
608.834	239.69
609.043	240.69
609.251	219.69
609.459	219.69
609.667	243.69
609.875	229.69
610.083	222.69
610.291	222.69
610.499	224.69
610.707	227.69
610.916	234.69
611.124	229.69
611.332	247.69
611.54	233.69
611.748	249.69
611.955	233.69
612.163	240.69
612.371	229.69
612.579	221.69
612.787	229.69
612.995	209.69
613.203	227.69
613.411	215.69
613.618	219.69
613.826	213.69
614.034	217.69
614.242	220.69
614.449	238.69
614.657	232.69
614.865	226.69
615.072	223.69
615.28	227.69
615.488	223.69
615.695	246.69
615.903	240.69
616.111	234.69
616.318	221.69
616.526	225.69
616.733	219.69
616.941	228.69
617.148	242.69
617.356	216.69
617.563	211.69
617.771	231.69
617.978	232.69
618.185	226.69
618.393	230.69
618.6	223.69
618.807	211.69
619.015	216.69
619.222	220.69
619.429	219.69
619.637	225.69
619.844	220.69
620.051	214.69
620.258	210.69
620.466	221.69
620.673	210.69
620.88	207.69
621.087	203.69
621.294	212.69
621.501	202.69
621.708	201.69
621.915	217.69
622.122	214.69
622.329	219.69
622.536	224.69
622.743	210.69
622.95	201.69
623.157	206.69
623.364	200.69
623.571	203.69
623.778	209.69
623.985	199.69
624.192	199.69
624.399	199.69
624.606	215.69
624.812	207.69
625.019	191.69
625.226	201.69
625.433	200.69
625.639	204.69
625.846	220.69
626.053	222.69
626.259	196.69
626.466	196.69
626.673	200.69
626.879	195.69
627.086	192.69
627.293	190.69
627.499	180.69
627.706	197.69
627.912	184.69
628.119	188.69
628.325	195.69
628.532	198.69
628.738	197.69
628.945	194.69
629.151	185.69
629.357	178.69
629.564	179.69
629.77	190.69
629.976	188.69
630.183	172.69
630.389	184.69
630.595	185.69
630.802	174.69
631.008	187.69
631.214	184.69
631.42	183.69
631.627	187.69
631.833	194.69
632.039	194.69
632.245	183.69
632.451	183.69
632.657	176.69
632.863	196.69
633.069	185.69
633.275	163.69
633.481	172.69
633.688	198.69
633.893	195.69
634.099	196.69
634.305	180.69
634.511	176.69
634.717	181.69
634.923	162.69
635.129	175.69
635.335	166.69
635.541	169.69
635.747	180.69
635.952	174.69
636.158	172.69
636.364	181.69
636.57	163.69
636.775	181.69
636.981	171.69
637.187	187.69
637.392	177.69
637.598	164.69
637.804	175.69
638.009	167.69
638.215	172.69
638.421	167.69
638.626	169.69
638.832	171.69
639.037	167.69
639.243	172.69
639.448	169.69
639.654	156.69
639.859	162.69
640.065	155.69
640.27	167.69
640.475	188.69
640.681	167.69
640.886	166.69
641.091	165.69
641.297	185.69
641.502	167.69
641.707	169.69
641.913	169.69
642.118	161.69
642.323	153.69
642.528	157.69
642.733	157.69
642.939	167.69
643.144	154.69
643.349	168.69
643.554	164.69
643.759	155.69
643.964	156.69
644.169	161.69
644.374	154.69
644.579	155.69
644.784	161.69
644.989	171.69
645.194	166.69
645.399	152.69
645.604	150.69
645.809	152.69
646.014	156.69
646.219	148.69
646.423	153.69
646.628	176.69
646.833	177.69
647.038	161.69
647.243	154.69
647.447	164.69
647.652	155.69
647.857	166.69
648.062	167.69
648.266	168.69
648.471	162.69
648.676	172.69
648.88	158.69
649.085	178.69
649.289	173.69
649.494	150.69
649.698	182.69
649.903	177.69
650.107	169.69
650.312	182.69
650.516	158.69
650.721	167.69
650.925	152.69
651.13	145.69
651.334	135.69
651.539	144.69
651.743	143.69
651.947	156.69
652.152	149.69
652.356	138.69
652.56	136.69
652.764	140.69
652.969	135.69
653.173	136.69
653.377	131.69
653.581	136.69
653.785	140.69
653.99	130.69
654.194	137.69
654.398	132.69
654.602	135.69
654.806	123.69
655.01	144.69
655.214	138.69
655.418	136.69
655.622	145.69
655.826	128.69
656.03	147.69
656.234	140.69
656.438	140.69
656.642	134.69
656.846	142.69
657.049	139.69
657.253	123.69
657.457	107.69
657.661	110.69
657.865	112.69
658.068	103.69
658.272	114.69
658.476	107.69
658.68	120.69
658.883	104.69
659.087	90.69
659.291	95.69
659.494	104.69
659.698	86.69
659.901	85.69
660.105	93.69
660.309	87.69
660.512	92.69
660.716	87.69
660.919	87.69
661.123	95.69
661.326	83.69
661.53	82.69
661.733	95.69
661.936	78.69
662.14	84.69
662.343	83.69
662.546	95.69
662.75	98.69
662.953	75.69
663.156	78.69
663.36	80.69
663.563	74.69
663.766	82.69
663.969	87.69
664.173	83.69
664.376	77.69
664.579	79.69
664.782	80.69
664.985	88.69
665.188	82.69
665.391	85.69
665.594	63.69
665.797	69.69
666	80.69
666.203	79.69
666.406	80.69
666.609	85.69
666.812	83.69
667.015	77.69
667.218	87.69
667.421	81.69
667.624	77.69
667.827	80.69
668.03	78.69
668.232	83.69
668.435	84.69
668.638	79.69
668.841	90.69
669.043	79.69
669.246	78.69
669.449	79.69
669.651	76.69
669.854	82.69
670.057	63.69
670.259	65.69
670.462	78.69
670.665	91.69
670.867	71.69
671.07	84.69
671.272	84.69
671.475	70.69
671.677	85.69
671.88	83.69
672.082	80.69
672.284	69.69
672.487	78.69
672.689	90.69
672.892	74.69
