Data from 1985.PennyLincolnUp.Lamp.En5.5.200Scan.071819.P1_HRD10591_17-04-03-971.txt Node
Date: Thu Jul 18 17:04:03 EDT 2019
User: cochatt
Spectrometer: HR+D1059
Trigger mode: 1
Integration Time (sec): 1.000000E-1
Scans to average: 1
Electric dark correction enabled: true
Nonlinearity correction enabled: false
Boxcar width: 0
XAxis mode: Wavelengths
Number of Pixels in Spectrum: 2048
>>>>>Begin Spectral Data<<<<<
223.165	-14.25
223.4	-14.25
223.635	-14.25
223.869	-11.25
224.104	-32.25
224.338	-19.25
224.573	-12.25
224.808	-6.25
225.042	-14.25
225.277	6.75
225.511	-1.25
225.746	8.75
225.98	4.75
226.215	6.75
226.449	9.75
226.683	11.75
226.918	37.75
227.152	24.75
227.387	42.75
227.621	33.75
227.856	29.75
228.09	38.75
228.324	61.75
228.559	49.75
228.793	63.75
229.027	101.75
229.262	103.75
229.496	116.75
229.73	121.75
229.964	156.75
230.199	120.75
230.433	123.75
230.667	110.75
230.901	119.75
231.136	121.75
231.37	109.75
231.604	118.75
231.838	120.75
232.072	111.75
232.306	117.75
232.541	105.75
232.775	118.75
233.009	117.75
233.243	110.75
233.477	125.75
233.711	126.75
233.945	119.75
234.179	117.75
234.413	122.75
234.647	115.75
234.881	116.75
235.115	114.75
235.349	126.75
235.583	119.75
235.817	127.75
236.051	132.75
236.285	140.75
236.519	133.75
236.753	134.75
236.987	143.75
237.221	156.75
237.455	196.75
237.689	184.75
237.922	155.75
238.156	134.75
238.39	131.75
238.624	122.75
238.858	149.75
239.091	135.75
239.325	115.75
239.559	126.75
239.793	133.75
240.027	123.75
240.26	133.75
240.494	157.75
240.728	143.75
240.961	146.75
241.195	144.75
241.429	142.75
241.662	143.75
241.896	137.75
242.13	142.75
242.363	141.75
242.597	129.75
242.83	145.75
243.064	140.75
243.298	167.75
243.531	152.75
243.765	151.75
243.998	141.75
244.232	147.75
244.465	142.75
244.699	144.75
244.932	139.75
245.166	144.75
245.399	150.75
245.633	161.75
245.866	149.75
246.099	135.75
246.333	139.75
246.566	167.75
246.8	141.75
247.033	149.75
247.266	153.75
247.5	161.75
247.733	174.75
247.966	171.75
248.2	181.75
248.433	179.75
248.666	186.75
248.899	194.75
249.133	185.75
249.366	211.75
249.599	192.75
249.832	198.75
250.066	185.75
250.299	174.75
250.532	195.75
250.765	208.75
250.998	232.75
251.231	222.75
251.465	205.75
251.698	219.75
251.931	194.75
252.164	209.75
252.397	195.75
252.63	207.75
252.863	209.75
253.096	217.75
253.329	208.75
253.562	238.75
253.795	229.75
254.028	230.75
254.261	218.75
254.494	225.75
254.727	260.75
254.96	269.75
255.193	268.75
255.426	251.75
255.659	254.75
255.892	239.75
256.124	233.75
256.357	272.75
256.59	233.75
256.823	243.75
257.056	214.75
257.289	210.75
257.521	208.75
257.754	212.75
257.987	215.75
258.22	209.75
258.452	217.75
258.685	227.75
258.918	225.75
259.151	222.75
259.383	228.75
259.616	221.75
259.849	230.75
260.081	252.75
260.314	253.75
260.547	252.75
260.779	232.75
261.012	241.75
261.244	231.75
261.477	232.75
261.71	221.75
261.942	234.75
262.175	247.75
262.407	241.75
262.64	238.75
262.872	213.75
263.105	226.75
263.337	235.75
263.57	214.75
263.802	227.75
264.035	223.75
264.267	239.75
264.499	232.75
264.732	234.75
264.964	234.75
265.197	222.75
265.429	217.75
265.661	229.75
265.894	220.75
266.126	260.75
266.358	233.75
266.591	237.75
266.823	229.75
267.055	265.75
267.287	257.75
267.52	231.75
267.752	231.75
267.984	233.75
268.216	236.75
268.448	243.75
268.681	257.75
268.913	257.75
269.145	268.75
269.377	267.75
269.609	286.75
269.841	282.75
270.073	263.75
270.306	294.75
270.538	317.75
270.77	303.75
271.002	296.75
271.234	299.75
271.466	313.75
271.698	336.75
271.93	335.75
272.162	314.75
272.394	330.75
272.626	300.75
272.858	302.75
273.09	283.75
273.322	283.75
273.553	262.75
273.785	283.75
274.017	267.75
274.249	277.75
274.481	283.75
274.713	270.75
274.945	282.75
275.176	285.75
275.408	292.75
275.64	270.75
275.872	287.75
276.104	282.75
276.335	295.75
276.567	286.75
276.799	310.75
277.031	339.75
277.262	326.75
277.494	331.75
277.726	324.75
277.957	301.75
278.189	317.75
278.421	311.75
278.652	296.75
278.884	297.75
279.115	299.75
279.347	293.75
279.579	293.75
279.81	297.75
280.042	287.75
280.273	276.75
280.505	308.75
280.736	300.75
280.968	295.75
281.199	307.75
281.431	285.75
281.662	296.75
281.894	295.75
282.125	314.75
282.356	302.75
282.588	333.75
282.819	341.75
283.051	312.75
283.282	306.75
283.513	323.75
283.745	323.75
283.976	299.75
284.207	310.75
284.439	311.75
284.67	329.75
284.901	303.75
285.132	309.75
285.364	293.75
285.595	308.75
285.826	317.75
286.057	303.75
286.288	323.75
286.52	320.75
286.751	312.75
286.982	300.75
287.213	310.75
287.444	314.75
287.675	329.75
287.906	322.75
288.138	339.75
288.369	342.75
288.6	350.75
288.831	324.75
289.062	327.75
289.293	346.75
289.524	330.75
289.755	329.75
289.986	325.75
290.217	327.75
290.448	333.75
290.679	329.75
290.91	325.75
291.141	342.75
291.371	322.75
291.602	327.75
291.833	330.75
292.064	339.75
292.295	330.75
292.526	323.75
292.757	315.75
292.987	336.75
293.218	326.75
293.449	318.75
293.68	334.75
293.91	330.75
294.141	332.75
294.372	337.75
294.603	323.75
294.833	347.75
295.064	326.75
295.295	323.75
295.525	340.75
295.756	333.75
295.987	339.75
296.217	353.75
296.448	361.75
296.679	323.75
296.909	334.75
297.14	326.75
297.37	356.75
297.601	335.75
297.831	349.75
298.062	357.75
298.292	345.75
298.523	340.75
298.753	346.75
298.984	347.75
299.214	370.75
299.445	350.75
299.675	331.75
299.905	366.75
300.136	357.75
300.366	342.75
300.597	363.75
300.827	357.75
301.057	361.75
301.288	375.75
301.518	375.75
301.748	364.75
301.979	366.75
302.209	381.75
302.439	379.75
302.669	370.75
302.9	367.75
303.13	383.75
303.36	377.75
303.59	358.75
303.82	385.75
304.051	383.75
304.281	387.75
304.511	370.75
304.741	358.75
304.971	359.75
305.201	378.75
305.431	360.75
305.661	383.75
305.891	391.75
306.121	378.75
306.352	375.75
306.582	381.75
306.812	388.75
307.042	385.75
307.272	366.75
307.502	382.75
307.731	379.75
307.961	382.75
308.191	371.75
308.421	384.75
308.651	371.75
308.881	397.75
309.111	382.75
309.341	396.75
309.571	412.75
309.8	413.75
310.03	415.75
310.26	430.75
310.49	420.75
310.72	394.75
310.949	442.75
311.179	439.75
311.409	436.75
311.639	431.75
311.868	415.75
312.098	415.75
312.328	433.75
312.557	435.75
312.787	431.75
313.017	440.75
313.246	431.75
313.476	421.75
313.706	436.75
313.935	422.75
314.165	423.75
314.394	465.75
314.624	458.75
314.853	435.75
315.083	440.75
315.312	424.75
315.542	409.75
315.771	420.75
316.001	430.75
316.23	417.75
316.46	420.75
316.689	411.75
316.919	433.75
317.148	433.75
317.377	428.75
317.607	428.75
317.836	426.75
318.065	420.75
318.295	427.75
318.524	406.75
318.753	428.75
318.983	422.75
319.212	446.75
319.441	423.75
319.67	435.75
319.9	433.75
320.129	433.75
320.358	418.75
320.587	421.75
320.816	439.75
321.046	434.75
321.275	439.75
321.504	451.75
321.733	437.75
321.962	452.75
322.191	456.75
322.42	460.75
322.649	459.75
322.878	478.75
323.108	495.75
323.337	511.75
323.566	527.75
323.795	546.75
324.024	609.75
324.253	734.75
324.482	991.75
324.71	1481.75
324.939	2091.75
325.168	1733.75
325.397	940.75
325.626	693.75
325.855	573.75
326.084	571.75
326.313	542.75
326.542	547.75
326.77	589.75
326.999	697.75
327.228	852.75
327.457	1342.75
327.686	1546.75
327.914	1065.75
328.143	745.75
328.372	670.75
328.6	625.75
328.829	606.75
329.058	601.75
329.287	632.75
329.515	600.75
329.744	566.75
329.972	589.75
330.201	604.75
330.43	636.75
330.658	661.75
330.887	681.75
331.115	642.75
331.344	595.75
331.572	549.75
331.801	569.75
332.03	563.75
332.258	549.75
332.486	534.75
332.715	531.75
332.943	526.75
333.172	549.75
333.4	567.75
333.629	563.75
333.857	584.75
334.085	589.75
334.314	617.75
334.542	691.75
334.771	669.75
334.999	606.75
335.227	566.75
335.455	543.75
335.684	530.75
335.912	532.75
336.14	518.75
336.369	526.75
336.597	533.75
336.825	520.75
337.053	506.75
337.281	481.75
337.51	494.75
337.738	503.75
337.966	482.75
338.194	491.75
338.422	500.75
338.65	514.75
338.878	490.75
339.106	484.75
339.334	508.75
339.562	467.75
339.79	475.75
340.018	483.75
340.246	473.75
340.474	479.75
340.702	498.75
340.93	453.75
341.158	469.75
341.386	462.75
341.614	475.75
341.842	479.75
342.07	472.75
342.298	474.75
342.526	466.75
342.754	453.75
342.981	462.75
343.209	470.75
343.437	497.75
343.665	482.75
343.893	486.75
344.12	503.75
344.348	517.75
344.576	503.75
344.804	522.75
345.031	486.75
345.259	505.75
345.487	480.75
345.714	483.75
345.942	473.75
346.17	461.75
346.397	473.75
346.625	473.75
346.853	448.75
347.08	475.75
347.308	453.75
347.535	466.75
347.763	496.75
347.99	456.75
348.218	452.75
348.445	445.75
348.673	465.75
348.9	467.75
349.128	474.75
349.355	444.75
349.583	451.75
349.81	461.75
350.037	461.75
350.265	452.75
350.492	429.75
350.72	439.75
350.947	463.75
351.174	452.75
351.402	449.75
351.629	460.75
351.856	451.75
352.083	458.75
352.311	468.75
352.538	487.75
352.765	463.75
352.992	458.75
353.22	459.75
353.447	457.75
353.674	439.75
353.901	426.75
354.128	449.75
354.355	409.75
354.583	417.75
354.81	427.75
355.037	425.75
355.264	421.75
355.491	437.75
355.718	442.75
355.945	437.75
356.172	442.75
356.399	420.75
356.626	429.75
356.853	437.75
357.08	411.75
357.307	435.75
357.534	419.75
357.761	409.75
357.988	413.75
358.215	433.75
358.441	429.75
358.668	420.75
358.895	440.75
359.122	436.75
359.349	443.75
359.576	465.75
359.802	461.75
360.029	490.75
360.256	493.75
360.483	485.75
360.709	470.75
360.936	454.75
361.163	453.75
361.39	476.75
361.616	457.75
361.843	439.75
362.07	456.75
362.296	474.75
362.523	449.75
362.749	457.75
362.976	445.75
363.203	410.75
363.429	456.75
363.656	441.75
363.882	443.75
364.109	426.75
364.335	444.75
364.562	427.75
364.788	426.75
365.015	432.75
365.241	429.75
365.468	420.75
365.694	445.75
365.92	445.75
366.147	434.75
366.373	439.75
366.599	437.75
366.826	439.75
367.052	410.75
367.278	413.75
367.505	426.75
367.731	426.75
367.957	442.75
368.184	444.75
368.41	428.75
368.636	430.75
368.862	439.75
369.089	447.75
369.315	449.75
369.541	423.75
369.767	433.75
369.993	447.75
370.219	434.75
370.445	441.75
370.672	442.75
370.898	425.75
371.124	439.75
371.35	437.75
371.576	424.75
371.802	442.75
372.028	433.75
372.254	423.75
372.48	452.75
372.706	448.75
372.932	452.75
373.158	430.75
373.384	414.75
373.61	436.75
373.835	439.75
374.061	420.75
374.287	445.75
374.513	452.75
374.739	442.75
374.965	442.75
375.191	462.75
375.416	448.75
375.642	442.75
375.868	440.75
376.094	451.75
376.319	426.75
376.545	430.75
376.771	428.75
376.997	432.75
377.222	427.75
377.448	421.75
377.674	426.75
377.899	423.75
378.125	417.75
378.35	415.75
378.576	414.75
378.802	417.75
379.027	417.75
379.253	417.75
379.478	427.75
379.704	415.75
379.929	428.75
380.155	426.75
380.38	449.75
380.606	430.75
380.831	422.75
381.057	443.75
381.282	433.75
381.507	435.75
381.733	433.75
381.958	416.75
382.184	446.75
382.409	447.75
382.634	447.75
382.86	463.75
383.085	425.75
383.31	465.75
383.535	461.75
383.761	442.75
383.986	457.75
384.211	463.75
384.436	443.75
384.662	462.75
384.887	444.75
385.112	475.75
385.337	475.75
385.562	485.75
385.787	479.75
386.013	483.75
386.238	469.75
386.463	488.75
386.688	494.75
386.913	478.75
387.138	476.75
387.363	468.75
387.588	470.75
387.813	471.75
388.038	463.75
388.263	469.75
388.488	472.75
388.713	476.75
388.938	480.75
389.163	466.75
389.387	462.75
389.612	472.75
389.837	472.75
390.062	486.75
390.287	483.75
390.512	486.75
390.736	459.75
390.961	486.75
391.186	472.75
391.411	490.75
391.636	498.75
391.86	477.75
392.085	499.75
392.31	515.75
392.534	485.75
392.759	472.75
392.984	489.75
393.208	504.75
393.433	478.75
393.658	466.75
393.882	476.75
394.107	475.75
394.331	510.75
394.556	499.75
394.78	499.75
395.005	494.75
395.229	475.75
395.454	500.75
395.678	504.75
395.903	519.75
396.127	548.75
396.352	531.75
396.576	512.75
396.801	498.75
397.025	514.75
397.249	496.75
397.474	499.75
397.698	505.75
397.922	526.75
398.147	519.75
398.371	547.75
398.595	558.75
398.82	564.75
399.044	571.75
399.268	598.75
399.492	658.75
399.717	681.75
399.941	720.75
400.165	718.75
400.389	707.75
400.613	618.75
400.837	579.75
401.062	580.75
401.286	569.75
401.51	565.75
401.734	551.75
401.958	554.75
402.182	575.75
402.406	571.75
402.63	578.75
402.854	579.75
403.078	564.75
403.302	593.75
403.526	598.75
403.75	602.75
403.974	593.75
404.198	571.75
404.422	603.75
404.645	617.75
404.869	612.75
405.093	642.75
405.317	661.75
405.541	712.75
405.765	637.75
405.988	605.75
406.212	629.75
406.436	636.75
406.66	669.75
406.883	612.75
407.107	657.75
407.331	711.75
407.555	771.75
407.778	755.75
408.002	712.75
408.226	684.75
408.449	628.75
408.673	644.75
408.896	661.75
409.12	690.75
409.344	649.75
409.567	591.75
409.791	569.75
410.014	590.75
410.238	591.75
410.461	580.75
410.685	563.75
410.908	582.75
411.132	634.75
411.355	621.75
411.578	607.75
411.802	567.75
412.025	558.75
412.249	601.75
412.472	598.75
412.695	672.75
412.919	655.75
413.142	583.75
413.365	551.75
413.589	545.75
413.812	530.75
414.035	558.75
414.258	526.75
414.482	539.75
414.705	531.75
414.928	558.75
415.151	550.75
415.374	539.75
415.597	541.75
415.821	531.75
416.044	542.75
416.267	527.75
416.49	544.75
416.713	528.75
416.936	531.75
417.159	534.75
417.382	526.75
417.605	556.75
417.828	559.75
418.051	541.75
418.274	554.75
418.497	581.75
418.72	546.75
418.943	564.75
419.166	567.75
419.389	581.75
419.611	581.75
419.834	584.75
420.057	588.75
420.28	571.75
420.503	589.75
420.726	571.75
420.948	566.75
421.171	574.75
421.394	618.75
421.617	541.75
421.839	551.75
422.062	582.75
422.285	574.75
422.507	608.75
422.73	696.75
422.953	657.75
423.175	614.75
423.398	584.75
423.621	562.75
423.843	579.75
424.066	591.75
424.288	583.75
424.511	617.75
424.733	654.75
424.956	723.75
425.178	703.75
425.401	690.75
425.623	713.75
425.846	631.75
426.068	598.75
426.291	594.75
426.513	590.75
426.735	573.75
426.958	602.75
427.18	703.75
427.402	844.75
427.625	910.75
427.847	794.75
428.069	676.75
428.292	627.75
428.514	561.75
428.736	542.75
428.958	547.75
429.181	528.75
429.403	511.75
429.625	558.75
429.847	569.75
430.069	614.75
430.292	610.75
430.514	532.75
430.736	519.75
430.958	526.75
431.18	508.75
431.402	507.75
431.624	520.75
431.846	501.75
432.068	506.75
432.29	519.75
432.512	508.75
432.734	529.75
432.956	518.75
433.178	511.75
433.4	515.75
433.622	528.75
433.844	518.75
434.066	525.75
434.287	509.75
434.509	533.75
434.731	520.75
434.953	556.75
435.175	551.75
435.397	584.75
435.618	609.75
435.84	618.75
436.062	711.75
436.284	784.75
436.505	634.75
436.727	589.75
436.949	548.75
437.17	524.75
437.392	538.75
437.614	542.75
437.835	578.75
438.057	645.75
438.278	741.75
438.5	725.75
438.721	837.75
438.943	771.75
439.165	612.75
439.386	558.75
439.608	582.75
439.829	592.75
440.05	603.75
440.272	612.75
440.493	614.75
440.715	574.75
440.936	567.75
441.158	555.75
441.379	551.75
441.6	568.75
441.822	574.75
442.043	612.75
442.264	677.75
442.486	726.75
442.707	639.75
442.928	596.75
443.149	595.75
443.371	597.75
443.592	643.75
443.813	733.75
444.034	783.75
444.255	667.75
444.476	604.75
444.698	603.75
444.919	614.75
445.14	759.75
445.361	659.75
445.582	645.75
445.803	692.75
446.024	769.75
446.245	774.75
446.466	684.75
446.687	604.75
446.908	573.75
447.129	533.75
447.35	535.75
447.571	539.75
447.792	552.75
448.013	524.75
448.234	539.75
448.455	595.75
448.675	694.75
448.896	807.75
449.117	673.75
449.338	632.75
449.559	750.75
449.779	849.75
450	689.75
450.221	586.75
450.442	520.75
450.662	539.75
450.883	522.75
451.104	524.75
451.324	527.75
451.545	497.75
451.766	501.75
451.986	481.75
452.207	484.75
452.428	449.75
452.648	486.75
452.869	472.75
453.089	464.75
453.31	508.75
453.53	503.75
453.751	467.75
453.971	477.75
454.192	483.75
454.412	478.75
454.633	448.75
454.853	485.75
455.073	452.75
455.294	488.75
455.514	550.75
455.734	536.75
455.955	463.75
456.175	459.75
456.395	450.75
456.616	462.75
456.836	442.75
457.056	450.75
457.276	443.75
457.497	447.75
457.717	450.75
457.937	449.75
458.157	458.75
458.377	470.75
458.598	470.75
458.818	518.75
459.038	618.75
459.258	636.75
459.478	556.75
459.698	525.75
459.918	529.75
460.138	516.75
460.358	533.75
460.578	544.75
460.798	542.75
461.018	548.75
461.238	555.75
461.458	552.75
461.678	522.75
461.898	545.75
462.118	519.75
462.338	571.75
462.558	565.75
462.777	583.75
462.997	600.75
463.217	643.75
463.437	616.75
463.657	599.75
463.876	594.75
464.096	597.75
464.316	585.75
464.536	597.75
464.755	605.75
464.975	589.75
465.195	592.75
465.414	669.75
465.634	594.75
465.854	534.75
466.073	532.75
466.293	518.75
466.512	511.75
466.732	509.75
466.951	482.75
467.171	506.75
467.391	505.75
467.61	492.75
467.829	531.75
468.049	504.75
468.268	512.75
468.488	518.75
468.707	499.75
468.927	467.75
469.146	461.75
469.365	492.75
469.585	476.75
469.804	489.75
470.023	528.75
470.243	492.75
470.462	499.75
470.681	533.75
470.901	515.75
471.12	505.75
471.339	497.75
471.558	516.75
471.777	503.75
471.997	485.75
472.216	513.75
472.435	530.75
472.654	537.75
472.873	523.75
473.092	505.75
473.311	497.75
473.53	487.75
473.749	495.75
473.968	520.75
474.187	621.75
474.406	665.75
474.625	534.75
474.844	511.75
475.063	479.75
475.282	470.75
475.501	490.75
475.72	512.75
475.939	502.75
476.158	505.75
476.377	494.75
476.596	498.75
476.814	515.75
477.033	514.75
477.252	532.75
477.471	546.75
477.69	546.75
477.908	540.75
478.127	537.75
478.346	562.75
478.564	560.75
478.783	568.75
479.002	581.75
479.22	550.75
479.439	612.75
479.658	602.75
479.876	589.75
480.095	618.75
480.313	640.75
480.532	634.75
480.751	637.75
480.969	631.75
481.188	698.75
481.406	747.75
481.624	671.75
481.843	613.75
482.061	601.75
482.28	595.75
482.498	567.75
482.717	556.75
482.935	590.75
483.153	573.75
483.372	582.75
483.59	586.75
483.808	577.75
484.027	555.75
484.245	565.75
484.463	581.75
484.681	586.75
484.9	572.75
485.118	595.75
485.336	591.75
485.554	606.75
485.772	592.75
485.99	583.75
486.209	594.75
486.427	602.75
486.645	584.75
486.863	621.75
487.081	633.75
487.299	619.75
487.517	619.75
487.735	594.75
487.953	631.75
488.171	613.75
488.389	617.75
488.607	606.75
488.825	611.75
489.043	615.75
489.261	605.75
489.479	602.75
489.696	631.75
489.914	631.75
490.132	643.75
490.35	641.75
490.568	655.75
490.786	669.75
491.003	693.75
491.221	669.75
491.439	685.75
491.657	686.75
491.874	700.75
492.092	701.75
492.31	723.75
492.527	717.75
492.745	737.75
492.963	710.75
493.18	732.75
493.398	723.75
493.615	748.75
493.833	735.75
494.05	737.75
494.268	717.75
494.485	713.75
494.703	726.75
494.92	727.75
495.138	723.75
495.355	714.75
495.573	727.75
495.79	740.75
496.008	765.75
496.225	730.75
496.442	722.75
496.66	726.75
496.877	716.75
497.094	744.75
497.312	735.75
497.529	771.75
497.746	765.75
497.963	783.75
498.181	794.75
498.398	825.75
498.615	830.75
498.832	866.75
499.049	893.75
499.267	911.75
499.484	956.75
499.701	1036.75
499.918	1053.75
500.135	1140.75
500.352	1225.75
500.569	1238.75
500.786	1222.75
501.003	1224.75
501.22	1117.75
501.437	1102.75
501.654	1063.75
501.871	994.75
502.088	933.75
502.305	905.75
502.522	892.75
502.739	869.75
502.956	823.75
503.172	803.75
503.389	792.75
503.606	763.75
503.823	766.75
504.04	765.75
504.256	792.75
504.473	759.75
504.69	745.75
504.907	766.75
505.123	734.75
505.34	700.75
505.557	742.75
505.773	701.75
505.99	711.75
506.207	679.75
506.423	679.75
506.64	693.75
506.856	669.75
507.073	657.75
507.289	682.75
507.506	647.75
507.722	676.75
507.939	698.75
508.155	626.75
508.372	644.75
508.588	646.75
508.805	662.75
509.021	645.75
509.238	651.75
509.454	676.75
509.67	654.75
509.887	646.75
510.103	640.75
510.319	645.75
510.536	713.75
510.752	1145.75
510.968	980.75
511.184	672.75
511.401	635.75
511.617	622.75
511.833	621.75
512.049	603.75
512.265	627.75
512.481	622.75
512.698	596.75
512.914	603.75
513.13	588.75
513.346	606.75
513.562	591.75
513.778	609.75
513.994	619.75
514.21	635.75
514.426	652.75
514.642	689.75
514.858	713.75
515.074	733.75
515.29	836.75
515.506	1247.75
515.721	1072.75
515.937	723.75
516.153	726.75
516.369	668.75
516.585	659.75
516.801	637.75
517.016	665.75
517.232	660.75
517.448	679.75
517.664	663.75
517.879	671.75
518.095	663.75
518.311	681.75
518.527	646.75
518.742	663.75
518.958	637.75
519.173	598.75
519.389	637.75
519.605	632.75
519.82	622.75
520.036	625.75
520.251	629.75
520.467	685.75
520.682	654.75
520.898	664.75
521.113	685.75
521.329	717.75
521.544	769.75
521.76	946.75
521.975	1541.75
522.19	1581.75
522.406	914.75
522.621	655.75
522.836	607.75
523.052	606.75
523.267	588.75
523.482	563.75
523.698	547.75
523.913	569.75
524.128	565.75
524.343	550.75
524.559	551.75
524.774	543.75
524.989	528.75
525.204	555.75
525.419	525.75
525.634	552.75
525.849	541.75
526.064	529.75
526.28	518.75
526.495	525.75
526.71	501.75
526.925	522.75
527.14	519.75
527.355	471.75
527.57	513.75
527.785	517.75
527.999	525.75
528.214	506.75
528.429	519.75
528.644	493.75
528.859	504.75
529.074	499.75
529.289	521.75
529.503	598.75
529.718	545.75
529.933	542.75
530.148	522.75
530.363	513.75
530.577	486.75
530.792	490.75
531.007	497.75
531.221	490.75
531.436	473.75
531.651	495.75
531.865	491.75
532.08	484.75
532.295	469.75
532.509	473.75
532.724	471.75
532.938	474.75
533.153	501.75
533.367	491.75
533.582	488.75
533.796	469.75
534.011	470.75
534.225	478.75
534.44	467.75
534.654	473.75
534.868	484.75
535.083	474.75
535.297	490.75
535.511	482.75
535.726	501.75
535.94	492.75
536.154	454.75
536.369	488.75
536.583	471.75
536.797	467.75
537.011	485.75
537.225	456.75
537.44	471.75
537.654	469.75
537.868	436.75
538.082	461.75
538.296	462.75
538.51	481.75
538.724	478.75
538.938	474.75
539.153	437.75
539.367	487.75
539.581	456.75
539.795	463.75
540.009	443.75
540.222	463.75
540.436	445.75
540.65	450.75
540.864	451.75
541.078	454.75
541.292	469.75
541.506	444.75
541.72	428.75
541.934	466.75
542.147	466.75
542.361	437.75
542.575	458.75
542.789	452.75
543.002	470.75
543.216	440.75
543.43	459.75
543.644	450.75
543.857	462.75
544.071	445.75
544.285	450.75
544.498	437.75
544.712	459.75
544.925	484.75
545.139	442.75
545.352	450.75
545.566	468.75
545.779	463.75
545.993	450.75
546.206	468.75
546.42	444.75
546.633	451.75
546.847	461.75
547.06	445.75
547.274	429.75
547.487	447.75
547.7	458.75
547.914	444.75
548.127	449.75
548.34	452.75
548.554	438.75
548.767	440.75
548.98	459.75
549.193	458.75
549.407	461.75
549.62	459.75
549.833	440.75
550.046	455.75
550.259	418.75
550.473	441.75
550.686	447.75
550.899	435.75
551.112	428.75
551.325	421.75
551.538	444.75
551.751	435.75
551.964	423.75
552.177	450.75
552.39	452.75
552.603	449.75
552.816	464.75
553.029	469.75
553.242	456.75
553.455	467.75
553.667	468.75
553.88	484.75
554.093	465.75
554.306	455.75
554.519	465.75
554.732	440.75
554.944	421.75
555.157	430.75
555.37	392.75
555.583	443.75
555.795	441.75
556.008	406.75
556.221	401.75
556.433	406.75
556.646	396.75
556.859	394.75
557.071	411.75
557.284	406.75
557.496	397.75
557.709	391.75
557.921	387.75
558.134	387.75
558.346	402.75
558.559	391.75
558.771	393.75
558.984	393.75
559.196	392.75
559.409	370.75
559.621	380.75
559.833	392.75
560.046	376.75
560.258	373.75
560.47	389.75
560.683	366.75
560.895	388.75
561.107	385.75
561.32	392.75
561.532	385.75
561.744	403.75
561.956	382.75
562.168	374.75
562.381	385.75
562.593	381.75
562.805	400.75
563.017	400.75
563.229	388.75
563.441	387.75
563.653	400.75
563.865	403.75
564.077	394.75
564.289	426.75
564.501	390.75
564.713	405.75
564.925	406.75
565.137	423.75
565.349	425.75
565.561	426.75
565.773	444.75
565.985	449.75
566.197	477.75
566.408	479.75
566.62	515.75
566.832	531.75
567.044	505.75
567.255	523.75
567.467	529.75
567.679	515.75
567.891	561.75
568.102	571.75
568.314	556.75
568.526	516.75
568.737	476.75
568.949	464.75
569.161	458.75
569.372	443.75
569.584	409.75
569.795	419.75
570.007	438.75
570.218	458.75
570.43	441.75
570.641	406.75
570.853	391.75
571.064	373.75
571.276	385.75
571.487	376.75
571.698	381.75
571.91	365.75
572.121	366.75
572.333	376.75
572.544	348.75
572.755	352.75
572.966	354.75
573.178	339.75
573.389	348.75
573.6	335.75
573.811	343.75
574.023	344.75
574.234	357.75
574.445	334.75
574.656	338.75
574.867	349.75
575.078	365.75
575.289	342.75
575.501	333.75
575.712	317.75
575.923	333.75
576.134	325.75
576.345	338.75
576.556	334.75
576.767	317.75
576.978	338.75
577.188	337.75
577.399	329.75
577.61	310.75
577.821	323.75
578.032	335.75
578.243	336.75
578.454	545.75
578.665	433.75
578.875	324.75
579.086	290.75
579.297	315.75
579.508	330.75
579.718	298.75
579.929	298.75
580.14	314.75
580.35	305.75
580.561	301.75
580.772	299.75
580.982	295.75
581.193	324.75
581.403	309.75
581.614	298.75
581.825	314.75
582.035	303.75
582.246	308.75
582.456	287.75
582.667	310.75
582.877	284.75
583.087	293.75
583.298	312.75
583.508	308.75
583.719	310.75
583.929	292.75
584.139	295.75
584.35	296.75
584.56	311.75
584.77	299.75
584.981	301.75
585.191	302.75
585.401	308.75
585.611	308.75
585.821	310.75
586.032	322.75
586.242	298.75
586.452	307.75
586.662	312.75
586.872	286.75
587.082	297.75
587.292	305.75
587.502	294.75
587.713	295.75
587.923	292.75
588.133	282.75
588.343	307.75
588.553	282.75
588.762	289.75
588.972	302.75
589.182	283.75
589.392	296.75
589.602	290.75
589.812	306.75
590.022	312.75
590.232	312.75
590.441	310.75
590.651	296.75
590.861	286.75
591.071	313.75
591.281	287.75
591.49	308.75
591.7	309.75
591.91	314.75
592.119	317.75
592.329	299.75
592.539	319.75
592.748	336.75
592.958	311.75
593.167	336.75
593.377	330.75
593.587	332.75
593.796	303.75
594.006	317.75
594.215	327.75
594.424	320.75
594.634	332.75
594.843	313.75
595.053	332.75
595.262	317.75
595.472	297.75
595.681	287.75
595.89	299.75
596.1	296.75
596.309	267.75
596.518	294.75
596.727	282.75
596.937	264.75
597.146	282.75
597.355	269.75
597.564	290.75
597.774	278.75
597.983	267.75
598.192	260.75
598.401	250.75
598.61	262.75
598.819	260.75
599.028	268.75
599.237	262.75
599.446	262.75
599.655	249.75
599.864	249.75
600.073	243.75
600.282	259.75
600.491	264.75
600.7	246.75
600.909	256.75
601.118	255.75
601.327	278.75
601.536	261.75
601.745	236.75
601.953	236.75
602.162	260.75
602.371	251.75
602.58	245.75
602.789	251.75
602.997	239.75
603.206	247.75
603.415	248.75
603.623	246.75
603.832	258.75
604.041	235.75
604.249	265.75
604.458	235.75
604.666	253.75
604.875	233.75
605.084	246.75
605.292	239.75
605.501	243.75
605.709	231.75
605.918	229.75
606.126	228.75
606.334	249.75
606.543	249.75
606.751	254.75
606.96	250.75
607.168	255.75
607.376	232.75
607.585	254.75
607.793	245.75
608.001	243.75
608.21	239.75
608.418	253.75
608.626	231.75
608.834	249.75
609.043	242.75
609.251	246.75
609.459	231.75
609.667	241.75
609.875	224.75
610.083	229.75
610.291	234.75
610.499	242.75
610.707	237.75
610.916	242.75
611.124	257.75
611.332	261.75
611.54	254.75
611.748	261.75
611.955	238.75
612.163	223.75
612.371	225.75
612.579	241.75
612.787	220.75
612.995	215.75
613.203	228.75
613.411	249.75
613.618	248.75
613.826	232.75
614.034	216.75
614.242	233.75
614.449	227.75
614.657	221.75
614.865	221.75
615.072	218.75
615.28	220.75
615.488	237.75
615.695	237.75
615.903	236.75
616.111	244.75
616.318	258.75
616.526	210.75
616.733	236.75
616.941	231.75
617.148	219.75
617.356	226.75
617.563	233.75
617.771	228.75
617.978	219.75
618.185	227.75
618.393	229.75
618.6	236.75
618.807	226.75
619.015	219.75
619.222	218.75
619.429	234.75
619.637	221.75
619.844	227.75
620.051	232.75
620.258	239.75
620.466	210.75
620.673	229.75
620.88	209.75
621.087	214.75
621.294	218.75
621.501	214.75
621.708	207.75
621.915	204.75
622.122	198.75
622.329	198.75
622.536	202.75
622.743	201.75
622.95	215.75
623.157	209.75
623.364	217.75
623.571	205.75
623.778	223.75
623.985	212.75
624.192	225.75
624.399	204.75
624.606	226.75
624.812	221.75
625.019	211.75
625.226	210.75
625.433	219.75
625.639	202.75
625.846	198.75
626.053	207.75
626.259	212.75
626.466	202.75
626.673	195.75
626.879	195.75
627.086	217.75
627.293	195.75
627.499	197.75
627.706	202.75
627.912	204.75
628.119	201.75
628.325	196.75
628.532	188.75
628.738	195.75
628.945	200.75
629.151	193.75
629.357	195.75
629.564	202.75
629.77	206.75
629.976	199.75
630.183	184.75
630.389	190.75
630.595	185.75
630.802	167.75
631.008	184.75
631.214	181.75
631.42	188.75
631.627	213.75
631.833	202.75
632.039	181.75
632.245	171.75
632.451	165.75
632.657	189.75
632.863	190.75
633.069	187.75
633.275	180.75
633.481	181.75
633.688	183.75
633.893	183.75
634.099	171.75
634.305	171.75
634.511	173.75
634.717	197.75
634.923	184.75
635.129	179.75
635.335	165.75
635.541	172.75
635.747	178.75
635.952	175.75
636.158	179.75
636.364	180.75
636.57	184.75
636.775	177.75
636.981	178.75
637.187	179.75
637.392	182.75
637.598	174.75
637.804	181.75
638.009	167.75
638.215	174.75
638.421	164.75
638.626	166.75
638.832	181.75
639.037	159.75
639.243	177.75
639.448	176.75
639.654	180.75
639.859	170.75
640.065	184.75
640.27	185.75
640.475	166.75
640.681	173.75
640.886	163.75
641.091	171.75
641.297	186.75
641.502	168.75
641.707	175.75
641.913	162.75
642.118	171.75
642.323	167.75
642.528	181.75
642.733	178.75
642.939	157.75
643.144	178.75
643.349	151.75
643.554	165.75
643.759	161.75
643.964	165.75
644.169	165.75
644.374	163.75
644.579	169.75
644.784	163.75
644.989	162.75
645.194	162.75
645.399	174.75
645.604	171.75
645.809	163.75
646.014	155.75
646.219	159.75
646.423	164.75
646.628	181.75
646.833	167.75
647.038	160.75
647.243	148.75
647.447	164.75
647.652	173.75
647.857	166.75
648.062	162.75
648.266	172.75
648.471	163.75
648.676	171.75
648.88	181.75
649.085	162.75
649.289	172.75
649.494	147.75
649.698	187.75
649.903	185.75
650.107	169.75
650.312	158.75
650.516	158.75
650.721	155.75
650.925	157.75
651.13	157.75
651.334	155.75
651.539	147.75
651.743	152.75
651.947	164.75
652.152	148.75
652.356	149.75
652.56	165.75
652.764	145.75
652.969	141.75
653.173	126.75
653.377	141.75
653.581	132.75
653.785	134.75
653.99	138.75
654.194	140.75
654.398	141.75
654.602	141.75
654.806	140.75
655.01	160.75
655.214	144.75
655.418	148.75
655.622	135.75
655.826	157.75
656.03	143.75
656.234	152.75
656.438	139.75
656.642	149.75
656.846	134.75
657.049	134.75
657.253	119.75
657.457	129.75
657.661	129.75
657.865	107.75
658.068	99.75
658.272	107.75
658.476	96.75
658.68	118.75
658.883	98.75
659.087	100.75
659.291	102.75
659.494	96.75
659.698	105.75
659.901	109.75
660.105	105.75
660.309	95.75
660.512	95.75
660.716	76.75
660.919	95.75
661.123	97.75
661.326	101.75
661.53	91.75
661.733	112.75
661.936	92.75
662.14	86.75
662.343	91.75
662.546	80.75
662.75	75.75
662.953	88.75
663.156	95.75
663.36	93.75
663.563	88.75
663.766	87.75
663.969	83.75
664.173	86.75
664.376	93.75
664.579	90.75
664.782	99.75
664.985	88.75
665.188	91.75
665.391	86.75
665.594	86.75
665.797	86.75
666	73.75
666.203	86.75
666.406	89.75
666.609	82.75
666.812	75.75
667.015	101.75
667.218	81.75
667.421	71.75
667.624	90.75
667.827	86.75
668.03	88.75
668.232	87.75
668.435	68.75
668.638	86.75
668.841	77.75
669.043	87.75
669.246	78.75
669.449	91.75
669.651	85.75
669.854	73.75
670.057	86.75
670.259	77.75
670.462	91.75
670.665	76.75
670.867	86.75
671.07	85.75
671.272	79.75
671.475	89.75
671.677	88.75
671.88	86.75
672.082	75.75
672.284	74.75
672.487	103.75
672.689	70.75
672.892	84.75
