Data from 1986.PennyLincolnUp.Lamp.En5.5.200Scan.071819.P2_HRD10591_17-11-46-973.txt Node
Date: Thu Jul 18 17:11:46 EDT 2019
User: cochatt
Spectrometer: HR+D1059
Trigger mode: 1
Integration Time (sec): 1.000000E-1
Scans to average: 1
Electric dark correction enabled: true
Nonlinearity correction enabled: false
Boxcar width: 0
XAxis mode: Wavelengths
Number of Pixels in Spectrum: 2048
>>>>>Begin Spectral Data<<<<<
223.165	-2.44
223.4	-2.44
223.635	-2.44
223.869	-10.44
224.104	-17.44
224.338	-8.44
224.573	-23.44
224.808	-18.44
225.042	-9.44
225.277	-16.44
225.511	9.56
225.746	-8.44
225.98	7.56
226.215	4.56
226.449	12.56
226.683	28.56
226.918	26.56
227.152	25.56
227.387	27.56
227.621	42.56
227.856	43.56
228.09	46.56
228.324	60.56
228.559	63.56
228.793	71.56
229.027	105.56
229.262	124.56
229.496	121.56
229.73	157.56
229.964	158.56
230.199	156.56
230.433	108.56
230.667	116.56
230.901	119.56
231.136	126.56
231.37	121.56
231.604	113.56
231.838	108.56
232.072	126.56
232.306	126.56
232.541	122.56
232.775	117.56
233.009	115.56
233.243	113.56
233.477	111.56
233.711	107.56
233.945	121.56
234.179	117.56
234.413	123.56
234.647	133.56
234.881	126.56
235.115	106.56
235.349	109.56
235.583	127.56
235.817	119.56
236.051	118.56
236.285	122.56
236.519	117.56
236.753	136.56
236.987	149.56
237.221	206.56
237.455	237.56
237.689	211.56
237.922	157.56
238.156	143.56
238.39	120.56
238.624	124.56
238.858	131.56
239.091	138.56
239.325	131.56
239.559	131.56
239.793	133.56
240.027	136.56
240.26	159.56
240.494	167.56
240.728	149.56
240.961	164.56
241.195	152.56
241.429	133.56
241.662	138.56
241.896	134.56
242.13	141.56
242.363	142.56
242.597	149.56
242.83	153.56
243.064	140.56
243.298	145.56
243.531	159.56
243.765	150.56
243.998	139.56
244.232	153.56
244.465	153.56
244.699	146.56
244.932	141.56
245.166	151.56
245.399	143.56
245.633	167.56
245.866	145.56
246.099	167.56
246.333	164.56
246.566	171.56
246.8	161.56
247.033	151.56
247.266	159.56
247.5	172.56
247.733	181.56
247.966	173.56
248.2	188.56
248.433	188.56
248.666	200.56
248.899	212.56
249.133	231.56
249.366	232.56
249.599	222.56
249.832	216.56
250.066	186.56
250.299	226.56
250.532	228.56
250.765	245.56
250.998	264.56
251.231	273.56
251.465	241.56
251.698	231.56
251.931	217.56
252.164	221.56
252.397	219.56
252.63	237.56
252.863	234.56
253.096	246.56
253.329	261.56
253.562	238.56
253.795	269.56
254.028	231.56
254.261	238.56
254.494	259.56
254.727	271.56
254.96	291.56
255.193	302.56
255.426	283.56
255.659	279.56
255.892	280.56
256.124	300.56
256.357	340.56
256.59	313.56
256.823	251.56
257.056	279.56
257.289	257.56
257.521	248.56
257.754	244.56
257.987	236.56
258.22	265.56
258.452	234.56
258.685	244.56
258.918	221.56
259.151	241.56
259.383	239.56
259.616	238.56
259.849	247.56
260.081	237.56
260.314	275.56
260.547	288.56
260.779	285.56
261.012	244.56
261.244	260.56
261.477	248.56
261.71	263.56
261.942	259.56
262.175	254.56
262.407	262.56
262.64	245.56
262.872	236.56
263.105	219.56
263.337	218.56
263.57	219.56
263.802	235.56
264.035	228.56
264.267	236.56
264.499	212.56
264.732	208.56
264.964	207.56
265.197	222.56
265.429	237.56
265.661	231.56
265.894	228.56
266.126	232.56
266.358	230.56
266.591	226.56
266.823	243.56
267.055	243.56
267.287	261.56
267.52	228.56
267.752	232.56
267.984	245.56
268.216	248.56
268.448	233.56
268.681	252.56
268.913	262.56
269.145	272.56
269.377	293.56
269.609	302.56
269.841	304.56
270.073	297.56
270.306	318.56
270.538	327.56
270.77	343.56
271.002	319.56
271.234	306.56
271.466	319.56
271.698	318.56
271.93	325.56
272.162	342.56
272.394	346.56
272.626	339.56
272.858	295.56
273.09	303.56
273.322	287.56
273.553	290.56
273.785	287.56
274.017	284.56
274.249	287.56
274.481	299.56
274.713	287.56
274.945	284.56
275.176	272.56
275.408	291.56
275.64	263.56
275.872	284.56
276.104	273.56
276.335	273.56
276.567	288.56
276.799	314.56
277.031	309.56
277.262	334.56
277.494	343.56
277.726	321.56
277.957	312.56
278.189	296.56
278.421	288.56
278.652	288.56
278.884	292.56
279.115	281.56
279.347	275.56
279.579	279.56
279.81	270.56
280.042	272.56
280.273	281.56
280.505	301.56
280.736	285.56
280.968	266.56
281.199	266.56
281.431	269.56
281.662	272.56
281.894	275.56
282.125	286.56
282.356	289.56
282.588	335.56
282.819	334.56
283.051	292.56
283.282	275.56
283.513	305.56
283.745	274.56
283.976	284.56
284.207	301.56
284.439	295.56
284.67	281.56
284.901	289.56
285.132	293.56
285.364	296.56
285.595	267.56
285.826	271.56
286.057	281.56
286.288	269.56
286.52	283.56
286.751	285.56
286.982	276.56
287.213	284.56
287.444	298.56
287.675	276.56
287.906	313.56
288.138	322.56
288.369	323.56
288.6	322.56
288.831	309.56
289.062	288.56
289.293	289.56
289.524	303.56
289.755	277.56
289.986	277.56
290.217	292.56
290.448	292.56
290.679	283.56
290.91	296.56
291.141	293.56
291.371	297.56
291.602	294.56
291.833	282.56
292.064	271.56
292.295	286.56
292.526	301.56
292.757	288.56
292.987	295.56
293.218	277.56
293.449	308.56
293.68	296.56
293.91	308.56
294.141	281.56
294.372	290.56
294.603	296.56
294.833	291.56
295.064	283.56
295.295	296.56
295.525	303.56
295.756	305.56
295.987	307.56
296.217	337.56
296.448	368.56
296.679	311.56
296.909	299.56
297.14	288.56
297.37	291.56
297.601	308.56
297.831	298.56
298.062	309.56
298.292	291.56
298.523	303.56
298.753	291.56
298.984	309.56
299.214	299.56
299.445	308.56
299.675	323.56
299.905	296.56
300.136	304.56
300.366	313.56
300.597	303.56
300.827	322.56
301.057	326.56
301.288	339.56
301.518	329.56
301.748	320.56
301.979	311.56
302.209	335.56
302.439	337.56
302.669	325.56
302.9	318.56
303.13	320.56
303.36	336.56
303.59	321.56
303.82	333.56
304.051	362.56
304.281	327.56
304.511	319.56
304.741	319.56
304.971	335.56
305.201	332.56
305.431	335.56
305.661	318.56
305.891	318.56
306.121	318.56
306.352	340.56
306.582	351.56
306.812	329.56
307.042	349.56
307.272	350.56
307.502	332.56
307.731	344.56
307.961	340.56
308.191	330.56
308.421	350.56
308.651	329.56
308.881	348.56
309.111	340.56
309.341	352.56
309.571	368.56
309.8	364.56
310.03	372.56
310.26	368.56
310.49	381.56
310.72	396.56
310.949	409.56
311.179	422.56
311.409	380.56
311.639	359.56
311.868	379.56
312.098	394.56
312.328	405.56
312.557	406.56
312.787	423.56
313.017	413.56
313.246	405.56
313.476	380.56
313.706	381.56
313.935	394.56
314.165	401.56
314.394	409.56
314.624	419.56
314.853	405.56
315.083	382.56
315.312	371.56
315.542	383.56
315.771	372.56
316.001	384.56
316.23	381.56
316.46	400.56
316.689	399.56
316.919	368.56
317.148	372.56
317.377	386.56
317.607	407.56
317.836	394.56
318.065	390.56
318.295	391.56
318.524	366.56
318.753	383.56
318.983	386.56
319.212	391.56
319.441	400.56
319.67	396.56
319.9	382.56
320.129	388.56
320.358	407.56
320.587	384.56
320.816	410.56
321.046	408.56
321.275	428.56
321.504	412.56
321.733	417.56
321.962	415.56
322.191	429.56
322.42	454.56
322.649	476.56
322.878	479.56
323.108	494.56
323.337	538.56
323.566	536.56
323.795	599.56
324.024	665.56
324.253	815.56
324.482	1110.56
324.71	1729.56
324.939	2471.56
325.168	2187.56
325.397	1165.56
325.626	765.56
325.855	651.56
326.084	568.56
326.313	567.56
326.542	582.56
326.77	643.56
326.999	746.56
327.228	1039.56
327.457	1549.56
327.686	1907.56
327.914	1290.56
328.143	880.56
328.372	773.56
328.6	731.56
328.829	675.56
329.058	675.56
329.287	671.56
329.515	629.56
329.744	625.56
329.972	648.56
330.201	703.56
330.43	785.56
330.658	814.56
330.887	762.56
331.115	717.56
331.344	619.56
331.572	550.56
331.801	557.56
332.03	546.56
332.258	530.56
332.486	515.56
332.715	496.56
332.943	493.56
333.172	501.56
333.4	510.56
333.629	497.56
333.857	563.56
334.085	592.56
334.314	657.56
334.542	785.56
334.771	847.56
334.999	681.56
335.227	542.56
335.455	531.56
335.684	502.56
335.912	490.56
336.14	469.56
336.369	466.56
336.597	475.56
336.825	459.56
337.053	453.56
337.281	437.56
337.51	436.56
337.738	442.56
337.966	440.56
338.194	461.56
338.422	456.56
338.65	451.56
338.878	451.56
339.106	421.56
339.334	433.56
339.562	433.56
339.79	413.56
340.018	431.56
340.246	434.56
340.474	459.56
340.702	450.56
340.93	423.56
341.158	442.56
341.386	407.56
341.614	432.56
341.842	428.56
342.07	415.56
342.298	419.56
342.526	415.56
342.754	403.56
342.981	395.56
343.209	404.56
343.437	409.56
343.665	424.56
343.893	422.56
344.12	399.56
344.348	408.56
344.576	413.56
344.804	432.56
345.031	442.56
345.259	456.56
345.487	441.56
345.714	407.56
345.942	432.56
346.17	407.56
346.397	411.56
346.625	427.56
346.853	414.56
347.08	421.56
347.308	409.56
347.535	432.56
347.763	443.56
347.99	434.56
348.218	419.56
348.445	433.56
348.673	456.56
348.9	449.56
349.128	411.56
349.355	403.56
349.583	383.56
349.81	397.56
350.037	392.56
350.265	411.56
350.492	394.56
350.72	383.56
350.947	398.56
351.174	411.56
351.402	413.56
351.629	420.56
351.856	407.56
352.083	400.56
352.311	429.56
352.538	414.56
352.765	428.56
352.992	423.56
353.22	416.56
353.447	424.56
353.674	375.56
353.901	380.56
354.128	380.56
354.355	374.56
354.583	384.56
354.81	363.56
355.037	379.56
355.264	363.56
355.491	363.56
355.718	359.56
355.945	360.56
356.172	381.56
356.399	360.56
356.626	370.56
356.853	397.56
357.08	363.56
357.307	363.56
357.534	382.56
357.761	375.56
357.988	392.56
358.215	374.56
358.441	380.56
358.668	380.56
358.895	380.56
359.122	366.56
359.349	387.56
359.576	429.56
359.802	459.56
360.029	465.56
360.256	479.56
360.483	475.56
360.709	412.56
360.936	408.56
361.163	412.56
361.39	412.56
361.616	425.56
361.843	418.56
362.07	419.56
362.296	399.56
362.523	416.56
362.749	409.56
362.976	410.56
363.203	408.56
363.429	381.56
363.656	401.56
363.882	391.56
364.109	384.56
364.335	406.56
364.562	377.56
364.788	378.56
365.015	388.56
365.241	389.56
365.468	397.56
365.694	399.56
365.92	406.56
366.147	391.56
366.373	387.56
366.599	402.56
366.826	377.56
367.052	359.56
367.278	373.56
367.505	381.56
367.731	390.56
367.957	379.56
368.184	377.56
368.41	398.56
368.636	391.56
368.862	409.56
369.089	388.56
369.315	378.56
369.541	387.56
369.767	392.56
369.993	375.56
370.219	384.56
370.445	389.56
370.672	374.56
370.898	379.56
371.124	371.56
371.35	368.56
371.576	359.56
371.802	376.56
372.028	365.56
372.254	379.56
372.48	410.56
372.706	369.56
372.932	340.56
373.158	359.56
373.384	385.56
373.61	381.56
373.835	378.56
374.061	377.56
374.287	359.56
374.513	375.56
374.739	359.56
374.965	361.56
375.191	366.56
375.416	373.56
375.642	383.56
375.868	378.56
376.094	365.56
376.319	369.56
376.545	372.56
376.771	363.56
376.997	355.56
377.222	354.56
377.448	357.56
377.674	371.56
377.899	353.56
378.125	380.56
378.35	381.56
378.576	357.56
378.802	372.56
379.027	354.56
379.253	376.56
379.478	347.56
379.704	366.56
379.929	353.56
380.155	373.56
380.38	365.56
380.606	361.56
380.831	347.56
381.057	383.56
381.282	363.56
381.507	373.56
381.733	391.56
381.958	375.56
382.184	361.56
382.409	360.56
382.634	365.56
382.86	365.56
383.085	351.56
383.31	401.56
383.535	383.56
383.761	379.56
383.986	392.56
384.211	383.56
384.436	379.56
384.662	374.56
384.887	371.56
385.112	367.56
385.337	385.56
385.562	385.56
385.787	396.56
386.013	407.56
386.238	387.56
386.463	384.56
386.688	384.56
386.913	400.56
387.138	396.56
387.363	403.56
387.588	359.56
387.813	360.56
388.038	375.56
388.263	389.56
388.488	399.56
388.713	404.56
388.938	375.56
389.163	387.56
389.387	396.56
389.612	393.56
389.837	379.56
390.062	384.56
390.287	386.56
390.512	387.56
390.736	373.56
390.961	379.56
391.186	390.56
391.411	368.56
391.636	377.56
391.86	400.56
392.085	397.56
392.31	393.56
392.534	393.56
392.759	391.56
392.984	402.56
393.208	384.56
393.433	381.56
393.658	381.56
393.882	377.56
394.107	379.56
394.331	384.56
394.556	385.56
394.78	373.56
395.005	378.56
395.229	384.56
395.454	368.56
395.678	377.56
395.903	424.56
396.127	424.56
396.352	436.56
396.576	422.56
396.801	389.56
397.025	382.56
397.249	401.56
397.474	397.56
397.698	415.56
397.922	423.56
398.147	435.56
398.371	426.56
398.595	420.56
398.82	415.56
399.044	424.56
399.268	438.56
399.492	468.56
399.717	468.56
399.941	506.56
400.165	512.56
400.389	523.56
400.613	494.56
400.837	455.56
401.062	455.56
401.286	438.56
401.51	442.56
401.734	446.56
401.958	439.56
402.182	441.56
402.406	442.56
402.63	466.56
402.854	454.56
403.078	440.56
403.302	465.56
403.526	452.56
403.75	486.56
403.974	448.56
404.198	454.56
404.422	429.56
404.645	468.56
404.869	475.56
405.093	535.56
405.317	569.56
405.541	614.56
405.765	550.56
405.988	544.56
406.212	509.56
406.436	515.56
406.66	545.56
406.883	524.56
407.107	536.56
407.331	557.56
407.555	607.56
407.778	594.56
408.002	551.56
408.226	509.56
408.449	503.56
408.673	534.56
408.896	534.56
409.12	574.56
409.344	544.56
409.567	481.56
409.791	473.56
410.014	473.56
410.238	456.56
410.461	455.56
410.685	470.56
410.908	464.56
411.132	513.56
411.355	545.56
411.578	536.56
411.802	466.56
412.025	473.56
412.249	485.56
412.472	533.56
412.695	576.56
412.919	567.56
413.142	522.56
413.365	489.56
413.589	473.56
413.812	457.56
414.035	436.56
414.258	447.56
414.482	433.56
414.705	429.56
414.928	449.56
415.151	423.56
415.374	443.56
415.597	424.56
415.821	427.56
416.044	446.56
416.267	426.56
416.49	433.56
416.713	441.56
416.936	423.56
417.159	443.56
417.382	440.56
417.605	470.56
417.828	459.56
418.051	476.56
418.274	495.56
418.497	440.56
418.72	439.56
418.943	446.56
419.166	467.56
419.389	461.56
419.611	483.56
419.834	479.56
420.057	485.56
420.28	486.56
420.503	488.56
420.726	502.56
420.948	508.56
421.171	584.56
421.394	551.56
421.617	521.56
421.839	483.56
422.062	466.56
422.285	489.56
422.507	547.56
422.73	612.56
422.953	591.56
423.175	509.56
423.398	515.56
423.621	472.56
423.843	505.56
424.066	516.56
424.288	509.56
424.511	515.56
424.733	580.56
424.956	659.56
425.178	643.56
425.401	617.56
425.623	663.56
425.846	549.56
426.068	515.56
426.291	502.56
426.513	496.56
426.735	523.56
426.958	571.56
427.18	644.56
427.402	773.56
427.625	887.56
427.847	793.56
428.069	696.56
428.292	617.56
428.514	541.56
428.736	513.56
428.958	518.56
429.181	470.56
429.403	483.56
429.625	481.56
429.847	522.56
430.069	606.56
430.292	583.56
430.514	517.56
430.736	474.56
430.958	471.56
431.18	440.56
431.402	446.56
431.624	429.56
431.846	427.56
432.068	430.56
432.29	440.56
432.512	449.56
432.734	459.56
432.956	443.56
433.178	463.56
433.4	461.56
433.622	441.56
433.844	453.56
434.066	427.56
434.287	429.56
434.509	444.56
434.731	427.56
434.953	455.56
435.175	479.56
435.397	497.56
435.618	513.56
435.84	556.56
436.062	666.56
436.284	717.56
436.505	596.56
436.727	526.56
436.949	498.56
437.17	482.56
437.392	467.56
437.614	501.56
437.835	543.56
438.057	624.56
438.278	715.56
438.5	727.56
438.721	819.56
438.943	735.56
439.165	587.56
439.386	526.56
439.608	539.56
439.829	542.56
440.05	582.56
440.272	597.56
440.493	591.56
440.715	529.56
440.936	502.56
441.158	472.56
441.379	473.56
441.6	500.56
441.822	496.56
442.043	545.56
442.264	630.56
442.486	673.56
442.707	576.56
442.928	521.56
443.149	539.56
443.371	563.56
443.592	616.56
443.813	676.56
444.034	741.56
444.255	609.56
444.476	525.56
444.698	498.56
444.919	494.56
445.14	586.56
445.361	580.56
445.582	570.56
445.803	635.56
446.024	736.56
446.245	725.56
446.466	685.56
446.687	586.56
446.908	543.56
447.129	492.56
447.35	473.56
447.571	468.56
447.792	469.56
448.013	491.56
448.234	514.56
448.455	547.56
448.675	661.56
448.896	786.56
449.117	671.56
449.338	627.56
449.559	732.56
449.779	800.56
450	656.56
450.221	551.56
450.442	512.56
450.662	493.56
450.883	484.56
451.104	489.56
451.324	495.56
451.545	468.56
451.766	458.56
451.986	445.56
452.207	424.56
452.428	439.56
452.648	422.56
452.869	430.56
453.089	444.56
453.31	441.56
453.53	426.56
453.751	418.56
453.971	446.56
454.192	477.56
454.412	427.56
454.633	432.56
454.853	426.56
455.073	428.56
455.294	465.56
455.514	507.56
455.734	506.56
455.955	443.56
456.175	420.56
456.395	401.56
456.616	411.56
456.836	392.56
457.056	397.56
457.276	406.56
457.497	409.56
457.717	419.56
457.937	387.56
458.157	407.56
458.377	421.56
458.598	441.56
458.818	504.56
459.038	595.56
459.258	599.56
459.478	517.56
459.698	441.56
459.918	435.56
460.138	429.56
460.358	426.56
460.578	400.56
460.798	435.56
461.018	445.56
461.238	416.56
461.458	431.56
461.678	417.56
461.898	418.56
462.118	423.56
462.338	452.56
462.558	432.56
462.777	435.56
462.997	445.56
463.217	433.56
463.437	442.56
463.657	440.56
463.876	440.56
464.096	455.56
464.316	457.56
464.536	464.56
464.755	460.56
464.975	452.56
465.195	508.56
465.414	638.56
465.634	541.56
465.854	504.56
466.073	447.56
466.293	469.56
466.512	455.56
466.732	427.56
466.951	408.56
467.171	419.56
467.391	448.56
467.61	441.56
467.829	449.56
468.049	484.56
468.268	495.56
468.488	465.56
468.707	442.56
468.927	439.56
469.146	428.56
469.365	411.56
469.585	423.56
469.804	447.56
470.023	438.56
470.243	442.56
470.462	447.56
470.681	473.56
470.901	478.56
471.12	446.56
471.339	453.56
471.558	462.56
471.777	460.56
471.997	452.56
472.216	489.56
472.435	631.56
472.654	585.56
472.873	496.56
473.092	480.56
473.311	479.56
473.53	466.56
473.749	483.56
473.968	511.56
474.187	629.56
474.406	622.56
474.625	517.56
474.844	480.56
475.063	436.56
475.282	463.56
475.501	453.56
475.72	452.56
475.939	476.56
476.158	455.56
476.377	457.56
476.596	465.56
476.814	476.56
477.033	475.56
477.252	465.56
477.471	497.56
477.69	457.56
477.908	471.56
478.127	485.56
478.346	470.56
478.564	494.56
478.783	491.56
479.002	493.56
479.22	504.56
479.439	507.56
479.658	549.56
479.876	529.56
480.095	560.56
480.313	577.56
480.532	555.56
480.751	578.56
480.969	621.56
481.188	807.56
481.406	960.56
481.624	715.56
481.843	632.56
482.061	600.56
482.28	560.56
482.498	565.56
482.717	532.56
482.935	544.56
483.153	540.56
483.372	541.56
483.59	531.56
483.808	533.56
484.027	543.56
484.245	518.56
484.463	559.56
484.681	569.56
484.9	563.56
485.118	551.56
485.336	563.56
485.554	550.56
485.772	549.56
485.99	535.56
486.209	560.56
486.427	562.56
486.645	578.56
486.863	590.56
487.081	592.56
487.299	565.56
487.517	588.56
487.735	589.56
487.953	586.56
488.171	541.56
488.389	560.56
488.607	573.56
488.825	608.56
489.043	565.56
489.261	579.56
489.479	606.56
489.696	587.56
489.914	597.56
490.132	619.56
490.35	608.56
490.568	629.56
490.786	631.56
491.003	641.56
491.221	652.56
491.439	663.56
491.657	641.56
491.874	674.56
492.092	695.56
492.31	677.56
492.527	679.56
492.745	720.56
492.963	696.56
493.18	732.56
493.398	686.56
493.615	731.56
493.833	709.56
494.05	718.56
494.268	697.56
494.485	704.56
494.703	709.56
494.92	725.56
495.138	685.56
495.355	697.56
495.573	711.56
495.79	707.56
496.008	694.56
496.225	688.56
496.442	667.56
496.66	679.56
496.877	688.56
497.094	679.56
497.312	677.56
497.529	722.56
497.746	714.56
497.963	704.56
498.181	723.56
498.398	738.56
498.615	727.56
498.832	730.56
499.049	732.56
499.267	767.56
499.484	761.56
499.701	774.56
499.918	791.56
500.135	789.56
500.352	814.56
500.569	829.56
500.786	853.56
501.003	837.56
501.22	824.56
501.437	800.56
501.654	782.56
501.871	810.56
502.088	785.56
502.305	773.56
502.522	782.56
502.739	720.56
502.956	703.56
503.172	719.56
503.389	721.56
503.606	709.56
503.823	711.56
504.04	679.56
504.256	685.56
504.473	675.56
504.69	661.56
504.907	679.56
505.123	666.56
505.34	675.56
505.557	651.56
505.773	660.56
505.99	688.56
506.207	658.56
506.423	661.56
506.64	659.56
506.856	640.56
507.073	645.56
507.289	644.56
507.506	645.56
507.722	651.56
507.939	689.56
508.155	667.56
508.372	653.56
508.588	643.56
508.805	645.56
509.021	629.56
509.238	647.56
509.454	634.56
509.67	635.56
509.887	632.56
510.103	624.56
510.319	628.56
510.536	750.56
510.752	1310.56
510.968	1080.56
511.184	681.56
511.401	641.56
511.617	625.56
511.833	633.56
512.049	647.56
512.265	656.56
512.481	630.56
512.698	631.56
512.914	639.56
513.13	634.56
513.346	622.56
513.562	615.56
513.778	620.56
513.994	638.56
514.21	623.56
514.426	653.56
514.642	709.56
514.858	746.56
515.074	763.56
515.29	942.56
515.506	1447.56
515.721	1179.56
515.937	779.56
516.153	700.56
516.369	658.56
516.585	641.56
516.801	605.56
517.016	608.56
517.232	621.56
517.448	619.56
517.664	604.56
517.879	589.56
518.095	596.56
518.311	589.56
518.527	578.56
518.742	595.56
518.958	589.56
519.173	597.56
519.389	596.56
519.605	617.56
519.82	610.56
520.036	607.56
520.251	650.56
520.467	681.56
520.682	667.56
520.898	691.56
521.113	718.56
521.329	784.56
521.544	867.56
521.76	1157.56
521.975	1941.56
522.19	1898.56
522.406	992.56
522.621	739.56
522.836	654.56
523.052	605.56
523.267	593.56
523.482	617.56
523.698	554.56
523.913	584.56
524.128	555.56
524.343	550.56
524.559	546.56
524.774	543.56
524.989	513.56
525.204	530.56
525.419	529.56
525.634	523.56
525.849	515.56
526.064	495.56
526.28	508.56
526.495	502.56
526.71	476.56
526.925	493.56
527.14	479.56
527.355	478.56
527.57	495.56
527.785	481.56
527.999	487.56
528.214	495.56
528.429	496.56
528.644	465.56
528.859	502.56
529.074	475.56
529.289	511.56
529.503	603.56
529.718	596.56
529.933	525.56
530.148	497.56
530.363	504.56
530.577	470.56
530.792	472.56
531.007	463.56
531.221	457.56
531.436	448.56
531.651	473.56
531.865	467.56
532.08	447.56
532.295	465.56
532.509	438.56
532.724	461.56
532.938	471.56
533.153	460.56
533.367	443.56
533.582	438.56
533.796	450.56
534.011	447.56
534.225	433.56
534.44	449.56
534.654	445.56
534.868	439.56
535.083	451.56
535.297	457.56
535.511	446.56
535.726	443.56
535.94	460.56
536.154	432.56
536.369	444.56
536.583	446.56
536.797	447.56
537.011	431.56
537.225	419.56
537.44	439.56
537.654	442.56
537.868	441.56
538.082	445.56
538.296	447.56
538.51	435.56
538.724	445.56
538.938	426.56
539.153	446.56
539.367	437.56
539.581	474.56
539.795	446.56
540.009	428.56
540.222	439.56
540.436	453.56
540.65	429.56
540.864	447.56
541.078	465.56
541.292	454.56
541.506	441.56
541.72	448.56
541.934	429.56
542.147	425.56
542.361	410.56
542.575	432.56
542.789	414.56
543.002	415.56
543.216	450.56
543.43	411.56
543.644	423.56
543.857	435.56
544.071	415.56
544.285	426.56
544.498	425.56
544.712	411.56
544.925	428.56
545.139	441.56
545.352	432.56
545.566	412.56
545.779	389.56
545.993	413.56
546.206	412.56
546.42	420.56
546.633	411.56
546.847	402.56
547.06	407.56
547.274	429.56
547.487	419.56
547.7	408.56
547.914	401.56
548.127	406.56
548.34	402.56
548.554	406.56
548.767	425.56
548.98	398.56
549.193	405.56
549.407	401.56
549.62	399.56
549.833	408.56
550.046	401.56
550.259	397.56
550.473	390.56
550.686	406.56
550.899	389.56
551.112	399.56
551.325	405.56
551.538	407.56
551.751	400.56
551.964	398.56
552.177	393.56
552.39	395.56
552.603	372.56
552.816	409.56
553.029	394.56
553.242	401.56
553.455	379.56
553.667	410.56
553.88	427.56
554.093	404.56
554.306	428.56
554.519	400.56
554.732	391.56
554.944	398.56
555.157	403.56
555.37	387.56
555.583	386.56
555.795	379.56
556.008	378.56
556.221	376.56
556.433	367.56
556.646	379.56
556.859	368.56
557.071	366.56
557.284	375.56
557.496	373.56
557.709	365.56
557.921	379.56
558.134	347.56
558.346	368.56
558.559	379.56
558.771	357.56
558.984	378.56
559.196	359.56
559.409	341.56
559.621	364.56
559.833	351.56
560.046	369.56
560.258	364.56
560.47	379.56
560.683	347.56
560.895	350.56
561.107	350.56
561.32	357.56
561.532	354.56
561.744	363.56
561.956	348.56
562.168	346.56
562.381	338.56
562.593	348.56
562.805	367.56
563.017	369.56
563.229	367.56
563.441	345.56
563.653	358.56
563.865	359.56
564.077	356.56
564.289	367.56
564.501	363.56
564.713	357.56
564.925	380.56
565.137	379.56
565.349	380.56
565.561	384.56
565.773	367.56
565.985	361.56
566.197	381.56
566.408	407.56
566.62	388.56
566.832	398.56
567.044	398.56
567.255	388.56
567.467	390.56
567.679	423.56
567.891	391.56
568.102	384.56
568.314	405.56
568.526	383.56
568.737	396.56
568.949	377.56
569.161	377.56
569.372	376.56
569.584	349.56
569.795	360.56
570.007	371.56
570.218	413.56
570.43	400.56
570.641	352.56
570.853	336.56
571.064	340.56
571.276	329.56
571.487	345.56
571.698	337.56
571.91	355.56
572.121	313.56
572.333	320.56
572.544	327.56
572.755	315.56
572.966	320.56
573.178	301.56
573.389	337.56
573.6	329.56
573.811	308.56
574.023	325.56
574.234	312.56
574.445	316.56
574.656	317.56
574.867	310.56
575.078	290.56
575.289	295.56
575.501	323.56
575.712	313.56
575.923	317.56
576.134	307.56
576.345	320.56
576.556	322.56
576.767	293.56
576.978	327.56
577.188	296.56
577.399	293.56
577.61	315.56
577.821	313.56
578.032	302.56
578.243	349.56
578.454	599.56
578.665	460.56
578.875	329.56
579.086	286.56
579.297	299.56
579.508	296.56
579.718	297.56
579.929	292.56
580.14	285.56
580.35	291.56
580.561	298.56
580.772	273.56
580.982	289.56
581.193	295.56
581.403	290.56
581.614	298.56
581.825	287.56
582.035	289.56
582.246	264.56
582.456	297.56
582.667	285.56
582.877	283.56
583.087	271.56
583.298	302.56
583.508	289.56
583.719	285.56
583.929	287.56
584.139	287.56
584.35	277.56
584.56	274.56
584.77	291.56
584.981	279.56
585.191	287.56
585.401	281.56
585.611	279.56
585.821	256.56
586.032	272.56
586.242	269.56
586.452	276.56
586.662	269.56
586.872	265.56
587.082	263.56
587.292	286.56
587.502	283.56
587.713	273.56
587.923	283.56
588.133	283.56
588.343	283.56
588.553	260.56
588.762	277.56
588.972	278.56
589.182	279.56
589.392	280.56
589.602	303.56
589.812	262.56
590.022	274.56
590.232	263.56
590.441	265.56
590.651	277.56
590.861	276.56
591.071	282.56
591.281	284.56
591.49	265.56
591.7	271.56
591.91	281.56
592.119	271.56
592.329	284.56
592.539	286.56
592.748	282.56
592.958	272.56
593.167	271.56
593.377	278.56
593.587	284.56
593.796	273.56
594.006	261.56
594.215	254.56
594.424	280.56
594.634	262.56
594.843	264.56
595.053	262.56
595.262	265.56
595.472	266.56
595.681	258.56
595.89	255.56
596.1	264.56
596.309	272.56
596.518	263.56
596.727	257.56
596.937	269.56
597.146	269.56
597.355	255.56
597.564	249.56
597.774	247.56
597.983	254.56
598.192	256.56
598.401	252.56
598.61	228.56
598.819	243.56
599.028	261.56
599.237	255.56
599.446	244.56
599.655	251.56
599.864	231.56
600.073	250.56
600.282	215.56
600.491	242.56
600.7	233.56
600.909	235.56
601.118	248.56
601.327	248.56
601.536	262.56
601.745	250.56
601.953	253.56
602.162	250.56
602.371	237.56
602.58	245.56
602.789	240.56
602.997	255.56
603.206	241.56
603.415	231.56
603.623	246.56
603.832	211.56
604.041	233.56
604.249	221.56
604.458	243.56
604.666	236.56
604.875	238.56
605.084	231.56
605.292	246.56
605.501	233.56
605.709	222.56
605.918	239.56
606.126	226.56
606.334	230.56
606.543	239.56
606.751	224.56
606.96	231.56
607.168	247.56
607.376	241.56
607.585	243.56
607.793	227.56
608.001	242.56
608.21	236.56
608.418	216.56
608.626	209.56
608.834	214.56
609.043	230.56
609.251	231.56
609.459	237.56
609.667	248.56
609.875	232.56
610.083	231.56
610.291	241.56
610.499	229.56
610.707	207.56
610.916	226.56
611.124	237.56
611.332	223.56
611.54	218.56
611.748	233.56
611.955	219.56
612.163	238.56
612.371	251.56
612.579	221.56
612.787	228.56
612.995	233.56
613.203	227.56
613.411	230.56
613.618	230.56
613.826	215.56
614.034	223.56
614.242	220.56
614.449	239.56
614.657	225.56
614.865	223.56
615.072	234.56
615.28	223.56
615.488	207.56
615.695	225.56
615.903	224.56
616.111	221.56
616.318	230.56
616.526	227.56
616.733	213.56
616.941	215.56
617.148	219.56
617.356	224.56
617.563	230.56
617.771	232.56
617.978	207.56
618.185	206.56
618.393	228.56
618.6	214.56
618.807	226.56
619.015	215.56
619.222	216.56
619.429	203.56
619.637	204.56
619.844	209.56
620.051	219.56
620.258	205.56
620.466	213.56
620.673	216.56
620.88	199.56
621.087	221.56
621.294	211.56
621.501	226.56
621.708	223.56
621.915	198.56
622.122	199.56
622.329	231.56
622.536	203.56
622.743	219.56
622.95	212.56
623.157	204.56
623.364	208.56
623.571	218.56
623.778	223.56
623.985	211.56
624.192	208.56
624.399	204.56
624.606	205.56
624.812	210.56
625.019	193.56
625.226	186.56
625.433	199.56
625.639	191.56
625.846	191.56
626.053	210.56
626.259	196.56
626.466	205.56
626.673	197.56
626.879	199.56
627.086	190.56
627.293	200.56
627.499	196.56
627.706	209.56
627.912	196.56
628.119	183.56
628.325	186.56
628.532	196.56
628.738	204.56
628.945	193.56
629.151	212.56
629.357	189.56
629.564	189.56
629.77	191.56
629.976	199.56
630.183	183.56
630.389	188.56
630.595	187.56
630.802	187.56
631.008	171.56
631.214	179.56
631.42	175.56
631.627	190.56
631.833	179.56
632.039	180.56
632.245	193.56
632.451	176.56
632.657	199.56
632.863	183.56
633.069	182.56
633.275	179.56
633.481	180.56
633.688	178.56
633.893	185.56
634.099	179.56
634.305	195.56
634.511	178.56
634.717	174.56
634.923	179.56
635.129	180.56
635.335	180.56
635.541	181.56
635.747	171.56
635.952	174.56
636.158	169.56
636.364	199.56
636.57	200.56
636.775	186.56
636.981	193.56
637.187	180.56
637.392	181.56
637.598	170.56
637.804	173.56
638.009	179.56
638.215	185.56
638.421	186.56
638.626	171.56
638.832	174.56
639.037	169.56
639.243	188.56
639.448	175.56
639.654	182.56
639.859	180.56
640.065	170.56
640.27	176.56
640.475	181.56
640.681	175.56
640.886	175.56
641.091	158.56
641.297	169.56
641.502	167.56
641.707	169.56
641.913	146.56
642.118	169.56
642.323	157.56
642.528	166.56
642.733	183.56
642.939	165.56
643.144	167.56
643.349	157.56
643.554	172.56
643.759	157.56
643.964	147.56
644.169	156.56
644.374	165.56
644.579	153.56
644.784	169.56
644.989	156.56
645.194	160.56
645.399	148.56
645.604	149.56
645.809	166.56
646.014	167.56
646.219	152.56
646.423	154.56
646.628	160.56
646.833	153.56
647.038	159.56
647.243	168.56
647.447	151.56
647.652	154.56
647.857	143.56
648.062	157.56
648.266	159.56
648.471	166.56
648.676	169.56
648.88	159.56
649.085	172.56
649.289	160.56
649.494	173.56
649.698	178.56
649.903	178.56
650.107	170.56
650.312	172.56
650.516	155.56
650.721	152.56
650.925	169.56
651.13	143.56
651.334	156.56
651.539	132.56
651.743	145.56
651.947	147.56
652.152	149.56
652.356	148.56
652.56	158.56
652.764	144.56
652.969	136.56
653.173	146.56
653.377	135.56
653.581	146.56
653.785	127.56
653.99	139.56
654.194	128.56
654.398	145.56
654.602	128.56
654.806	137.56
655.01	143.56
655.214	115.56
655.418	121.56
655.622	123.56
655.826	135.56
656.03	128.56
656.234	135.56
656.438	129.56
656.642	127.56
656.846	110.56
657.049	126.56
657.253	123.56
657.457	114.56
657.661	125.56
657.865	115.56
658.068	111.56
658.272	116.56
658.476	119.56
658.68	103.56
658.883	108.56
659.087	94.56
659.291	115.56
659.494	107.56
659.698	108.56
659.901	97.56
660.105	103.56
660.309	108.56
660.512	111.56
660.716	91.56
660.919	92.56
661.123	93.56
661.326	102.56
661.53	86.56
661.733	94.56
661.936	94.56
662.14	83.56
662.343	84.56
662.546	85.56
662.75	99.56
662.953	84.56
663.156	86.56
663.36	80.56
663.563	96.56
663.766	86.56
663.969	84.56
664.173	86.56
664.376	82.56
664.579	78.56
664.782	85.56
664.985	75.56
665.188	91.56
665.391	87.56
665.594	91.56
665.797	89.56
666	81.56
666.203	76.56
666.406	84.56
666.609	95.56
666.812	79.56
667.015	73.56
667.218	77.56
667.421	86.56
667.624	87.56
667.827	76.56
668.03	80.56
668.232	77.56
668.435	87.56
668.638	96.56
668.841	88.56
669.043	89.56
669.246	76.56
669.449	81.56
669.651	82.56
669.854	97.56
670.057	94.56
670.259	95.56
670.462	78.56
670.665	89.56
670.867	89.56
671.07	80.56
671.272	72.56
671.475	94.56
671.677	88.56
671.88	90.56
672.082	92.56
672.284	82.56
672.487	89.56
672.689	84.56
672.892	77.56
