Data from 1986.PennyLincolnUp.Lamp.En5.5.200Scan.071819.P2_HRD10591_17-10-43-973.txt Node
Date: Thu Jul 18 17:10:43 EDT 2019
User: cochatt
Spectrometer: HR+D1059
Trigger mode: 1
Integration Time (sec): 1.000000E-1
Scans to average: 1
Electric dark correction enabled: true
Nonlinearity correction enabled: false
Boxcar width: 0
XAxis mode: Wavelengths
Number of Pixels in Spectrum: 2048
>>>>>Begin Spectral Data<<<<<
223.165	-23.12
223.4	-23.12
223.635	-23.12
223.869	-30.12
224.104	-21.12
224.338	-21.12
224.573	-5.12
224.808	-12.12
225.042	-13.12
225.277	-10.12
225.511	7.88
225.746	21.88
225.98	8.88
226.215	-5.12
226.449	14.88
226.683	27.88
226.918	29.88
227.152	29.88
227.387	27.88
227.621	30.88
227.856	39.88
228.09	46.88
228.324	52.88
228.559	41.88
228.793	49.88
229.027	84.88
229.262	113.88
229.496	116.88
229.73	120.88
229.964	153.88
230.199	129.88
230.433	99.88
230.667	113.88
230.901	112.88
231.136	117.88
231.37	99.88
231.604	97.88
231.838	119.88
232.072	104.88
232.306	120.88
232.541	113.88
232.775	111.88
233.009	108.88
233.243	105.88
233.477	110.88
233.711	128.88
233.945	128.88
234.179	111.88
234.413	105.88
234.647	118.88
234.881	95.88
235.115	106.88
235.349	119.88
235.583	125.88
235.817	131.88
236.051	130.88
236.285	100.88
236.519	119.88
236.753	123.88
236.987	140.88
237.221	192.88
237.455	251.88
237.689	172.88
237.922	137.88
238.156	135.88
238.39	126.88
238.624	124.88
238.858	127.88
239.091	115.88
239.325	131.88
239.559	128.88
239.793	107.88
240.027	121.88
240.26	141.88
240.494	162.88
240.728	146.88
240.961	135.88
241.195	129.88
241.429	129.88
241.662	146.88
241.896	145.88
242.13	135.88
242.363	134.88
242.597	127.88
242.83	123.88
243.064	135.88
243.298	128.88
243.531	141.88
243.765	121.88
243.998	130.88
244.232	153.88
244.465	135.88
244.699	133.88
244.932	137.88
245.166	149.88
245.399	137.88
245.633	150.88
245.866	141.88
246.099	149.88
246.333	158.88
246.566	163.88
246.8	150.88
247.033	172.88
247.266	160.88
247.5	153.88
247.733	169.88
247.966	180.88
248.2	185.88
248.433	166.88
248.666	169.88
248.899	193.88
249.133	194.88
249.366	220.88
249.599	203.88
249.832	195.88
250.066	200.88
250.299	180.88
250.532	189.88
250.765	208.88
250.998	228.88
251.231	235.88
251.465	228.88
251.698	212.88
251.931	202.88
252.164	202.88
252.397	205.88
252.63	192.88
252.863	201.88
253.096	223.88
253.329	234.88
253.562	232.88
253.795	233.88
254.028	233.88
254.261	234.88
254.494	237.88
254.727	271.88
254.96	292.88
255.193	279.88
255.426	260.88
255.659	268.88
255.892	241.88
256.124	258.88
256.357	242.88
256.59	235.88
256.823	227.88
257.056	226.88
257.289	221.88
257.521	241.88
257.754	231.88
257.987	238.88
258.22	233.88
258.452	208.88
258.685	212.88
258.918	208.88
259.151	211.88
259.383	236.88
259.616	215.88
259.849	216.88
260.081	232.88
260.314	259.88
260.547	275.88
260.779	267.88
261.012	243.88
261.244	229.88
261.477	228.88
261.71	219.88
261.942	228.88
262.175	235.88
262.407	236.88
262.64	193.88
262.872	193.88
263.105	192.88
263.337	209.88
263.57	201.88
263.802	214.88
264.035	201.88
264.267	197.88
264.499	195.88
264.732	205.88
264.964	201.88
265.197	215.88
265.429	206.88
265.661	204.88
265.894	224.88
266.126	208.88
266.358	209.88
266.591	221.88
266.823	215.88
267.055	212.88
267.287	208.88
267.52	213.88
267.752	205.88
267.984	217.88
268.216	236.88
268.448	240.88
268.681	245.88
268.913	236.88
269.145	230.88
269.377	255.88
269.609	266.88
269.841	277.88
270.073	269.88
270.306	295.88
270.538	314.88
270.77	317.88
271.002	305.88
271.234	313.88
271.466	311.88
271.698	315.88
271.93	324.88
272.162	307.88
272.394	306.88
272.626	316.88
272.858	292.88
273.09	287.88
273.322	284.88
273.553	273.88
273.785	260.88
274.017	260.88
274.249	254.88
274.481	259.88
274.713	255.88
274.945	265.88
275.176	266.88
275.408	255.88
275.64	257.88
275.872	232.88
276.104	259.88
276.335	258.88
276.567	281.88
276.799	283.88
277.031	301.88
277.262	320.88
277.494	312.88
277.726	292.88
277.957	294.88
278.189	280.88
278.421	252.88
278.652	271.88
278.884	247.88
279.115	262.88
279.347	257.88
279.579	264.88
279.81	239.88
280.042	251.88
280.273	259.88
280.505	262.88
280.736	256.88
280.968	251.88
281.199	252.88
281.431	265.88
281.662	243.88
281.894	253.88
282.125	267.88
282.356	267.88
282.588	281.88
282.819	309.88
283.051	259.88
283.282	247.88
283.513	255.88
283.745	258.88
283.976	276.88
284.207	287.88
284.439	251.88
284.67	259.88
284.901	252.88
285.132	252.88
285.364	256.88
285.595	264.88
285.826	250.88
286.057	267.88
286.288	259.88
286.52	256.88
286.751	242.88
286.982	261.88
287.213	253.88
287.444	262.88
287.675	251.88
287.906	280.88
288.138	275.88
288.369	288.88
288.6	276.88
288.831	289.88
289.062	282.88
289.293	264.88
289.524	246.88
289.755	278.88
289.986	268.88
290.217	262.88
290.448	270.88
290.679	251.88
290.91	272.88
291.141	275.88
291.371	267.88
291.602	260.88
291.833	267.88
292.064	261.88
292.295	263.88
292.526	265.88
292.757	280.88
292.987	281.88
293.218	273.88
293.449	292.88
293.68	273.88
293.91	274.88
294.141	261.88
294.372	254.88
294.603	269.88
294.833	260.88
295.064	275.88
295.295	262.88
295.525	261.88
295.756	278.88
295.987	275.88
296.217	291.88
296.448	299.88
296.679	299.88
296.909	275.88
297.14	265.88
297.37	273.88
297.601	287.88
297.831	283.88
298.062	278.88
298.292	272.88
298.523	269.88
298.753	273.88
298.984	300.88
299.214	288.88
299.445	261.88
299.675	280.88
299.905	275.88
300.136	277.88
300.366	286.88
300.597	259.88
300.827	277.88
301.057	304.88
301.288	319.88
301.518	289.88
301.748	280.88
301.979	313.88
302.209	296.88
302.439	300.88
302.669	297.88
302.9	300.88
303.13	290.88
303.36	299.88
303.59	291.88
303.82	323.88
304.051	308.88
304.281	301.88
304.511	312.88
304.741	294.88
304.971	293.88
305.201	314.88
305.431	295.88
305.661	287.88
305.891	295.88
306.121	296.88
306.352	315.88
306.582	305.88
306.812	297.88
307.042	303.88
307.272	308.88
307.502	293.88
307.731	315.88
307.961	287.88
308.191	296.88
308.421	307.88
308.651	316.88
308.881	305.88
309.111	308.88
309.341	321.88
309.571	335.88
309.8	333.88
310.03	351.88
310.26	345.88
310.49	351.88
310.72	365.88
310.949	376.88
311.179	381.88
311.409	370.88
311.639	373.88
311.868	363.88
312.098	341.88
312.328	344.88
312.557	385.88
312.787	385.88
313.017	386.88
313.246	375.88
313.476	343.88
313.706	351.88
313.935	359.88
314.165	359.88
314.394	380.88
314.624	361.88
314.853	351.88
315.083	359.88
315.312	350.88
315.542	339.88
315.771	349.88
316.001	347.88
316.23	342.88
316.46	334.88
316.689	352.88
316.919	344.88
317.148	350.88
317.377	356.88
317.607	388.88
317.836	360.88
318.065	364.88
318.295	362.88
318.524	341.88
318.753	345.88
318.983	338.88
319.212	340.88
319.441	349.88
319.67	371.88
319.9	351.88
320.129	362.88
320.358	371.88
320.587	364.88
320.816	371.88
321.046	395.88
321.275	376.88
321.504	363.88
321.733	388.88
321.962	379.88
322.191	399.88
322.42	413.88
322.649	441.88
322.878	428.88
323.108	461.88
323.337	472.88
323.566	498.88
323.795	534.88
324.024	599.88
324.253	737.88
324.482	1066.88
324.71	1581.88
324.939	2252.88
325.168	2012.88
325.397	1084.88
325.626	717.88
325.855	571.88
326.084	500.88
326.313	521.88
326.542	525.88
326.77	563.88
326.999	675.88
327.228	925.88
327.457	1397.88
327.686	1720.88
327.914	1207.88
328.143	771.88
328.372	689.88
328.6	599.88
328.829	586.88
329.058	580.88
329.287	607.88
329.515	554.88
329.744	526.88
329.972	503.88
330.201	538.88
330.43	565.88
330.658	614.88
330.887	609.88
331.115	602.88
331.344	543.88
331.572	495.88
331.801	481.88
332.03	491.88
332.258	455.88
332.486	435.88
332.715	421.88
332.943	432.88
333.172	420.88
333.4	398.88
333.629	429.88
333.857	446.88
334.085	459.88
334.314	450.88
334.542	504.88
334.771	530.88
334.999	477.88
335.227	424.88
335.455	420.88
335.684	407.88
335.912	413.88
336.14	403.88
336.369	397.88
336.597	397.88
336.825	417.88
337.053	378.88
337.281	382.88
337.51	403.88
337.738	424.88
337.966	398.88
338.194	391.88
338.422	408.88
338.65	396.88
338.878	398.88
339.106	387.88
339.334	400.88
339.562	381.88
339.79	384.88
340.018	378.88
340.246	405.88
340.474	393.88
340.702	410.88
340.93	403.88
341.158	379.88
341.386	380.88
341.614	396.88
341.842	389.88
342.07	376.88
342.298	386.88
342.526	398.88
342.754	385.88
342.981	353.88
343.209	349.88
343.437	372.88
343.665	373.88
343.893	385.88
344.12	388.88
344.348	388.88
344.576	398.88
344.804	393.88
345.031	384.88
345.259	412.88
345.487	398.88
345.714	379.88
345.942	402.88
346.17	387.88
346.397	368.88
346.625	382.88
346.853	384.88
347.08	362.88
347.308	381.88
347.535	389.88
347.763	408.88
347.99	395.88
348.218	399.88
348.445	385.88
348.673	392.88
348.9	373.88
349.128	370.88
349.355	375.88
349.583	336.88
349.81	367.88
350.037	365.88
350.265	373.88
350.492	364.88
350.72	362.88
350.947	371.88
351.174	383.88
351.402	384.88
351.629	390.88
351.856	390.88
352.083	427.88
352.311	385.88
352.538	399.88
352.765	399.88
352.992	405.88
353.22	379.88
353.447	373.88
353.674	379.88
353.901	355.88
354.128	348.88
354.355	350.88
354.583	368.88
354.81	358.88
355.037	334.88
355.264	339.88
355.491	351.88
355.718	346.88
355.945	341.88
356.172	332.88
356.399	329.88
356.626	331.88
356.853	346.88
357.08	350.88
357.307	335.88
357.534	347.88
357.761	346.88
357.988	349.88
358.215	348.88
358.441	341.88
358.668	356.88
358.895	346.88
359.122	345.88
359.349	356.88
359.576	373.88
359.802	399.88
360.029	441.88
360.256	459.88
360.483	413.88
360.709	393.88
360.936	385.88
361.163	380.88
361.39	376.88
361.616	388.88
361.843	383.88
362.07	374.88
362.296	392.88
362.523	407.88
362.749	377.88
362.976	355.88
363.203	361.88
363.429	348.88
363.656	362.88
363.882	353.88
364.109	355.88
364.335	341.88
364.562	354.88
364.788	352.88
365.015	353.88
365.241	374.88
365.468	379.88
365.694	373.88
365.92	383.88
366.147	355.88
366.373	347.88
366.599	360.88
366.826	354.88
367.052	370.88
367.278	358.88
367.505	335.88
367.731	355.88
367.957	360.88
368.184	354.88
368.41	364.88
368.636	372.88
368.862	375.88
369.089	360.88
369.315	348.88
369.541	359.88
369.767	366.88
369.993	348.88
370.219	345.88
370.445	343.88
370.672	361.88
370.898	333.88
371.124	336.88
371.35	348.88
371.576	338.88
371.802	331.88
372.028	332.88
372.254	332.88
372.48	323.88
372.706	331.88
372.932	345.88
373.158	337.88
373.384	354.88
373.61	338.88
373.835	351.88
374.061	334.88
374.287	362.88
374.513	350.88
374.739	364.88
374.965	335.88
375.191	363.88
375.416	357.88
375.642	339.88
375.868	355.88
376.094	366.88
376.319	345.88
376.545	351.88
376.771	337.88
376.997	330.88
377.222	351.88
377.448	355.88
377.674	333.88
377.899	325.88
378.125	329.88
378.35	357.88
378.576	347.88
378.802	341.88
379.027	337.88
379.253	346.88
379.478	322.88
379.704	344.88
379.929	341.88
380.155	352.88
380.38	339.88
380.606	334.88
380.831	349.88
381.057	353.88
381.282	341.88
381.507	348.88
381.733	336.88
381.958	343.88
382.184	346.88
382.409	348.88
382.634	344.88
382.86	345.88
383.085	346.88
383.31	339.88
383.535	334.88
383.761	337.88
383.986	360.88
384.211	358.88
384.436	353.88
384.662	342.88
384.887	348.88
385.112	343.88
385.337	359.88
385.562	360.88
385.787	364.88
386.013	352.88
386.238	365.88
386.463	370.88
386.688	358.88
386.913	350.88
387.138	343.88
387.363	357.88
387.588	365.88
387.813	368.88
388.038	353.88
388.263	359.88
388.488	365.88
388.713	344.88
388.938	359.88
389.163	371.88
389.387	356.88
389.612	349.88
389.837	350.88
390.062	351.88
390.287	363.88
390.512	360.88
390.736	354.88
390.961	340.88
391.186	324.88
391.411	365.88
391.636	354.88
391.86	368.88
392.085	356.88
392.31	365.88
392.534	353.88
392.759	361.88
392.984	360.88
393.208	356.88
393.433	348.88
393.658	335.88
393.882	352.88
394.107	363.88
394.331	365.88
394.556	351.88
394.78	381.88
395.005	355.88
395.229	339.88
395.454	352.88
395.678	355.88
395.903	374.88
396.127	395.88
396.352	406.88
396.576	375.88
396.801	373.88
397.025	364.88
397.249	368.88
397.474	362.88
397.698	371.88
397.922	393.88
398.147	399.88
398.371	385.88
398.595	395.88
398.82	392.88
399.044	379.88
399.268	419.88
399.492	407.88
399.717	452.88
399.941	471.88
400.165	491.88
400.389	510.88
400.613	449.88
400.837	431.88
401.062	404.88
401.286	409.88
401.51	365.88
401.734	391.88
401.958	403.88
402.182	408.88
402.406	406.88
402.63	427.88
402.854	413.88
403.078	407.88
403.302	411.88
403.526	406.88
403.75	411.88
403.974	422.88
404.198	397.88
404.422	415.88
404.645	425.88
404.869	439.88
405.093	463.88
405.317	491.88
405.541	531.88
405.765	469.88
405.988	472.88
406.212	452.88
406.436	470.88
406.66	494.88
406.883	467.88
407.107	462.88
407.331	515.88
407.555	556.88
407.778	555.88
408.002	518.88
408.226	481.88
408.449	473.88
408.673	437.88
408.896	487.88
409.12	519.88
409.344	498.88
409.567	428.88
409.791	435.88
410.014	420.88
410.238	428.88
410.461	420.88
410.685	428.88
410.908	427.88
411.132	486.88
411.355	487.88
411.578	487.88
411.802	433.88
412.025	437.88
412.249	434.88
412.472	453.88
412.695	462.88
412.919	495.88
413.142	441.88
413.365	396.88
413.589	393.88
413.812	396.88
414.035	405.88
414.258	385.88
414.482	383.88
414.705	402.88
414.928	401.88
415.151	392.88
415.374	387.88
415.597	393.88
415.821	395.88
416.044	400.88
416.267	399.88
416.49	411.88
416.713	392.88
416.936	385.88
417.159	401.88
417.382	414.88
417.605	405.88
417.828	411.88
418.051	431.88
418.274	417.88
418.497	426.88
418.72	397.88
418.943	414.88
419.166	409.88
419.389	436.88
419.611	426.88
419.834	438.88
420.057	432.88
420.28	425.88
420.503	433.88
420.726	429.88
420.948	441.88
421.171	499.88
421.394	492.88
421.617	470.88
421.839	417.88
422.062	434.88
422.285	456.88
422.507	487.88
422.73	566.88
422.953	571.88
423.175	480.88
423.398	457.88
423.621	437.88
423.843	471.88
424.066	469.88
424.288	460.88
424.511	464.88
424.733	537.88
424.956	598.88
425.178	584.88
425.401	582.88
425.623	588.88
425.846	512.88
426.068	479.88
426.291	474.88
426.513	471.88
426.735	486.88
426.958	536.88
427.18	597.88
427.402	720.88
427.625	794.88
427.847	735.88
428.069	622.88
428.292	539.88
428.514	501.88
428.736	459.88
428.958	471.88
429.181	417.88
429.403	440.88
429.625	459.88
429.847	473.88
430.069	553.88
430.292	551.88
430.514	473.88
430.736	436.88
430.958	429.88
431.18	412.88
431.402	397.88
431.624	401.88
431.846	406.88
432.068	398.88
432.29	407.88
432.512	392.88
432.734	411.88
432.956	401.88
433.178	405.88
433.4	420.88
433.622	399.88
433.844	398.88
434.066	375.88
434.287	403.88
434.509	407.88
434.731	407.88
434.953	405.88
435.175	420.88
435.397	456.88
435.618	495.88
435.84	511.88
436.062	597.88
436.284	681.88
436.505	587.88
436.727	484.88
436.949	464.88
437.17	482.88
437.392	443.88
437.614	467.88
437.835	492.88
438.057	584.88
438.278	685.88
438.5	678.88
438.721	757.88
438.943	701.88
439.165	548.88
439.386	529.88
439.608	509.88
439.829	486.88
440.05	529.88
440.272	555.88
440.493	538.88
440.715	473.88
440.936	466.88
441.158	441.88
441.379	432.88
441.6	455.88
441.822	473.88
442.043	524.88
442.264	583.88
442.486	616.88
442.707	539.88
442.928	495.88
443.149	498.88
443.371	538.88
443.592	556.88
443.813	623.88
444.034	687.88
444.255	591.88
444.476	493.88
444.698	498.88
444.919	462.88
445.14	551.88
445.361	539.88
445.582	506.88
445.803	578.88
446.024	666.88
446.245	711.88
446.466	637.88
446.687	531.88
446.908	504.88
447.129	459.88
447.35	443.88
447.571	447.88
447.792	428.88
448.013	463.88
448.234	481.88
448.455	523.88
448.675	612.88
448.896	706.88
449.117	602.88
449.338	569.88
449.559	675.88
449.779	739.88
450	612.88
450.221	515.88
450.442	464.88
450.662	464.88
450.883	476.88
451.104	470.88
451.324	469.88
451.545	439.88
451.766	411.88
451.986	384.88
452.207	395.88
452.428	385.88
452.648	394.88
452.869	403.88
453.089	407.88
453.31	434.88
453.53	415.88
453.751	385.88
453.971	411.88
454.192	433.88
454.412	408.88
454.633	397.88
454.853	379.88
455.073	379.88
455.294	437.88
455.514	489.88
455.734	485.88
455.955	416.88
456.175	411.88
456.395	361.88
456.616	365.88
456.836	370.88
457.056	379.88
457.276	348.88
457.497	372.88
457.717	371.88
457.937	380.88
458.157	394.88
458.377	394.88
458.598	387.88
458.818	452.88
459.038	557.88
459.258	563.88
459.478	476.88
459.698	422.88
459.918	403.88
460.138	406.88
460.358	392.88
460.578	388.88
460.798	383.88
461.018	403.88
461.238	394.88
461.458	389.88
461.678	377.88
461.898	401.88
462.118	403.88
462.338	413.88
462.558	407.88
462.777	403.88
462.997	403.88
463.217	384.88
463.437	422.88
463.657	399.88
463.876	386.88
464.096	426.88
464.316	418.88
464.536	412.88
464.755	431.88
464.975	426.88
465.195	486.88
465.414	584.88
465.634	489.88
465.854	448.88
466.073	415.88
466.293	418.88
466.512	410.88
466.732	405.88
466.951	399.88
467.171	397.88
467.391	387.88
467.61	412.88
467.829	373.88
468.049	399.88
468.268	413.88
468.488	396.88
468.707	383.88
468.927	378.88
469.146	375.88
469.365	372.88
469.585	359.88
469.804	382.88
470.023	402.88
470.243	388.88
470.462	398.88
470.681	438.88
470.901	418.88
471.12	428.88
471.339	397.88
471.558	403.88
471.777	405.88
471.997	399.88
472.216	426.88
472.435	466.88
472.654	424.88
472.873	405.88
473.092	392.88
473.311	387.88
473.53	398.88
473.749	421.88
473.968	439.88
474.187	575.88
474.406	598.88
474.625	488.88
474.844	436.88
475.063	424.88
475.282	417.88
475.501	412.88
475.72	409.88
475.939	415.88
476.158	428.88
476.377	401.88
476.596	421.88
476.814	424.88
477.033	437.88
477.252	442.88
477.471	435.88
477.69	439.88
477.908	448.88
478.127	449.88
478.346	431.88
478.564	423.88
478.783	449.88
479.002	438.88
479.22	437.88
479.439	488.88
479.658	507.88
479.876	507.88
480.095	496.88
480.313	519.88
480.532	509.88
480.751	490.88
480.969	515.88
481.188	563.88
481.406	612.88
481.624	551.88
481.843	511.88
482.061	482.88
482.28	482.88
482.498	486.88
482.717	459.88
482.935	469.88
483.153	474.88
483.372	466.88
483.59	483.88
483.808	489.88
484.027	480.88
484.245	492.88
484.463	482.88
484.681	497.88
484.9	489.88
485.118	476.88
485.336	465.88
485.554	508.88
485.772	474.88
485.99	505.88
486.209	518.88
486.427	490.88
486.645	516.88
486.863	527.88
487.081	542.88
487.299	508.88
487.517	535.88
487.735	519.88
487.953	509.88
488.171	499.88
488.389	496.88
488.607	492.88
488.825	525.88
489.043	508.88
489.261	524.88
489.479	545.88
489.696	540.88
489.914	529.88
490.132	555.88
490.35	538.88
490.568	555.88
490.786	543.88
491.003	560.88
491.221	580.88
491.439	590.88
491.657	587.88
491.874	611.88
492.092	588.88
492.31	608.88
492.527	617.88
492.745	620.88
492.963	624.88
493.18	616.88
493.398	624.88
493.615	629.88
493.833	611.88
494.05	613.88
494.268	643.88
494.485	631.88
494.703	618.88
494.92	631.88
495.138	614.88
495.355	635.88
495.573	639.88
495.79	650.88
496.008	627.88
496.225	629.88
496.442	609.88
496.66	645.88
496.877	640.88
497.094	628.88
497.312	627.88
497.529	645.88
497.746	651.88
497.963	651.88
498.181	650.88
498.398	670.88
498.615	661.88
498.832	661.88
499.049	682.88
499.267	681.88
499.484	659.88
499.701	701.88
499.918	716.88
500.135	710.88
500.352	724.88
500.569	759.88
500.786	761.88
501.003	768.88
501.22	754.88
501.437	732.88
501.654	729.88
501.871	752.88
502.088	744.88
502.305	727.88
502.522	680.88
502.739	668.88
502.956	643.88
503.172	658.88
503.389	647.88
503.606	633.88
503.823	659.88
504.04	616.88
504.256	629.88
504.473	619.88
504.69	619.88
504.907	627.88
505.123	632.88
505.34	595.88
505.557	623.88
505.773	609.88
505.99	590.88
506.207	609.88
506.423	602.88
506.64	615.88
506.856	615.88
507.073	599.88
507.289	598.88
507.506	614.88
507.722	616.88
507.939	616.88
508.155	633.88
508.372	579.88
508.588	586.88
508.805	570.88
509.021	599.88
509.238	600.88
509.454	620.88
509.67	604.88
509.887	604.88
510.103	606.88
510.319	597.88
510.536	700.88
510.752	1267.88
510.968	1023.88
511.184	643.88
511.401	585.88
511.617	572.88
511.833	577.88
512.049	576.88
512.265	547.88
512.481	549.88
512.698	546.88
512.914	565.88
513.13	552.88
513.346	550.88
513.562	556.88
513.778	566.88
513.994	548.88
514.21	577.88
514.426	606.88
514.642	665.88
514.858	708.88
515.074	723.88
515.29	909.88
515.506	1415.88
515.721	1139.88
515.937	736.88
516.153	643.88
516.369	626.88
516.585	561.88
516.801	578.88
517.016	568.88
517.232	588.88
517.448	562.88
517.664	572.88
517.879	568.88
518.095	539.88
518.311	546.88
518.527	549.88
518.742	557.88
518.958	536.88
519.173	549.88
519.389	555.88
519.605	572.88
519.82	573.88
520.036	582.88
520.251	599.88
520.467	624.88
520.682	629.88
520.898	677.88
521.113	653.88
521.329	713.88
521.544	824.88
521.76	1100.88
521.975	1878.88
522.19	1864.88
522.406	966.88
522.621	719.88
522.836	629.88
523.052	550.88
523.267	551.88
523.482	541.88
523.698	531.88
523.913	537.88
524.128	537.88
524.343	487.88
524.559	491.88
524.774	459.88
524.989	466.88
525.204	499.88
525.419	500.88
525.634	498.88
525.849	485.88
526.064	457.88
526.28	464.88
526.495	436.88
526.71	464.88
526.925	450.88
527.14	433.88
527.355	456.88
527.57	429.88
527.785	429.88
527.999	451.88
528.214	454.88
528.429	447.88
528.644	459.88
528.859	439.88
529.074	474.88
529.289	487.88
529.503	595.88
529.718	564.88
529.933	484.88
530.148	481.88
530.363	461.88
530.577	443.88
530.792	439.88
531.007	437.88
531.221	459.88
531.436	418.88
531.651	427.88
531.865	409.88
532.08	417.88
532.295	423.88
532.509	412.88
532.724	428.88
532.938	431.88
533.153	407.88
533.367	399.88
533.582	411.88
533.796	400.88
534.011	422.88
534.225	423.88
534.44	411.88
534.654	408.88
534.868	419.88
535.083	418.88
535.297	401.88
535.511	409.88
535.726	446.88
535.94	449.88
536.154	426.88
536.369	403.88
536.583	433.88
536.797	405.88
537.011	391.88
537.225	379.88
537.44	401.88
537.654	404.88
537.868	421.88
538.082	412.88
538.296	434.88
538.51	395.88
538.724	410.88
538.938	406.88
539.153	418.88
539.367	423.88
539.581	426.88
539.795	404.88
540.009	411.88
540.222	406.88
540.436	386.88
540.65	394.88
540.864	396.88
541.078	425.88
541.292	421.88
541.506	414.88
541.72	405.88
541.934	408.88
542.147	391.88
542.361	395.88
542.575	390.88
542.789	391.88
543.002	391.88
543.216	405.88
543.43	399.88
543.644	408.88
543.857	395.88
544.071	411.88
544.285	406.88
544.498	399.88
544.712	381.88
544.925	399.88
545.139	395.88
545.352	396.88
545.566	394.88
545.779	391.88
545.993	370.88
546.206	381.88
546.42	397.88
546.633	389.88
546.847	388.88
547.06	374.88
547.274	371.88
547.487	373.88
547.7	374.88
547.914	379.88
548.127	363.88
548.34	381.88
548.554	362.88
548.767	371.88
548.98	372.88
549.193	348.88
549.407	371.88
549.62	354.88
549.833	368.88
550.046	345.88
550.259	365.88
550.473	371.88
550.686	372.88
550.899	371.88
551.112	362.88
551.325	349.88
551.538	372.88
551.751	359.88
551.964	347.88
552.177	364.88
552.39	370.88
552.603	367.88
552.816	375.88
553.029	356.88
553.242	371.88
553.455	375.88
553.667	391.88
553.88	379.88
554.093	384.88
554.306	393.88
554.519	369.88
554.732	387.88
554.944	372.88
555.157	364.88
555.37	361.88
555.583	342.88
555.795	343.88
556.008	346.88
556.221	336.88
556.433	345.88
556.646	356.88
556.859	349.88
557.071	351.88
557.284	317.88
557.496	342.88
557.709	334.88
557.921	343.88
558.134	319.88
558.346	320.88
558.559	337.88
558.771	340.88
558.984	325.88
559.196	345.88
559.409	329.88
559.621	329.88
559.833	350.88
560.046	327.88
560.258	352.88
560.47	336.88
560.683	332.88
560.895	343.88
561.107	328.88
561.32	325.88
561.532	333.88
561.744	321.88
561.956	327.88
562.168	326.88
562.381	307.88
562.593	337.88
562.805	333.88
563.017	324.88
563.229	329.88
563.441	350.88
563.653	331.88
563.865	337.88
564.077	315.88
564.289	323.88
564.501	329.88
564.713	342.88
564.925	358.88
565.137	344.88
565.349	340.88
565.561	338.88
565.773	356.88
565.985	357.88
566.197	345.88
566.408	365.88
566.62	364.88
566.832	365.88
567.044	359.88
567.255	373.88
567.467	371.88
567.679	386.88
567.891	375.88
568.102	379.88
568.314	368.88
568.526	354.88
568.737	359.88
568.949	356.88
569.161	336.88
569.372	336.88
569.584	323.88
569.795	327.88
570.007	358.88
570.218	375.88
570.43	373.88
570.641	331.88
570.853	307.88
571.064	330.88
571.276	323.88
571.487	300.88
571.698	273.88
571.91	316.88
572.121	307.88
572.333	310.88
572.544	302.88
572.755	285.88
572.966	295.88
573.178	289.88
573.389	291.88
573.6	296.88
573.811	292.88
574.023	268.88
574.234	278.88
574.445	280.88
574.656	264.88
574.867	295.88
575.078	315.88
575.289	287.88
575.501	296.88
575.712	281.88
575.923	319.88
576.134	284.88
576.345	298.88
576.556	295.88
576.767	292.88
576.978	299.88
577.188	289.88
577.399	261.88
577.61	274.88
577.821	268.88
578.032	291.88
578.243	336.88
578.454	597.88
578.665	411.88
578.875	295.88
579.086	285.88
579.297	267.88
579.508	270.88
579.718	274.88
579.929	282.88
580.14	267.88
580.35	256.88
580.561	275.88
580.772	267.88
580.982	263.88
581.193	258.88
581.403	282.88
581.614	256.88
581.825	245.88
582.035	283.88
582.246	268.88
582.456	261.88
582.667	260.88
582.877	281.88
583.087	261.88
583.298	258.88
583.508	260.88
583.719	279.88
583.929	273.88
584.139	257.88
584.35	268.88
584.56	260.88
584.77	264.88
584.981	251.88
585.191	261.88
585.401	266.88
585.611	263.88
585.821	266.88
586.032	267.88
586.242	257.88
586.452	268.88
586.662	257.88
586.872	259.88
587.082	270.88
587.292	237.88
587.502	255.88
587.713	261.88
587.923	251.88
588.133	259.88
588.343	253.88
588.553	241.88
588.762	276.88
588.972	257.88
589.182	258.88
589.392	264.88
589.602	265.88
589.812	275.88
590.022	267.88
590.232	246.88
590.441	250.88
590.651	240.88
590.861	268.88
591.071	236.88
591.281	243.88
591.49	237.88
591.7	269.88
591.91	251.88
592.119	248.88
592.329	247.88
592.539	268.88
592.748	275.88
592.958	255.88
593.167	247.88
593.377	258.88
593.587	264.88
593.796	253.88
594.006	249.88
594.215	255.88
594.424	248.88
594.634	247.88
594.843	248.88
595.053	237.88
595.262	241.88
595.472	247.88
595.681	243.88
595.89	234.88
596.1	228.88
596.309	244.88
596.518	232.88
596.727	227.88
596.937	228.88
597.146	240.88
597.355	243.88
597.564	241.88
597.774	247.88
597.983	234.88
598.192	241.88
598.401	235.88
598.61	236.88
598.819	227.88
599.028	226.88
599.237	226.88
599.446	229.88
599.655	225.88
599.864	239.88
600.073	226.88
600.282	235.88
600.491	229.88
600.7	228.88
600.909	217.88
601.118	206.88
601.327	220.88
601.536	224.88
601.745	219.88
601.953	210.88
602.162	229.88
602.371	207.88
602.58	213.88
602.789	211.88
602.997	225.88
603.206	229.88
603.415	244.88
603.623	209.88
603.832	204.88
604.041	219.88
604.249	234.88
604.458	224.88
604.666	186.88
604.875	201.88
605.084	213.88
605.292	213.88
605.501	210.88
605.709	205.88
605.918	223.88
606.126	222.88
606.334	226.88
606.543	220.88
606.751	210.88
606.96	197.88
607.168	214.88
607.376	207.88
607.585	205.88
607.793	208.88
608.001	224.88
608.21	228.88
608.418	204.88
608.626	221.88
608.834	211.88
609.043	211.88
609.251	218.88
609.459	197.88
609.667	223.88
609.875	208.88
610.083	192.88
610.291	234.88
610.499	207.88
610.707	212.88
610.916	213.88
611.124	224.88
611.332	203.88
611.54	211.88
611.748	228.88
611.955	213.88
612.163	203.88
612.371	209.88
612.579	214.88
612.787	194.88
612.995	193.88
613.203	207.88
613.411	208.88
613.618	195.88
613.826	195.88
614.034	205.88
614.242	213.88
614.449	201.88
614.657	197.88
614.865	204.88
615.072	199.88
615.28	216.88
615.488	189.88
615.695	195.88
615.903	195.88
616.111	199.88
616.318	211.88
616.526	209.88
616.733	217.88
616.941	210.88
617.148	202.88
617.356	205.88
617.563	202.88
617.771	222.88
617.978	199.88
618.185	204.88
618.393	221.88
618.6	199.88
618.807	216.88
619.015	194.88
619.222	193.88
619.429	203.88
619.637	196.88
619.844	187.88
620.051	197.88
620.258	189.88
620.466	185.88
620.673	205.88
620.88	189.88
621.087	209.88
621.294	201.88
621.501	205.88
621.708	215.88
621.915	193.88
622.122	194.88
622.329	190.88
622.536	188.88
622.743	182.88
622.95	204.88
623.157	201.88
623.364	199.88
623.571	184.88
623.778	176.88
623.985	196.88
624.192	184.88
624.399	182.88
624.606	202.88
624.812	187.88
625.019	192.88
625.226	192.88
625.433	191.88
625.639	198.88
625.846	195.88
626.053	195.88
626.259	175.88
626.466	165.88
626.673	176.88
626.879	173.88
627.086	198.88
627.293	167.88
627.499	200.88
627.706	173.88
627.912	177.88
628.119	177.88
628.325	202.88
628.532	187.88
628.738	170.88
628.945	176.88
629.151	178.88
629.357	185.88
629.564	163.88
629.77	165.88
629.976	184.88
630.183	185.88
630.389	164.88
630.595	182.88
630.802	167.88
631.008	178.88
631.214	171.88
631.42	186.88
631.627	185.88
631.833	184.88
632.039	166.88
632.245	186.88
632.451	180.88
632.657	175.88
632.863	156.88
633.069	157.88
633.275	167.88
633.481	167.88
633.688	181.88
633.893	179.88
634.099	170.88
634.305	170.88
634.511	177.88
634.717	175.88
634.923	161.88
635.129	169.88
635.335	172.88
635.541	160.88
635.747	163.88
635.952	165.88
636.158	180.88
636.364	157.88
636.57	170.88
636.775	148.88
636.981	177.88
637.187	170.88
637.392	163.88
637.598	155.88
637.804	156.88
638.009	174.88
638.215	167.88
638.421	160.88
638.626	170.88
638.832	159.88
639.037	148.88
639.243	155.88
639.448	170.88
639.654	163.88
639.859	147.88
640.065	154.88
640.27	143.88
640.475	154.88
640.681	178.88
640.886	160.88
641.091	145.88
641.297	150.88
641.502	152.88
641.707	155.88
641.913	143.88
642.118	157.88
642.323	148.88
642.528	161.88
642.733	164.88
642.939	156.88
643.144	162.88
643.349	145.88
643.554	157.88
643.759	163.88
643.964	149.88
644.169	143.88
644.374	150.88
644.579	163.88
644.784	142.88
644.989	153.88
645.194	159.88
645.399	148.88
645.604	147.88
645.809	141.88
646.014	144.88
646.219	156.88
646.423	147.88
646.628	144.88
646.833	146.88
647.038	144.88
647.243	153.88
647.447	150.88
647.652	147.88
647.857	145.88
648.062	144.88
648.266	161.88
648.471	153.88
648.676	148.88
648.88	150.88
649.085	150.88
649.289	155.88
649.494	156.88
649.698	165.88
649.903	180.88
650.107	159.88
650.312	150.88
650.516	138.88
650.721	144.88
650.925	139.88
651.13	152.88
651.334	133.88
651.539	155.88
651.743	132.88
651.947	143.88
652.152	147.88
652.356	130.88
652.56	135.88
652.764	114.88
652.969	140.88
653.173	139.88
653.377	127.88
653.581	129.88
653.785	119.88
653.99	124.88
654.194	130.88
654.398	119.88
654.602	123.88
654.806	141.88
655.01	138.88
655.214	129.88
655.418	127.88
655.622	132.88
655.826	132.88
656.03	138.88
656.234	116.88
656.438	105.88
656.642	107.88
656.846	114.88
657.049	123.88
657.253	113.88
657.457	110.88
657.661	113.88
657.865	115.88
658.068	97.88
658.272	98.88
658.476	98.88
658.68	100.88
658.883	80.88
659.087	94.88
659.291	105.88
659.494	77.88
659.698	88.88
659.901	86.88
660.105	90.88
660.309	96.88
660.512	87.88
660.716	91.88
660.919	68.88
661.123	84.88
661.326	87.88
661.53	81.88
661.733	86.88
661.936	85.88
662.14	77.88
662.343	88.88
662.546	77.88
662.75	82.88
662.953	91.88
663.156	82.88
663.36	79.88
663.563	84.88
663.766	76.88
663.969	83.88
664.173	71.88
664.376	83.88
664.579	69.88
664.782	90.88
664.985	75.88
665.188	83.88
665.391	98.88
665.594	89.88
665.797	81.88
666	88.88
666.203	71.88
666.406	78.88
666.609	76.88
666.812	72.88
667.015	75.88
667.218	91.88
667.421	83.88
667.624	81.88
667.827	76.88
668.03	80.88
668.232	78.88
668.435	79.88
668.638	78.88
668.841	76.88
669.043	83.88
669.246	80.88
669.449	82.88
669.651	77.88
669.854	87.88
670.057	102.88
670.259	66.88
670.462	84.88
670.665	78.88
670.867	76.88
671.07	81.88
671.272	78.88
671.475	86.88
671.677	78.88
671.88	84.88
672.082	89.88
672.284	96.88
672.487	90.88
672.689	77.88
672.892	77.88
