Data from 1986.PennyLincolnUp.Lamp.En5.5.200Scan.071819.P2_HRD10591_17-09-51-973.txt Node
Date: Thu Jul 18 17:09:51 EDT 2019
User: cochatt
Spectrometer: HR+D1059
Trigger mode: 1
Integration Time (sec): 1.000000E-1
Scans to average: 1
Electric dark correction enabled: true
Nonlinearity correction enabled: false
Boxcar width: 0
XAxis mode: Wavelengths
Number of Pixels in Spectrum: 2048
>>>>>Begin Spectral Data<<<<<
223.165	-10.94
223.4	-10.94
223.635	-10.94
223.869	-14.94
224.104	-13.94
224.338	-15.94
224.573	-18.94
224.808	-16.94
225.042	-4.94
225.277	2.06
225.511	2.06
225.746	1.06
225.98	15.06
226.215	-0.94
226.449	19.06
226.683	22.06
226.918	15.06
227.152	21.06
227.387	19.06
227.621	45.06
227.856	51.06
228.09	55.06
228.324	48.06
228.559	43.06
228.793	78.06
229.027	86.06
229.262	99.06
229.496	91.06
229.73	127.06
229.964	140.06
230.199	130.06
230.433	121.06
230.667	99.06
230.901	114.06
231.136	105.06
231.37	110.06
231.604	120.06
231.838	112.06
232.072	116.06
232.306	109.06
232.541	116.06
232.775	114.06
233.009	123.06
233.243	102.06
233.477	112.06
233.711	117.06
233.945	108.06
234.179	127.06
234.413	124.06
234.647	110.06
234.881	120.06
235.115	125.06
235.349	128.06
235.583	131.06
235.817	127.06
236.051	122.06
236.285	118.06
236.519	123.06
236.753	115.06
236.987	154.06
237.221	172.06
237.455	235.06
237.689	187.06
237.922	147.06
238.156	138.06
238.39	117.06
238.624	122.06
238.858	130.06
239.091	116.06
239.325	126.06
239.559	124.06
239.793	127.06
240.027	143.06
240.26	135.06
240.494	142.06
240.728	143.06
240.961	130.06
241.195	150.06
241.429	131.06
241.662	128.06
241.896	130.06
242.13	146.06
242.363	142.06
242.597	127.06
242.83	128.06
243.064	124.06
243.298	141.06
243.531	136.06
243.765	133.06
243.998	134.06
244.232	143.06
244.465	159.06
244.699	132.06
244.932	143.06
245.166	135.06
245.399	148.06
245.633	148.06
245.866	162.06
246.099	138.06
246.333	153.06
246.566	146.06
246.8	145.06
247.033	141.06
247.266	136.06
247.5	160.06
247.733	167.06
247.966	161.06
248.2	180.06
248.433	180.06
248.666	160.06
248.899	191.06
249.133	194.06
249.366	211.06
249.599	186.06
249.832	184.06
250.066	176.06
250.299	166.06
250.532	185.06
250.765	188.06
250.998	210.06
251.231	225.06
251.465	216.06
251.698	213.06
251.931	187.06
252.164	200.06
252.397	193.06
252.63	200.06
252.863	204.06
253.096	218.06
253.329	218.06
253.562	211.06
253.795	206.06
254.028	227.06
254.261	223.06
254.494	225.06
254.727	231.06
254.96	284.06
255.193	275.06
255.426	253.06
255.659	235.06
255.892	228.06
256.124	234.06
256.357	215.06
256.59	205.06
256.823	199.06
257.056	201.06
257.289	214.06
257.521	204.06
257.754	194.06
257.987	201.06
258.22	201.06
258.452	207.06
258.685	196.06
258.918	192.06
259.151	198.06
259.383	211.06
259.616	223.06
259.849	218.06
260.081	228.06
260.314	246.06
260.547	249.06
260.779	252.06
261.012	235.06
261.244	231.06
261.477	227.06
261.71	216.06
261.942	221.06
262.175	215.06
262.407	234.06
262.64	202.06
262.872	220.06
263.105	191.06
263.337	197.06
263.57	198.06
263.802	197.06
264.035	202.06
264.267	194.06
264.499	210.06
264.732	200.06
264.964	202.06
265.197	197.06
265.429	216.06
265.661	207.06
265.894	191.06
266.126	214.06
266.358	194.06
266.591	203.06
266.823	209.06
267.055	228.06
267.287	214.06
267.52	208.06
267.752	213.06
267.984	198.06
268.216	219.06
268.448	208.06
268.681	230.06
268.913	230.06
269.145	261.06
269.377	266.06
269.609	271.06
269.841	269.06
270.073	239.06
270.306	282.06
270.538	311.06
270.77	315.06
271.002	301.06
271.234	275.06
271.466	285.06
271.698	338.06
271.93	315.06
272.162	305.06
272.394	303.06
272.626	303.06
272.858	280.06
273.09	265.06
273.322	260.06
273.553	262.06
273.785	245.06
274.017	258.06
274.249	244.06
274.481	263.06
274.713	251.06
274.945	252.06
275.176	243.06
275.408	244.06
275.64	255.06
275.872	251.06
276.104	253.06
276.335	252.06
276.567	265.06
276.799	284.06
277.031	295.06
277.262	300.06
277.494	316.06
277.726	300.06
277.957	268.06
278.189	264.06
278.421	261.06
278.652	244.06
278.884	261.06
279.115	243.06
279.347	255.06
279.579	254.06
279.81	253.06
280.042	250.06
280.273	239.06
280.505	235.06
280.736	253.06
280.968	253.06
281.199	234.06
281.431	261.06
281.662	247.06
281.894	238.06
282.125	240.06
282.356	255.06
282.588	290.06
282.819	292.06
283.051	243.06
283.282	251.06
283.513	257.06
283.745	252.06
283.976	237.06
284.207	250.06
284.439	250.06
284.67	247.06
284.901	256.06
285.132	267.06
285.364	242.06
285.595	248.06
285.826	238.06
286.057	236.06
286.288	260.06
286.52	265.06
286.751	244.06
286.982	243.06
287.213	254.06
287.444	259.06
287.675	256.06
287.906	249.06
288.138	267.06
288.369	282.06
288.6	268.06
288.831	262.06
289.062	286.06
289.293	262.06
289.524	256.06
289.755	249.06
289.986	270.06
290.217	262.06
290.448	261.06
290.679	244.06
290.91	258.06
291.141	237.06
291.371	260.06
291.602	235.06
291.833	246.06
292.064	255.06
292.295	262.06
292.526	254.06
292.757	244.06
292.987	269.06
293.218	254.06
293.449	259.06
293.68	265.06
293.91	254.06
294.141	258.06
294.372	259.06
294.603	269.06
294.833	255.06
295.064	258.06
295.295	270.06
295.525	265.06
295.756	253.06
295.987	284.06
296.217	291.06
296.448	307.06
296.679	280.06
296.909	281.06
297.14	268.06
297.37	265.06
297.601	272.06
297.831	280.06
298.062	254.06
298.292	270.06
298.523	261.06
298.753	268.06
298.984	258.06
299.214	268.06
299.445	272.06
299.675	286.06
299.905	243.06
300.136	288.06
300.366	263.06
300.597	285.06
300.827	272.06
301.057	290.06
301.288	292.06
301.518	283.06
301.748	291.06
301.979	272.06
302.209	285.06
302.439	278.06
302.669	293.06
302.9	265.06
303.13	288.06
303.36	294.06
303.59	301.06
303.82	298.06
304.051	301.06
304.281	285.06
304.511	288.06
304.741	300.06
304.971	289.06
305.201	305.06
305.431	302.06
305.661	296.06
305.891	288.06
306.121	290.06
306.352	301.06
306.582	314.06
306.812	300.06
307.042	291.06
307.272	280.06
307.502	298.06
307.731	301.06
307.961	294.06
308.191	281.06
308.421	289.06
308.651	285.06
308.881	302.06
309.111	306.06
309.341	290.06
309.571	310.06
309.8	313.06
310.03	320.06
310.26	345.06
310.49	334.06
310.72	339.06
310.949	363.06
311.179	364.06
311.409	351.06
311.639	338.06
311.868	341.06
312.098	342.06
312.328	348.06
312.557	365.06
312.787	378.06
313.017	375.06
313.246	359.06
313.476	353.06
313.706	331.06
313.935	334.06
314.165	357.06
314.394	374.06
314.624	354.06
314.853	357.06
315.083	345.06
315.312	330.06
315.542	354.06
315.771	318.06
316.001	315.06
316.23	344.06
316.46	333.06
316.689	329.06
316.919	341.06
317.148	343.06
317.377	360.06
317.607	337.06
317.836	342.06
318.065	327.06
318.295	335.06
318.524	347.06
318.753	331.06
318.983	321.06
319.212	327.06
319.441	331.06
319.67	353.06
319.9	351.06
320.129	339.06
320.358	332.06
320.587	354.06
320.816	376.06
321.046	354.06
321.275	363.06
321.504	356.06
321.733	354.06
321.962	379.06
322.191	383.06
322.42	392.06
322.649	409.06
322.878	434.06
323.108	418.06
323.337	422.06
323.566	463.06
323.795	503.06
324.024	546.06
324.253	649.06
324.482	952.06
324.71	1417.06
324.939	1951.06
325.168	1764.06
325.397	950.06
325.626	605.06
325.855	540.06
326.084	485.06
326.313	474.06
326.542	467.06
326.77	503.06
326.999	597.06
327.228	827.06
327.457	1238.06
327.686	1513.06
327.914	1026.06
328.143	688.06
328.372	598.06
328.6	562.06
328.829	524.06
329.058	540.06
329.287	550.06
329.515	499.06
329.744	476.06
329.972	462.06
330.201	440.06
330.43	480.06
330.658	534.06
330.887	560.06
331.115	554.06
331.344	480.06
331.572	446.06
331.801	435.06
332.03	435.06
332.258	420.06
332.486	390.06
332.715	403.06
332.943	399.06
333.172	389.06
333.4	399.06
333.629	426.06
333.857	406.06
334.085	420.06
334.314	384.06
334.542	378.06
334.771	394.06
334.999	375.06
335.227	392.06
335.455	391.06
335.684	387.06
335.912	373.06
336.14	378.06
336.369	360.06
336.597	390.06
336.825	397.06
337.053	380.06
337.281	381.06
337.51	375.06
337.738	387.06
337.966	403.06
338.194	380.06
338.422	378.06
338.65	377.06
338.878	366.06
339.106	384.06
339.334	369.06
339.562	370.06
339.79	371.06
340.018	394.06
340.246	386.06
340.474	386.06
340.702	382.06
340.93	375.06
341.158	348.06
341.386	385.06
341.614	367.06
341.842	368.06
342.07	377.06
342.298	377.06
342.526	352.06
342.754	340.06
342.981	356.06
343.209	379.06
343.437	380.06
343.665	363.06
343.893	374.06
344.12	386.06
344.348	381.06
344.576	381.06
344.804	391.06
345.031	391.06
345.259	402.06
345.487	360.06
345.714	384.06
345.942	370.06
346.17	368.06
346.397	372.06
346.625	353.06
346.853	357.06
347.08	364.06
347.308	357.06
347.535	345.06
347.763	382.06
347.99	386.06
348.218	382.06
348.445	386.06
348.673	379.06
348.9	353.06
349.128	370.06
349.355	357.06
349.583	346.06
349.81	345.06
350.037	341.06
350.265	342.06
350.492	367.06
350.72	364.06
350.947	360.06
351.174	359.06
351.402	371.06
351.629	382.06
351.856	358.06
352.083	376.06
352.311	390.06
352.538	386.06
352.765	406.06
352.992	357.06
353.22	380.06
353.447	355.06
353.674	380.06
353.901	336.06
354.128	356.06
354.355	347.06
354.583	348.06
354.81	339.06
355.037	323.06
355.264	332.06
355.491	323.06
355.718	335.06
355.945	325.06
356.172	324.06
356.399	318.06
356.626	342.06
356.853	312.06
357.08	323.06
357.307	329.06
357.534	327.06
357.761	339.06
357.988	352.06
358.215	326.06
358.441	322.06
358.668	333.06
358.895	346.06
359.122	340.06
359.349	350.06
359.576	346.06
359.802	390.06
360.029	406.06
360.256	422.06
360.483	419.06
360.709	385.06
360.936	366.06
361.163	370.06
361.39	372.06
361.616	362.06
361.843	357.06
362.07	354.06
362.296	373.06
362.523	358.06
362.749	369.06
362.976	377.06
363.203	355.06
363.429	356.06
363.656	362.06
363.882	354.06
364.109	351.06
364.335	340.06
364.562	343.06
364.788	348.06
365.015	344.06
365.241	334.06
365.468	349.06
365.694	360.06
365.92	340.06
366.147	349.06
366.373	337.06
366.599	332.06
366.826	342.06
367.052	342.06
367.278	333.06
367.505	341.06
367.731	357.06
367.957	342.06
368.184	335.06
368.41	356.06
368.636	354.06
368.862	375.06
369.089	366.06
369.315	333.06
369.541	340.06
369.767	350.06
369.993	350.06
370.219	343.06
370.445	355.06
370.672	344.06
370.898	346.06
371.124	337.06
371.35	334.06
371.576	333.06
371.802	340.06
372.028	342.06
372.254	321.06
372.48	333.06
372.706	359.06
372.932	350.06
373.158	333.06
373.384	365.06
373.61	329.06
373.835	355.06
374.061	333.06
374.287	351.06
374.513	338.06
374.739	338.06
374.965	351.06
375.191	346.06
375.416	350.06
375.642	342.06
375.868	348.06
376.094	313.06
376.319	340.06
376.545	345.06
376.771	342.06
376.997	322.06
377.222	322.06
377.448	354.06
377.674	340.06
377.899	317.06
378.125	324.06
378.35	326.06
378.576	343.06
378.802	320.06
379.027	320.06
379.253	325.06
379.478	330.06
379.704	331.06
379.929	335.06
380.155	346.06
380.38	360.06
380.606	354.06
380.831	317.06
381.057	335.06
381.282	322.06
381.507	328.06
381.733	336.06
381.958	331.06
382.184	352.06
382.409	344.06
382.634	336.06
382.86	326.06
383.085	346.06
383.31	350.06
383.535	372.06
383.761	350.06
383.986	322.06
384.211	325.06
384.436	341.06
384.662	362.06
384.887	361.06
385.112	354.06
385.337	335.06
385.562	341.06
385.787	351.06
386.013	360.06
386.238	374.06
386.463	355.06
386.688	367.06
386.913	360.06
387.138	355.06
387.363	357.06
387.588	349.06
387.813	345.06
388.038	347.06
388.263	352.06
388.488	350.06
388.713	359.06
388.938	364.06
389.163	344.06
389.387	360.06
389.612	355.06
389.837	341.06
390.062	326.06
390.287	355.06
390.512	352.06
390.736	349.06
390.961	349.06
391.186	349.06
391.411	348.06
391.636	358.06
391.86	347.06
392.085	349.06
392.31	365.06
392.534	371.06
392.759	365.06
392.984	351.06
393.208	363.06
393.433	383.06
393.658	384.06
393.882	343.06
394.107	363.06
394.331	364.06
394.556	352.06
394.78	356.06
395.005	358.06
395.229	346.06
395.454	350.06
395.678	373.06
395.903	380.06
396.127	376.06
396.352	415.06
396.576	377.06
396.801	380.06
397.025	363.06
397.249	358.06
397.474	379.06
397.698	370.06
397.922	382.06
398.147	403.06
398.371	395.06
398.595	380.06
398.82	376.06
399.044	412.06
399.268	407.06
399.492	414.06
399.717	443.06
399.941	436.06
400.165	475.06
400.389	504.06
400.613	445.06
400.837	431.06
401.062	399.06
401.286	406.06
401.51	404.06
401.734	392.06
401.958	398.06
402.182	383.06
402.406	406.06
402.63	407.06
402.854	403.06
403.078	412.06
403.302	411.06
403.526	410.06
403.75	410.06
403.974	391.06
404.198	399.06
404.422	403.06
404.645	387.06
404.869	391.06
405.093	416.06
405.317	440.06
405.541	489.06
405.765	439.06
405.988	415.06
406.212	438.06
406.436	459.06
406.66	485.06
406.883	475.06
407.107	469.06
407.331	467.06
407.555	565.06
407.778	558.06
408.002	506.06
408.226	462.06
408.449	459.06
408.673	468.06
408.896	488.06
409.12	533.06
409.344	483.06
409.567	430.06
409.791	425.06
410.014	420.06
410.238	407.06
410.461	410.06
410.685	437.06
410.908	428.06
411.132	456.06
411.355	492.06
411.578	480.06
411.802	444.06
412.025	410.06
412.249	396.06
412.472	395.06
412.695	395.06
412.919	395.06
413.142	426.06
413.365	374.06
413.589	378.06
413.812	386.06
414.035	395.06
414.258	387.06
414.482	377.06
414.705	390.06
414.928	380.06
415.151	376.06
415.374	372.06
415.597	392.06
415.821	395.06
416.044	386.06
416.267	393.06
416.49	380.06
416.713	404.06
416.936	383.06
417.159	399.06
417.382	397.06
417.605	395.06
417.828	380.06
418.051	406.06
418.274	428.06
418.497	396.06
418.72	391.06
418.943	377.06
419.166	421.06
419.389	420.06
419.611	406.06
419.834	419.06
420.057	423.06
420.28	432.06
420.503	409.06
420.726	391.06
420.948	403.06
421.171	457.06
421.394	502.06
421.617	442.06
421.839	414.06
422.062	412.06
422.285	443.06
422.507	486.06
422.73	540.06
422.953	546.06
423.175	469.06
423.398	446.06
423.621	444.06
423.843	443.06
424.066	479.06
424.288	477.06
424.511	473.06
424.733	522.06
424.956	596.06
425.178	574.06
425.401	550.06
425.623	584.06
425.846	519.06
426.068	484.06
426.291	453.06
426.513	482.06
426.735	474.06
426.958	499.06
427.18	599.06
427.402	686.06
427.625	782.06
427.847	664.06
428.069	602.06
428.292	508.06
428.514	472.06
428.736	468.06
428.958	439.06
429.181	440.06
429.403	428.06
429.625	420.06
429.847	456.06
430.069	534.06
430.292	514.06
430.514	449.06
430.736	446.06
430.958	420.06
431.18	406.06
431.402	412.06
431.624	398.06
431.846	389.06
432.068	392.06
432.29	403.06
432.512	407.06
432.734	411.06
432.956	408.06
433.178	441.06
433.4	423.06
433.622	399.06
433.844	412.06
434.066	414.06
434.287	395.06
434.509	389.06
434.731	401.06
434.953	415.06
435.175	433.06
435.397	473.06
435.618	456.06
435.84	520.06
436.062	590.06
436.284	646.06
436.505	534.06
436.727	478.06
436.949	445.06
437.17	440.06
437.392	436.06
437.614	443.06
437.835	494.06
438.057	583.06
438.278	670.06
438.5	666.06
438.721	716.06
438.943	668.06
439.165	560.06
439.386	504.06
439.608	486.06
439.829	471.06
440.05	515.06
440.272	548.06
440.493	493.06
440.715	451.06
440.936	451.06
441.158	432.06
441.379	445.06
441.6	436.06
441.822	463.06
442.043	502.06
442.264	568.06
442.486	626.06
442.707	521.06
442.928	495.06
443.149	482.06
443.371	512.06
443.592	564.06
443.813	626.06
444.034	678.06
444.255	548.06
444.476	509.06
444.698	486.06
444.919	466.06
445.14	606.06
445.361	519.06
445.582	508.06
445.803	539.06
446.024	631.06
446.245	698.06
446.466	616.06
446.687	507.06
446.908	483.06
447.129	454.06
447.35	439.06
447.571	422.06
447.792	434.06
448.013	438.06
448.234	453.06
448.455	504.06
448.675	611.06
448.896	679.06
449.117	588.06
449.338	562.06
449.559	666.06
449.779	735.06
450	587.06
450.221	504.06
450.442	456.06
450.662	435.06
450.883	449.06
451.104	448.06
451.324	454.06
451.545	416.06
451.766	416.06
451.986	388.06
452.207	383.06
452.428	381.06
452.648	393.06
452.869	388.06
453.089	406.06
453.31	419.06
453.53	392.06
453.751	397.06
453.971	398.06
454.192	401.06
454.412	398.06
454.633	398.06
454.853	401.06
455.073	379.06
455.294	424.06
455.514	472.06
455.734	468.06
455.955	380.06
456.175	377.06
456.395	365.06
456.616	342.06
456.836	356.06
457.056	357.06
457.276	365.06
457.497	356.06
457.717	353.06
457.937	370.06
458.157	357.06
458.377	378.06
458.598	401.06
458.818	449.06
459.038	522.06
459.258	521.06
459.478	469.06
459.698	401.06
459.918	410.06
460.138	371.06
460.358	385.06
460.578	378.06
460.798	410.06
461.018	402.06
461.238	376.06
461.458	377.06
461.678	380.06
461.898	404.06
462.118	379.06
462.338	399.06
462.558	417.06
462.777	394.06
462.997	397.06
463.217	412.06
463.437	419.06
463.657	425.06
463.876	407.06
464.096	436.06
464.316	404.06
464.536	416.06
464.755	409.06
464.975	418.06
465.195	467.06
465.414	565.06
465.634	455.06
465.854	439.06
466.073	405.06
466.293	395.06
466.512	363.06
466.732	389.06
466.951	392.06
467.171	378.06
467.391	394.06
467.61	396.06
467.829	404.06
468.049	407.06
468.268	382.06
468.488	381.06
468.707	379.06
468.927	379.06
469.146	391.06
469.365	379.06
469.585	396.06
469.804	392.06
470.023	399.06
470.243	412.06
470.462	386.06
470.681	408.06
470.901	409.06
471.12	401.06
471.339	394.06
471.558	398.06
471.777	399.06
471.997	381.06
472.216	379.06
472.435	379.06
472.654	396.06
472.873	374.06
473.092	389.06
473.311	381.06
473.53	392.06
473.749	407.06
473.968	452.06
474.187	554.06
474.406	554.06
474.625	461.06
474.844	420.06
475.063	405.06
475.282	410.06
475.501	414.06
475.72	383.06
475.939	390.06
476.158	419.06
476.377	397.06
476.596	402.06
476.814	414.06
477.033	423.06
477.252	419.06
477.471	423.06
477.69	430.06
477.908	428.06
478.127	420.06
478.346	442.06
478.564	434.06
478.783	453.06
479.002	440.06
479.22	449.06
479.439	468.06
479.658	459.06
479.876	479.06
480.095	463.06
480.313	503.06
480.532	480.06
480.751	467.06
480.969	491.06
481.188	463.06
481.406	483.06
481.624	454.06
481.843	473.06
482.061	456.06
482.28	460.06
482.498	459.06
482.717	427.06
482.935	473.06
483.153	466.06
483.372	467.06
483.59	461.06
483.808	464.06
484.027	457.06
484.245	478.06
484.463	455.06
484.681	464.06
484.9	482.06
485.118	463.06
485.336	450.06
485.554	476.06
485.772	481.06
485.99	484.06
486.209	489.06
486.427	494.06
486.645	481.06
486.863	501.06
487.081	504.06
487.299	499.06
487.517	503.06
487.735	485.06
487.953	501.06
488.171	495.06
488.389	516.06
488.607	500.06
488.825	523.06
489.043	480.06
489.261	486.06
489.479	508.06
489.696	489.06
489.914	519.06
490.132	523.06
490.35	522.06
490.568	510.06
490.786	523.06
491.003	557.06
491.221	542.06
491.439	568.06
491.657	565.06
491.874	547.06
492.092	583.06
492.31	595.06
492.527	584.06
492.745	593.06
492.963	586.06
493.18	583.06
493.398	604.06
493.615	589.06
493.833	576.06
494.05	591.06
494.268	573.06
494.485	605.06
494.703	597.06
494.92	587.06
495.138	612.06
495.355	603.06
495.573	599.06
495.79	617.06
496.008	604.06
496.225	603.06
496.442	606.06
496.66	591.06
496.877	606.06
497.094	612.06
497.312	598.06
497.529	626.06
497.746	628.06
497.963	647.06
498.181	655.06
498.398	663.06
498.615	629.06
498.832	677.06
499.049	642.06
499.267	649.06
499.484	686.06
499.701	702.06
499.918	699.06
500.135	707.06
500.352	735.06
500.569	740.06
500.786	756.06
501.003	739.06
501.22	774.06
501.437	772.06
501.654	722.06
501.871	702.06
502.088	711.06
502.305	681.06
502.522	660.06
502.739	672.06
502.956	633.06
503.172	630.06
503.389	626.06
503.606	622.06
503.823	634.06
504.04	612.06
504.256	611.06
504.473	577.06
504.69	605.06
504.907	635.06
505.123	591.06
505.34	595.06
505.557	569.06
505.773	564.06
505.99	601.06
506.207	583.06
506.423	584.06
506.64	591.06
506.856	587.06
507.073	587.06
507.289	573.06
507.506	608.06
507.722	586.06
507.939	603.06
508.155	580.06
508.372	572.06
508.588	563.06
508.805	576.06
509.021	549.06
509.238	572.06
509.454	576.06
509.67	583.06
509.887	573.06
510.103	564.06
510.319	603.06
510.536	692.06
510.752	1189.06
510.968	942.06
511.184	605.06
511.401	550.06
511.617	564.06
511.833	547.06
512.049	543.06
512.265	515.06
512.481	524.06
512.698	519.06
512.914	533.06
513.13	529.06
513.346	514.06
513.562	524.06
513.778	514.06
513.994	548.06
514.21	553.06
514.426	586.06
514.642	597.06
514.858	663.06
515.074	714.06
515.29	848.06
515.506	1292.06
515.721	1066.06
515.937	687.06
516.153	612.06
516.369	566.06
516.585	565.06
516.801	548.06
517.016	546.06
517.232	553.06
517.448	538.06
517.664	536.06
517.879	533.06
518.095	523.06
518.311	532.06
518.527	533.06
518.742	524.06
518.958	523.06
519.173	528.06
519.389	526.06
519.605	546.06
519.82	536.06
520.036	549.06
520.251	600.06
520.467	594.06
520.682	614.06
520.898	603.06
521.113	639.06
521.329	669.06
521.544	799.06
521.76	1017.06
521.975	1774.06
522.19	1716.06
522.406	908.06
522.621	643.06
522.836	580.06
523.052	543.06
523.267	526.06
523.482	537.06
523.698	501.06
523.913	501.06
524.128	492.06
524.343	474.06
524.559	451.06
524.774	466.06
524.989	474.06
525.204	475.06
525.419	484.06
525.634	462.06
525.849	438.06
526.064	463.06
526.28	456.06
526.495	449.06
526.71	446.06
526.925	426.06
527.14	417.06
527.355	448.06
527.57	422.06
527.785	455.06
527.999	448.06
528.214	435.06
528.429	456.06
528.644	439.06
528.859	427.06
529.074	458.06
529.289	457.06
529.503	541.06
529.718	535.06
529.933	463.06
530.148	455.06
530.363	473.06
530.577	411.06
530.792	435.06
531.007	416.06
531.221	411.06
531.436	414.06
531.651	419.06
531.865	425.06
532.08	413.06
532.295	415.06
532.509	407.06
532.724	394.06
532.938	410.06
533.153	396.06
533.367	398.06
533.582	402.06
533.796	409.06
534.011	405.06
534.225	408.06
534.44	400.06
534.654	390.06
534.868	405.06
535.083	396.06
535.297	413.06
535.511	397.06
535.726	420.06
535.94	418.06
536.154	398.06
536.369	409.06
536.583	402.06
536.797	415.06
537.011	388.06
537.225	392.06
537.44	382.06
537.654	415.06
537.868	393.06
538.082	397.06
538.296	398.06
538.51	416.06
538.724	406.06
538.938	388.06
539.153	406.06
539.367	408.06
539.581	410.06
539.795	414.06
540.009	417.06
540.222	405.06
540.436	380.06
540.65	404.06
540.864	403.06
541.078	383.06
541.292	401.06
541.506	409.06
541.72	395.06
541.934	391.06
542.147	386.06
542.361	381.06
542.575	388.06
542.789	386.06
543.002	407.06
543.216	395.06
543.43	388.06
543.644	393.06
543.857	402.06
544.071	396.06
544.285	384.06
544.498	384.06
544.712	390.06
544.925	388.06
545.139	375.06
545.352	353.06
545.566	371.06
545.779	362.06
545.993	378.06
546.206	386.06
546.42	394.06
546.633	371.06
546.847	376.06
547.06	362.06
547.274	378.06
547.487	372.06
547.7	367.06
547.914	359.06
548.127	360.06
548.34	380.06
548.554	348.06
548.767	377.06
548.98	370.06
549.193	364.06
549.407	364.06
549.62	391.06
549.833	372.06
550.046	376.06
550.259	379.06
550.473	357.06
550.686	370.06
550.899	364.06
551.112	364.06
551.325	345.06
551.538	359.06
551.751	357.06
551.964	339.06
552.177	371.06
552.39	352.06
552.603	359.06
552.816	379.06
553.029	367.06
553.242	370.06
553.455	362.06
553.667	363.06
553.88	398.06
554.093	386.06
554.306	381.06
554.519	370.06
554.732	372.06
554.944	365.06
555.157	340.06
555.37	363.06
555.583	336.06
555.795	361.06
556.008	359.06
556.221	359.06
556.433	359.06
556.646	357.06
556.859	344.06
557.071	340.06
557.284	332.06
557.496	347.06
557.709	332.06
557.921	337.06
558.134	325.06
558.346	344.06
558.559	321.06
558.771	330.06
558.984	327.06
559.196	323.06
559.409	324.06
559.621	310.06
559.833	351.06
560.046	341.06
560.258	335.06
560.47	335.06
560.683	299.06
560.895	319.06
561.107	321.06
561.32	355.06
561.532	327.06
561.744	331.06
561.956	332.06
562.168	327.06
562.381	327.06
562.593	321.06
562.805	335.06
563.017	336.06
563.229	324.06
563.441	341.06
563.653	340.06
563.865	337.06
564.077	334.06
564.289	329.06
564.501	331.06
564.713	335.06
564.925	338.06
565.137	350.06
565.349	344.06
565.561	350.06
565.773	355.06
565.985	360.06
566.197	357.06
566.408	349.06
566.62	362.06
566.832	372.06
567.044	380.06
567.255	389.06
567.467	376.06
567.679	373.06
567.891	373.06
568.102	377.06
568.314	363.06
568.526	382.06
568.737	354.06
568.949	361.06
569.161	342.06
569.372	343.06
569.584	335.06
569.795	340.06
570.007	335.06
570.218	366.06
570.43	372.06
570.641	328.06
570.853	324.06
571.064	330.06
571.276	303.06
571.487	318.06
571.698	307.06
571.91	321.06
572.121	306.06
572.333	313.06
572.544	304.06
572.755	308.06
572.966	307.06
573.178	317.06
573.389	286.06
573.6	292.06
573.811	298.06
574.023	283.06
574.234	311.06
574.445	297.06
574.656	292.06
574.867	272.06
575.078	281.06
575.289	282.06
575.501	293.06
575.712	288.06
575.923	270.06
576.134	293.06
576.345	286.06
576.556	308.06
576.767	278.06
576.978	291.06
577.188	286.06
577.399	295.06
577.61	276.06
577.821	300.06
578.032	273.06
578.243	332.06
578.454	579.06
578.665	417.06
578.875	294.06
579.086	271.06
579.297	260.06
579.508	269.06
579.718	269.06
579.929	271.06
580.14	279.06
580.35	278.06
580.561	269.06
580.772	277.06
580.982	254.06
581.193	264.06
581.403	262.06
581.614	267.06
581.825	258.06
582.035	263.06
582.246	262.06
582.456	259.06
582.667	252.06
582.877	266.06
583.087	253.06
583.298	269.06
583.508	275.06
583.719	266.06
583.929	242.06
584.139	265.06
584.35	257.06
584.56	268.06
584.77	265.06
584.981	267.06
585.191	269.06
585.401	262.06
585.611	259.06
585.821	259.06
586.032	248.06
586.242	250.06
586.452	239.06
586.662	252.06
586.872	234.06
587.082	272.06
587.292	256.06
587.502	268.06
587.713	224.06
587.923	246.06
588.133	250.06
588.343	245.06
588.553	244.06
588.762	244.06
588.972	266.06
589.182	326.06
589.392	310.06
589.602	263.06
589.812	295.06
590.022	286.06
590.232	242.06
590.441	240.06
590.651	250.06
590.861	248.06
591.071	253.06
591.281	243.06
591.49	260.06
591.7	238.06
591.91	249.06
592.119	262.06
592.329	272.06
592.539	256.06
592.748	272.06
592.958	266.06
593.167	268.06
593.377	257.06
593.587	261.06
593.796	270.06
594.006	246.06
594.215	260.06
594.424	246.06
594.634	263.06
594.843	239.06
595.053	256.06
595.262	242.06
595.472	244.06
595.681	264.06
595.89	256.06
596.1	239.06
596.309	245.06
596.518	243.06
596.727	235.06
596.937	235.06
597.146	250.06
597.355	250.06
597.564	233.06
597.774	227.06
597.983	240.06
598.192	234.06
598.401	233.06
598.61	254.06
598.819	232.06
599.028	224.06
599.237	244.06
599.446	243.06
599.655	237.06
599.864	240.06
600.073	225.06
600.282	239.06
600.491	221.06
600.7	213.06
600.909	230.06
601.118	219.06
601.327	238.06
601.536	225.06
601.745	227.06
601.953	200.06
602.162	232.06
602.371	228.06
602.58	212.06
602.789	231.06
602.997	212.06
603.206	220.06
603.415	235.06
603.623	227.06
603.832	221.06
604.041	225.06
604.249	237.06
604.458	215.06
604.666	214.06
604.875	203.06
605.084	226.06
605.292	213.06
605.501	202.06
605.709	232.06
605.918	228.06
606.126	223.06
606.334	222.06
606.543	213.06
606.751	222.06
606.96	210.06
607.168	206.06
607.376	219.06
607.585	192.06
607.793	208.06
608.001	210.06
608.21	217.06
608.418	223.06
608.626	206.06
608.834	218.06
609.043	207.06
609.251	208.06
609.459	215.06
609.667	204.06
609.875	219.06
610.083	225.06
610.291	223.06
610.499	222.06
610.707	214.06
610.916	207.06
611.124	219.06
611.332	228.06
611.54	220.06
611.748	224.06
611.955	226.06
612.163	217.06
612.371	215.06
612.579	222.06
612.787	210.06
612.995	215.06
613.203	211.06
613.411	205.06
613.618	198.06
613.826	212.06
614.034	203.06
614.242	212.06
614.449	217.06
614.657	215.06
614.865	221.06
615.072	224.06
615.28	204.06
615.488	209.06
615.695	194.06
615.903	208.06
616.111	198.06
616.318	214.06
616.526	215.06
616.733	208.06
616.941	193.06
617.148	207.06
617.356	206.06
617.563	202.06
617.771	207.06
617.978	183.06
618.185	204.06
618.393	202.06
618.6	216.06
618.807	212.06
619.015	210.06
619.222	219.06
619.429	218.06
619.637	192.06
619.844	199.06
620.051	210.06
620.258	204.06
620.466	194.06
620.673	203.06
620.88	203.06
621.087	197.06
621.294	186.06
621.501	193.06
621.708	207.06
621.915	187.06
622.122	199.06
622.329	204.06
622.536	211.06
622.743	212.06
622.95	200.06
623.157	199.06
623.364	191.06
623.571	203.06
623.778	197.06
623.985	196.06
624.192	206.06
624.399	194.06
624.606	188.06
624.812	199.06
625.019	203.06
625.226	185.06
625.433	197.06
625.639	203.06
625.846	201.06
626.053	181.06
626.259	196.06
626.466	199.06
626.673	200.06
626.879	175.06
627.086	188.06
627.293	192.06
627.499	203.06
627.706	188.06
627.912	170.06
628.119	179.06
628.325	196.06
628.532	182.06
628.738	192.06
628.945	206.06
629.151	159.06
629.357	183.06
629.564	176.06
629.77	161.06
629.976	172.06
630.183	176.06
630.389	176.06
630.595	182.06
630.802	166.06
631.008	173.06
631.214	178.06
631.42	174.06
631.627	167.06
631.833	163.06
632.039	176.06
632.245	167.06
632.451	159.06
632.657	174.06
632.863	184.06
633.069	166.06
633.275	162.06
633.481	169.06
633.688	174.06
633.893	178.06
634.099	176.06
634.305	163.06
634.511	169.06
634.717	174.06
634.923	173.06
635.129	170.06
635.335	155.06
635.541	162.06
635.747	173.06
635.952	157.06
636.158	171.06
636.364	154.06
636.57	162.06
636.775	157.06
636.981	151.06
637.187	150.06
637.392	174.06
637.598	175.06
637.804	159.06
638.009	157.06
638.215	162.06
638.421	175.06
638.626	152.06
638.832	147.06
639.037	174.06
639.243	154.06
639.448	163.06
639.654	159.06
639.859	151.06
640.065	151.06
640.27	156.06
640.475	144.06
640.681	153.06
640.886	158.06
641.091	151.06
641.297	170.06
641.502	155.06
641.707	157.06
641.913	173.06
642.118	160.06
642.323	164.06
642.528	155.06
642.733	137.06
642.939	166.06
643.144	169.06
643.349	163.06
643.554	163.06
643.759	151.06
643.964	154.06
644.169	155.06
644.374	162.06
644.579	164.06
644.784	155.06
644.989	150.06
645.194	145.06
645.399	149.06
645.604	134.06
645.809	147.06
646.014	151.06
646.219	163.06
646.423	151.06
646.628	158.06
646.833	166.06
647.038	164.06
647.243	154.06
647.447	150.06
647.652	142.06
647.857	145.06
648.062	130.06
648.266	150.06
648.471	162.06
648.676	144.06
648.88	150.06
649.085	149.06
649.289	153.06
649.494	156.06
649.698	165.06
649.903	159.06
650.107	159.06
650.312	152.06
650.516	159.06
650.721	149.06
650.925	153.06
651.13	150.06
651.334	156.06
651.539	134.06
651.743	139.06
651.947	132.06
652.152	132.06
652.356	131.06
652.56	138.06
652.764	119.06
652.969	134.06
653.173	139.06
653.377	145.06
653.581	130.06
653.785	139.06
653.99	134.06
654.194	120.06
654.398	123.06
654.602	126.06
654.806	117.06
655.01	132.06
655.214	132.06
655.418	135.06
655.622	131.06
655.826	123.06
656.03	141.06
656.234	141.06
656.438	141.06
656.642	127.06
656.846	133.06
657.049	143.06
657.253	132.06
657.457	130.06
657.661	112.06
657.865	118.06
658.068	108.06
658.272	109.06
658.476	114.06
658.68	105.06
658.883	101.06
659.087	111.06
659.291	93.06
659.494	107.06
659.698	101.06
659.901	100.06
660.105	83.06
660.309	99.06
660.512	82.06
660.716	87.06
660.919	104.06
661.123	91.06
661.326	108.06
661.53	86.06
661.733	89.06
661.936	89.06
662.14	90.06
662.343	99.06
662.546	97.06
662.75	98.06
662.953	106.06
663.156	96.06
663.36	85.06
663.563	83.06
663.766	85.06
663.969	89.06
664.173	94.06
664.376	96.06
664.579	83.06
664.782	81.06
664.985	93.06
665.188	91.06
665.391	86.06
665.594	90.06
665.797	91.06
666	80.06
666.203	98.06
666.406	87.06
666.609	88.06
666.812	80.06
667.015	71.06
667.218	75.06
667.421	102.06
667.624	84.06
667.827	94.06
668.03	94.06
668.232	77.06
668.435	86.06
668.638	97.06
668.841	76.06
669.043	76.06
669.246	90.06
669.449	88.06
669.651	85.06
669.854	77.06
670.057	79.06
670.259	85.06
670.462	92.06
670.665	85.06
670.867	78.06
671.07	80.06
671.272	101.06
671.475	94.06
671.677	79.06
671.88	81.06
672.082	63.06
672.284	82.06
672.487	78.06
672.689	87.06
672.892	78.06
