Data from 1986.PennyLincolnUp.Lamp.En5.5.200Scan.071819.P2_HRD10591_17-12-29-972.txt Node
Date: Thu Jul 18 17:12:29 EDT 2019
User: cochatt
Spectrometer: HR+D1059
Trigger mode: 1
Integration Time (sec): 1.000000E-1
Scans to average: 1
Electric dark correction enabled: true
Nonlinearity correction enabled: false
Boxcar width: 0
XAxis mode: Wavelengths
Number of Pixels in Spectrum: 2048
>>>>>Begin Spectral Data<<<<<
223.165	-14.19
223.4	-14.19
223.635	-14.19
223.869	-30.19
224.104	-16.19
224.338	-13.19
224.573	-23.19
224.808	-1.19
225.042	-8.19
225.277	-7.19
225.511	-1.19
225.746	-2.19
225.98	-1.19
226.215	-0.19
226.449	21.81
226.683	24.81
226.918	36.81
227.152	34.81
227.387	44.81
227.621	48.81
227.856	56.81
228.09	45.81
228.324	45.81
228.559	54.81
228.793	68.81
229.027	108.81
229.262	105.81
229.496	117.81
229.73	151.81
229.964	155.81
230.199	121.81
230.433	126.81
230.667	117.81
230.901	119.81
231.136	109.81
231.37	117.81
231.604	114.81
231.838	118.81
232.072	109.81
232.306	116.81
232.541	122.81
232.775	115.81
233.009	122.81
233.243	117.81
233.477	116.81
233.711	116.81
233.945	100.81
234.179	119.81
234.413	139.81
234.647	117.81
234.881	112.81
235.115	118.81
235.349	132.81
235.583	125.81
235.817	138.81
236.051	117.81
236.285	115.81
236.519	115.81
236.753	133.81
236.987	140.81
237.221	188.81
237.455	243.81
237.689	209.81
237.922	148.81
238.156	149.81
238.39	141.81
238.624	137.81
238.858	139.81
239.091	130.81
239.325	129.81
239.559	126.81
239.793	148.81
240.027	136.81
240.26	150.81
240.494	168.81
240.728	160.81
240.961	164.81
241.195	170.81
241.429	140.81
241.662	137.81
241.896	158.81
242.13	134.81
242.363	142.81
242.597	144.81
242.83	130.81
243.064	130.81
243.298	147.81
243.531	148.81
243.765	162.81
243.998	141.81
244.232	144.81
244.465	152.81
244.699	173.81
244.932	170.81
245.166	159.81
245.399	150.81
245.633	147.81
245.866	159.81
246.099	160.81
246.333	164.81
246.566	152.81
246.8	156.81
247.033	153.81
247.266	165.81
247.5	173.81
247.733	189.81
247.966	177.81
248.2	155.81
248.433	178.81
248.666	195.81
248.899	205.81
249.133	202.81
249.366	256.81
249.599	219.81
249.832	207.81
250.066	209.81
250.299	225.81
250.532	247.81
250.765	280.81
250.998	284.81
251.231	263.81
251.465	276.81
251.698	260.81
251.931	235.81
252.164	231.81
252.397	226.81
252.63	238.81
252.863	228.81
253.096	246.81
253.329	266.81
253.562	253.81
253.795	241.81
254.028	251.81
254.261	246.81
254.494	253.81
254.727	268.81
254.96	307.81
255.193	301.81
255.426	300.81
255.659	307.81
255.892	298.81
256.124	345.81
256.357	400.81
256.59	360.81
256.823	321.81
257.056	300.81
257.289	280.81
257.521	267.81
257.754	270.81
257.987	261.81
258.22	242.81
258.452	247.81
258.685	235.81
258.918	253.81
259.151	256.81
259.383	261.81
259.616	238.81
259.849	258.81
260.081	250.81
260.314	289.81
260.547	281.81
260.779	266.81
261.012	268.81
261.244	269.81
261.477	234.81
261.71	267.81
261.942	258.81
262.175	262.81
262.407	248.81
262.64	237.81
262.872	242.81
263.105	225.81
263.337	252.81
263.57	242.81
263.802	234.81
264.035	230.81
264.267	250.81
264.499	228.81
264.732	228.81
264.964	228.81
265.197	241.81
265.429	234.81
265.661	240.81
265.894	236.81
266.126	244.81
266.358	229.81
266.591	222.81
266.823	242.81
267.055	224.81
267.287	257.81
267.52	242.81
267.752	247.81
267.984	245.81
268.216	237.81
268.448	244.81
268.681	257.81
268.913	260.81
269.145	267.81
269.377	296.81
269.609	289.81
269.841	283.81
270.073	297.81
270.306	315.81
270.538	339.81
270.77	341.81
271.002	313.81
271.234	308.81
271.466	320.81
271.698	320.81
271.93	355.81
272.162	338.81
272.394	343.81
272.626	342.81
272.858	323.81
273.09	314.81
273.322	297.81
273.553	272.81
273.785	300.81
274.017	301.81
274.249	289.81
274.481	276.81
274.713	275.81
274.945	316.81
275.176	278.81
275.408	305.81
275.64	294.81
275.872	295.81
276.104	292.81
276.335	293.81
276.567	270.81
276.799	304.81
277.031	327.81
277.262	352.81
277.494	365.81
277.726	350.81
277.957	317.81
278.189	317.81
278.421	291.81
278.652	309.81
278.884	283.81
279.115	294.81
279.347	300.81
279.579	278.81
279.81	284.81
280.042	296.81
280.273	306.81
280.505	297.81
280.736	315.81
280.968	293.81
281.199	302.81
281.431	310.81
281.662	283.81
281.894	284.81
282.125	283.81
282.356	306.81
282.588	324.81
282.819	332.81
283.051	304.81
283.282	284.81
283.513	302.81
283.745	305.81
283.976	313.81
284.207	294.81
284.439	289.81
284.67	296.81
284.901	288.81
285.132	280.81
285.364	283.81
285.595	279.81
285.826	273.81
286.057	294.81
286.288	291.81
286.52	291.81
286.751	290.81
286.982	296.81
287.213	280.81
287.444	288.81
287.675	299.81
287.906	299.81
288.138	292.81
288.369	318.81
288.6	300.81
288.831	301.81
289.062	299.81
289.293	307.81
289.524	306.81
289.755	285.81
289.986	292.81
290.217	294.81
290.448	288.81
290.679	299.81
290.91	316.81
291.141	294.81
291.371	282.81
291.602	280.81
291.833	294.81
292.064	296.81
292.295	296.81
292.526	305.81
292.757	296.81
292.987	316.81
293.218	284.81
293.449	311.81
293.68	274.81
293.91	291.81
294.141	286.81
294.372	295.81
294.603	304.81
294.833	297.81
295.064	289.81
295.295	307.81
295.525	281.81
295.756	306.81
295.987	299.81
296.217	318.81
296.448	336.81
296.679	308.81
296.909	306.81
297.14	313.81
297.37	296.81
297.601	310.81
297.831	327.81
298.062	287.81
298.292	336.81
298.523	320.81
298.753	315.81
298.984	299.81
299.214	300.81
299.445	309.81
299.675	315.81
299.905	322.81
300.136	310.81
300.366	327.81
300.597	312.81
300.827	321.81
301.057	334.81
301.288	355.81
301.518	320.81
301.748	319.81
301.979	339.81
302.209	326.81
302.439	313.81
302.669	318.81
302.9	322.81
303.13	320.81
303.36	340.81
303.59	321.81
303.82	344.81
304.051	351.81
304.281	331.81
304.511	331.81
304.741	335.81
304.971	318.81
305.201	324.81
305.431	330.81
305.661	327.81
305.891	331.81
306.121	324.81
306.352	355.81
306.582	338.81
306.812	335.81
307.042	325.81
307.272	353.81
307.502	349.81
307.731	343.81
307.961	357.81
308.191	354.81
308.421	347.81
308.651	323.81
308.881	346.81
309.111	347.81
309.341	353.81
309.571	352.81
309.8	350.81
310.03	394.81
310.26	400.81
310.49	399.81
310.72	394.81
310.949	404.81
311.179	422.81
311.409	409.81
311.639	409.81
311.868	396.81
312.098	378.81
312.328	388.81
312.557	409.81
312.787	433.81
313.017	417.81
313.246	394.81
313.476	385.81
313.706	397.81
313.935	403.81
314.165	398.81
314.394	420.81
314.624	416.81
314.853	392.81
315.083	407.81
315.312	385.81
315.542	373.81
315.771	385.81
316.001	372.81
316.23	370.81
316.46	385.81
316.689	384.81
316.919	395.81
317.148	390.81
317.377	398.81
317.607	408.81
317.836	372.81
318.065	376.81
318.295	383.81
318.524	380.81
318.753	399.81
318.983	386.81
319.212	402.81
319.441	402.81
319.67	417.81
319.9	402.81
320.129	400.81
320.358	406.81
320.587	411.81
320.816	395.81
321.046	418.81
321.275	418.81
321.504	425.81
321.733	421.81
321.962	429.81
322.191	455.81
322.42	457.81
322.649	481.81
322.878	493.81
323.108	478.81
323.337	522.81
323.566	544.81
323.795	590.81
324.024	652.81
324.253	766.81
324.482	1126.81
324.71	1727.81
324.939	2440.81
325.168	2207.81
325.397	1143.81
325.626	776.81
325.855	648.81
326.084	585.81
326.313	578.81
326.542	586.81
326.77	664.81
326.999	750.81
327.228	1027.81
327.457	1538.81
327.686	1871.81
327.914	1282.81
328.143	916.81
328.372	852.81
328.6	774.81
328.829	705.81
329.058	714.81
329.287	702.81
329.515	693.81
329.744	677.81
329.972	721.81
330.201	823.81
330.43	954.81
330.658	905.81
330.887	795.81
331.115	726.81
331.344	649.81
331.572	596.81
331.801	600.81
332.03	568.81
332.258	563.81
332.486	527.81
332.715	539.81
332.943	534.81
333.172	534.81
333.4	540.81
333.629	584.81
333.857	633.81
334.085	678.81
334.314	803.81
334.542	955.81
334.771	1055.81
334.999	787.81
335.227	629.81
335.455	572.81
335.684	538.81
335.912	522.81
336.14	504.81
336.369	483.81
336.597	478.81
336.825	482.81
337.053	470.81
337.281	477.81
337.51	448.81
337.738	462.81
337.966	458.81
338.194	450.81
338.422	441.81
338.65	442.81
338.878	461.81
339.106	425.81
339.334	442.81
339.562	428.81
339.79	421.81
340.018	439.81
340.246	424.81
340.474	453.81
340.702	448.81
340.93	439.81
341.158	423.81
341.386	443.81
341.614	446.81
341.842	451.81
342.07	424.81
342.298	428.81
342.526	423.81
342.754	436.81
342.981	414.81
343.209	412.81
343.437	427.81
343.665	411.81
343.893	422.81
344.12	409.81
344.348	417.81
344.576	438.81
344.804	460.81
345.031	451.81
345.259	449.81
345.487	442.81
345.714	444.81
345.942	432.81
346.17	415.81
346.397	419.81
346.625	422.81
346.853	408.81
347.08	397.81
347.308	413.81
347.535	422.81
347.763	423.81
347.99	440.81
348.218	422.81
348.445	434.81
348.673	452.81
348.9	422.81
349.128	399.81
349.355	401.81
349.583	423.81
349.81	397.81
350.037	401.81
350.265	386.81
350.492	389.81
350.72	408.81
350.947	395.81
351.174	418.81
351.402	426.81
351.629	426.81
351.856	450.81
352.083	430.81
352.311	463.81
352.538	431.81
352.765	445.81
352.992	434.81
353.22	406.81
353.447	410.81
353.674	412.81
353.901	397.81
354.128	396.81
354.355	396.81
354.583	385.81
354.81	382.81
355.037	386.81
355.264	389.81
355.491	376.81
355.718	372.81
355.945	386.81
356.172	393.81
356.399	397.81
356.626	375.81
356.853	383.81
357.08	366.81
357.307	380.81
357.534	397.81
357.761	372.81
357.988	378.81
358.215	380.81
358.441	377.81
358.668	380.81
358.895	398.81
359.122	377.81
359.349	391.81
359.576	397.81
359.802	410.81
360.029	441.81
360.256	462.81
360.483	453.81
360.709	420.81
360.936	416.81
361.163	421.81
361.39	429.81
361.616	412.81
361.843	409.81
362.07	408.81
362.296	403.81
362.523	416.81
362.749	421.81
362.976	413.81
363.203	404.81
363.429	406.81
363.656	393.81
363.882	400.81
364.109	402.81
364.335	403.81
364.562	380.81
364.788	394.81
365.015	394.81
365.241	405.81
365.468	389.81
365.694	398.81
365.92	388.81
366.147	368.81
366.373	397.81
366.599	382.81
366.826	382.81
367.052	377.81
367.278	373.81
367.505	389.81
367.731	403.81
367.957	400.81
368.184	398.81
368.41	370.81
368.636	394.81
368.862	411.81
369.089	380.81
369.315	369.81
369.541	392.81
369.767	386.81
369.993	406.81
370.219	389.81
370.445	398.81
370.672	377.81
370.898	368.81
371.124	378.81
371.35	380.81
371.576	387.81
371.802	364.81
372.028	386.81
372.254	372.81
372.48	376.81
372.706	368.81
372.932	377.81
373.158	374.81
373.384	378.81
373.61	380.81
373.835	378.81
374.061	380.81
374.287	376.81
374.513	375.81
374.739	380.81
374.965	376.81
375.191	372.81
375.416	393.81
375.642	378.81
375.868	374.81
376.094	377.81
376.319	370.81
376.545	384.81
376.771	377.81
376.997	360.81
377.222	380.81
377.448	349.81
377.674	368.81
377.899	374.81
378.125	360.81
378.35	373.81
378.576	374.81
378.802	358.81
379.027	356.81
379.253	362.81
379.478	365.81
379.704	354.81
379.929	368.81
380.155	376.81
380.38	363.81
380.606	384.81
380.831	380.81
381.057	357.81
381.282	362.81
381.507	374.81
381.733	368.81
381.958	372.81
382.184	370.81
382.409	366.81
382.634	366.81
382.86	361.81
383.085	372.81
383.31	370.81
383.535	390.81
383.761	390.81
383.986	360.81
384.211	377.81
384.436	392.81
384.662	377.81
384.887	382.81
385.112	386.81
385.337	362.81
385.562	391.81
385.787	382.81
386.013	391.81
386.238	394.81
386.463	420.81
386.688	373.81
386.913	401.81
387.138	369.81
387.363	373.81
387.588	398.81
387.813	368.81
388.038	394.81
388.263	388.81
388.488	376.81
388.713	400.81
388.938	394.81
389.163	391.81
389.387	392.81
389.612	396.81
389.837	372.81
390.062	403.81
390.287	389.81
390.512	385.81
390.736	373.81
390.961	373.81
391.186	383.81
391.411	386.81
391.636	387.81
391.86	404.81
392.085	388.81
392.31	374.81
392.534	381.81
392.759	389.81
392.984	370.81
393.208	389.81
393.433	409.81
393.658	384.81
393.882	377.81
394.107	388.81
394.331	382.81
394.556	376.81
394.78	390.81
395.005	372.81
395.229	391.81
395.454	391.81
395.678	399.81
395.903	412.81
396.127	417.81
396.352	432.81
396.576	399.81
396.801	378.81
397.025	411.81
397.249	412.81
397.474	398.81
397.698	397.81
397.922	429.81
398.147	450.81
398.371	428.81
398.595	418.81
398.82	437.81
399.044	420.81
399.268	416.81
399.492	436.81
399.717	456.81
399.941	488.81
400.165	502.81
400.389	540.81
400.613	477.81
400.837	459.81
401.062	440.81
401.286	466.81
401.51	450.81
401.734	437.81
401.958	417.81
402.182	433.81
402.406	444.81
402.63	442.81
402.854	449.81
403.078	448.81
403.302	460.81
403.526	452.81
403.75	456.81
403.974	455.81
404.198	465.81
404.422	487.81
404.645	494.81
404.869	508.81
405.093	562.81
405.317	602.81
405.541	650.81
405.765	583.81
405.988	530.81
406.212	544.81
406.436	535.81
406.66	535.81
406.883	509.81
407.107	517.81
407.331	552.81
407.555	618.81
407.778	592.81
408.002	578.81
408.226	547.81
408.449	518.81
408.673	514.81
408.896	548.81
409.12	565.81
409.344	536.81
409.567	484.81
409.791	484.81
410.014	481.81
410.238	452.81
410.461	456.81
410.685	441.81
410.908	476.81
411.132	514.81
411.355	553.81
411.578	509.81
411.802	490.81
412.025	488.81
412.249	501.81
412.472	542.81
412.695	627.81
412.919	634.81
413.142	551.81
413.365	522.81
413.589	515.81
413.812	477.81
414.035	465.81
414.258	450.81
414.482	458.81
414.705	462.81
414.928	430.81
415.151	433.81
415.374	444.81
415.597	433.81
415.821	438.81
416.044	440.81
416.267	441.81
416.49	453.81
416.713	424.81
416.936	454.81
417.159	432.81
417.382	437.81
417.605	474.81
417.828	466.81
418.051	487.81
418.274	480.81
418.497	447.81
418.72	447.81
418.943	457.81
419.166	473.81
419.389	483.81
419.611	497.81
419.834	470.81
420.057	498.81
420.28	534.81
420.503	533.81
420.726	524.81
420.948	533.81
421.171	571.81
421.394	569.81
421.617	505.81
421.839	496.81
422.062	475.81
422.285	497.81
422.507	544.81
422.73	635.81
422.953	599.81
423.175	529.81
423.398	484.81
423.621	478.81
423.843	507.81
424.066	498.81
424.288	524.81
424.511	547.81
424.733	570.81
424.956	658.81
425.178	634.81
425.401	615.81
425.623	635.81
425.846	543.81
426.068	518.81
426.291	481.81
426.513	500.81
426.735	515.81
426.958	550.81
427.18	659.81
427.402	759.81
427.625	880.81
427.847	790.81
428.069	726.81
428.292	640.81
428.514	563.81
428.736	522.81
428.958	502.81
429.181	491.81
429.403	470.81
429.625	489.81
429.847	517.81
430.069	581.81
430.292	593.81
430.514	478.81
430.736	472.81
430.958	467.81
431.18	451.81
431.402	460.81
431.624	441.81
431.846	424.81
432.068	448.81
432.29	445.81
432.512	448.81
432.734	463.81
432.956	465.81
433.178	438.81
433.4	461.81
433.622	445.81
433.844	441.81
434.066	448.81
434.287	442.81
434.509	440.81
434.731	423.81
434.953	440.81
435.175	482.81
435.397	502.81
435.618	504.81
435.84	534.81
436.062	649.81
436.284	715.81
436.505	614.81
436.727	524.81
436.949	502.81
437.17	482.81
437.392	485.81
437.614	488.81
437.835	524.81
438.057	634.81
438.278	735.81
438.5	714.81
438.721	777.81
438.943	729.81
439.165	571.81
439.386	545.81
439.608	519.81
439.829	522.81
440.05	570.81
440.272	609.81
440.493	576.81
440.715	518.81
440.936	471.81
441.158	486.81
441.379	496.81
441.6	456.81
441.822	504.81
442.043	547.81
442.264	628.81
442.486	689.81
442.707	565.81
442.928	525.81
443.149	538.81
443.371	559.81
443.592	610.81
443.813	658.81
444.034	731.81
444.255	634.81
444.476	538.81
444.698	498.81
444.919	521.81
445.14	590.81
445.361	553.81
445.582	564.81
445.803	630.81
446.024	726.81
446.245	734.81
446.466	686.81
446.687	588.81
446.908	534.81
447.129	486.81
447.35	476.81
447.571	481.81
447.792	482.81
448.013	477.81
448.234	489.81
448.455	531.81
448.675	660.81
448.896	794.81
449.117	653.81
449.338	634.81
449.559	709.81
449.779	801.81
450	655.81
450.221	551.81
450.442	472.81
450.662	482.81
450.883	492.81
451.104	512.81
451.324	486.81
451.545	454.81
451.766	443.81
451.986	440.81
452.207	430.81
452.428	416.81
452.648	418.81
452.869	435.81
453.089	427.81
453.31	464.81
453.53	446.81
453.751	433.81
453.971	429.81
454.192	444.81
454.412	438.81
454.633	419.81
454.853	436.81
455.073	404.81
455.294	452.81
455.514	533.81
455.734	507.81
455.955	426.81
456.175	436.81
456.395	406.81
456.616	396.81
456.836	369.81
457.056	420.81
457.276	396.81
457.497	391.81
457.717	409.81
457.937	414.81
458.157	418.81
458.377	414.81
458.598	424.81
458.818	500.81
459.038	604.81
459.258	607.81
459.478	503.81
459.698	458.81
459.918	436.81
460.138	443.81
460.358	435.81
460.578	422.81
460.798	448.81
461.018	431.81
461.238	444.81
461.458	437.81
461.678	445.81
461.898	416.81
462.118	408.81
462.338	437.81
462.558	443.81
462.777	473.81
462.997	438.81
463.217	438.81
463.437	452.81
463.657	441.81
463.876	458.81
464.096	460.81
464.316	465.81
464.536	441.81
464.755	486.81
464.975	467.81
465.195	510.81
465.414	592.81
465.634	539.81
465.854	485.81
466.073	460.81
466.293	451.81
466.512	442.81
466.732	448.81
466.951	421.81
467.171	447.81
467.391	457.81
467.61	452.81
467.829	472.81
468.049	481.81
468.268	538.81
468.488	486.81
468.707	468.81
468.927	465.81
469.146	411.81
469.365	435.81
469.585	419.81
469.804	427.81
470.023	438.81
470.243	434.81
470.462	473.81
470.681	471.81
470.901	468.81
471.12	446.81
471.339	450.81
471.558	455.81
471.777	474.81
471.997	466.81
472.216	546.81
472.435	759.81
472.654	699.81
472.873	547.81
473.092	502.81
473.311	460.81
473.53	494.81
473.749	513.81
473.968	530.81
474.187	617.81
474.406	649.81
474.625	520.81
474.844	501.81
475.063	488.81
475.282	464.81
475.501	458.81
475.72	463.81
475.939	477.81
476.158	470.81
476.377	480.81
476.596	483.81
476.814	483.81
477.033	473.81
477.252	480.81
477.471	483.81
477.69	475.81
477.908	491.81
478.127	494.81
478.346	474.81
478.564	483.81
478.783	487.81
479.002	496.81
479.22	502.81
479.439	536.81
479.658	551.81
479.876	566.81
480.095	560.81
480.313	581.81
480.532	586.81
480.751	598.81
480.969	672.81
481.188	954.81
481.406	1219.81
481.624	861.81
481.843	716.81
482.061	650.81
482.28	634.81
482.498	604.81
482.717	586.81
482.935	568.81
483.153	569.81
483.372	554.81
483.59	550.81
483.808	555.81
484.027	571.81
484.245	572.81
484.463	562.81
484.681	575.81
484.9	570.81
485.118	554.81
485.336	561.81
485.554	578.81
485.772	580.81
485.99	553.81
486.209	572.81
486.427	570.81
486.645	594.81
486.863	609.81
487.081	596.81
487.299	611.81
487.517	607.81
487.735	605.81
487.953	600.81
488.171	599.81
488.389	582.81
488.607	589.81
488.825	598.81
489.043	584.81
489.261	618.81
489.479	605.81
489.696	606.81
489.914	636.81
490.132	652.81
490.35	628.81
490.568	642.81
490.786	651.81
491.003	679.81
491.221	693.81
491.439	682.81
491.657	688.81
491.874	723.81
492.092	704.81
492.31	758.81
492.527	731.81
492.745	733.81
492.963	720.81
493.18	756.81
493.398	760.81
493.615	728.81
493.833	739.81
494.05	737.81
494.268	733.81
494.485	727.81
494.703	723.81
494.92	745.81
495.138	721.81
495.355	738.81
495.573	720.81
495.79	740.81
496.008	752.81
496.225	702.81
496.442	703.81
496.66	716.81
496.877	725.81
497.094	709.81
497.312	706.81
497.529	710.81
497.746	692.81
497.963	730.81
498.181	766.81
498.398	746.81
498.615	733.81
498.832	761.81
499.049	747.81
499.267	780.81
499.484	785.81
499.701	761.81
499.918	754.81
500.135	809.81
500.352	811.81
500.569	823.81
500.786	843.81
501.003	863.81
501.22	839.81
501.437	830.81
501.654	843.81
501.871	808.81
502.088	792.81
502.305	749.81
502.522	740.81
502.739	738.81
502.956	705.81
503.172	709.81
503.389	685.81
503.606	704.81
503.823	682.81
504.04	698.81
504.256	690.81
504.473	656.81
504.69	674.81
504.907	688.81
505.123	654.81
505.34	676.81
505.557	672.81
505.773	637.81
505.99	666.81
506.207	642.81
506.423	661.81
506.64	667.81
506.856	655.81
507.073	642.81
507.289	641.81
507.506	655.81
507.722	682.81
507.939	672.81
508.155	658.81
508.372	640.81
508.588	648.81
508.805	633.81
509.021	633.81
509.238	638.81
509.454	669.81
509.67	652.81
509.887	650.81
510.103	629.81
510.319	643.81
510.536	736.81
510.752	1248.81
510.968	1050.81
511.184	685.81
511.401	637.81
511.617	634.81
511.833	663.81
512.049	662.81
512.265	648.81
512.481	633.81
512.698	639.81
512.914	624.81
513.13	634.81
513.346	611.81
513.562	599.81
513.778	618.81
513.994	630.81
514.21	653.81
514.426	664.81
514.642	712.81
514.858	697.81
515.074	772.81
515.29	917.81
515.506	1321.81
515.721	1107.81
515.937	768.81
516.153	674.81
516.369	640.81
516.585	614.81
516.801	635.81
517.016	618.81
517.232	611.81
517.448	618.81
517.664	615.81
517.879	587.81
518.095	584.81
518.311	572.81
518.527	573.81
518.742	584.81
518.958	608.81
519.173	577.81
519.389	599.81
519.605	608.81
519.82	598.81
520.036	636.81
520.251	638.81
520.467	684.81
520.682	664.81
520.898	686.81
521.113	706.81
521.329	717.81
521.544	877.81
521.76	1085.81
521.975	1792.81
522.19	1756.81
522.406	956.81
522.621	732.81
522.836	642.81
523.052	610.81
523.267	598.81
523.482	568.81
523.698	574.81
523.913	576.81
524.128	556.81
524.343	534.81
524.559	529.81
524.774	500.81
524.989	548.81
525.204	532.81
525.419	524.81
525.634	508.81
525.849	513.81
526.064	506.81
526.28	483.81
526.495	498.81
526.71	476.81
526.925	499.81
527.14	501.81
527.355	486.81
527.57	497.81
527.785	501.81
527.999	460.81
528.214	480.81
528.429	489.81
528.644	493.81
528.859	478.81
529.074	469.81
529.289	529.81
529.503	620.81
529.718	587.81
529.933	503.81
530.148	509.81
530.363	480.81
530.577	486.81
530.792	462.81
531.007	492.81
531.221	489.81
531.436	465.81
531.651	467.81
531.865	448.81
532.08	480.81
532.295	475.81
532.509	448.81
532.724	452.81
532.938	465.81
533.153	486.81
533.367	437.81
533.582	454.81
533.796	464.81
534.011	457.81
534.225	468.81
534.44	446.81
534.654	445.81
534.868	449.81
535.083	439.81
535.297	444.81
535.511	449.81
535.726	466.81
535.94	465.81
536.154	465.81
536.369	457.81
536.583	438.81
536.797	423.81
537.011	420.81
537.225	468.81
537.44	439.81
537.654	416.81
537.868	444.81
538.082	437.81
538.296	439.81
538.51	449.81
538.724	436.81
538.938	427.81
539.153	451.81
539.367	437.81
539.581	448.81
539.795	446.81
540.009	443.81
540.222	436.81
540.436	430.81
540.65	428.81
540.864	427.81
541.078	448.81
541.292	446.81
541.506	429.81
541.72	420.81
541.934	425.81
542.147	439.81
542.361	445.81
542.575	413.81
542.789	428.81
543.002	434.81
543.216	445.81
543.43	451.81
543.644	433.81
543.857	436.81
544.071	430.81
544.285	412.81
544.498	423.81
544.712	431.81
544.925	438.81
545.139	421.81
545.352	415.81
545.566	410.81
545.779	405.81
545.993	412.81
546.206	413.81
546.42	413.81
546.633	410.81
546.847	422.81
547.06	424.81
547.274	415.81
547.487	407.81
547.7	425.81
547.914	396.81
548.127	415.81
548.34	416.81
548.554	374.81
548.767	410.81
548.98	398.81
549.193	417.81
549.407	402.81
549.62	393.81
549.833	410.81
550.046	385.81
550.259	401.81
550.473	396.81
550.686	380.81
550.899	390.81
551.112	379.81
551.325	362.81
551.538	411.81
551.751	403.81
551.964	393.81
552.177	388.81
552.39	387.81
552.603	398.81
552.816	422.81
553.029	381.81
553.242	390.81
553.455	407.81
553.667	408.81
553.88	434.81
554.093	420.81
554.306	414.81
554.519	406.81
554.732	418.81
554.944	409.81
555.157	394.81
555.37	385.81
555.583	377.81
555.795	384.81
556.008	402.81
556.221	373.81
556.433	354.81
556.646	382.81
556.859	384.81
557.071	394.81
557.284	381.81
557.496	362.81
557.709	358.81
557.921	365.81
558.134	393.81
558.346	363.81
558.559	357.81
558.771	368.81
558.984	363.81
559.196	356.81
559.409	365.81
559.621	370.81
559.833	336.81
560.046	358.81
560.258	379.81
560.47	370.81
560.683	363.81
560.895	378.81
561.107	380.81
561.32	356.81
561.532	370.81
561.744	360.81
561.956	342.81
562.168	357.81
562.381	366.81
562.593	370.81
562.805	365.81
563.017	370.81
563.229	370.81
563.441	347.81
563.653	361.81
563.865	355.81
564.077	357.81
564.289	365.81
564.501	380.81
564.713	353.81
564.925	374.81
565.137	382.81
565.349	384.81
565.561	373.81
565.773	380.81
565.985	363.81
566.197	375.81
566.408	390.81
566.62	396.81
566.832	402.81
567.044	384.81
567.255	391.81
567.467	385.81
567.679	390.81
567.891	407.81
568.102	413.81
568.314	401.81
568.526	394.81
568.737	370.81
568.949	376.81
569.161	364.81
569.372	368.81
569.584	363.81
569.795	370.81
570.007	350.81
570.218	395.81
570.43	408.81
570.641	349.81
570.853	365.81
571.064	338.81
571.276	309.81
571.487	323.81
571.698	349.81
571.91	319.81
572.121	314.81
572.333	318.81
572.544	346.81
572.755	324.81
572.966	317.81
573.178	316.81
573.389	307.81
573.6	319.81
573.811	321.81
574.023	317.81
574.234	300.81
574.445	293.81
574.656	328.81
574.867	308.81
575.078	301.81
575.289	322.81
575.501	315.81
575.712	309.81
575.923	312.81
576.134	310.81
576.345	277.81
576.556	316.81
576.767	307.81
576.978	294.81
577.188	317.81
577.399	311.81
577.61	310.81
577.821	333.81
578.032	310.81
578.243	343.81
578.454	575.81
578.665	428.81
578.875	322.81
579.086	315.81
579.297	315.81
579.508	292.81
579.718	289.81
579.929	287.81
580.14	282.81
580.35	284.81
580.561	305.81
580.772	287.81
580.982	278.81
581.193	315.81
581.403	302.81
581.614	294.81
581.825	297.81
582.035	292.81
582.246	284.81
582.456	291.81
582.667	270.81
582.877	287.81
583.087	296.81
583.298	284.81
583.508	289.81
583.719	283.81
583.929	296.81
584.139	304.81
584.35	285.81
584.56	293.81
584.77	263.81
584.981	272.81
585.191	283.81
585.401	270.81
585.611	276.81
585.821	292.81
586.032	281.81
586.242	286.81
586.452	281.81
586.662	277.81
586.872	279.81
587.082	274.81
587.292	279.81
587.502	284.81
587.713	281.81
587.923	266.81
588.133	280.81
588.343	262.81
588.553	272.81
588.762	280.81
588.972	289.81
589.182	263.81
589.392	280.81
589.602	275.81
589.812	305.81
590.022	285.81
590.232	272.81
590.441	276.81
590.651	273.81
590.861	269.81
591.071	278.81
591.281	271.81
591.49	281.81
591.7	288.81
591.91	276.81
592.119	274.81
592.329	268.81
592.539	284.81
592.748	281.81
592.958	273.81
593.167	265.81
593.377	277.81
593.587	264.81
593.796	275.81
594.006	294.81
594.215	274.81
594.424	281.81
594.634	279.81
594.843	268.81
595.053	276.81
595.262	277.81
595.472	263.81
595.681	291.81
595.89	281.81
596.1	276.81
596.309	281.81
596.518	262.81
596.727	260.81
596.937	272.81
597.146	242.81
597.355	246.81
597.564	262.81
597.774	267.81
597.983	257.81
598.192	249.81
598.401	263.81
598.61	256.81
598.819	249.81
599.028	264.81
599.237	226.81
599.446	248.81
599.655	241.81
599.864	251.81
600.073	242.81
600.282	248.81
600.491	244.81
600.7	252.81
600.909	242.81
601.118	256.81
601.327	245.81
601.536	252.81
601.745	246.81
601.953	252.81
602.162	230.81
602.371	228.81
602.58	245.81
602.789	234.81
602.997	243.81
603.206	244.81
603.415	237.81
603.623	225.81
603.832	252.81
604.041	235.81
604.249	237.81
604.458	230.81
604.666	230.81
604.875	217.81
605.084	226.81
605.292	227.81
605.501	232.81
605.709	233.81
605.918	236.81
606.126	230.81
606.334	238.81
606.543	236.81
606.751	244.81
606.96	230.81
607.168	247.81
607.376	246.81
607.585	238.81
607.793	260.81
608.001	228.81
608.21	234.81
608.418	226.81
608.626	216.81
608.834	244.81
609.043	236.81
609.251	212.81
609.459	221.81
609.667	226.81
609.875	213.81
610.083	231.81
610.291	248.81
610.499	226.81
610.707	233.81
610.916	243.81
611.124	219.81
611.332	226.81
611.54	241.81
611.748	218.81
611.955	234.81
612.163	247.81
612.371	247.81
612.579	228.81
612.787	218.81
612.995	219.81
613.203	216.81
613.411	232.81
613.618	229.81
613.826	218.81
614.034	221.81
614.242	233.81
614.449	221.81
614.657	219.81
614.865	226.81
615.072	221.81
615.28	206.81
615.488	220.81
615.695	224.81
615.903	220.81
616.111	209.81
616.318	221.81
616.526	217.81
616.733	222.81
616.941	224.81
617.148	228.81
617.356	228.81
617.563	231.81
617.771	229.81
617.978	210.81
618.185	241.81
618.393	218.81
618.6	226.81
618.807	231.81
619.015	233.81
619.222	229.81
619.429	216.81
619.637	205.81
619.844	232.81
620.051	200.81
620.258	204.81
620.466	203.81
620.673	204.81
620.88	204.81
621.087	218.81
621.294	211.81
621.501	222.81
621.708	201.81
621.915	203.81
622.122	201.81
622.329	217.81
622.536	210.81
622.743	210.81
622.95	195.81
623.157	211.81
623.364	201.81
623.571	211.81
623.778	208.81
623.985	198.81
624.192	201.81
624.399	204.81
624.606	192.81
624.812	202.81
625.019	206.81
625.226	202.81
625.433	189.81
625.639	203.81
625.846	189.81
626.053	210.81
626.259	196.81
626.466	200.81
626.673	202.81
626.879	197.81
627.086	201.81
627.293	201.81
627.499	212.81
627.706	197.81
627.912	198.81
628.119	200.81
628.325	186.81
628.532	201.81
628.738	188.81
628.945	194.81
629.151	212.81
629.357	202.81
629.564	194.81
629.77	194.81
629.976	193.81
630.183	194.81
630.389	197.81
630.595	192.81
630.802	183.81
631.008	195.81
631.214	197.81
631.42	180.81
631.627	174.81
631.833	195.81
632.039	176.81
632.245	182.81
632.451	174.81
632.657	185.81
632.863	175.81
633.069	188.81
633.275	163.81
633.481	177.81
633.688	183.81
633.893	174.81
634.099	180.81
634.305	161.81
634.511	184.81
634.717	176.81
634.923	187.81
635.129	160.81
635.335	157.81
635.541	187.81
635.747	187.81
635.952	186.81
636.158	171.81
636.364	196.81
636.57	215.81
636.775	210.81
636.981	186.81
637.187	165.81
637.392	179.81
637.598	188.81
637.804	180.81
638.009	192.81
638.215	155.81
638.421	176.81
638.626	180.81
638.832	174.81
639.037	172.81
639.243	168.81
639.448	169.81
639.654	176.81
639.859	187.81
640.065	170.81
640.27	164.81
640.475	164.81
640.681	165.81
640.886	156.81
641.091	158.81
641.297	151.81
641.502	165.81
641.707	170.81
641.913	160.81
642.118	177.81
642.323	167.81
642.528	167.81
642.733	170.81
642.939	182.81
643.144	157.81
643.349	157.81
643.554	164.81
643.759	150.81
643.964	162.81
644.169	147.81
644.374	160.81
644.579	170.81
644.784	152.81
644.989	151.81
645.194	165.81
645.399	164.81
645.604	143.81
645.809	172.81
646.014	170.81
646.219	160.81
646.423	158.81
646.628	162.81
646.833	168.81
647.038	168.81
647.243	144.81
647.447	154.81
647.652	170.81
647.857	161.81
648.062	157.81
648.266	149.81
648.471	154.81
648.676	174.81
648.88	178.81
649.085	156.81
649.289	154.81
649.494	157.81
649.698	173.81
649.903	173.81
650.107	166.81
650.312	158.81
650.516	161.81
650.721	152.81
650.925	144.81
651.13	148.81
651.334	136.81
651.539	151.81
651.743	148.81
651.947	138.81
652.152	140.81
652.356	138.81
652.56	157.81
652.764	137.81
652.969	132.81
653.173	138.81
653.377	147.81
653.581	138.81
653.785	141.81
653.99	133.81
654.194	143.81
654.398	116.81
654.602	128.81
654.806	126.81
655.01	142.81
655.214	130.81
655.418	127.81
655.622	124.81
655.826	122.81
656.03	131.81
656.234	123.81
656.438	136.81
656.642	122.81
656.846	122.81
657.049	114.81
657.253	146.81
657.457	117.81
657.661	107.81
657.865	93.81
658.068	110.81
658.272	100.81
658.476	105.81
658.68	106.81
658.883	93.81
659.087	89.81
659.291	83.81
659.494	104.81
659.698	100.81
659.901	94.81
660.105	96.81
660.309	93.81
660.512	82.81
660.716	87.81
660.919	91.81
661.123	82.81
661.326	96.81
661.53	71.81
661.733	88.81
661.936	91.81
662.14	90.81
662.343	80.81
662.546	103.81
662.75	84.81
662.953	85.81
663.156	79.81
663.36	75.81
663.563	95.81
663.766	80.81
663.969	89.81
664.173	86.81
664.376	80.81
664.579	76.81
664.782	77.81
664.985	82.81
665.188	86.81
665.391	85.81
665.594	79.81
665.797	87.81
666	82.81
666.203	84.81
666.406	73.81
666.609	74.81
666.812	81.81
667.015	82.81
667.218	76.81
667.421	76.81
667.624	89.81
667.827	86.81
668.03	93.81
668.232	94.81
668.435	78.81
668.638	77.81
668.841	84.81
669.043	73.81
669.246	79.81
669.449	87.81
669.651	78.81
669.854	85.81
670.057	83.81
670.259	81.81
670.462	97.81
670.665	81.81
670.867	82.81
671.07	72.81
671.272	92.81
671.475	93.81
671.677	84.81
671.88	81.81
672.082	82.81
672.284	74.81
672.487	78.81
672.689	80.81
672.892	80.81
