Data from 1986.PennyLincolnUp.Lamp.En5.5.200Scan.071819.P2_HRD10591_17-10-33-974.txt Node
Date: Thu Jul 18 17:10:33 EDT 2019
User: cochatt
Spectrometer: HR+D1059
Trigger mode: 1
Integration Time (sec): 1.000000E-1
Scans to average: 1
Electric dark correction enabled: true
Nonlinearity correction enabled: false
Boxcar width: 0
XAxis mode: Wavelengths
Number of Pixels in Spectrum: 2048
>>>>>Begin Spectral Data<<<<<
223.165	-9.94
223.4	-9.94
223.635	-9.94
223.869	-10.94
224.104	-16.94
224.338	-8.94
224.573	4.06
224.808	-22.94
225.042	-15.94
225.277	-15.94
225.511	-4.94
225.746	3.06
225.98	11.06
226.215	12.06
226.449	14.06
226.683	31.06
226.918	22.06
227.152	9.06
227.387	28.06
227.621	35.06
227.856	48.06
228.09	50.06
228.324	47.06
228.559	62.06
228.793	74.06
229.027	93.06
229.262	106.06
229.496	113.06
229.73	134.06
229.964	175.06
230.199	134.06
230.433	99.06
230.667	106.06
230.901	118.06
231.136	108.06
231.37	101.06
231.604	110.06
231.838	103.06
232.072	108.06
232.306	109.06
232.541	110.06
232.775	98.06
233.009	99.06
233.243	115.06
233.477	102.06
233.711	123.06
233.945	111.06
234.179	112.06
234.413	130.06
234.647	114.06
234.881	126.06
235.115	103.06
235.349	115.06
235.583	114.06
235.817	114.06
236.051	119.06
236.285	131.06
236.519	137.06
236.753	119.06
236.987	149.06
237.221	179.06
237.455	225.06
237.689	197.06
237.922	144.06
238.156	135.06
238.39	124.06
238.624	124.06
238.858	121.06
239.091	131.06
239.325	135.06
239.559	133.06
239.793	125.06
240.027	146.06
240.26	140.06
240.494	149.06
240.728	151.06
240.961	164.06
241.195	145.06
241.429	148.06
241.662	131.06
241.896	133.06
242.13	135.06
242.363	137.06
242.597	136.06
242.83	137.06
243.064	151.06
243.298	129.06
243.531	142.06
243.765	111.06
243.998	142.06
244.232	132.06
244.465	130.06
244.699	140.06
244.932	144.06
245.166	135.06
245.399	137.06
245.633	135.06
245.866	154.06
246.099	144.06
246.333	146.06
246.566	134.06
246.8	156.06
247.033	153.06
247.266	146.06
247.5	166.06
247.733	167.06
247.966	168.06
248.2	172.06
248.433	190.06
248.666	170.06
248.899	179.06
249.133	213.06
249.366	218.06
249.599	204.06
249.832	194.06
250.066	181.06
250.299	177.06
250.532	192.06
250.765	214.06
250.998	221.06
251.231	227.06
251.465	215.06
251.698	219.06
251.931	209.06
252.164	213.06
252.397	193.06
252.63	229.06
252.863	213.06
253.096	217.06
253.329	224.06
253.562	225.06
253.795	224.06
254.028	219.06
254.261	228.06
254.494	242.06
254.727	261.06
254.96	289.06
255.193	296.06
255.426	266.06
255.659	239.06
255.892	252.06
256.124	222.06
256.357	249.06
256.59	230.06
256.823	219.06
257.056	214.06
257.289	211.06
257.521	211.06
257.754	216.06
257.987	210.06
258.22	206.06
258.452	196.06
258.685	217.06
258.918	221.06
259.151	214.06
259.383	206.06
259.616	236.06
259.849	229.06
260.081	241.06
260.314	270.06
260.547	275.06
260.779	249.06
261.012	245.06
261.244	242.06
261.477	239.06
261.71	219.06
261.942	224.06
262.175	234.06
262.407	226.06
262.64	222.06
262.872	216.06
263.105	199.06
263.337	215.06
263.57	213.06
263.802	205.06
264.035	204.06
264.267	191.06
264.499	198.06
264.732	202.06
264.964	211.06
265.197	215.06
265.429	215.06
265.661	202.06
265.894	214.06
266.126	200.06
266.358	211.06
266.591	217.06
266.823	232.06
267.055	236.06
267.287	210.06
267.52	215.06
267.752	211.06
267.984	226.06
268.216	212.06
268.448	207.06
268.681	216.06
268.913	223.06
269.145	266.06
269.377	270.06
269.609	254.06
269.841	278.06
270.073	278.06
270.306	305.06
270.538	308.06
270.77	317.06
271.002	302.06
271.234	297.06
271.466	313.06
271.698	318.06
271.93	324.06
272.162	311.06
272.394	330.06
272.626	318.06
272.858	287.06
273.09	265.06
273.322	259.06
273.553	271.06
273.785	273.06
274.017	277.06
274.249	261.06
274.481	262.06
274.713	256.06
274.945	258.06
275.176	264.06
275.408	265.06
275.64	256.06
275.872	242.06
276.104	261.06
276.335	245.06
276.567	270.06
276.799	291.06
277.031	302.06
277.262	313.06
277.494	297.06
277.726	289.06
277.957	283.06
278.189	287.06
278.421	247.06
278.652	249.06
278.884	261.06
279.115	268.06
279.347	246.06
279.579	268.06
279.81	262.06
280.042	269.06
280.273	253.06
280.505	255.06
280.736	247.06
280.968	251.06
281.199	249.06
281.431	259.06
281.662	236.06
281.894	257.06
282.125	266.06
282.356	281.06
282.588	299.06
282.819	288.06
283.051	265.06
283.282	236.06
283.513	249.06
283.745	246.06
283.976	262.06
284.207	255.06
284.439	260.06
284.67	261.06
284.901	252.06
285.132	252.06
285.364	247.06
285.595	244.06
285.826	242.06
286.057	258.06
286.288	270.06
286.52	244.06
286.751	266.06
286.982	255.06
287.213	267.06
287.444	275.06
287.675	260.06
287.906	274.06
288.138	261.06
288.369	275.06
288.6	292.06
288.831	297.06
289.062	278.06
289.293	267.06
289.524	254.06
289.755	277.06
289.986	258.06
290.217	256.06
290.448	264.06
290.679	270.06
290.91	257.06
291.141	274.06
291.371	263.06
291.602	249.06
291.833	255.06
292.064	267.06
292.295	264.06
292.526	257.06
292.757	261.06
292.987	246.06
293.218	260.06
293.449	265.06
293.68	271.06
293.91	264.06
294.141	256.06
294.372	264.06
294.603	268.06
294.833	246.06
295.064	255.06
295.295	262.06
295.525	246.06
295.756	256.06
295.987	291.06
296.217	317.06
296.448	311.06
296.679	282.06
296.909	265.06
297.14	277.06
297.37	267.06
297.601	270.06
297.831	268.06
298.062	272.06
298.292	270.06
298.523	277.06
298.753	259.06
298.984	273.06
299.214	275.06
299.445	279.06
299.675	269.06
299.905	278.06
300.136	278.06
300.366	268.06
300.597	275.06
300.827	289.06
301.057	302.06
301.288	297.06
301.518	290.06
301.748	294.06
301.979	292.06
302.209	316.06
302.439	281.06
302.669	301.06
302.9	281.06
303.13	281.06
303.36	295.06
303.59	290.06
303.82	311.06
304.051	341.06
304.281	286.06
304.511	297.06
304.741	285.06
304.971	284.06
305.201	305.06
305.431	280.06
305.661	293.06
305.891	291.06
306.121	292.06
306.352	307.06
306.582	320.06
306.812	295.06
307.042	293.06
307.272	295.06
307.502	294.06
307.731	282.06
307.961	280.06
308.191	303.06
308.421	295.06
308.651	304.06
308.881	295.06
309.111	322.06
309.341	316.06
309.571	340.06
309.8	334.06
310.03	334.06
310.26	342.06
310.49	352.06
310.72	365.06
310.949	392.06
311.179	381.06
311.409	369.06
311.639	351.06
311.868	339.06
312.098	341.06
312.328	346.06
312.557	359.06
312.787	381.06
313.017	395.06
313.246	375.06
313.476	354.06
313.706	356.06
313.935	355.06
314.165	377.06
314.394	390.06
314.624	360.06
314.853	374.06
315.083	359.06
315.312	345.06
315.542	361.06
315.771	348.06
316.001	342.06
316.23	362.06
316.46	322.06
316.689	359.06
316.919	338.06
317.148	370.06
317.377	361.06
317.607	365.06
317.836	338.06
318.065	354.06
318.295	339.06
318.524	343.06
318.753	333.06
318.983	342.06
319.212	358.06
319.441	348.06
319.67	354.06
319.9	360.06
320.129	364.06
320.358	340.06
320.587	365.06
320.816	369.06
321.046	367.06
321.275	383.06
321.504	386.06
321.733	401.06
321.962	392.06
322.191	389.06
322.42	422.06
322.649	421.06
322.878	435.06
323.108	456.06
323.337	484.06
323.566	507.06
323.795	552.06
324.024	621.06
324.253	753.06
324.482	1069.06
324.71	1599.06
324.939	2261.06
325.168	2003.06
325.397	1051.06
325.626	699.06
325.855	570.06
326.084	525.06
326.313	493.06
326.542	524.06
326.77	573.06
326.999	669.06
327.228	917.06
327.457	1405.06
327.686	1699.06
327.914	1171.06
328.143	775.06
328.372	669.06
328.6	585.06
328.829	575.06
329.058	589.06
329.287	601.06
329.515	570.06
329.744	505.06
329.972	519.06
330.201	534.06
330.43	556.06
330.658	622.06
330.887	633.06
331.115	609.06
331.344	509.06
331.572	474.06
331.801	463.06
332.03	473.06
332.258	434.06
332.486	430.06
332.715	401.06
332.943	413.06
333.172	390.06
333.4	417.06
333.629	431.06
333.857	445.06
334.085	434.06
334.314	450.06
334.542	465.06
334.771	495.06
334.999	435.06
335.227	416.06
335.455	426.06
335.684	400.06
335.912	412.06
336.14	402.06
336.369	396.06
336.597	391.06
336.825	408.06
337.053	404.06
337.281	385.06
337.51	392.06
337.738	388.06
337.966	393.06
338.194	392.06
338.422	397.06
338.65	390.06
338.878	380.06
339.106	371.06
339.334	386.06
339.562	369.06
339.79	385.06
340.018	391.06
340.246	399.06
340.474	397.06
340.702	390.06
340.93	391.06
341.158	374.06
341.386	371.06
341.614	380.06
341.842	386.06
342.07	341.06
342.298	373.06
342.526	374.06
342.754	370.06
342.981	364.06
343.209	367.06
343.437	376.06
343.665	365.06
343.893	361.06
344.12	365.06
344.348	375.06
344.576	387.06
344.804	392.06
345.031	402.06
345.259	433.06
345.487	389.06
345.714	394.06
345.942	389.06
346.17	383.06
346.397	377.06
346.625	358.06
346.853	380.06
347.08	387.06
347.308	388.06
347.535	391.06
347.763	395.06
347.99	383.06
348.218	381.06
348.445	396.06
348.673	394.06
348.9	383.06
349.128	369.06
349.355	367.06
349.583	354.06
349.81	375.06
350.037	363.06
350.265	367.06
350.492	346.06
350.72	369.06
350.947	361.06
351.174	381.06
351.402	394.06
351.629	375.06
351.856	390.06
352.083	396.06
352.311	391.06
352.538	395.06
352.765	420.06
352.992	381.06
353.22	380.06
353.447	373.06
353.674	377.06
353.901	346.06
354.128	361.06
354.355	343.06
354.583	362.06
354.81	327.06
355.037	346.06
355.264	340.06
355.491	350.06
355.718	343.06
355.945	342.06
356.172	333.06
356.399	319.06
356.626	333.06
356.853	342.06
357.08	329.06
357.307	323.06
357.534	318.06
357.761	340.06
357.988	334.06
358.215	340.06
358.441	341.06
358.668	335.06
358.895	340.06
359.122	349.06
359.349	358.06
359.576	383.06
359.802	390.06
360.029	412.06
360.256	456.06
360.483	407.06
360.709	366.06
360.936	385.06
361.163	374.06
361.39	344.06
361.616	369.06
361.843	350.06
362.07	377.06
362.296	369.06
362.523	359.06
362.749	352.06
362.976	360.06
363.203	356.06
363.429	347.06
363.656	356.06
363.882	334.06
364.109	350.06
364.335	348.06
364.562	338.06
364.788	355.06
365.015	339.06
365.241	346.06
365.468	362.06
365.694	374.06
365.92	373.06
366.147	363.06
366.373	340.06
366.599	341.06
366.826	327.06
367.052	340.06
367.278	345.06
367.505	357.06
367.731	348.06
367.957	342.06
368.184	353.06
368.41	362.06
368.636	350.06
368.862	363.06
369.089	342.06
369.315	333.06
369.541	358.06
369.767	344.06
369.993	336.06
370.219	340.06
370.445	358.06
370.672	334.06
370.898	325.06
371.124	351.06
371.35	336.06
371.576	347.06
371.802	347.06
372.028	333.06
372.254	351.06
372.48	329.06
372.706	333.06
372.932	352.06
373.158	341.06
373.384	334.06
373.61	327.06
373.835	335.06
374.061	371.06
374.287	321.06
374.513	340.06
374.739	360.06
374.965	338.06
375.191	354.06
375.416	341.06
375.642	333.06
375.868	338.06
376.094	348.06
376.319	334.06
376.545	324.06
376.771	350.06
376.997	345.06
377.222	343.06
377.448	344.06
377.674	321.06
377.899	319.06
378.125	321.06
378.35	317.06
378.576	315.06
378.802	323.06
379.027	321.06
379.253	327.06
379.478	329.06
379.704	333.06
379.929	328.06
380.155	332.06
380.38	333.06
380.606	319.06
380.831	334.06
381.057	327.06
381.282	333.06
381.507	363.06
381.733	335.06
381.958	326.06
382.184	324.06
382.409	337.06
382.634	345.06
382.86	350.06
383.085	347.06
383.31	334.06
383.535	347.06
383.761	338.06
383.986	333.06
384.211	339.06
384.436	343.06
384.662	345.06
384.887	345.06
385.112	345.06
385.337	341.06
385.562	360.06
385.787	362.06
386.013	366.06
386.238	362.06
386.463	372.06
386.688	363.06
386.913	334.06
387.138	339.06
387.363	366.06
387.588	359.06
387.813	363.06
388.038	357.06
388.263	377.06
388.488	353.06
388.713	354.06
388.938	344.06
389.163	359.06
389.387	365.06
389.612	347.06
389.837	355.06
390.062	364.06
390.287	357.06
390.512	342.06
390.736	343.06
390.961	370.06
391.186	354.06
391.411	369.06
391.636	366.06
391.86	337.06
392.085	355.06
392.31	369.06
392.534	347.06
392.759	375.06
392.984	349.06
393.208	359.06
393.433	355.06
393.658	339.06
393.882	340.06
394.107	338.06
394.331	346.06
394.556	345.06
394.78	337.06
395.005	349.06
395.229	338.06
395.454	368.06
395.678	381.06
395.903	336.06
396.127	384.06
396.352	381.06
396.576	375.06
396.801	370.06
397.025	363.06
397.249	372.06
397.474	381.06
397.698	365.06
397.922	377.06
398.147	387.06
398.371	392.06
398.595	393.06
398.82	373.06
399.044	389.06
399.268	388.06
399.492	400.06
399.717	426.06
399.941	451.06
400.165	468.06
400.389	486.06
400.613	453.06
400.837	400.06
401.062	407.06
401.286	414.06
401.51	382.06
401.734	406.06
401.958	403.06
402.182	388.06
402.406	436.06
402.63	415.06
402.854	399.06
403.078	417.06
403.302	410.06
403.526	405.06
403.75	404.06
403.974	397.06
404.198	422.06
404.422	399.06
404.645	430.06
404.869	408.06
405.093	422.06
405.317	469.06
405.541	511.06
405.765	473.06
405.988	444.06
406.212	450.06
406.436	469.06
406.66	483.06
406.883	453.06
407.107	480.06
407.331	516.06
407.555	571.06
407.778	554.06
408.002	484.06
408.226	463.06
408.449	488.06
408.673	467.06
408.896	476.06
409.12	519.06
409.344	510.06
409.567	438.06
409.791	447.06
410.014	395.06
410.238	414.06
410.461	402.06
410.685	425.06
410.908	438.06
411.132	471.06
411.355	514.06
411.578	471.06
411.802	457.06
412.025	417.06
412.249	404.06
412.472	422.06
412.695	476.06
412.919	456.06
413.142	422.06
413.365	420.06
413.589	402.06
413.812	403.06
414.035	392.06
414.258	409.06
414.482	388.06
414.705	388.06
414.928	379.06
415.151	388.06
415.374	383.06
415.597	383.06
415.821	378.06
416.044	385.06
416.267	395.06
416.49	381.06
416.713	388.06
416.936	400.06
417.159	395.06
417.382	397.06
417.605	399.06
417.828	384.06
418.051	434.06
418.274	409.06
418.497	391.06
418.72	385.06
418.943	418.06
419.166	405.06
419.389	405.06
419.611	429.06
419.834	418.06
420.057	421.06
420.28	413.06
420.503	417.06
420.726	418.06
420.948	420.06
421.171	470.06
421.394	499.06
421.617	460.06
421.839	427.06
422.062	438.06
422.285	455.06
422.507	494.06
422.73	562.06
422.953	545.06
423.175	482.06
423.398	437.06
423.621	451.06
423.843	450.06
424.066	464.06
424.288	471.06
424.511	487.06
424.733	540.06
424.956	604.06
425.178	595.06
425.401	591.06
425.623	586.06
425.846	505.06
426.068	454.06
426.291	473.06
426.513	457.06
426.735	477.06
426.958	509.06
427.18	595.06
427.402	691.06
427.625	779.06
427.847	705.06
428.069	626.06
428.292	531.06
428.514	508.06
428.736	435.06
428.958	415.06
429.181	439.06
429.403	427.06
429.625	442.06
429.847	478.06
430.069	535.06
430.292	527.06
430.514	457.06
430.736	433.06
430.958	421.06
431.18	415.06
431.402	413.06
431.624	418.06
431.846	403.06
432.068	405.06
432.29	373.06
432.512	399.06
432.734	408.06
432.956	399.06
433.178	412.06
433.4	417.06
433.622	398.06
433.844	412.06
434.066	411.06
434.287	392.06
434.509	407.06
434.731	406.06
434.953	423.06
435.175	456.06
435.397	461.06
435.618	482.06
435.84	516.06
436.062	589.06
436.284	643.06
436.505	553.06
436.727	483.06
436.949	478.06
437.17	453.06
437.392	442.06
437.614	431.06
437.835	469.06
438.057	568.06
438.278	655.06
438.5	653.06
438.721	715.06
438.943	706.06
439.165	563.06
439.386	500.06
439.608	492.06
439.829	501.06
440.05	521.06
440.272	552.06
440.493	521.06
440.715	455.06
440.936	444.06
441.158	436.06
441.379	452.06
441.6	460.06
441.822	458.06
442.043	511.06
442.264	601.06
442.486	621.06
442.707	541.06
442.928	509.06
443.149	519.06
443.371	543.06
443.592	547.06
443.813	642.06
444.034	698.06
444.255	569.06
444.476	489.06
444.698	480.06
444.919	456.06
445.14	537.06
445.361	505.06
445.582	501.06
445.803	563.06
446.024	667.06
446.245	666.06
446.466	619.06
446.687	532.06
446.908	515.06
447.129	455.06
447.35	430.06
447.571	425.06
447.792	440.06
448.013	414.06
448.234	456.06
448.455	497.06
448.675	615.06
448.896	683.06
449.117	595.06
449.338	578.06
449.559	650.06
449.779	726.06
450	607.06
450.221	514.06
450.442	482.06
450.662	449.06
450.883	452.06
451.104	460.06
451.324	437.06
451.545	417.06
451.766	389.06
451.986	394.06
452.207	386.06
452.428	403.06
452.648	397.06
452.869	402.06
453.089	407.06
453.31	418.06
453.53	411.06
453.751	411.06
453.971	412.06
454.192	419.06
454.412	411.06
454.633	407.06
454.853	388.06
455.073	402.06
455.294	449.06
455.514	502.06
455.734	485.06
455.955	414.06
456.175	370.06
456.395	365.06
456.616	364.06
456.836	357.06
457.056	340.06
457.276	346.06
457.497	367.06
457.717	362.06
457.937	358.06
458.157	389.06
458.377	380.06
458.598	386.06
458.818	454.06
459.038	550.06
459.258	565.06
459.478	469.06
459.698	424.06
459.918	399.06
460.138	390.06
460.358	393.06
460.578	391.06
460.798	404.06
461.018	406.06
461.238	382.06
461.458	394.06
461.678	380.06
461.898	373.06
462.118	402.06
462.338	389.06
462.558	392.06
462.777	385.06
462.997	402.06
463.217	393.06
463.437	421.06
463.657	416.06
463.876	386.06
464.096	399.06
464.316	396.06
464.536	419.06
464.755	424.06
464.975	431.06
465.195	482.06
465.414	579.06
465.634	499.06
465.854	442.06
466.073	416.06
466.293	395.06
466.512	403.06
466.732	400.06
466.951	400.06
467.171	407.06
467.391	389.06
467.61	400.06
467.829	420.06
468.049	408.06
468.268	391.06
468.488	397.06
468.707	393.06
468.927	381.06
469.146	369.06
469.365	388.06
469.585	382.06
469.804	389.06
470.023	422.06
470.243	408.06
470.462	410.06
470.681	414.06
470.901	427.06
471.12	414.06
471.339	394.06
471.558	402.06
471.777	408.06
471.997	392.06
472.216	393.06
472.435	415.06
472.654	401.06
472.873	390.06
473.092	403.06
473.311	382.06
473.53	407.06
473.749	411.06
473.968	444.06
474.187	563.06
474.406	565.06
474.625	472.06
474.844	406.06
475.063	410.06
475.282	393.06
475.501	392.06
475.72	399.06
475.939	403.06
476.158	404.06
476.377	419.06
476.596	404.06
476.814	399.06
477.033	419.06
477.252	415.06
477.471	403.06
477.69	437.06
477.908	413.06
478.127	416.06
478.346	401.06
478.564	423.06
478.783	433.06
479.002	441.06
479.22	433.06
479.439	452.06
479.658	489.06
479.876	471.06
480.095	482.06
480.313	507.06
480.532	500.06
480.751	479.06
480.969	501.06
481.188	556.06
481.406	593.06
481.624	525.06
481.843	490.06
482.061	477.06
482.28	479.06
482.498	467.06
482.717	470.06
482.935	478.06
483.153	473.06
483.372	458.06
483.59	482.06
483.808	459.06
484.027	470.06
484.245	482.06
484.463	467.06
484.681	474.06
484.9	460.06
485.118	474.06
485.336	486.06
485.554	492.06
485.772	461.06
485.99	469.06
486.209	512.06
486.427	492.06
486.645	507.06
486.863	531.06
487.081	525.06
487.299	503.06
487.517	501.06
487.735	518.06
487.953	499.06
488.171	495.06
488.389	508.06
488.607	512.06
488.825	519.06
489.043	521.06
489.261	523.06
489.479	536.06
489.696	514.06
489.914	517.06
490.132	509.06
490.35	521.06
490.568	527.06
490.786	549.06
491.003	556.06
491.221	573.06
491.439	577.06
491.657	588.06
491.874	581.06
492.092	587.06
492.31	573.06
492.527	598.06
492.745	595.06
492.963	603.06
493.18	603.06
493.398	621.06
493.615	611.06
493.833	622.06
494.05	595.06
494.268	605.06
494.485	612.06
494.703	621.06
494.92	608.06
495.138	608.06
495.355	621.06
495.573	608.06
495.79	604.06
496.008	603.06
496.225	637.06
496.442	629.06
496.66	620.06
496.877	630.06
497.094	631.06
497.312	637.06
497.529	635.06
497.746	629.06
497.963	636.06
498.181	644.06
498.398	646.06
498.615	647.06
498.832	642.06
499.049	643.06
499.267	634.06
499.484	653.06
499.701	675.06
499.918	692.06
500.135	721.06
500.352	745.06
500.569	737.06
500.786	761.06
501.003	727.06
501.22	729.06
501.437	727.06
501.654	727.06
501.871	725.06
502.088	717.06
502.305	671.06
502.522	675.06
502.739	648.06
502.956	645.06
503.172	649.06
503.389	629.06
503.606	628.06
503.823	660.06
504.04	648.06
504.256	607.06
504.473	615.06
504.69	597.06
504.907	603.06
505.123	573.06
505.34	581.06
505.557	597.06
505.773	603.06
505.99	618.06
506.207	605.06
506.423	586.06
506.64	618.06
506.856	591.06
507.073	579.06
507.289	605.06
507.506	589.06
507.722	593.06
507.939	637.06
508.155	602.06
508.372	590.06
508.588	583.06
508.805	585.06
509.021	583.06
509.238	606.06
509.454	609.06
509.67	627.06
509.887	591.06
510.103	588.06
510.319	605.06
510.536	703.06
510.752	1298.06
510.968	1022.06
511.184	632.06
511.401	582.06
511.617	578.06
511.833	546.06
512.049	562.06
512.265	557.06
512.481	537.06
512.698	541.06
512.914	545.06
513.13	559.06
513.346	537.06
513.562	552.06
513.778	552.06
513.994	569.06
514.21	589.06
514.426	615.06
514.642	658.06
514.858	703.06
515.074	764.06
515.29	934.06
515.506	1435.06
515.721	1173.06
515.937	732.06
516.153	636.06
516.369	613.06
516.585	585.06
516.801	572.06
517.016	571.06
517.232	558.06
517.448	558.06
517.664	564.06
517.879	564.06
518.095	545.06
518.311	541.06
518.527	526.06
518.742	542.06
518.958	536.06
519.173	532.06
519.389	553.06
519.605	545.06
519.82	546.06
520.036	550.06
520.251	615.06
520.467	634.06
520.682	619.06
520.898	643.06
521.113	676.06
521.329	744.06
521.544	836.06
521.76	1128.06
521.975	1927.06
522.19	1925.06
522.406	988.06
522.621	703.06
522.836	615.06
523.052	591.06
523.267	558.06
523.482	550.06
523.698	503.06
523.913	516.06
524.128	534.06
524.343	475.06
524.559	472.06
524.774	487.06
524.989	476.06
525.204	497.06
525.419	489.06
525.634	488.06
525.849	468.06
526.064	452.06
526.28	458.06
526.495	462.06
526.71	435.06
526.925	461.06
527.14	456.06
527.355	445.06
527.57	447.06
527.785	429.06
527.999	437.06
528.214	422.06
528.429	429.06
528.644	434.06
528.859	443.06
529.074	448.06
529.289	480.06
529.503	584.06
529.718	530.06
529.933	517.06
530.148	444.06
530.363	458.06
530.577	448.06
530.792	449.06
531.007	439.06
531.221	431.06
531.436	422.06
531.651	426.06
531.865	430.06
532.08	420.06
532.295	406.06
532.509	419.06
532.724	413.06
532.938	405.06
533.153	422.06
533.367	404.06
533.582	420.06
533.796	396.06
534.011	445.06
534.225	413.06
534.44	403.06
534.654	400.06
534.868	413.06
535.083	405.06
535.297	413.06
535.511	399.06
535.726	415.06
535.94	435.06
536.154	406.06
536.369	421.06
536.583	397.06
536.797	410.06
537.011	389.06
537.225	393.06
537.44	401.06
537.654	398.06
537.868	400.06
538.082	410.06
538.296	386.06
538.51	399.06
538.724	417.06
538.938	390.06
539.153	398.06
539.367	413.06
539.581	427.06
539.795	391.06
540.009	397.06
540.222	395.06
540.436	401.06
540.65	399.06
540.864	396.06
541.078	408.06
541.292	411.06
541.506	405.06
541.72	398.06
541.934	393.06
542.147	417.06
542.361	384.06
542.575	376.06
542.789	392.06
543.002	410.06
543.216	399.06
543.43	403.06
543.644	404.06
543.857	397.06
544.071	407.06
544.285	399.06
544.498	386.06
544.712	382.06
544.925	386.06
545.139	385.06
545.352	379.06
545.566	358.06
545.779	377.06
545.993	387.06
546.206	378.06
546.42	381.06
546.633	358.06
546.847	366.06
547.06	374.06
547.274	387.06
547.487	376.06
547.7	354.06
547.914	377.06
548.127	379.06
548.34	364.06
548.554	375.06
548.767	365.06
548.98	371.06
549.193	373.06
549.407	364.06
549.62	379.06
549.833	362.06
550.046	362.06
550.259	365.06
550.473	363.06
550.686	366.06
550.899	370.06
551.112	360.06
551.325	340.06
551.538	340.06
551.751	380.06
551.964	323.06
552.177	357.06
552.39	361.06
552.603	347.06
552.816	353.06
553.029	355.06
553.242	372.06
553.455	351.06
553.667	358.06
553.88	377.06
554.093	373.06
554.306	385.06
554.519	372.06
554.732	372.06
554.944	333.06
555.157	354.06
555.37	366.06
555.583	355.06
555.795	345.06
556.008	353.06
556.221	340.06
556.433	342.06
556.646	359.06
556.859	327.06
557.071	330.06
557.284	336.06
557.496	358.06
557.709	341.06
557.921	342.06
558.134	328.06
558.346	317.06
558.559	338.06
558.771	318.06
558.984	325.06
559.196	332.06
559.409	339.06
559.621	334.06
559.833	316.06
560.046	332.06
560.258	343.06
560.47	326.06
560.683	326.06
560.895	323.06
561.107	326.06
561.32	316.06
561.532	307.06
561.744	326.06
561.956	325.06
562.168	318.06
562.381	311.06
562.593	328.06
562.805	349.06
563.017	328.06
563.229	344.06
563.441	321.06
563.653	317.06
563.865	328.06
564.077	333.06
564.289	330.06
564.501	325.06
564.713	323.06
564.925	355.06
565.137	351.06
565.349	350.06
565.561	359.06
565.773	345.06
565.985	345.06
566.197	345.06
566.408	356.06
566.62	353.06
566.832	352.06
567.044	360.06
567.255	381.06
567.467	362.06
567.679	369.06
567.891	361.06
568.102	366.06
568.314	359.06
568.526	354.06
568.737	355.06
568.949	335.06
569.161	341.06
569.372	330.06
569.584	334.06
569.795	334.06
570.007	330.06
570.218	389.06
570.43	372.06
570.641	325.06
570.853	310.06
571.064	327.06
571.276	318.06
571.487	309.06
571.698	305.06
571.91	317.06
572.121	295.06
572.333	282.06
572.544	308.06
572.755	299.06
572.966	288.06
573.178	294.06
573.389	300.06
573.6	284.06
573.811	295.06
574.023	298.06
574.234	279.06
574.445	290.06
574.656	289.06
574.867	288.06
575.078	270.06
575.289	271.06
575.501	283.06
575.712	278.06
575.923	266.06
576.134	292.06
576.345	285.06
576.556	292.06
576.767	303.06
576.978	282.06
577.188	287.06
577.399	286.06
577.61	294.06
577.821	279.06
578.032	282.06
578.243	334.06
578.454	614.06
578.665	427.06
578.875	323.06
579.086	277.06
579.297	277.06
579.508	278.06
579.718	259.06
579.929	246.06
580.14	261.06
580.35	245.06
580.561	267.06
580.772	267.06
580.982	252.06
581.193	261.06
581.403	244.06
581.614	262.06
581.825	274.06
582.035	276.06
582.246	255.06
582.456	261.06
582.667	269.06
582.877	255.06
583.087	255.06
583.298	276.06
583.508	261.06
583.719	257.06
583.929	276.06
584.139	258.06
584.35	267.06
584.56	269.06
584.77	277.06
584.981	261.06
585.191	239.06
585.401	246.06
585.611	265.06
585.821	272.06
586.032	255.06
586.242	251.06
586.452	267.06
586.662	258.06
586.872	241.06
587.082	244.06
587.292	232.06
587.502	238.06
587.713	254.06
587.923	246.06
588.133	244.06
588.343	249.06
588.553	243.06
588.762	266.06
588.972	247.06
589.182	275.06
589.392	293.06
589.602	246.06
589.812	279.06
590.022	249.06
590.232	255.06
590.441	237.06
590.651	244.06
590.861	243.06
591.071	256.06
591.281	252.06
591.49	245.06
591.7	274.06
591.91	255.06
592.119	250.06
592.329	257.06
592.539	273.06
592.748	252.06
592.958	251.06
593.167	250.06
593.377	248.06
593.587	267.06
593.796	267.06
594.006	251.06
594.215	257.06
594.424	227.06
594.634	259.06
594.843	249.06
595.053	261.06
595.262	263.06
595.472	245.06
595.681	243.06
595.89	241.06
596.1	226.06
596.309	227.06
596.518	241.06
596.727	232.06
596.937	229.06
597.146	236.06
597.355	242.06
597.564	236.06
597.774	248.06
597.983	217.06
598.192	215.06
598.401	234.06
598.61	236.06
598.819	227.06
599.028	226.06
599.237	224.06
599.446	227.06
599.655	227.06
599.864	222.06
600.073	209.06
600.282	235.06
600.491	251.06
600.7	225.06
600.909	206.06
601.118	215.06
601.327	229.06
601.536	221.06
601.745	220.06
601.953	219.06
602.162	220.06
602.371	221.06
602.58	235.06
602.789	222.06
602.997	212.06
603.206	221.06
603.415	228.06
603.623	215.06
603.832	210.06
604.041	209.06
604.249	201.06
604.458	209.06
604.666	207.06
604.875	224.06
605.084	225.06
605.292	228.06
605.501	206.06
605.709	216.06
605.918	213.06
606.126	227.06
606.334	206.06
606.543	206.06
606.751	221.06
606.96	193.06
607.168	215.06
607.376	217.06
607.585	219.06
607.793	225.06
608.001	200.06
608.21	211.06
608.418	205.06
608.626	212.06
608.834	225.06
609.043	221.06
609.251	213.06
609.459	211.06
609.667	220.06
609.875	217.06
610.083	232.06
610.291	214.06
610.499	211.06
610.707	212.06
610.916	227.06
611.124	215.06
611.332	209.06
611.54	227.06
611.748	224.06
611.955	206.06
612.163	206.06
612.371	209.06
612.579	203.06
612.787	213.06
612.995	217.06
613.203	196.06
613.411	189.06
613.618	200.06
613.826	210.06
614.034	205.06
614.242	200.06
614.449	214.06
614.657	204.06
614.865	204.06
615.072	207.06
615.28	207.06
615.488	219.06
615.695	222.06
615.903	196.06
616.111	206.06
616.318	217.06
616.526	209.06
616.733	213.06
616.941	201.06
617.148	220.06
617.356	197.06
617.563	209.06
617.771	215.06
617.978	188.06
618.185	202.06
618.393	207.06
618.6	198.06
618.807	194.06
619.015	184.06
619.222	193.06
619.429	193.06
619.637	189.06
619.844	191.06
620.051	199.06
620.258	192.06
620.466	191.06
620.673	197.06
620.88	190.06
621.087	187.06
621.294	195.06
621.501	193.06
621.708	219.06
621.915	195.06
622.122	211.06
622.329	214.06
622.536	198.06
622.743	193.06
622.95	195.06
623.157	183.06
623.364	205.06
623.571	193.06
623.778	189.06
623.985	204.06
624.192	201.06
624.399	190.06
624.606	182.06
624.812	183.06
625.019	182.06
625.226	200.06
625.433	182.06
625.639	185.06
625.846	188.06
626.053	193.06
626.259	182.06
626.466	196.06
626.673	164.06
626.879	210.06
627.086	193.06
627.293	193.06
627.499	194.06
627.706	178.06
627.912	164.06
628.119	173.06
628.325	190.06
628.532	185.06
628.738	187.06
628.945	170.06
629.151	185.06
629.357	181.06
629.564	168.06
629.77	184.06
629.976	182.06
630.183	171.06
630.389	178.06
630.595	185.06
630.802	184.06
631.008	155.06
631.214	161.06
631.42	177.06
631.627	180.06
631.833	169.06
632.039	182.06
632.245	173.06
632.451	166.06
632.657	177.06
632.863	171.06
633.069	162.06
633.275	162.06
633.481	169.06
633.688	172.06
633.893	180.06
634.099	169.06
634.305	154.06
634.511	160.06
634.717	163.06
634.923	144.06
635.129	163.06
635.335	162.06
635.541	175.06
635.747	162.06
635.952	179.06
636.158	146.06
636.364	185.06
636.57	180.06
636.775	159.06
636.981	169.06
637.187	185.06
637.392	150.06
637.598	157.06
637.804	174.06
638.009	168.06
638.215	151.06
638.421	154.06
638.626	160.06
638.832	166.06
639.037	165.06
639.243	155.06
639.448	150.06
639.654	174.06
639.859	159.06
640.065	166.06
640.27	155.06
640.475	160.06
640.681	145.06
640.886	156.06
641.091	150.06
641.297	162.06
641.502	142.06
641.707	161.06
641.913	163.06
642.118	138.06
642.323	164.06
642.528	150.06
642.733	164.06
642.939	155.06
643.144	147.06
643.349	142.06
643.554	153.06
643.759	142.06
643.964	153.06
644.169	158.06
644.374	143.06
644.579	135.06
644.784	155.06
644.989	158.06
645.194	143.06
645.399	144.06
645.604	151.06
645.809	147.06
646.014	154.06
646.219	161.06
646.423	162.06
646.628	154.06
646.833	150.06
647.038	167.06
647.243	160.06
647.447	152.06
647.652	157.06
647.857	163.06
648.062	146.06
648.266	150.06
648.471	156.06
648.676	149.06
648.88	146.06
649.085	162.06
649.289	143.06
649.494	139.06
649.698	160.06
649.903	166.06
650.107	166.06
650.312	134.06
650.516	153.06
650.721	151.06
650.925	136.06
651.13	131.06
651.334	137.06
651.539	125.06
651.743	141.06
651.947	139.06
652.152	140.06
652.356	136.06
652.56	132.06
652.764	139.06
652.969	134.06
653.173	136.06
653.377	134.06
653.581	130.06
653.785	124.06
653.99	121.06
654.194	136.06
654.398	117.06
654.602	118.06
654.806	139.06
655.01	135.06
655.214	140.06
655.418	135.06
655.622	117.06
655.826	134.06
656.03	142.06
656.234	116.06
656.438	126.06
656.642	117.06
656.846	125.06
657.049	120.06
657.253	123.06
657.457	114.06
657.661	118.06
657.865	97.06
658.068	106.06
658.272	106.06
658.476	98.06
658.68	102.06
658.883	82.06
659.087	94.06
659.291	103.06
659.494	110.06
659.698	89.06
659.901	83.06
660.105	81.06
660.309	84.06
660.512	93.06
660.716	85.06
660.919	88.06
661.123	105.06
661.326	95.06
661.53	84.06
661.733	93.06
661.936	90.06
662.14	94.06
662.343	85.06
662.546	74.06
662.75	83.06
662.953	92.06
663.156	91.06
663.36	93.06
663.563	99.06
663.766	102.06
663.969	94.06
664.173	97.06
664.376	96.06
664.579	78.06
664.782	100.06
664.985	80.06
665.188	92.06
665.391	84.06
665.594	92.06
665.797	89.06
666	91.06
666.203	82.06
666.406	80.06
666.609	83.06
666.812	109.06
667.015	78.06
667.218	91.06
667.421	87.06
667.624	84.06
667.827	78.06
668.03	83.06
668.232	75.06
668.435	89.06
668.638	74.06
668.841	94.06
669.043	89.06
669.246	85.06
669.449	97.06
669.651	89.06
669.854	89.06
670.057	95.06
670.259	89.06
670.462	93.06
670.665	84.06
670.867	94.06
671.07	95.06
671.272	71.06
671.475	81.06
671.677	70.06
671.88	87.06
672.082	90.06
672.284	74.06
672.487	72.06
672.689	87.06
672.892	79.06
