Data from 1986.PennyLincolnUp.Lamp.En5.5.200Scan.071819.P2_HRD10591_17-10-06-974.txt Node
Date: Thu Jul 18 17:10:06 EDT 2019
User: cochatt
Spectrometer: HR+D1059
Trigger mode: 1
Integration Time (sec): 1.000000E-1
Scans to average: 1
Electric dark correction enabled: true
Nonlinearity correction enabled: false
Boxcar width: 0
XAxis mode: Wavelengths
Number of Pixels in Spectrum: 2048
>>>>>Begin Spectral Data<<<<<
223.165	-7.12
223.4	-7.12
223.635	-7.12
223.869	-5.12
224.104	-17.12
224.338	-9.12
224.573	-10.12
224.808	-22.12
225.042	-2.12
225.277	3.88
225.511	1.88
225.746	-17.12
225.98	-11.12
226.215	3.88
226.449	21.88
226.683	27.88
226.918	11.88
227.152	29.88
227.387	41.88
227.621	50.88
227.856	45.88
228.09	54.88
228.324	58.88
228.559	54.88
228.793	68.88
229.027	92.88
229.262	89.88
229.496	113.88
229.73	133.88
229.964	147.88
230.199	122.88
230.433	107.88
230.667	104.88
230.901	116.88
231.136	113.88
231.37	106.88
231.604	102.88
231.838	113.88
232.072	106.88
232.306	113.88
232.541	115.88
232.775	115.88
233.009	100.88
233.243	121.88
233.477	124.88
233.711	119.88
233.945	118.88
234.179	105.88
234.413	121.88
234.647	111.88
234.881	113.88
235.115	122.88
235.349	123.88
235.583	120.88
235.817	133.88
236.051	124.88
236.285	109.88
236.519	115.88
236.753	126.88
236.987	132.88
237.221	177.88
237.455	249.88
237.689	183.88
237.922	148.88
238.156	134.88
238.39	128.88
238.624	126.88
238.858	121.88
239.091	113.88
239.325	117.88
239.559	130.88
239.793	113.88
240.027	129.88
240.26	136.88
240.494	155.88
240.728	158.88
240.961	151.88
241.195	132.88
241.429	123.88
241.662	131.88
241.896	131.88
242.13	119.88
242.363	131.88
242.597	132.88
242.83	135.88
243.064	134.88
243.298	141.88
243.531	139.88
243.765	134.88
243.998	136.88
244.232	126.88
244.465	145.88
244.699	133.88
244.932	127.88
245.166	146.88
245.399	123.88
245.633	144.88
245.866	139.88
246.099	164.88
246.333	139.88
246.566	138.88
246.8	160.88
247.033	169.88
247.266	157.88
247.5	150.88
247.733	171.88
247.966	171.88
248.2	172.88
248.433	181.88
248.666	169.88
248.899	179.88
249.133	209.88
249.366	199.88
249.599	210.88
249.832	183.88
250.066	183.88
250.299	198.88
250.532	184.88
250.765	197.88
250.998	203.88
251.231	239.88
251.465	198.88
251.698	210.88
251.931	199.88
252.164	193.88
252.397	196.88
252.63	210.88
252.863	216.88
253.096	226.88
253.329	249.88
253.562	237.88
253.795	231.88
254.028	232.88
254.261	228.88
254.494	231.88
254.727	254.88
254.96	303.88
255.193	265.88
255.426	247.88
255.659	241.88
255.892	253.88
256.124	217.88
256.357	210.88
256.59	223.88
256.823	210.88
257.056	205.88
257.289	222.88
257.521	203.88
257.754	193.88
257.987	190.88
258.22	209.88
258.452	228.88
258.685	197.88
258.918	212.88
259.151	216.88
259.383	230.88
259.616	216.88
259.849	225.88
260.081	249.88
260.314	245.88
260.547	267.88
260.779	243.88
261.012	227.88
261.244	241.88
261.477	225.88
261.71	216.88
261.942	242.88
262.175	233.88
262.407	230.88
262.64	203.88
262.872	201.88
263.105	211.88
263.337	209.88
263.57	214.88
263.802	217.88
264.035	208.88
264.267	203.88
264.499	205.88
264.732	214.88
264.964	217.88
265.197	214.88
265.429	195.88
265.661	201.88
265.894	215.88
266.126	200.88
266.358	218.88
266.591	208.88
266.823	205.88
267.055	217.88
267.287	250.88
267.52	223.88
267.752	218.88
267.984	221.88
268.216	233.88
268.448	208.88
268.681	222.88
268.913	259.88
269.145	258.88
269.377	257.88
269.609	262.88
269.841	273.88
270.073	274.88
270.306	294.88
270.538	288.88
270.77	306.88
271.002	298.88
271.234	287.88
271.466	307.88
271.698	297.88
271.93	307.88
272.162	300.88
272.394	325.88
272.626	314.88
272.858	289.88
273.09	285.88
273.322	279.88
273.553	260.88
273.785	233.88
274.017	243.88
274.249	261.88
274.481	261.88
274.713	249.88
274.945	256.88
275.176	252.88
275.408	245.88
275.64	244.88
275.872	253.88
276.104	253.88
276.335	249.88
276.567	265.88
276.799	252.88
277.031	310.88
277.262	311.88
277.494	305.88
277.726	301.88
277.957	279.88
278.189	257.88
278.421	241.88
278.652	252.88
278.884	248.88
279.115	245.88
279.347	264.88
279.579	249.88
279.81	273.88
280.042	268.88
280.273	242.88
280.505	239.88
280.736	226.88
280.968	228.88
281.199	234.88
281.431	246.88
281.662	228.88
281.894	249.88
282.125	232.88
282.356	265.88
282.588	291.88
282.819	300.88
283.051	269.88
283.282	237.88
283.513	268.88
283.745	241.88
283.976	265.88
284.207	249.88
284.439	254.88
284.67	245.88
284.901	245.88
285.132	250.88
285.364	260.88
285.595	246.88
285.826	236.88
286.057	253.88
286.288	263.88
286.52	258.88
286.751	253.88
286.982	251.88
287.213	248.88
287.444	255.88
287.675	255.88
287.906	249.88
288.138	256.88
288.369	266.88
288.6	284.88
288.831	271.88
289.062	264.88
289.293	273.88
289.524	261.88
289.755	264.88
289.986	261.88
290.217	259.88
290.448	265.88
290.679	247.88
290.91	258.88
291.141	266.88
291.371	261.88
291.602	257.88
291.833	246.88
292.064	259.88
292.295	271.88
292.526	243.88
292.757	247.88
292.987	257.88
293.218	262.88
293.449	256.88
293.68	275.88
293.91	271.88
294.141	265.88
294.372	265.88
294.603	260.88
294.833	258.88
295.064	258.88
295.295	264.88
295.525	276.88
295.756	277.88
295.987	284.88
296.217	291.88
296.448	305.88
296.679	294.88
296.909	272.88
297.14	285.88
297.37	284.88
297.601	275.88
297.831	263.88
298.062	270.88
298.292	268.88
298.523	271.88
298.753	258.88
298.984	279.88
299.214	280.88
299.445	279.88
299.675	271.88
299.905	262.88
300.136	286.88
300.366	272.88
300.597	267.88
300.827	278.88
301.057	296.88
301.288	289.88
301.518	313.88
301.748	290.88
301.979	286.88
302.209	295.88
302.439	275.88
302.669	283.88
302.9	291.88
303.13	266.88
303.36	288.88
303.59	293.88
303.82	295.88
304.051	315.88
304.281	310.88
304.511	275.88
304.741	289.88
304.971	286.88
305.201	291.88
305.431	277.88
305.661	277.88
305.891	300.88
306.121	298.88
306.352	315.88
306.582	315.88
306.812	290.88
307.042	295.88
307.272	277.88
307.502	287.88
307.731	288.88
307.961	305.88
308.191	295.88
308.421	303.88
308.651	329.88
308.881	303.88
309.111	317.88
309.341	326.88
309.571	330.88
309.8	355.88
310.03	342.88
310.26	346.88
310.49	338.88
310.72	351.88
310.949	375.88
311.179	360.88
311.409	349.88
311.639	357.88
311.868	351.88
312.098	343.88
312.328	350.88
312.557	349.88
312.787	385.88
313.017	376.88
313.246	357.88
313.476	344.88
313.706	335.88
313.935	355.88
314.165	379.88
314.394	373.88
314.624	367.88
314.853	371.88
315.083	357.88
315.312	332.88
315.542	326.88
315.771	340.88
316.001	338.88
316.23	332.88
316.46	327.88
316.689	339.88
316.919	333.88
317.148	353.88
317.377	372.88
317.607	377.88
317.836	364.88
318.065	347.88
318.295	340.88
318.524	344.88
318.753	348.88
318.983	356.88
319.212	337.88
319.441	343.88
319.67	366.88
319.9	355.88
320.129	350.88
320.358	363.88
320.587	339.88
320.816	344.88
321.046	352.88
321.275	369.88
321.504	375.88
321.733	368.88
321.962	379.88
322.191	382.88
322.42	391.88
322.649	415.88
322.878	432.88
323.108	457.88
323.337	483.88
323.566	490.88
323.795	519.88
324.024	586.88
324.253	706.88
324.482	1019.88
324.71	1522.88
324.939	2172.88
325.168	1889.88
325.397	1030.88
325.626	659.88
325.855	565.88
326.084	485.88
326.313	498.88
326.542	485.88
326.77	559.88
326.999	638.88
327.228	899.88
327.457	1367.88
327.686	1637.88
327.914	1147.88
328.143	739.88
328.372	619.88
328.6	582.88
328.829	563.88
329.058	556.88
329.287	585.88
329.515	542.88
329.744	485.88
329.972	468.88
330.201	461.88
330.43	531.88
330.658	562.88
330.887	598.88
331.115	607.88
331.344	494.88
331.572	489.88
331.801	453.88
332.03	447.88
332.258	421.88
332.486	395.88
332.715	412.88
332.943	393.88
333.172	404.88
333.4	400.88
333.629	407.88
333.857	400.88
334.085	400.88
334.314	425.88
334.542	429.88
334.771	431.88
334.999	413.88
335.227	420.88
335.455	398.88
335.684	397.88
335.912	404.88
336.14	379.88
336.369	364.88
336.597	391.88
336.825	385.88
337.053	398.88
337.281	398.88
337.51	397.88
337.738	392.88
337.966	376.88
338.194	383.88
338.422	384.88
338.65	402.88
338.878	373.88
339.106	382.88
339.334	381.88
339.562	371.88
339.79	372.88
340.018	374.88
340.246	379.88
340.474	385.88
340.702	371.88
340.93	387.88
341.158	379.88
341.386	390.88
341.614	381.88
341.842	379.88
342.07	392.88
342.298	360.88
342.526	363.88
342.754	377.88
342.981	359.88
343.209	358.88
343.437	354.88
343.665	374.88
343.893	379.88
344.12	384.88
344.348	385.88
344.576	369.88
344.804	397.88
345.031	401.88
345.259	387.88
345.487	400.88
345.714	391.88
345.942	373.88
346.17	370.88
346.397	376.88
346.625	370.88
346.853	352.88
347.08	365.88
347.308	366.88
347.535	365.88
347.763	381.88
347.99	382.88
348.218	369.88
348.445	378.88
348.673	406.88
348.9	357.88
349.128	364.88
349.355	348.88
349.583	362.88
349.81	362.88
350.037	363.88
350.265	355.88
350.492	364.88
350.72	374.88
350.947	368.88
351.174	380.88
351.402	392.88
351.629	393.88
351.856	398.88
352.083	385.88
352.311	385.88
352.538	377.88
352.765	381.88
352.992	366.88
353.22	357.88
353.447	377.88
353.674	362.88
353.901	367.88
354.128	351.88
354.355	348.88
354.583	348.88
354.81	359.88
355.037	356.88
355.264	358.88
355.491	324.88
355.718	329.88
355.945	344.88
356.172	347.88
356.399	335.88
356.626	338.88
356.853	324.88
357.08	324.88
357.307	339.88
357.534	351.88
357.761	349.88
357.988	334.88
358.215	333.88
358.441	342.88
358.668	350.88
358.895	348.88
359.122	348.88
359.349	374.88
359.576	349.88
359.802	403.88
360.029	429.88
360.256	419.88
360.483	407.88
360.709	388.88
360.936	382.88
361.163	388.88
361.39	373.88
361.616	372.88
361.843	363.88
362.07	357.88
362.296	369.88
362.523	362.88
362.749	377.88
362.976	349.88
363.203	361.88
363.429	365.88
363.656	353.88
363.882	357.88
364.109	355.88
364.335	339.88
364.562	355.88
364.788	348.88
365.015	329.88
365.241	358.88
365.468	345.88
365.694	357.88
365.92	351.88
366.147	367.88
366.373	357.88
366.599	354.88
366.826	349.88
367.052	330.88
367.278	348.88
367.505	361.88
367.731	335.88
367.957	359.88
368.184	340.88
368.41	355.88
368.636	370.88
368.862	367.88
369.089	345.88
369.315	338.88
369.541	351.88
369.767	336.88
369.993	346.88
370.219	355.88
370.445	333.88
370.672	351.88
370.898	359.88
371.124	345.88
371.35	346.88
371.576	340.88
371.802	342.88
372.028	335.88
372.254	323.88
372.48	329.88
372.706	324.88
372.932	323.88
373.158	328.88
373.384	342.88
373.61	355.88
373.835	337.88
374.061	332.88
374.287	355.88
374.513	348.88
374.739	351.88
374.965	329.88
375.191	348.88
375.416	337.88
375.642	346.88
375.868	342.88
376.094	358.88
376.319	334.88
376.545	327.88
376.771	322.88
376.997	347.88
377.222	327.88
377.448	316.88
377.674	332.88
377.899	331.88
378.125	352.88
378.35	342.88
378.576	326.88
378.802	333.88
379.027	329.88
379.253	325.88
379.478	346.88
379.704	340.88
379.929	354.88
380.155	333.88
380.38	325.88
380.606	355.88
380.831	340.88
381.057	347.88
381.282	326.88
381.507	329.88
381.733	350.88
381.958	338.88
382.184	348.88
382.409	327.88
382.634	358.88
382.86	350.88
383.085	344.88
383.31	345.88
383.535	351.88
383.761	344.88
383.986	341.88
384.211	357.88
384.436	343.88
384.662	338.88
384.887	360.88
385.112	336.88
385.337	357.88
385.562	342.88
385.787	364.88
386.013	369.88
386.238	366.88
386.463	357.88
386.688	360.88
386.913	351.88
387.138	330.88
387.363	341.88
387.588	353.88
387.813	339.88
388.038	379.88
388.263	334.88
388.488	347.88
388.713	353.88
388.938	349.88
389.163	366.88
389.387	340.88
389.612	350.88
389.837	376.88
390.062	350.88
390.287	346.88
390.512	343.88
390.736	356.88
390.961	361.88
391.186	344.88
391.411	322.88
391.636	335.88
391.86	339.88
392.085	360.88
392.31	329.88
392.534	361.88
392.759	367.88
392.984	339.88
393.208	352.88
393.433	334.88
393.658	355.88
393.882	329.88
394.107	355.88
394.331	366.88
394.556	354.88
394.78	335.88
395.005	351.88
395.229	340.88
395.454	370.88
395.678	357.88
395.903	373.88
396.127	407.88
396.352	391.88
396.576	372.88
396.801	374.88
397.025	360.88
397.249	372.88
397.474	378.88
397.698	372.88
397.922	379.88
398.147	402.88
398.371	397.88
398.595	376.88
398.82	405.88
399.044	397.88
399.268	411.88
399.492	394.88
399.717	420.88
399.941	459.88
400.165	492.88
400.389	495.88
400.613	450.88
400.837	405.88
401.062	421.88
401.286	389.88
401.51	400.88
401.734	376.88
401.958	382.88
402.182	404.88
402.406	415.88
402.63	433.88
402.854	408.88
403.078	417.88
403.302	403.88
403.526	408.88
403.75	397.88
403.974	420.88
404.198	396.88
404.422	402.88
404.645	421.88
404.869	421.88
405.093	430.88
405.317	473.88
405.541	485.88
405.765	459.88
405.988	434.88
406.212	465.88
406.436	453.88
406.66	470.88
406.883	458.88
407.107	479.88
407.331	521.88
407.555	578.88
407.778	572.88
408.002	499.88
408.226	439.88
408.449	420.88
408.673	461.88
408.896	483.88
409.12	521.88
409.344	491.88
409.567	441.88
409.791	422.88
410.014	415.88
410.238	411.88
410.461	405.88
410.685	418.88
410.908	445.88
411.132	458.88
411.355	497.88
411.578	473.88
411.802	442.88
412.025	427.88
412.249	416.88
412.472	417.88
412.695	425.88
412.919	413.88
413.142	403.88
413.365	381.88
413.589	396.88
413.812	379.88
414.035	381.88
414.258	390.88
414.482	381.88
414.705	381.88
414.928	396.88
415.151	402.88
415.374	375.88
415.597	376.88
415.821	376.88
416.044	384.88
416.267	390.88
416.49	405.88
416.713	380.88
416.936	397.88
417.159	375.88
417.382	397.88
417.605	406.88
417.828	389.88
418.051	425.88
418.274	399.88
418.497	419.88
418.72	417.88
418.943	393.88
419.166	396.88
419.389	420.88
419.611	412.88
419.834	419.88
420.057	412.88
420.28	398.88
420.503	418.88
420.726	415.88
420.948	404.88
421.171	458.88
421.394	483.88
421.617	443.88
421.839	404.88
422.062	421.88
422.285	431.88
422.507	494.88
422.73	535.88
422.953	540.88
423.175	470.88
423.398	437.88
423.621	407.88
423.843	449.88
424.066	445.88
424.288	472.88
424.511	479.88
424.733	516.88
424.956	618.88
425.178	580.88
425.401	569.88
425.623	600.88
425.846	503.88
426.068	483.88
426.291	442.88
426.513	464.88
426.735	495.88
426.958	513.88
427.18	596.88
427.402	694.88
427.625	765.88
427.847	716.88
428.069	568.88
428.292	530.88
428.514	486.88
428.736	447.88
428.958	460.88
429.181	444.88
429.403	437.88
429.625	455.88
429.847	491.88
430.069	543.88
430.292	515.88
430.514	452.88
430.736	435.88
430.958	418.88
431.18	419.88
431.402	420.88
431.624	407.88
431.846	403.88
432.068	402.88
432.29	406.88
432.512	406.88
432.734	410.88
432.956	400.88
433.178	413.88
433.4	438.88
433.622	405.88
433.844	393.88
434.066	405.88
434.287	393.88
434.509	392.88
434.731	406.88
434.953	398.88
435.175	428.88
435.397	463.88
435.618	470.88
435.84	521.88
436.062	593.88
436.284	655.88
436.505	541.88
436.727	496.88
436.949	463.88
437.17	444.88
437.392	431.88
437.614	454.88
437.835	476.88
438.057	572.88
438.278	655.88
438.5	662.88
438.721	701.88
438.943	684.88
439.165	569.88
439.386	504.88
439.608	488.88
439.829	487.88
440.05	524.88
440.272	541.88
440.493	533.88
440.715	498.88
440.936	455.88
441.158	414.88
441.379	442.88
441.6	457.88
441.822	474.88
442.043	489.88
442.264	578.88
442.486	611.88
442.707	519.88
442.928	481.88
443.149	484.88
443.371	502.88
443.592	569.88
443.813	615.88
444.034	661.88
444.255	565.88
444.476	494.88
444.698	462.88
444.919	475.88
445.14	569.88
445.361	526.88
445.582	517.88
445.803	567.88
446.024	673.88
446.245	657.88
446.466	604.88
446.687	519.88
446.908	478.88
447.129	446.88
447.35	449.88
447.571	439.88
447.792	442.88
448.013	451.88
448.234	449.88
448.455	506.88
448.675	623.88
448.896	683.88
449.117	602.88
449.338	577.88
449.559	635.88
449.779	765.88
450	602.88
450.221	493.88
450.442	445.88
450.662	442.88
450.883	459.88
451.104	463.88
451.324	455.88
451.545	409.88
451.766	397.88
451.986	392.88
452.207	390.88
452.428	392.88
452.648	383.88
452.869	382.88
453.089	405.88
453.31	407.88
453.53	397.88
453.751	397.88
453.971	385.88
454.192	420.88
454.412	405.88
454.633	400.88
454.853	362.88
455.073	409.88
455.294	429.88
455.514	482.88
455.734	490.88
455.955	379.88
456.175	378.88
456.395	351.88
456.616	372.88
456.836	385.88
457.056	369.88
457.276	373.88
457.497	368.88
457.717	350.88
457.937	364.88
458.157	374.88
458.377	383.88
458.598	379.88
458.818	454.88
459.038	559.88
459.258	555.88
459.478	465.88
459.698	410.88
459.918	407.88
460.138	390.88
460.358	383.88
460.578	413.88
460.798	399.88
461.018	401.88
461.238	393.88
461.458	389.88
461.678	380.88
461.898	405.88
462.118	361.88
462.338	383.88
462.558	394.88
462.777	384.88
462.997	406.88
463.217	404.88
463.437	400.88
463.657	410.88
463.876	394.88
464.096	399.88
464.316	395.88
464.536	434.88
464.755	443.88
464.975	428.88
465.195	499.88
465.414	551.88
465.634	500.88
465.854	446.88
466.073	415.88
466.293	394.88
466.512	399.88
466.732	382.88
466.951	394.88
467.171	388.88
467.391	387.88
467.61	417.88
467.829	398.88
468.049	403.88
468.268	380.88
468.488	391.88
468.707	393.88
468.927	381.88
469.146	374.88
469.365	363.88
469.585	381.88
469.804	397.88
470.023	406.88
470.243	417.88
470.462	413.88
470.681	428.88
470.901	400.88
471.12	413.88
471.339	391.88
471.558	392.88
471.777	399.88
471.997	397.88
472.216	390.88
472.435	411.88
472.654	380.88
472.873	389.88
473.092	373.88
473.311	406.88
473.53	408.88
473.749	401.88
473.968	439.88
474.187	537.88
474.406	569.88
474.625	475.88
474.844	415.88
475.063	423.88
475.282	397.88
475.501	380.88
475.72	428.88
475.939	397.88
476.158	418.88
476.377	409.88
476.596	393.88
476.814	431.88
477.033	435.88
477.252	429.88
477.471	425.88
477.69	400.88
477.908	424.88
478.127	416.88
478.346	419.88
478.564	418.88
478.783	436.88
479.002	435.88
479.22	441.88
479.439	479.88
479.658	489.88
479.876	486.88
480.095	480.88
480.313	506.88
480.532	484.88
480.751	450.88
480.969	452.88
481.188	495.88
481.406	515.88
481.624	468.88
481.843	484.88
482.061	475.88
482.28	465.88
482.498	468.88
482.717	476.88
482.935	453.88
483.153	463.88
483.372	488.88
483.59	469.88
483.808	475.88
484.027	465.88
484.245	462.88
484.463	466.88
484.681	464.88
484.9	462.88
485.118	474.88
485.336	475.88
485.554	518.88
485.772	487.88
485.99	503.88
486.209	482.88
486.427	472.88
486.645	485.88
486.863	530.88
487.081	524.88
487.299	528.88
487.517	513.88
487.735	499.88
487.953	521.88
488.171	480.88
488.389	491.88
488.607	514.88
488.825	519.88
489.043	503.88
489.261	506.88
489.479	511.88
489.696	503.88
489.914	503.88
490.132	536.88
490.35	551.88
490.568	519.88
490.786	551.88
491.003	529.88
491.221	553.88
491.439	567.88
491.657	583.88
491.874	568.88
492.092	583.88
492.31	579.88
492.527	590.88
492.745	566.88
492.963	573.88
493.18	588.88
493.398	602.88
493.615	579.88
493.833	582.88
494.05	602.88
494.268	619.88
494.485	583.88
494.703	596.88
494.92	605.88
495.138	567.88
495.355	605.88
495.573	593.88
495.79	579.88
496.008	589.88
496.225	581.88
496.442	591.88
496.66	620.88
496.877	598.88
497.094	610.88
497.312	626.88
497.529	614.88
497.746	622.88
497.963	613.88
498.181	630.88
498.398	632.88
498.615	644.88
498.832	676.88
499.049	650.88
499.267	683.88
499.484	676.88
499.701	665.88
499.918	699.88
500.135	719.88
500.352	740.88
500.569	748.88
500.786	739.88
501.003	742.88
501.22	711.88
501.437	739.88
501.654	710.88
501.871	732.88
502.088	705.88
502.305	700.88
502.522	667.88
502.739	645.88
502.956	629.88
503.172	651.88
503.389	617.88
503.606	633.88
503.823	641.88
504.04	600.88
504.256	615.88
504.473	611.88
504.69	611.88
504.907	597.88
505.123	583.88
505.34	600.88
505.557	583.88
505.773	601.88
505.99	606.88
506.207	597.88
506.423	587.88
506.64	595.88
506.856	595.88
507.073	564.88
507.289	589.88
507.506	585.88
507.722	594.88
507.939	625.88
508.155	594.88
508.372	577.88
508.588	577.88
508.805	578.88
509.021	580.88
509.238	601.88
509.454	579.88
509.67	558.88
509.887	585.88
510.103	582.88
510.319	587.88
510.536	724.88
510.752	1220.88
510.968	1019.88
511.184	635.88
511.401	562.88
511.617	545.88
511.833	543.88
512.049	521.88
512.265	553.88
512.481	537.88
512.698	533.88
512.914	532.88
513.13	550.88
513.346	544.88
513.562	535.88
513.778	548.88
513.994	542.88
514.21	574.88
514.426	612.88
514.642	665.88
514.858	677.88
515.074	713.88
515.29	898.88
515.506	1419.88
515.721	1131.88
515.937	705.88
516.153	655.88
516.369	583.88
516.585	565.88
516.801	557.88
517.016	534.88
517.232	549.88
517.448	562.88
517.664	542.88
517.879	542.88
518.095	546.88
518.311	543.88
518.527	549.88
518.742	544.88
518.958	551.88
519.173	521.88
519.389	531.88
519.605	562.88
519.82	574.88
520.036	571.88
520.251	614.88
520.467	617.88
520.682	605.88
520.898	618.88
521.113	675.88
521.329	702.88
521.544	834.88
521.76	1108.88
521.975	1901.88
522.19	1846.88
522.406	965.88
522.621	684.88
522.836	613.88
523.052	590.88
523.267	541.88
523.482	515.88
523.698	527.88
523.913	527.88
524.128	536.88
524.343	501.88
524.559	482.88
524.774	488.88
524.989	463.88
525.204	497.88
525.419	496.88
525.634	460.88
525.849	460.88
526.064	470.88
526.28	460.88
526.495	440.88
526.71	438.88
526.925	435.88
527.14	464.88
527.355	455.88
527.57	429.88
527.785	425.88
527.999	434.88
528.214	445.88
528.429	435.88
528.644	438.88
528.859	436.88
529.074	423.88
529.289	454.88
529.503	547.88
529.718	538.88
529.933	468.88
530.148	471.88
530.363	460.88
530.577	422.88
530.792	453.88
531.007	423.88
531.221	436.88
531.436	420.88
531.651	411.88
531.865	398.88
532.08	412.88
532.295	404.88
532.509	419.88
532.724	399.88
532.938	411.88
533.153	418.88
533.367	408.88
533.582	411.88
533.796	407.88
534.011	405.88
534.225	397.88
534.44	385.88
534.654	410.88
534.868	394.88
535.083	399.88
535.297	396.88
535.511	400.88
535.726	421.88
535.94	427.88
536.154	419.88
536.369	404.88
536.583	404.88
536.797	396.88
537.011	382.88
537.225	374.88
537.44	391.88
537.654	390.88
537.868	379.88
538.082	395.88
538.296	406.88
538.51	406.88
538.724	396.88
538.938	393.88
539.153	409.88
539.367	411.88
539.581	417.88
539.795	400.88
540.009	392.88
540.222	370.88
540.436	399.88
540.65	406.88
540.864	402.88
541.078	416.88
541.292	399.88
541.506	410.88
541.72	399.88
541.934	411.88
542.147	395.88
542.361	375.88
542.575	405.88
542.789	412.88
543.002	409.88
543.216	395.88
543.43	395.88
543.644	398.88
543.857	393.88
544.071	392.88
544.285	405.88
544.498	394.88
544.712	381.88
544.925	382.88
545.139	388.88
545.352	403.88
545.566	382.88
545.779	388.88
545.993	397.88
546.206	387.88
546.42	376.88
546.633	385.88
546.847	361.88
547.06	369.88
547.274	366.88
547.487	373.88
547.7	369.88
547.914	360.88
548.127	380.88
548.34	369.88
548.554	380.88
548.767	375.88
548.98	372.88
549.193	364.88
549.407	347.88
549.62	371.88
549.833	355.88
550.046	365.88
550.259	378.88
550.473	375.88
550.686	353.88
550.899	373.88
551.112	377.88
551.325	366.88
551.538	345.88
551.751	356.88
551.964	376.88
552.177	369.88
552.39	358.88
552.603	367.88
552.816	362.88
553.029	358.88
553.242	372.88
553.455	357.88
553.667	383.88
553.88	394.88
554.093	385.88
554.306	390.88
554.519	363.88
554.732	346.88
554.944	369.88
555.157	341.88
555.37	349.88
555.583	350.88
555.795	353.88
556.008	343.88
556.221	335.88
556.433	334.88
556.646	346.88
556.859	334.88
557.071	359.88
557.284	320.88
557.496	326.88
557.709	333.88
557.921	338.88
558.134	325.88
558.346	348.88
558.559	350.88
558.771	321.88
558.984	327.88
559.196	333.88
559.409	333.88
559.621	320.88
559.833	313.88
560.046	321.88
560.258	315.88
560.47	316.88
560.683	341.88
560.895	337.88
561.107	330.88
561.32	326.88
561.532	348.88
561.744	353.88
561.956	330.88
562.168	325.88
562.381	337.88
562.593	355.88
562.805	363.88
563.017	347.88
563.229	340.88
563.441	340.88
563.653	328.88
563.865	313.88
564.077	327.88
564.289	348.88
564.501	350.88
564.713	333.88
564.925	321.88
565.137	360.88
565.349	347.88
565.561	344.88
565.773	341.88
565.985	357.88
566.197	348.88
566.408	348.88
566.62	359.88
566.832	380.88
567.044	374.88
567.255	373.88
567.467	381.88
567.679	362.88
567.891	375.88
568.102	366.88
568.314	378.88
568.526	377.88
568.737	355.88
568.949	358.88
569.161	354.88
569.372	330.88
569.584	326.88
569.795	329.88
570.007	333.88
570.218	383.88
570.43	377.88
570.641	315.88
570.853	307.88
571.064	327.88
571.276	326.88
571.487	309.88
571.698	309.88
571.91	298.88
572.121	308.88
572.333	289.88
572.544	297.88
572.755	313.88
572.966	297.88
573.178	307.88
573.389	314.88
573.6	293.88
573.811	291.88
574.023	265.88
574.234	288.88
574.445	296.88
574.656	285.88
574.867	293.88
575.078	282.88
575.289	285.88
575.501	289.88
575.712	289.88
575.923	290.88
576.134	268.88
576.345	292.88
576.556	294.88
576.767	287.88
576.978	280.88
577.188	279.88
577.399	282.88
577.61	276.88
577.821	267.88
578.032	283.88
578.243	327.88
578.454	610.88
578.665	414.88
578.875	309.88
579.086	254.88
579.297	275.88
579.508	275.88
579.718	275.88
579.929	271.88
580.14	262.88
580.35	254.88
580.561	251.88
580.772	276.88
580.982	269.88
581.193	259.88
581.403	256.88
581.614	266.88
581.825	270.88
582.035	259.88
582.246	265.88
582.456	257.88
582.667	258.88
582.877	250.88
583.087	261.88
583.298	255.88
583.508	256.88
583.719	251.88
583.929	256.88
584.139	270.88
584.35	258.88
584.56	246.88
584.77	263.88
584.981	248.88
585.191	246.88
585.401	248.88
585.611	247.88
585.821	246.88
586.032	241.88
586.242	249.88
586.452	261.88
586.662	261.88
586.872	249.88
587.082	249.88
587.292	258.88
587.502	256.88
587.713	249.88
587.923	253.88
588.133	257.88
588.343	251.88
588.553	244.88
588.762	251.88
588.972	281.88
589.182	300.88
589.392	303.88
589.602	268.88
589.812	286.88
590.022	279.88
590.232	231.88
590.441	243.88
590.651	250.88
590.861	243.88
591.071	256.88
591.281	237.88
591.49	262.88
591.7	258.88
591.91	265.88
592.119	276.88
592.329	244.88
592.539	281.88
592.748	242.88
592.958	245.88
593.167	237.88
593.377	273.88
593.587	271.88
593.796	255.88
594.006	267.88
594.215	271.88
594.424	260.88
594.634	258.88
594.843	238.88
595.053	246.88
595.262	238.88
595.472	238.88
595.681	235.88
595.89	245.88
596.1	223.88
596.309	220.88
596.518	228.88
596.727	232.88
596.937	232.88
597.146	247.88
597.355	235.88
597.564	238.88
597.774	232.88
597.983	224.88
598.192	234.88
598.401	219.88
598.61	235.88
598.819	225.88
599.028	224.88
599.237	238.88
599.446	242.88
599.655	215.88
599.864	218.88
600.073	257.88
600.282	220.88
600.491	225.88
600.7	218.88
600.909	225.88
601.118	217.88
601.327	226.88
601.536	226.88
601.745	222.88
601.953	215.88
602.162	224.88
602.371	222.88
602.58	218.88
602.789	210.88
602.997	207.88
603.206	220.88
603.415	232.88
603.623	221.88
603.832	212.88
604.041	211.88
604.249	220.88
604.458	222.88
604.666	216.88
604.875	212.88
605.084	212.88
605.292	216.88
605.501	227.88
605.709	205.88
605.918	219.88
606.126	214.88
606.334	217.88
606.543	218.88
606.751	216.88
606.96	211.88
607.168	207.88
607.376	213.88
607.585	206.88
607.793	218.88
608.001	197.88
608.21	216.88
608.418	210.88
608.626	202.88
608.834	210.88
609.043	201.88
609.251	201.88
609.459	204.88
609.667	212.88
609.875	198.88
610.083	225.88
610.291	219.88
610.499	205.88
610.707	214.88
610.916	200.88
611.124	207.88
611.332	211.88
611.54	217.88
611.748	212.88
611.955	222.88
612.163	216.88
612.371	207.88
612.579	214.88
612.787	198.88
612.995	211.88
613.203	207.88
613.411	206.88
613.618	217.88
613.826	204.88
614.034	202.88
614.242	211.88
614.449	194.88
614.657	218.88
614.865	214.88
615.072	213.88
615.28	193.88
615.488	210.88
615.695	202.88
615.903	214.88
616.111	222.88
616.318	205.88
616.526	217.88
616.733	213.88
616.941	197.88
617.148	201.88
617.356	220.88
617.563	203.88
617.771	189.88
617.978	213.88
618.185	208.88
618.393	219.88
618.6	211.88
618.807	182.88
619.015	195.88
619.222	195.88
619.429	207.88
619.637	204.88
619.844	173.88
620.051	191.88
620.258	198.88
620.466	193.88
620.673	191.88
620.88	199.88
621.087	199.88
621.294	206.88
621.501	196.88
621.708	194.88
621.915	199.88
622.122	202.88
622.329	203.88
622.536	200.88
622.743	207.88
622.95	207.88
623.157	191.88
623.364	189.88
623.571	199.88
623.778	192.88
623.985	185.88
624.192	178.88
624.399	198.88
624.606	190.88
624.812	188.88
625.019	193.88
625.226	191.88
625.433	192.88
625.639	200.88
625.846	162.88
626.053	186.88
626.259	181.88
626.466	197.88
626.673	173.88
626.879	182.88
627.086	181.88
627.293	169.88
627.499	186.88
627.706	188.88
627.912	180.88
628.119	185.88
628.325	171.88
628.532	172.88
628.738	190.88
628.945	189.88
629.151	177.88
629.357	157.88
629.564	181.88
629.77	169.88
629.976	174.88
630.183	188.88
630.389	177.88
630.595	184.88
630.802	174.88
631.008	174.88
631.214	174.88
631.42	162.88
631.627	186.88
631.833	165.88
632.039	171.88
632.245	185.88
632.451	168.88
632.657	185.88
632.863	171.88
633.069	181.88
633.275	161.88
633.481	172.88
633.688	165.88
633.893	149.88
634.099	168.88
634.305	172.88
634.511	165.88
634.717	162.88
634.923	168.88
635.129	173.88
635.335	159.88
635.541	164.88
635.747	168.88
635.952	157.88
636.158	149.88
636.364	170.88
636.57	150.88
636.775	177.88
636.981	167.88
637.187	168.88
637.392	163.88
637.598	157.88
637.804	171.88
638.009	150.88
638.215	152.88
638.421	172.88
638.626	166.88
638.832	163.88
639.037	165.88
639.243	169.88
639.448	156.88
639.654	145.88
639.859	155.88
640.065	157.88
640.27	178.88
640.475	168.88
640.681	159.88
640.886	153.88
641.091	161.88
641.297	174.88
641.502	141.88
641.707	154.88
641.913	157.88
642.118	169.88
642.323	166.88
642.528	161.88
642.733	154.88
642.939	155.88
643.144	152.88
643.349	158.88
643.554	151.88
643.759	147.88
643.964	141.88
644.169	141.88
644.374	142.88
644.579	158.88
644.784	149.88
644.989	157.88
645.194	150.88
645.399	143.88
645.604	158.88
645.809	137.88
646.014	139.88
646.219	150.88
646.423	153.88
646.628	154.88
646.833	143.88
647.038	156.88
647.243	137.88
647.447	151.88
647.652	153.88
647.857	148.88
648.062	151.88
648.266	149.88
648.471	153.88
648.676	159.88
648.88	163.88
649.085	156.88
649.289	142.88
649.494	155.88
649.698	166.88
649.903	170.88
650.107	171.88
650.312	164.88
650.516	130.88
650.721	154.88
650.925	139.88
651.13	148.88
651.334	140.88
651.539	144.88
651.743	129.88
651.947	125.88
652.152	123.88
652.356	126.88
652.56	139.88
652.764	140.88
652.969	137.88
653.173	138.88
653.377	137.88
653.581	132.88
653.785	123.88
653.99	127.88
654.194	125.88
654.398	134.88
654.602	122.88
654.806	129.88
655.01	140.88
655.214	122.88
655.418	135.88
655.622	136.88
655.826	133.88
656.03	130.88
656.234	135.88
656.438	118.88
656.642	135.88
656.846	110.88
657.049	132.88
657.253	109.88
657.457	117.88
657.661	121.88
657.865	106.88
658.068	101.88
658.272	109.88
658.476	120.88
658.68	107.88
658.883	100.88
659.087	109.88
659.291	107.88
659.494	107.88
659.698	96.88
659.901	89.88
660.105	93.88
660.309	80.88
660.512	85.88
660.716	102.88
660.919	91.88
661.123	84.88
661.326	81.88
661.53	93.88
661.733	87.88
661.936	85.88
662.14	96.88
662.343	79.88
662.546	91.88
662.75	65.88
662.953	92.88
663.156	84.88
663.36	92.88
663.563	90.88
663.766	84.88
663.969	89.88
664.173	82.88
664.376	97.88
664.579	79.88
664.782	89.88
664.985	87.88
665.188	81.88
665.391	86.88
665.594	80.88
665.797	77.88
666	86.88
666.203	80.88
666.406	84.88
666.609	80.88
666.812	87.88
667.015	86.88
667.218	78.88
667.421	85.88
667.624	89.88
667.827	91.88
668.03	88.88
668.232	84.88
668.435	73.88
668.638	80.88
668.841	86.88
669.043	84.88
669.246	98.88
669.449	94.88
669.651	84.88
669.854	86.88
670.057	89.88
670.259	85.88
670.462	84.88
670.665	90.88
670.867	87.88
671.07	85.88
671.272	84.88
671.475	76.88
671.677	81.88
671.88	92.88
672.082	81.88
672.284	96.88
672.487	84.88
672.689	84.88
672.892	84.88
