Data from 1986.PennyLincolnUp.Lamp.En5.5.200Scan.071819.P2_HRD10591_17-12-12-973.txt Node
Date: Thu Jul 18 17:12:12 EDT 2019
User: cochatt
Spectrometer: HR+D1059
Trigger mode: 1
Integration Time (sec): 1.000000E-1
Scans to average: 1
Electric dark correction enabled: true
Nonlinearity correction enabled: false
Boxcar width: 0
XAxis mode: Wavelengths
Number of Pixels in Spectrum: 2048
>>>>>Begin Spectral Data<<<<<
223.165	-30.31
223.4	-30.31
223.635	-30.31
223.869	-8.31
224.104	-10.31
224.338	-16.31
224.573	-11.31
224.808	-19.31
225.042	-6.31
225.277	7.69
225.511	-5.31
225.746	9.69
225.98	18.69
226.215	9.69
226.449	-1.31
226.683	5.69
226.918	24.69
227.152	32.69
227.387	36.69
227.621	27.69
227.856	53.69
228.09	53.69
228.324	53.69
228.559	54.69
228.793	68.69
229.027	104.69
229.262	104.69
229.496	129.69
229.73	136.69
229.964	172.69
230.199	116.69
230.433	122.69
230.667	123.69
230.901	105.69
231.136	104.69
231.37	117.69
231.604	111.69
231.838	117.69
232.072	117.69
232.306	117.69
232.541	97.69
232.775	123.69
233.009	123.69
233.243	108.69
233.477	113.69
233.711	98.69
233.945	112.69
234.179	119.69
234.413	118.69
234.647	120.69
234.881	115.69
235.115	124.69
235.349	115.69
235.583	116.69
235.817	131.69
236.051	132.69
236.285	119.69
236.519	127.69
236.753	153.69
236.987	154.69
237.221	206.69
237.455	259.69
237.689	189.69
237.922	142.69
238.156	151.69
238.39	127.69
238.624	136.69
238.858	137.69
239.091	121.69
239.325	127.69
239.559	133.69
239.793	109.69
240.027	132.69
240.26	153.69
240.494	166.69
240.728	147.69
240.961	160.69
241.195	150.69
241.429	136.69
241.662	124.69
241.896	138.69
242.13	153.69
242.363	120.69
242.597	151.69
242.83	139.69
243.064	149.69
243.298	164.69
243.531	125.69
243.765	141.69
243.998	148.69
244.232	157.69
244.465	148.69
244.699	148.69
244.932	143.69
245.166	147.69
245.399	149.69
245.633	147.69
245.866	146.69
246.099	145.69
246.333	164.69
246.566	160.69
246.8	157.69
247.033	162.69
247.266	161.69
247.5	173.69
247.733	191.69
247.966	189.69
248.2	178.69
248.433	171.69
248.666	182.69
248.899	205.69
249.133	195.69
249.366	228.69
249.599	223.69
249.832	197.69
250.066	204.69
250.299	212.69
250.532	251.69
250.765	262.69
250.998	290.69
251.231	266.69
251.465	228.69
251.698	241.69
251.931	223.69
252.164	201.69
252.397	227.69
252.63	226.69
252.863	221.69
253.096	231.69
253.329	258.69
253.562	240.69
253.795	246.69
254.028	247.69
254.261	240.69
254.494	243.69
254.727	281.69
254.96	334.69
255.193	312.69
255.426	293.69
255.659	269.69
255.892	316.69
256.124	332.69
256.357	350.69
256.59	325.69
256.823	295.69
257.056	272.69
257.289	265.69
257.521	270.69
257.754	261.69
257.987	247.69
258.22	262.69
258.452	230.69
258.685	257.69
258.918	251.69
259.151	238.69
259.383	240.69
259.616	252.69
259.849	243.69
260.081	251.69
260.314	279.69
260.547	295.69
260.779	273.69
261.012	259.69
261.244	241.69
261.477	240.69
261.71	234.69
261.942	253.69
262.175	253.69
262.407	242.69
262.64	246.69
262.872	237.69
263.105	254.69
263.337	219.69
263.57	217.69
263.802	215.69
264.035	228.69
264.267	227.69
264.499	212.69
264.732	226.69
264.964	231.69
265.197	230.69
265.429	241.69
265.661	222.69
265.894	234.69
266.126	221.69
266.358	226.69
266.591	235.69
266.823	238.69
267.055	255.69
267.287	252.69
267.52	239.69
267.752	264.69
267.984	250.69
268.216	232.69
268.448	239.69
268.681	234.69
268.913	268.69
269.145	268.69
269.377	284.69
269.609	284.69
269.841	271.69
270.073	276.69
270.306	312.69
270.538	322.69
270.77	348.69
271.002	322.69
271.234	317.69
271.466	311.69
271.698	327.69
271.93	308.69
272.162	327.69
272.394	347.69
272.626	332.69
272.858	297.69
273.09	305.69
273.322	301.69
273.553	297.69
273.785	277.69
274.017	284.69
274.249	286.69
274.481	275.69
274.713	285.69
274.945	298.69
275.176	274.69
275.408	285.69
275.64	269.69
275.872	295.69
276.104	297.69
276.335	285.69
276.567	291.69
276.799	291.69
277.031	325.69
277.262	340.69
277.494	346.69
277.726	320.69
277.957	323.69
278.189	300.69
278.421	295.69
278.652	283.69
278.884	295.69
279.115	283.69
279.347	290.69
279.579	285.69
279.81	265.69
280.042	283.69
280.273	300.69
280.505	308.69
280.736	284.69
280.968	279.69
281.199	278.69
281.431	292.69
281.662	270.69
281.894	269.69
282.125	283.69
282.356	289.69
282.588	331.69
282.819	319.69
283.051	299.69
283.282	267.69
283.513	290.69
283.745	285.69
283.976	268.69
284.207	291.69
284.439	303.69
284.67	292.69
284.901	267.69
285.132	280.69
285.364	298.69
285.595	276.69
285.826	279.69
286.057	289.69
286.288	282.69
286.52	279.69
286.751	272.69
286.982	292.69
287.213	269.69
287.444	275.69
287.675	287.69
287.906	298.69
288.138	304.69
288.369	317.69
288.6	323.69
288.831	307.69
289.062	297.69
289.293	283.69
289.524	287.69
289.755	289.69
289.986	291.69
290.217	297.69
290.448	281.69
290.679	276.69
290.91	285.69
291.141	293.69
291.371	305.69
291.602	287.69
291.833	297.69
292.064	296.69
292.295	305.69
292.526	281.69
292.757	301.69
292.987	289.69
293.218	286.69
293.449	301.69
293.68	288.69
293.91	296.69
294.141	270.69
294.372	273.69
294.603	293.69
294.833	315.69
295.064	279.69
295.295	310.69
295.525	283.69
295.756	300.69
295.987	316.69
296.217	325.69
296.448	327.69
296.679	333.69
296.909	277.69
297.14	280.69
297.37	294.69
297.601	298.69
297.831	285.69
298.062	289.69
298.292	271.69
298.523	305.69
298.753	304.69
298.984	289.69
299.214	307.69
299.445	335.69
299.675	314.69
299.905	324.69
300.136	304.69
300.366	312.69
300.597	308.69
300.827	296.69
301.057	305.69
301.288	309.69
301.518	338.69
301.748	321.69
301.979	329.69
302.209	315.69
302.439	332.69
302.669	325.69
302.9	343.69
303.13	319.69
303.36	330.69
303.59	309.69
303.82	333.69
304.051	344.69
304.281	336.69
304.511	339.69
304.741	327.69
304.971	316.69
305.201	327.69
305.431	323.69
305.661	323.69
305.891	319.69
306.121	312.69
306.352	311.69
306.582	307.69
306.812	328.69
307.042	330.69
307.272	331.69
307.502	309.69
307.731	349.69
307.961	341.69
308.191	325.69
308.421	338.69
308.651	336.69
308.881	336.69
309.111	339.69
309.341	352.69
309.571	355.69
309.8	344.69
310.03	379.69
310.26	383.69
310.49	369.69
310.72	375.69
310.949	376.69
311.179	424.69
311.409	409.69
311.639	400.69
311.868	377.69
312.098	383.69
312.328	372.69
312.557	396.69
312.787	428.69
313.017	424.69
313.246	415.69
313.476	387.69
313.706	395.69
313.935	409.69
314.165	389.69
314.394	409.69
314.624	390.69
314.853	405.69
315.083	392.69
315.312	393.69
315.542	375.69
315.771	374.69
316.001	374.69
316.23	354.69
316.46	361.69
316.689	354.69
316.919	405.69
317.148	409.69
317.377	399.69
317.607	385.69
317.836	394.69
318.065	392.69
318.295	379.69
318.524	391.69
318.753	376.69
318.983	387.69
319.212	368.69
319.441	390.69
319.67	395.69
319.9	408.69
320.129	391.69
320.358	377.69
320.587	398.69
320.816	397.69
321.046	411.69
321.275	452.69
321.504	403.69
321.733	422.69
321.962	435.69
322.191	433.69
322.42	465.69
322.649	476.69
322.878	485.69
323.108	500.69
323.337	537.69
323.566	565.69
323.795	593.69
324.024	631.69
324.253	793.69
324.482	1137.69
324.71	1688.69
324.939	2480.69
325.168	2203.69
325.397	1125.69
325.626	793.69
325.855	634.69
326.084	582.69
326.313	573.69
326.542	575.69
326.77	625.69
326.999	746.69
327.228	1041.69
327.457	1510.69
327.686	1887.69
327.914	1345.69
328.143	891.69
328.372	818.69
328.6	732.69
328.829	670.69
329.058	703.69
329.287	698.69
329.515	641.69
329.744	619.69
329.972	679.69
330.201	759.69
330.43	865.69
330.658	840.69
330.887	777.69
331.115	726.69
331.344	632.69
331.572	579.69
331.801	572.69
332.03	522.69
332.258	535.69
332.486	490.69
332.715	482.69
332.943	515.69
333.172	503.69
333.4	544.69
333.629	553.69
333.857	575.69
334.085	665.69
334.314	763.69
334.542	917.69
334.771	961.69
334.999	742.69
335.227	597.69
335.455	523.69
335.684	500.69
335.912	492.69
336.14	470.69
336.369	447.69
336.597	463.69
336.825	473.69
337.053	476.69
337.281	437.69
337.51	442.69
337.738	468.69
337.966	442.69
338.194	471.69
338.422	432.69
338.65	442.69
338.878	424.69
339.106	420.69
339.334	425.69
339.562	423.69
339.79	445.69
340.018	418.69
340.246	441.69
340.474	424.69
340.702	427.69
340.93	433.69
341.158	412.69
341.386	428.69
341.614	419.69
341.842	440.69
342.07	408.69
342.298	410.69
342.526	407.69
342.754	407.69
342.981	422.69
343.209	396.69
343.437	409.69
343.665	386.69
343.893	407.69
344.12	404.69
344.348	424.69
344.576	425.69
344.804	419.69
345.031	440.69
345.259	450.69
345.487	417.69
345.714	418.69
345.942	412.69
346.17	409.69
346.397	416.69
346.625	421.69
346.853	444.69
347.08	391.69
347.308	414.69
347.535	435.69
347.763	414.69
347.99	420.69
348.218	424.69
348.445	440.69
348.673	444.69
348.9	426.69
349.128	394.69
349.355	395.69
349.583	400.69
349.81	393.69
350.037	387.69
350.265	403.69
350.492	401.69
350.72	391.69
350.947	415.69
351.174	406.69
351.402	407.69
351.629	426.69
351.856	424.69
352.083	423.69
352.311	429.69
352.538	440.69
352.765	427.69
352.992	396.69
353.22	419.69
353.447	415.69
353.674	405.69
353.901	403.69
354.128	393.69
354.355	408.69
354.583	392.69
354.81	402.69
355.037	380.69
355.264	382.69
355.491	361.69
355.718	379.69
355.945	383.69
356.172	365.69
356.399	361.69
356.626	386.69
356.853	374.69
357.08	391.69
357.307	359.69
357.534	355.69
357.761	361.69
357.988	378.69
358.215	365.69
358.441	379.69
358.668	366.69
358.895	385.69
359.122	381.69
359.349	395.69
359.576	400.69
359.802	417.69
360.029	460.69
360.256	473.69
360.483	460.69
360.709	417.69
360.936	392.69
361.163	413.69
361.39	408.69
361.616	400.69
361.843	409.69
362.07	416.69
362.296	403.69
362.523	386.69
362.749	399.69
362.976	383.69
363.203	409.69
363.429	395.69
363.656	389.69
363.882	395.69
364.109	392.69
364.335	388.69
364.562	369.69
364.788	382.69
365.015	395.69
365.241	373.69
365.468	388.69
365.694	401.69
365.92	384.69
366.147	374.69
366.373	384.69
366.599	389.69
366.826	404.69
367.052	372.69
367.278	364.69
367.505	377.69
367.731	374.69
367.957	385.69
368.184	375.69
368.41	396.69
368.636	398.69
368.862	395.69
369.089	387.69
369.315	393.69
369.541	381.69
369.767	381.69
369.993	369.69
370.219	375.69
370.445	377.69
370.672	379.69
370.898	367.69
371.124	377.69
371.35	383.69
371.576	372.69
371.802	386.69
372.028	368.69
372.254	370.69
372.48	376.69
372.706	362.69
372.932	358.69
373.158	380.69
373.384	373.69
373.61	365.69
373.835	354.69
374.061	368.69
374.287	373.69
374.513	377.69
374.739	373.69
374.965	360.69
375.191	362.69
375.416	377.69
375.642	356.69
375.868	372.69
376.094	377.69
376.319	356.69
376.545	350.69
376.771	367.69
376.997	364.69
377.222	374.69
377.448	359.69
377.674	356.69
377.899	334.69
378.125	358.69
378.35	373.69
378.576	377.69
378.802	360.69
379.027	379.69
379.253	365.69
379.478	365.69
379.704	357.69
379.929	377.69
380.155	375.69
380.38	367.69
380.606	358.69
380.831	361.69
381.057	369.69
381.282	349.69
381.507	367.69
381.733	356.69
381.958	368.69
382.184	359.69
382.409	377.69
382.634	373.69
382.86	360.69
383.085	365.69
383.31	351.69
383.535	356.69
383.761	357.69
383.986	363.69
384.211	375.69
384.436	384.69
384.662	382.69
384.887	381.69
385.112	369.69
385.337	366.69
385.562	365.69
385.787	385.69
386.013	403.69
386.238	388.69
386.463	405.69
386.688	388.69
386.913	385.69
387.138	364.69
387.363	385.69
387.588	386.69
387.813	372.69
388.038	391.69
388.263	377.69
388.488	383.69
388.713	385.69
388.938	378.69
389.163	390.69
389.387	375.69
389.612	359.69
389.837	392.69
390.062	377.69
390.287	397.69
390.512	376.69
390.736	372.69
390.961	371.69
391.186	370.69
391.411	386.69
391.636	389.69
391.86	385.69
392.085	378.69
392.31	381.69
392.534	369.69
392.759	391.69
392.984	373.69
393.208	391.69
393.433	365.69
393.658	357.69
393.882	383.69
394.107	380.69
394.331	397.69
394.556	389.69
394.78	389.69
395.005	371.69
395.229	389.69
395.454	395.69
395.678	370.69
395.903	397.69
396.127	421.69
396.352	427.69
396.576	396.69
396.801	382.69
397.025	378.69
397.249	398.69
397.474	406.69
397.698	405.69
397.922	418.69
398.147	420.69
398.371	443.69
398.595	401.69
398.82	396.69
399.044	422.69
399.268	396.69
399.492	444.69
399.717	445.69
399.941	477.69
400.165	511.69
400.389	518.69
400.613	509.69
400.837	466.69
401.062	424.69
401.286	427.69
401.51	427.69
401.734	432.69
401.958	432.69
402.182	440.69
402.406	440.69
402.63	461.69
402.854	438.69
403.078	441.69
403.302	452.69
403.526	448.69
403.75	451.69
403.974	447.69
404.198	464.69
404.422	468.69
404.645	478.69
404.869	488.69
405.093	528.69
405.317	583.69
405.541	610.69
405.765	553.69
405.988	525.69
406.212	506.69
406.436	521.69
406.66	518.69
406.883	501.69
407.107	543.69
407.331	568.69
407.555	623.69
407.778	613.69
408.002	555.69
408.226	509.69
408.449	496.69
408.673	502.69
408.896	519.69
409.12	563.69
409.344	537.69
409.567	486.69
409.791	487.69
410.014	463.69
410.238	450.69
410.461	451.69
410.685	445.69
410.908	466.69
411.132	532.69
411.355	567.69
411.578	548.69
411.802	492.69
412.025	497.69
412.249	490.69
412.472	531.69
412.695	627.69
412.919	587.69
413.142	548.69
413.365	500.69
413.589	498.69
413.812	485.69
414.035	485.69
414.258	444.69
414.482	448.69
414.705	430.69
414.928	424.69
415.151	422.69
415.374	420.69
415.597	424.69
415.821	416.69
416.044	437.69
416.267	463.69
416.49	433.69
416.713	432.69
416.936	447.69
417.159	441.69
417.382	439.69
417.605	440.69
417.828	474.69
418.051	486.69
418.274	461.69
418.497	449.69
418.72	449.69
418.943	416.69
419.166	460.69
419.389	472.69
419.611	470.69
419.834	496.69
420.057	467.69
420.28	511.69
420.503	507.69
420.726	542.69
420.948	543.69
421.171	517.69
421.394	556.69
421.617	499.69
421.839	483.69
422.062	504.69
422.285	491.69
422.507	539.69
422.73	633.69
422.953	584.69
423.175	521.69
423.398	512.69
423.621	505.69
423.843	498.69
424.066	513.69
424.288	489.69
424.511	519.69
424.733	578.69
424.956	659.69
425.178	627.69
425.401	599.69
425.623	648.69
425.846	556.69
426.068	521.69
426.291	512.69
426.513	511.69
426.735	536.69
426.958	556.69
427.18	640.69
427.402	767.69
427.625	853.69
427.847	772.69
428.069	717.69
428.292	632.69
428.514	556.69
428.736	527.69
428.958	489.69
429.181	480.69
429.403	484.69
429.625	489.69
429.847	497.69
430.069	603.69
430.292	593.69
430.514	490.69
430.736	473.69
430.958	459.69
431.18	458.69
431.402	423.69
431.624	437.69
431.846	428.69
432.068	440.69
432.29	447.69
432.512	424.69
432.734	458.69
432.956	463.69
433.178	451.69
433.4	442.69
433.622	429.69
433.844	418.69
434.066	437.69
434.287	457.69
434.509	432.69
434.731	437.69
434.953	447.69
435.175	441.69
435.397	513.69
435.618	513.69
435.84	547.69
436.062	653.69
436.284	711.69
436.505	587.69
436.727	521.69
436.949	486.69
437.17	480.69
437.392	470.69
437.614	484.69
437.835	512.69
438.057	611.69
438.278	714.69
438.5	717.69
438.721	773.69
438.943	742.69
439.165	601.69
439.386	539.69
439.608	561.69
439.829	520.69
440.05	565.69
440.272	610.69
440.493	582.69
440.715	492.69
440.936	495.69
441.158	508.69
441.379	471.69
441.6	487.69
441.822	469.69
442.043	553.69
442.264	628.69
442.486	673.69
442.707	577.69
442.928	523.69
443.149	525.69
443.371	551.69
443.592	594.69
443.813	660.69
444.034	713.69
444.255	611.69
444.476	540.69
444.698	520.69
444.919	504.69
445.14	642.69
445.361	575.69
445.582	574.69
445.803	616.69
446.024	700.69
446.245	723.69
446.466	665.69
446.687	587.69
446.908	505.69
447.129	484.69
447.35	480.69
447.571	491.69
447.792	449.69
448.013	478.69
448.234	492.69
448.455	555.69
448.675	671.69
448.896	767.69
449.117	678.69
449.338	620.69
449.559	704.69
449.779	792.69
450	644.69
450.221	543.69
450.442	482.69
450.662	462.69
450.883	469.69
451.104	518.69
451.324	503.69
451.545	472.69
451.766	436.69
451.986	432.69
452.207	425.69
452.428	415.69
452.648	413.69
452.869	424.69
453.089	434.69
453.31	427.69
453.53	439.69
453.751	433.69
453.971	426.69
454.192	420.69
454.412	436.69
454.633	411.69
454.853	409.69
455.073	439.69
455.294	468.69
455.514	549.69
455.734	503.69
455.955	428.69
456.175	435.69
456.395	399.69
456.616	385.69
456.836	388.69
457.056	372.69
457.276	389.69
457.497	391.69
457.717	401.69
457.937	400.69
458.157	409.69
458.377	389.69
458.598	417.69
458.818	493.69
459.038	597.69
459.258	584.69
459.478	497.69
459.698	461.69
459.918	436.69
460.138	425.69
460.358	442.69
460.578	407.69
460.798	432.69
461.018	437.69
461.238	413.69
461.458	415.69
461.678	403.69
461.898	413.69
462.118	413.69
462.338	425.69
462.558	442.69
462.777	426.69
462.997	451.69
463.217	449.69
463.437	448.69
463.657	441.69
463.876	427.69
464.096	449.69
464.316	433.69
464.536	475.69
464.755	464.69
464.975	475.69
465.195	503.69
465.414	583.69
465.634	515.69
465.854	472.69
466.073	481.69
466.293	445.69
466.512	424.69
466.732	408.69
466.951	420.69
467.171	436.69
467.391	438.69
467.61	442.69
467.829	474.69
468.049	485.69
468.268	503.69
468.488	475.69
468.707	434.69
468.927	448.69
469.146	425.69
469.365	436.69
469.585	407.69
469.804	422.69
470.023	444.69
470.243	444.69
470.462	441.69
470.681	471.69
470.901	473.69
471.12	446.69
471.339	435.69
471.558	460.69
471.777	439.69
471.997	457.69
472.216	519.69
472.435	698.69
472.654	643.69
472.873	537.69
473.092	513.69
473.311	471.69
473.53	460.69
473.749	458.69
473.968	525.69
474.187	640.69
474.406	631.69
474.625	523.69
474.844	479.69
475.063	482.69
475.282	441.69
475.501	444.69
475.72	469.69
475.939	455.69
476.158	477.69
476.377	457.69
476.596	439.69
476.814	475.69
477.033	462.69
477.252	474.69
477.471	477.69
477.69	489.69
477.908	477.69
478.127	471.69
478.346	472.69
478.564	483.69
478.783	501.69
479.002	499.69
479.22	487.69
479.439	491.69
479.658	535.69
479.876	542.69
480.095	542.69
480.313	585.69
480.532	577.69
480.751	582.69
480.969	641.69
481.188	895.69
481.406	1109.69
481.624	770.69
481.843	691.69
482.061	632.69
482.28	599.69
482.498	585.69
482.717	571.69
482.935	548.69
483.153	548.69
483.372	544.69
483.59	548.69
483.808	542.69
484.027	561.69
484.245	531.69
484.463	552.69
484.681	547.69
484.9	551.69
485.118	555.69
485.336	561.69
485.554	535.69
485.772	536.69
485.99	537.69
486.209	556.69
486.427	563.69
486.645	576.69
486.863	608.69
487.081	581.69
487.299	583.69
487.517	576.69
487.735	581.69
487.953	569.69
488.171	582.69
488.389	579.69
488.607	577.69
488.825	584.69
489.043	597.69
489.261	591.69
489.479	614.69
489.696	593.69
489.914	592.69
490.132	595.69
490.35	617.69
490.568	621.69
490.786	659.69
491.003	677.69
491.221	672.69
491.439	673.69
491.657	672.69
491.874	661.69
492.092	689.69
492.31	711.69
492.527	696.69
492.745	700.69
492.963	721.69
493.18	741.69
493.398	725.69
493.615	720.69
493.833	719.69
494.05	748.69
494.268	728.69
494.485	695.69
494.703	711.69
494.92	718.69
495.138	715.69
495.355	710.69
495.573	736.69
495.79	720.69
496.008	731.69
496.225	698.69
496.442	701.69
496.66	704.69
496.877	695.69
497.094	713.69
497.312	696.69
497.529	719.69
497.746	698.69
497.963	721.69
498.181	731.69
498.398	733.69
498.615	723.69
498.832	745.69
499.049	756.69
499.267	742.69
499.484	747.69
499.701	769.69
499.918	776.69
500.135	785.69
500.352	823.69
500.569	817.69
500.786	836.69
501.003	837.69
501.22	804.69
501.437	799.69
501.654	789.69
501.871	825.69
502.088	810.69
502.305	769.69
502.522	725.69
502.739	738.69
502.956	697.69
503.172	691.69
503.389	692.69
503.606	703.69
503.823	702.69
504.04	685.69
504.256	679.69
504.473	661.69
504.69	662.69
504.907	679.69
505.123	663.69
505.34	660.69
505.557	660.69
505.773	674.69
505.99	641.69
506.207	663.69
506.423	643.69
506.64	646.69
506.856	634.69
507.073	656.69
507.289	655.69
507.506	644.69
507.722	645.69
507.939	674.69
508.155	663.69
508.372	628.69
508.588	630.69
508.805	633.69
509.021	625.69
509.238	651.69
509.454	654.69
509.67	636.69
509.887	619.69
510.103	627.69
510.319	665.69
510.536	761.69
510.752	1281.69
510.968	1048.69
511.184	685.69
511.401	624.69
511.617	656.69
511.833	663.69
512.049	651.69
512.265	623.69
512.481	656.69
512.698	629.69
512.914	605.69
513.13	596.69
513.346	595.69
513.562	610.69
513.778	621.69
513.994	624.69
514.21	633.69
514.426	650.69
514.642	691.69
514.858	735.69
515.074	757.69
515.29	927.69
515.506	1401.69
515.721	1128.69
515.937	757.69
516.153	655.69
516.369	651.69
516.585	647.69
516.801	613.69
517.016	608.69
517.232	605.69
517.448	580.69
517.664	590.69
517.879	591.69
518.095	619.69
518.311	601.69
518.527	581.69
518.742	561.69
518.958	599.69
519.173	602.69
519.389	594.69
519.605	584.69
519.82	615.69
520.036	614.69
520.251	636.69
520.467	655.69
520.682	655.69
520.898	682.69
521.113	685.69
521.329	744.69
521.544	899.69
521.76	1131.69
521.975	1806.69
522.19	1813.69
522.406	993.69
522.621	725.69
522.836	639.69
523.052	599.69
523.267	588.69
523.482	574.69
523.698	559.69
523.913	587.69
524.128	539.69
524.343	526.69
524.559	524.69
524.774	517.69
524.989	512.69
525.204	533.69
525.419	537.69
525.634	512.69
525.849	497.69
526.064	488.69
526.28	485.69
526.495	477.69
526.71	503.69
526.925	508.69
527.14	483.69
527.355	495.69
527.57	475.69
527.785	474.69
527.999	464.69
528.214	444.69
528.429	478.69
528.644	474.69
528.859	469.69
529.074	484.69
529.289	513.69
529.503	589.69
529.718	579.69
529.933	529.69
530.148	490.69
530.363	482.69
530.577	483.69
530.792	488.69
531.007	458.69
531.221	473.69
531.436	488.69
531.651	463.69
531.865	467.69
532.08	461.69
532.295	467.69
532.509	451.69
532.724	444.69
532.938	455.69
533.153	442.69
533.367	435.69
533.582	442.69
533.796	434.69
534.011	454.69
534.225	442.69
534.44	448.69
534.654	442.69
534.868	440.69
535.083	435.69
535.297	449.69
535.511	451.69
535.726	442.69
535.94	440.69
536.154	453.69
536.369	444.69
536.583	448.69
536.797	444.69
537.011	433.69
537.225	421.69
537.44	419.69
537.654	423.69
537.868	431.69
538.082	447.69
538.296	394.69
538.51	447.69
538.724	427.69
538.938	431.69
539.153	447.69
539.367	479.69
539.581	457.69
539.795	440.69
540.009	452.69
540.222	405.69
540.436	439.69
540.65	428.69
540.864	435.69
541.078	449.69
541.292	436.69
541.506	441.69
541.72	428.69
541.934	423.69
542.147	436.69
542.361	415.69
542.575	419.69
542.789	416.69
543.002	446.69
543.216	438.69
543.43	445.69
543.644	441.69
543.857	431.69
544.071	433.69
544.285	441.69
544.498	417.69
544.712	423.69
544.925	433.69
545.139	436.69
545.352	410.69
545.566	394.69
545.779	419.69
545.993	395.69
546.206	419.69
546.42	405.69
546.633	409.69
546.847	395.69
547.06	392.69
547.274	412.69
547.487	418.69
547.7	394.69
547.914	412.69
548.127	395.69
548.34	409.69
548.554	391.69
548.767	397.69
548.98	383.69
549.193	405.69
549.407	383.69
549.62	414.69
549.833	411.69
550.046	390.69
550.259	381.69
550.473	393.69
550.686	394.69
550.899	399.69
551.112	371.69
551.325	379.69
551.538	385.69
551.751	396.69
551.964	386.69
552.177	379.69
552.39	394.69
552.603	384.69
552.816	406.69
553.029	383.69
553.242	396.69
553.455	394.69
553.667	389.69
553.88	434.69
554.093	407.69
554.306	411.69
554.519	383.69
554.732	395.69
554.944	392.69
555.157	380.69
555.37	376.69
555.583	380.69
555.795	397.69
556.008	385.69
556.221	383.69
556.433	374.69
556.646	372.69
556.859	362.69
557.071	365.69
557.284	355.69
557.496	371.69
557.709	373.69
557.921	368.69
558.134	344.69
558.346	340.69
558.559	362.69
558.771	379.69
558.984	360.69
559.196	351.69
559.409	353.69
559.621	364.69
559.833	375.69
560.046	348.69
560.258	364.69
560.47	365.69
560.683	372.69
560.895	357.69
561.107	355.69
561.32	374.69
561.532	348.69
561.744	353.69
561.956	341.69
562.168	362.69
562.381	352.69
562.593	349.69
562.805	363.69
563.017	363.69
563.229	339.69
563.441	331.69
563.653	362.69
563.865	351.69
564.077	353.69
564.289	354.69
564.501	354.69
564.713	363.69
564.925	361.69
565.137	378.69
565.349	369.69
565.561	382.69
565.773	360.69
565.985	381.69
566.197	369.69
566.408	385.69
566.62	397.69
566.832	393.69
567.044	401.69
567.255	389.69
567.467	401.69
567.679	399.69
567.891	392.69
568.102	387.69
568.314	391.69
568.526	392.69
568.737	379.69
568.949	376.69
569.161	371.69
569.372	347.69
569.584	355.69
569.795	361.69
570.007	332.69
570.218	406.69
570.43	383.69
570.641	356.69
570.853	352.69
571.064	340.69
571.276	333.69
571.487	332.69
571.698	352.69
571.91	327.69
572.121	320.69
572.333	332.69
572.544	324.69
572.755	334.69
572.966	337.69
573.178	325.69
573.389	323.69
573.6	314.69
573.811	313.69
574.023	314.69
574.234	307.69
574.445	300.69
574.656	308.69
574.867	295.69
575.078	307.69
575.289	306.69
575.501	298.69
575.712	308.69
575.923	286.69
576.134	327.69
576.345	301.69
576.556	302.69
576.767	305.69
576.978	293.69
577.188	300.69
577.399	303.69
577.61	313.69
577.821	297.69
578.032	293.69
578.243	347.69
578.454	568.69
578.665	445.69
578.875	331.69
579.086	303.69
579.297	304.69
579.508	288.69
579.718	305.69
579.929	291.69
580.14	282.69
580.35	269.69
580.561	280.69
580.772	283.69
580.982	272.69
581.193	277.69
581.403	292.69
581.614	284.69
581.825	294.69
582.035	295.69
582.246	273.69
582.456	275.69
582.667	295.69
582.877	275.69
583.087	273.69
583.298	272.69
583.508	278.69
583.719	277.69
583.929	285.69
584.139	277.69
584.35	272.69
584.56	291.69
584.77	272.69
584.981	274.69
585.191	273.69
585.401	279.69
585.611	259.69
585.821	288.69
586.032	287.69
586.242	273.69
586.452	271.69
586.662	256.69
586.872	275.69
587.082	280.69
587.292	275.69
587.502	258.69
587.713	280.69
587.923	287.69
588.133	260.69
588.343	272.69
588.553	274.69
588.762	292.69
588.972	293.69
589.182	287.69
589.392	273.69
589.602	287.69
589.812	259.69
590.022	277.69
590.232	268.69
590.441	267.69
590.651	263.69
590.861	270.69
591.071	268.69
591.281	275.69
591.49	273.69
591.7	275.69
591.91	264.69
592.119	276.69
592.329	282.69
592.539	263.69
592.748	280.69
592.958	273.69
593.167	255.69
593.377	274.69
593.587	299.69
593.796	282.69
594.006	274.69
594.215	273.69
594.424	271.69
594.634	272.69
594.843	279.69
595.053	263.69
595.262	269.69
595.472	251.69
595.681	269.69
595.89	266.69
596.1	253.69
596.309	264.69
596.518	258.69
596.727	243.69
596.937	236.69
597.146	261.69
597.355	265.69
597.564	260.69
597.774	258.69
597.983	254.69
598.192	241.69
598.401	261.69
598.61	223.69
598.819	259.69
599.028	245.69
599.237	224.69
599.446	237.69
599.655	249.69
599.864	239.69
600.073	257.69
600.282	244.69
600.491	240.69
600.7	244.69
600.909	243.69
601.118	232.69
601.327	224.69
601.536	247.69
601.745	253.69
601.953	242.69
602.162	247.69
602.371	251.69
602.58	259.69
602.789	227.69
602.997	236.69
603.206	249.69
603.415	242.69
603.623	231.69
603.832	241.69
604.041	245.69
604.249	247.69
604.458	241.69
604.666	224.69
604.875	226.69
605.084	233.69
605.292	237.69
605.501	235.69
605.709	232.69
605.918	217.69
606.126	243.69
606.334	226.69
606.543	243.69
606.751	220.69
606.96	232.69
607.168	207.69
607.376	231.69
607.585	233.69
607.793	230.69
608.001	223.69
608.21	230.69
608.418	249.69
608.626	231.69
608.834	225.69
609.043	224.69
609.251	218.69
609.459	223.69
609.667	247.69
609.875	243.69
610.083	243.69
610.291	210.69
610.499	225.69
610.707	223.69
610.916	216.69
611.124	219.69
611.332	239.69
611.54	234.69
611.748	223.69
611.955	214.69
612.163	223.69
612.371	235.69
612.579	206.69
612.787	226.69
612.995	224.69
613.203	229.69
613.411	229.69
613.618	217.69
613.826	202.69
614.034	219.69
614.242	224.69
614.449	215.69
614.657	228.69
614.865	225.69
615.072	222.69
615.28	218.69
615.488	231.69
615.695	210.69
615.903	214.69
616.111	219.69
616.318	232.69
616.526	218.69
616.733	221.69
616.941	219.69
617.148	221.69
617.356	232.69
617.563	201.69
617.771	211.69
617.978	235.69
618.185	208.69
618.393	212.69
618.6	215.69
618.807	214.69
619.015	222.69
619.222	228.69
619.429	200.69
619.637	204.69
619.844	212.69
620.051	206.69
620.258	213.69
620.466	217.69
620.673	206.69
620.88	199.69
621.087	210.69
621.294	206.69
621.501	207.69
621.708	207.69
621.915	210.69
622.122	213.69
622.329	203.69
622.536	217.69
622.743	205.69
622.95	213.69
623.157	219.69
623.364	206.69
623.571	203.69
623.778	200.69
623.985	201.69
624.192	204.69
624.399	193.69
624.606	188.69
624.812	207.69
625.019	219.69
625.226	201.69
625.433	202.69
625.639	197.69
625.846	200.69
626.053	210.69
626.259	192.69
626.466	200.69
626.673	202.69
626.879	191.69
627.086	219.69
627.293	202.69
627.499	208.69
627.706	191.69
627.912	190.69
628.119	200.69
628.325	192.69
628.532	187.69
628.738	203.69
628.945	183.69
629.151	193.69
629.357	185.69
629.564	185.69
629.77	175.69
629.976	184.69
630.183	186.69
630.389	188.69
630.595	193.69
630.802	181.69
631.008	188.69
631.214	183.69
631.42	187.69
631.627	206.69
631.833	164.69
632.039	166.69
632.245	171.69
632.451	193.69
632.657	182.69
632.863	185.69
633.069	190.69
633.275	169.69
633.481	187.69
633.688	181.69
633.893	175.69
634.099	192.69
634.305	171.69
634.511	171.69
634.717	187.69
634.923	179.69
635.129	181.69
635.335	168.69
635.541	177.69
635.747	184.69
635.952	172.69
636.158	179.69
636.364	198.69
636.57	226.69
636.775	209.69
636.981	181.69
637.187	199.69
637.392	185.69
637.598	175.69
637.804	188.69
638.009	170.69
638.215	172.69
638.421	163.69
638.626	178.69
638.832	162.69
639.037	193.69
639.243	179.69
639.448	163.69
639.654	179.69
639.859	164.69
640.065	167.69
640.27	181.69
640.475	173.69
640.681	169.69
640.886	160.69
641.091	183.69
641.297	163.69
641.502	172.69
641.707	160.69
641.913	176.69
642.118	170.69
642.323	164.69
642.528	168.69
642.733	163.69
642.939	155.69
643.144	147.69
643.349	170.69
643.554	167.69
643.759	168.69
643.964	164.69
644.169	172.69
644.374	165.69
644.579	160.69
644.784	166.69
644.989	143.69
645.194	171.69
645.399	163.69
645.604	157.69
645.809	177.69
646.014	169.69
646.219	137.69
646.423	148.69
646.628	160.69
646.833	156.69
647.038	141.69
647.243	157.69
647.447	163.69
647.652	157.69
647.857	147.69
648.062	157.69
648.266	152.69
648.471	162.69
648.676	162.69
648.88	162.69
649.085	172.69
649.289	158.69
649.494	166.69
649.698	165.69
649.903	172.69
650.107	157.69
650.312	172.69
650.516	142.69
650.721	156.69
650.925	145.69
651.13	148.69
651.334	144.69
651.539	149.69
651.743	147.69
651.947	144.69
652.152	149.69
652.356	135.69
652.56	148.69
652.764	138.69
652.969	143.69
653.173	140.69
653.377	145.69
653.581	142.69
653.785	143.69
653.99	125.69
654.194	153.69
654.398	126.69
654.602	125.69
654.806	122.69
655.01	134.69
655.214	126.69
655.418	123.69
655.622	118.69
655.826	131.69
656.03	127.69
656.234	124.69
656.438	115.69
656.642	124.69
656.846	133.69
657.049	116.69
657.253	119.69
657.457	127.69
657.661	109.69
657.865	122.69
658.068	101.69
658.272	98.69
658.476	111.69
658.68	120.69
658.883	94.69
659.087	98.69
659.291	100.69
659.494	86.69
659.698	96.69
659.901	106.69
660.105	94.69
660.309	88.69
660.512	96.69
660.716	90.69
660.919	99.69
661.123	100.69
661.326	98.69
661.53	89.69
661.733	88.69
661.936	94.69
662.14	77.69
662.343	84.69
662.546	77.69
662.75	67.69
662.953	81.69
663.156	84.69
663.36	88.69
663.563	86.69
663.766	102.69
663.969	94.69
664.173	85.69
664.376	70.69
664.579	80.69
664.782	86.69
664.985	82.69
665.188	79.69
665.391	83.69
665.594	83.69
665.797	76.69
666	77.69
666.203	68.69
666.406	82.69
666.609	85.69
666.812	93.69
667.015	83.69
667.218	76.69
667.421	87.69
667.624	78.69
667.827	87.69
668.03	80.69
668.232	81.69
668.435	77.69
668.638	76.69
668.841	87.69
669.043	91.69
669.246	89.69
669.449	80.69
669.651	102.69
669.854	88.69
670.057	79.69
670.259	87.69
670.462	86.69
670.665	86.69
670.867	88.69
671.07	85.69
671.272	85.69
671.475	75.69
671.677	80.69
671.88	75.69
672.082	78.69
672.284	89.69
672.487	84.69
672.689	89.69
672.892	77.69
