Data from 1986.PennyLincolnUp.Lamp.En5.5.200Scan.071819.P2_HRD10591_17-11-17-973.txt Node
Date: Thu Jul 18 17:11:17 EDT 2019
User: cochatt
Spectrometer: HR+D1059
Trigger mode: 1
Integration Time (sec): 1.000000E-1
Scans to average: 1
Electric dark correction enabled: true
Nonlinearity correction enabled: false
Boxcar width: 0
XAxis mode: Wavelengths
Number of Pixels in Spectrum: 2048
>>>>>Begin Spectral Data<<<<<
223.165	-1.94
223.4	-1.94
223.635	-1.94
223.869	-14.94
224.104	-10.94
224.338	-10.94
224.573	-10.94
224.808	-13.94
225.042	-11.94
225.277	0.06
225.511	-6.94
225.746	-12.94
225.98	-2.94
226.215	7.06
226.449	14.06
226.683	16.06
226.918	24.06
227.152	37.06
227.387	36.06
227.621	44.06
227.856	38.06
228.09	36.06
228.324	53.06
228.559	58.06
228.793	73.06
229.027	90.06
229.262	116.06
229.496	115.06
229.73	161.06
229.964	173.06
230.199	142.06
230.433	128.06
230.667	116.06
230.901	117.06
231.136	108.06
231.37	117.06
231.604	106.06
231.838	114.06
232.072	105.06
232.306	102.06
232.541	95.06
232.775	109.06
233.009	108.06
233.243	112.06
233.477	110.06
233.711	107.06
233.945	109.06
234.179	116.06
234.413	121.06
234.647	115.06
234.881	123.06
235.115	106.06
235.349	117.06
235.583	124.06
235.817	120.06
236.051	113.06
236.285	120.06
236.519	116.06
236.753	125.06
236.987	150.06
237.221	194.06
237.455	260.06
237.689	186.06
237.922	138.06
238.156	137.06
238.39	132.06
238.624	134.06
238.858	134.06
239.091	132.06
239.325	125.06
239.559	120.06
239.793	127.06
240.027	121.06
240.26	122.06
240.494	159.06
240.728	154.06
240.961	157.06
241.195	158.06
241.429	141.06
241.662	123.06
241.896	133.06
242.13	130.06
242.363	142.06
242.597	114.06
242.83	130.06
243.064	132.06
243.298	132.06
243.531	131.06
243.765	141.06
243.998	143.06
244.232	140.06
244.465	149.06
244.699	144.06
244.932	139.06
245.166	146.06
245.399	153.06
245.633	148.06
245.866	153.06
246.099	149.06
246.333	158.06
246.566	147.06
246.8	157.06
247.033	159.06
247.266	156.06
247.5	151.06
247.733	182.06
247.966	174.06
248.2	170.06
248.433	172.06
248.666	183.06
248.899	187.06
249.133	206.06
249.366	234.06
249.599	202.06
249.832	190.06
250.066	205.06
250.299	195.06
250.532	204.06
250.765	224.06
250.998	245.06
251.231	254.06
251.465	213.06
251.698	213.06
251.931	209.06
252.164	199.06
252.397	202.06
252.63	215.06
252.863	210.06
253.096	238.06
253.329	235.06
253.562	243.06
253.795	221.06
254.028	243.06
254.261	227.06
254.494	242.06
254.727	278.06
254.96	297.06
255.193	283.06
255.426	269.06
255.659	240.06
255.892	269.06
256.124	262.06
256.357	294.06
256.59	262.06
256.823	250.06
257.056	250.06
257.289	218.06
257.521	244.06
257.754	223.06
257.987	214.06
258.22	233.06
258.452	228.06
258.685	214.06
258.918	204.06
259.151	216.06
259.383	220.06
259.616	211.06
259.849	227.06
260.081	245.06
260.314	258.06
260.547	260.06
260.779	254.06
261.012	251.06
261.244	245.06
261.477	233.06
261.71	236.06
261.942	237.06
262.175	253.06
262.407	243.06
262.64	235.06
262.872	200.06
263.105	223.06
263.337	220.06
263.57	202.06
263.802	201.06
264.035	216.06
264.267	205.06
264.499	205.06
264.732	207.06
264.964	219.06
265.197	208.06
265.429	215.06
265.661	208.06
265.894	221.06
266.126	220.06
266.358	223.06
266.591	208.06
266.823	222.06
267.055	213.06
267.287	212.06
267.52	210.06
267.752	223.06
267.984	217.06
268.216	220.06
268.448	227.06
268.681	219.06
268.913	258.06
269.145	248.06
269.377	271.06
269.609	286.06
269.841	254.06
270.073	268.06
270.306	297.06
270.538	316.06
270.77	332.06
271.002	314.06
271.234	296.06
271.466	300.06
271.698	314.06
271.93	323.06
272.162	312.06
272.394	308.06
272.626	326.06
272.858	306.06
273.09	281.06
273.322	281.06
273.553	299.06
273.785	281.06
274.017	257.06
274.249	262.06
274.481	265.06
274.713	248.06
274.945	253.06
275.176	274.06
275.408	267.06
275.64	274.06
275.872	248.06
276.104	264.06
276.335	269.06
276.567	276.06
276.799	297.06
277.031	306.06
277.262	337.06
277.494	320.06
277.726	327.06
277.957	297.06
278.189	276.06
278.421	273.06
278.652	286.06
278.884	270.06
279.115	271.06
279.347	265.06
279.579	257.06
279.81	274.06
280.042	260.06
280.273	260.06
280.505	266.06
280.736	275.06
280.968	251.06
281.199	253.06
281.431	263.06
281.662	264.06
281.894	266.06
282.125	277.06
282.356	282.06
282.588	270.06
282.819	306.06
283.051	277.06
283.282	264.06
283.513	264.06
283.745	271.06
283.976	269.06
284.207	273.06
284.439	254.06
284.67	269.06
284.901	274.06
285.132	263.06
285.364	258.06
285.595	252.06
285.826	285.06
286.057	264.06
286.288	271.06
286.52	263.06
286.751	274.06
286.982	264.06
287.213	280.06
287.444	283.06
287.675	250.06
287.906	285.06
288.138	270.06
288.369	300.06
288.6	300.06
288.831	284.06
289.062	286.06
289.293	268.06
289.524	269.06
289.755	279.06
289.986	272.06
290.217	262.06
290.448	262.06
290.679	275.06
290.91	269.06
291.141	280.06
291.371	259.06
291.602	270.06
291.833	264.06
292.064	278.06
292.295	264.06
292.526	278.06
292.757	295.06
292.987	281.06
293.218	265.06
293.449	260.06
293.68	274.06
293.91	277.06
294.141	288.06
294.372	276.06
294.603	289.06
294.833	279.06
295.064	269.06
295.295	256.06
295.525	265.06
295.756	283.06
295.987	272.06
296.217	324.06
296.448	325.06
296.679	298.06
296.909	267.06
297.14	276.06
297.37	274.06
297.601	290.06
297.831	282.06
298.062	284.06
298.292	274.06
298.523	284.06
298.753	289.06
298.984	294.06
299.214	291.06
299.445	276.06
299.675	276.06
299.905	278.06
300.136	281.06
300.366	285.06
300.597	292.06
300.827	297.06
301.057	309.06
301.288	318.06
301.518	306.06
301.748	293.06
301.979	302.06
302.209	290.06
302.439	306.06
302.669	314.06
302.9	299.06
303.13	319.06
303.36	306.06
303.59	329.06
303.82	300.06
304.051	320.06
304.281	317.06
304.511	288.06
304.741	291.06
304.971	301.06
305.201	308.06
305.431	306.06
305.661	305.06
305.891	315.06
306.121	306.06
306.352	318.06
306.582	307.06
306.812	288.06
307.042	315.06
307.272	320.06
307.502	297.06
307.731	322.06
307.961	304.06
308.191	324.06
308.421	312.06
308.651	322.06
308.881	306.06
309.111	321.06
309.341	331.06
309.571	350.06
309.8	342.06
310.03	375.06
310.26	368.06
310.49	346.06
310.72	359.06
310.949	374.06
311.179	396.06
311.409	350.06
311.639	353.06
311.868	374.06
312.098	392.06
312.328	379.06
312.557	393.06
312.787	418.06
313.017	395.06
313.246	368.06
313.476	372.06
313.706	354.06
313.935	370.06
314.165	376.06
314.394	387.06
314.624	369.06
314.853	381.06
315.083	374.06
315.312	371.06
315.542	372.06
315.771	349.06
316.001	347.06
316.23	337.06
316.46	363.06
316.689	354.06
316.919	344.06
317.148	376.06
317.377	370.06
317.607	375.06
317.836	369.06
318.065	342.06
318.295	345.06
318.524	360.06
318.753	348.06
318.983	343.06
319.212	378.06
319.441	366.06
319.67	399.06
319.9	356.06
320.129	350.06
320.358	365.06
320.587	368.06
320.816	369.06
321.046	395.06
321.275	382.06
321.504	380.06
321.733	400.06
321.962	392.06
322.191	406.06
322.42	446.06
322.649	441.06
322.878	456.06
323.108	466.06
323.337	516.06
323.566	507.06
323.795	580.06
324.024	652.06
324.253	758.06
324.482	1082.06
324.71	1625.06
324.939	2374.06
325.168	2060.06
325.397	1093.06
325.626	725.06
325.855	601.06
326.084	532.06
326.313	539.06
326.542	512.06
326.77	596.06
326.999	686.06
327.228	969.06
327.457	1440.06
327.686	1790.06
327.914	1255.06
328.143	854.06
328.372	733.06
328.6	668.06
328.829	634.06
329.058	638.06
329.287	653.06
329.515	584.06
329.744	560.06
329.972	565.06
330.201	622.06
330.43	676.06
330.658	664.06
330.887	690.06
331.115	647.06
331.344	560.06
331.572	508.06
331.801	481.06
332.03	510.06
332.258	452.06
332.486	440.06
332.715	450.06
332.943	425.06
333.172	425.06
333.4	445.06
333.629	456.06
333.857	466.06
334.085	501.06
334.314	527.06
334.542	626.06
334.771	664.06
334.999	572.06
335.227	480.06
335.455	452.06
335.684	434.06
335.912	433.06
336.14	417.06
336.369	405.06
336.597	433.06
336.825	438.06
337.053	411.06
337.281	407.06
337.51	392.06
337.738	391.06
337.966	411.06
338.194	441.06
338.422	432.06
338.65	396.06
338.878	434.06
339.106	402.06
339.334	399.06
339.562	398.06
339.79	401.06
340.018	366.06
340.246	382.06
340.474	411.06
340.702	396.06
340.93	389.06
341.158	396.06
341.386	409.06
341.614	386.06
341.842	412.06
342.07	388.06
342.298	405.06
342.526	368.06
342.754	382.06
342.981	391.06
343.209	379.06
343.437	396.06
343.665	385.06
343.893	406.06
344.12	407.06
344.348	388.06
344.576	390.06
344.804	396.06
345.031	401.06
345.259	410.06
345.487	412.06
345.714	388.06
345.942	399.06
346.17	376.06
346.397	380.06
346.625	373.06
346.853	404.06
347.08	395.06
347.308	382.06
347.535	400.06
347.763	404.06
347.99	415.06
348.218	394.06
348.445	416.06
348.673	407.06
348.9	377.06
349.128	401.06
349.355	382.06
349.583	376.06
349.81	364.06
350.037	368.06
350.265	363.06
350.492	378.06
350.72	374.06
350.947	357.06
351.174	412.06
351.402	402.06
351.629	382.06
351.856	411.06
352.083	399.06
352.311	407.06
352.538	423.06
352.765	421.06
352.992	406.06
353.22	386.06
353.447	405.06
353.674	399.06
353.901	370.06
354.128	369.06
354.355	360.06
354.583	351.06
354.81	368.06
355.037	338.06
355.264	363.06
355.491	354.06
355.718	351.06
355.945	341.06
356.172	342.06
356.399	360.06
356.626	327.06
356.853	352.06
357.08	347.06
357.307	361.06
357.534	348.06
357.761	347.06
357.988	338.06
358.215	343.06
358.441	358.06
358.668	340.06
358.895	346.06
359.122	352.06
359.349	365.06
359.576	398.06
359.802	404.06
360.029	451.06
360.256	444.06
360.483	429.06
360.709	399.06
360.936	386.06
361.163	390.06
361.39	396.06
361.616	377.06
361.843	385.06
362.07	393.06
362.296	382.06
362.523	396.06
362.749	402.06
362.976	379.06
363.203	352.06
363.429	352.06
363.656	361.06
363.882	348.06
364.109	360.06
364.335	348.06
364.562	354.06
364.788	353.06
365.015	366.06
365.241	363.06
365.468	344.06
365.694	373.06
365.92	362.06
366.147	362.06
366.373	353.06
366.599	347.06
366.826	344.06
367.052	346.06
367.278	347.06
367.505	363.06
367.731	370.06
367.957	362.06
368.184	372.06
368.41	361.06
368.636	378.06
368.862	363.06
369.089	372.06
369.315	365.06
369.541	356.06
369.767	360.06
369.993	348.06
370.219	361.06
370.445	346.06
370.672	350.06
370.898	334.06
371.124	354.06
371.35	344.06
371.576	356.06
371.802	346.06
372.028	348.06
372.254	333.06
372.48	334.06
372.706	348.06
372.932	342.06
373.158	330.06
373.384	355.06
373.61	344.06
373.835	369.06
374.061	362.06
374.287	346.06
374.513	369.06
374.739	338.06
374.965	333.06
375.191	349.06
375.416	352.06
375.642	333.06
375.868	342.06
376.094	349.06
376.319	347.06
376.545	349.06
376.771	332.06
376.997	333.06
377.222	376.06
377.448	342.06
377.674	340.06
377.899	353.06
378.125	338.06
378.35	340.06
378.576	333.06
378.802	344.06
379.027	341.06
379.253	328.06
379.478	338.06
379.704	332.06
379.929	359.06
380.155	336.06
380.38	347.06
380.606	360.06
380.831	330.06
381.057	349.06
381.282	334.06
381.507	336.06
381.733	348.06
381.958	352.06
382.184	352.06
382.409	370.06
382.634	363.06
382.86	349.06
383.085	345.06
383.31	334.06
383.535	362.06
383.761	353.06
383.986	358.06
384.211	363.06
384.436	347.06
384.662	347.06
384.887	370.06
385.112	358.06
385.337	350.06
385.562	348.06
385.787	358.06
386.013	379.06
386.238	376.06
386.463	367.06
386.688	364.06
386.913	378.06
387.138	358.06
387.363	373.06
387.588	346.06
387.813	348.06
388.038	362.06
388.263	359.06
388.488	361.06
388.713	374.06
388.938	360.06
389.163	365.06
389.387	365.06
389.612	371.06
389.837	361.06
390.062	354.06
390.287	347.06
390.512	334.06
390.736	370.06
390.961	358.06
391.186	356.06
391.411	367.06
391.636	360.06
391.86	347.06
392.085	381.06
392.31	364.06
392.534	368.06
392.759	354.06
392.984	360.06
393.208	349.06
393.433	351.06
393.658	336.06
393.882	379.06
394.107	349.06
394.331	357.06
394.556	363.06
394.78	372.06
395.005	356.06
395.229	343.06
395.454	363.06
395.678	370.06
395.903	392.06
396.127	402.06
396.352	400.06
396.576	390.06
396.801	367.06
397.025	355.06
397.249	361.06
397.474	357.06
397.698	375.06
397.922	396.06
398.147	387.06
398.371	412.06
398.595	390.06
398.82	406.06
399.044	405.06
399.268	410.06
399.492	421.06
399.717	422.06
399.941	473.06
400.165	473.06
400.389	510.06
400.613	478.06
400.837	418.06
401.062	400.06
401.286	417.06
401.51	408.06
401.734	412.06
401.958	431.06
402.182	416.06
402.406	426.06
402.63	400.06
402.854	399.06
403.078	417.06
403.302	420.06
403.526	405.06
403.75	434.06
403.974	416.06
404.198	400.06
404.422	424.06
404.645	432.06
404.869	447.06
405.093	479.06
405.317	513.06
405.541	570.06
405.765	487.06
405.988	465.06
406.212	481.06
406.436	502.06
406.66	511.06
406.883	484.06
407.107	458.06
407.331	504.06
407.555	576.06
407.778	568.06
408.002	538.06
408.226	490.06
408.449	464.06
408.673	491.06
408.896	510.06
409.12	536.06
409.344	516.06
409.567	461.06
409.791	433.06
410.014	422.06
410.238	432.06
410.461	430.06
410.685	444.06
410.908	459.06
411.132	451.06
411.355	513.06
411.578	478.06
411.802	444.06
412.025	413.06
412.249	449.06
412.472	474.06
412.695	526.06
412.919	496.06
413.142	493.06
413.365	456.06
413.589	437.06
413.812	424.06
414.035	426.06
414.258	398.06
414.482	424.06
414.705	388.06
414.928	403.06
415.151	409.06
415.374	402.06
415.597	407.06
415.821	415.06
416.044	402.06
416.267	405.06
416.49	380.06
416.713	392.06
416.936	407.06
417.159	369.06
417.382	416.06
417.605	421.06
417.828	421.06
418.051	421.06
418.274	441.06
418.497	421.06
418.72	388.06
418.943	386.06
419.166	406.06
419.389	426.06
419.611	442.06
419.834	425.06
420.057	439.06
420.28	450.06
420.503	453.06
420.726	446.06
420.948	443.06
421.171	489.06
421.394	512.06
421.617	473.06
421.839	445.06
422.062	438.06
422.285	467.06
422.507	508.06
422.73	562.06
422.953	552.06
423.175	480.06
423.398	462.06
423.621	458.06
423.843	473.06
424.066	472.06
424.288	491.06
424.511	501.06
424.733	553.06
424.956	624.06
425.178	609.06
425.401	591.06
425.623	598.06
425.846	523.06
426.068	477.06
426.291	460.06
426.513	451.06
426.735	480.06
426.958	541.06
427.18	601.06
427.402	708.06
427.625	763.06
427.847	729.06
428.069	653.06
428.292	569.06
428.514	489.06
428.736	485.06
428.958	500.06
429.181	456.06
429.403	454.06
429.625	457.06
429.847	472.06
430.069	546.06
430.292	557.06
430.514	467.06
430.736	464.06
430.958	455.06
431.18	401.06
431.402	430.06
431.624	428.06
431.846	394.06
432.068	380.06
432.29	410.06
432.512	408.06
432.734	427.06
432.956	448.06
433.178	432.06
433.4	422.06
433.622	403.06
433.844	426.06
434.066	430.06
434.287	403.06
434.509	409.06
434.731	413.06
434.953	434.06
435.175	434.06
435.397	441.06
435.618	455.06
435.84	518.06
436.062	609.06
436.284	676.06
436.505	582.06
436.727	524.06
436.949	460.06
437.17	459.06
437.392	443.06
437.614	473.06
437.835	488.06
438.057	596.06
438.278	705.06
438.5	687.06
438.721	743.06
438.943	712.06
439.165	557.06
439.386	512.06
439.608	498.06
439.829	499.06
440.05	522.06
440.272	582.06
440.493	556.06
440.715	502.06
440.936	471.06
441.158	448.06
441.379	452.06
441.6	458.06
441.822	473.06
442.043	512.06
442.264	567.06
442.486	633.06
442.707	541.06
442.928	475.06
443.149	490.06
443.371	525.06
443.592	573.06
443.813	662.06
444.034	690.06
444.255	601.06
444.476	484.06
444.698	463.06
444.919	481.06
445.14	578.06
445.361	522.06
445.582	540.06
445.803	597.06
446.024	700.06
446.245	698.06
446.466	619.06
446.687	540.06
446.908	503.06
447.129	444.06
447.35	470.06
447.571	453.06
447.792	425.06
448.013	448.06
448.234	471.06
448.455	500.06
448.675	641.06
448.896	715.06
449.117	635.06
449.338	585.06
449.559	677.06
449.779	760.06
450	629.06
450.221	520.06
450.442	478.06
450.662	461.06
450.883	480.06
451.104	481.06
451.324	443.06
451.545	436.06
451.766	424.06
451.986	429.06
452.207	401.06
452.428	410.06
452.648	392.06
452.869	417.06
453.089	424.06
453.31	410.06
453.53	423.06
453.751	395.06
453.971	416.06
454.192	418.06
454.412	406.06
454.633	398.06
454.853	417.06
455.073	394.06
455.294	434.06
455.514	493.06
455.734	471.06
455.955	411.06
456.175	401.06
456.395	362.06
456.616	380.06
456.836	370.06
457.056	378.06
457.276	338.06
457.497	371.06
457.717	362.06
457.937	392.06
458.157	379.06
458.377	393.06
458.598	407.06
458.818	486.06
459.038	555.06
459.258	566.06
459.478	465.06
459.698	422.06
459.918	423.06
460.138	410.06
460.358	400.06
460.578	397.06
460.798	390.06
461.018	395.06
461.238	400.06
461.458	408.06
461.678	398.06
461.898	392.06
462.118	386.06
462.338	397.06
462.558	388.06
462.777	404.06
462.997	414.06
463.217	419.06
463.437	414.06
463.657	396.06
463.876	406.06
464.096	418.06
464.316	420.06
464.536	405.06
464.755	425.06
464.975	433.06
465.195	488.06
465.414	590.06
465.634	541.06
465.854	479.06
466.073	432.06
466.293	411.06
466.512	418.06
466.732	394.06
466.951	400.06
467.171	410.06
467.391	407.06
467.61	399.06
467.829	414.06
468.049	426.06
468.268	452.06
468.488	450.06
468.707	402.06
468.927	388.06
469.146	378.06
469.365	397.06
469.585	394.06
469.804	390.06
470.023	412.06
470.243	412.06
470.462	410.06
470.681	449.06
470.901	432.06
471.12	420.06
471.339	411.06
471.558	440.06
471.777	404.06
471.997	398.06
472.216	418.06
472.435	529.06
472.654	520.06
472.873	457.06
473.092	420.06
473.311	438.06
473.53	445.06
473.749	426.06
473.968	469.06
474.187	587.06
474.406	599.06
474.625	489.06
474.844	456.06
475.063	437.06
475.282	414.06
475.501	429.06
475.72	413.06
475.939	419.06
476.158	446.06
476.377	429.06
476.596	432.06
476.814	438.06
477.033	441.06
477.252	439.06
477.471	441.06
477.69	439.06
477.908	449.06
478.127	455.06
478.346	423.06
478.564	440.06
478.783	440.06
479.002	455.06
479.22	468.06
479.439	470.06
479.658	467.06
479.876	489.06
480.095	489.06
480.313	516.06
480.532	514.06
480.751	519.06
480.969	553.06
481.188	676.06
481.406	798.06
481.624	605.06
481.843	543.06
482.061	510.06
482.28	532.06
482.498	504.06
482.717	498.06
482.935	522.06
483.153	488.06
483.372	480.06
483.59	509.06
483.808	483.06
484.027	496.06
484.245	521.06
484.463	496.06
484.681	491.06
484.9	503.06
485.118	482.06
485.336	489.06
485.554	508.06
485.772	491.06
485.99	502.06
486.209	499.06
486.427	508.06
486.645	527.06
486.863	544.06
487.081	533.06
487.299	521.06
487.517	549.06
487.735	530.06
487.953	520.06
488.171	543.06
488.389	523.06
488.607	540.06
488.825	513.06
489.043	551.06
489.261	526.06
489.479	538.06
489.696	536.06
489.914	560.06
490.132	563.06
490.35	563.06
490.568	578.06
490.786	554.06
491.003	574.06
491.221	583.06
491.439	611.06
491.657	632.06
491.874	622.06
492.092	614.06
492.31	632.06
492.527	630.06
492.745	630.06
492.963	645.06
493.18	637.06
493.398	631.06
493.615	652.06
493.833	648.06
494.05	637.06
494.268	628.06
494.485	659.06
494.703	660.06
494.92	653.06
495.138	653.06
495.355	672.06
495.573	650.06
495.79	664.06
496.008	667.06
496.225	640.06
496.442	654.06
496.66	661.06
496.877	637.06
497.094	642.06
497.312	652.06
497.529	650.06
497.746	651.06
497.963	670.06
498.181	680.06
498.398	667.06
498.615	684.06
498.832	688.06
499.049	698.06
499.267	698.06
499.484	684.06
499.701	720.06
499.918	722.06
500.135	732.06
500.352	756.06
500.569	740.06
500.786	788.06
501.003	786.06
501.22	753.06
501.437	741.06
501.654	755.06
501.871	771.06
502.088	756.06
502.305	706.06
502.522	668.06
502.739	679.06
502.956	654.06
503.172	656.06
503.389	665.06
503.606	672.06
503.823	651.06
504.04	640.06
504.256	635.06
504.473	642.06
504.69	645.06
504.907	622.06
505.123	629.06
505.34	606.06
505.557	590.06
505.773	628.06
505.99	618.06
506.207	628.06
506.423	620.06
506.64	617.06
506.856	596.06
507.073	590.06
507.289	615.06
507.506	585.06
507.722	601.06
507.939	655.06
508.155	632.06
508.372	604.06
508.588	605.06
508.805	594.06
509.021	590.06
509.238	599.06
509.454	598.06
509.67	580.06
509.887	610.06
510.103	609.06
510.319	608.06
510.536	720.06
510.752	1238.06
510.968	1045.06
511.184	634.06
511.401	612.06
511.617	593.06
511.833	570.06
512.049	584.06
512.265	587.06
512.481	583.06
512.698	566.06
512.914	598.06
513.13	584.06
513.346	564.06
513.562	557.06
513.778	565.06
513.994	573.06
514.21	614.06
514.426	610.06
514.642	676.06
514.858	680.06
515.074	752.06
515.29	918.06
515.506	1392.06
515.721	1145.06
515.937	700.06
516.153	630.06
516.369	624.06
516.585	616.06
516.801	597.06
517.016	562.06
517.232	566.06
517.448	573.06
517.664	584.06
517.879	548.06
518.095	557.06
518.311	549.06
518.527	545.06
518.742	552.06
518.958	558.06
519.173	565.06
519.389	555.06
519.605	566.06
519.82	588.06
520.036	602.06
520.251	619.06
520.467	641.06
520.682	625.06
520.898	657.06
521.113	684.06
521.329	752.06
521.544	843.06
521.76	1102.06
521.975	1875.06
522.19	1825.06
522.406	984.06
522.621	708.06
522.836	627.06
523.052	578.06
523.267	569.06
523.482	551.06
523.698	531.06
523.913	541.06
524.128	530.06
524.343	523.06
524.559	507.06
524.774	475.06
524.989	496.06
525.204	492.06
525.419	512.06
525.634	496.06
525.849	482.06
526.064	491.06
526.28	453.06
526.495	490.06
526.71	459.06
526.925	437.06
527.14	453.06
527.355	437.06
527.57	437.06
527.785	458.06
527.999	438.06
528.214	421.06
528.429	428.06
528.644	458.06
528.859	460.06
529.074	456.06
529.289	455.06
529.503	585.06
529.718	547.06
529.933	514.06
530.148	484.06
530.363	466.06
530.577	429.06
530.792	440.06
531.007	430.06
531.221	437.06
531.436	440.06
531.651	440.06
531.865	441.06
532.08	424.06
532.295	438.06
532.509	428.06
532.724	432.06
532.938	417.06
533.153	422.06
533.367	408.06
533.582	444.06
533.796	423.06
534.011	417.06
534.225	409.06
534.44	427.06
534.654	438.06
534.868	420.06
535.083	446.06
535.297	408.06
535.511	408.06
535.726	430.06
535.94	440.06
536.154	422.06
536.369	430.06
536.583	417.06
536.797	397.06
537.011	422.06
537.225	421.06
537.44	407.06
537.654	397.06
537.868	422.06
538.082	405.06
538.296	412.06
538.51	393.06
538.724	420.06
538.938	406.06
539.153	416.06
539.367	417.06
539.581	414.06
539.795	411.06
540.009	412.06
540.222	396.06
540.436	399.06
540.65	394.06
540.864	392.06
541.078	423.06
541.292	405.06
541.506	403.06
541.72	423.06
541.934	408.06
542.147	416.06
542.361	402.06
542.575	410.06
542.789	398.06
543.002	404.06
543.216	391.06
543.43	423.06
543.644	391.06
543.857	420.06
544.071	388.06
544.285	395.06
544.498	380.06
544.712	383.06
544.925	386.06
545.139	396.06
545.352	375.06
545.566	398.06
545.779	376.06
545.993	363.06
546.206	390.06
546.42	386.06
546.633	378.06
546.847	386.06
547.06	364.06
547.274	382.06
547.487	380.06
547.7	377.06
547.914	373.06
548.127	366.06
548.34	368.06
548.554	363.06
548.767	382.06
548.98	386.06
549.193	368.06
549.407	366.06
549.62	386.06
549.833	369.06
550.046	356.06
550.259	355.06
550.473	374.06
550.686	388.06
550.899	380.06
551.112	359.06
551.325	378.06
551.538	361.06
551.751	368.06
551.964	374.06
552.177	352.06
552.39	364.06
552.603	380.06
552.816	380.06
553.029	356.06
553.242	363.06
553.455	384.06
553.667	384.06
553.88	385.06
554.093	374.06
554.306	388.06
554.519	375.06
554.732	366.06
554.944	363.06
555.157	363.06
555.37	360.06
555.583	359.06
555.795	333.06
556.008	356.06
556.221	360.06
556.433	334.06
556.646	339.06
556.859	349.06
557.071	341.06
557.284	334.06
557.496	337.06
557.709	333.06
557.921	340.06
558.134	344.06
558.346	316.06
558.559	339.06
558.771	340.06
558.984	328.06
559.196	340.06
559.409	341.06
559.621	344.06
559.833	335.06
560.046	329.06
560.258	315.06
560.47	319.06
560.683	332.06
560.895	332.06
561.107	333.06
561.32	323.06
561.532	333.06
561.744	330.06
561.956	335.06
562.168	344.06
562.381	321.06
562.593	320.06
562.805	345.06
563.017	342.06
563.229	337.06
563.441	326.06
563.653	335.06
563.865	338.06
564.077	328.06
564.289	346.06
564.501	340.06
564.713	331.06
564.925	332.06
565.137	364.06
565.349	347.06
565.561	362.06
565.773	374.06
565.985	357.06
566.197	355.06
566.408	361.06
566.62	344.06
566.832	371.06
567.044	382.06
567.255	357.06
567.467	344.06
567.679	382.06
567.891	390.06
568.102	399.06
568.314	376.06
568.526	372.06
568.737	346.06
568.949	346.06
569.161	350.06
569.372	343.06
569.584	327.06
569.795	324.06
570.007	340.06
570.218	409.06
570.43	363.06
570.641	329.06
570.853	306.06
571.064	330.06
571.276	320.06
571.487	315.06
571.698	317.06
571.91	294.06
572.121	313.06
572.333	310.06
572.544	302.06
572.755	315.06
572.966	296.06
573.178	293.06
573.389	305.06
573.6	289.06
573.811	298.06
574.023	298.06
574.234	294.06
574.445	297.06
574.656	292.06
574.867	301.06
575.078	288.06
575.289	290.06
575.501	284.06
575.712	281.06
575.923	293.06
576.134	293.06
576.345	290.06
576.556	301.06
576.767	289.06
576.978	278.06
577.188	294.06
577.399	279.06
577.61	292.06
577.821	289.06
578.032	308.06
578.243	337.06
578.454	592.06
578.665	429.06
578.875	296.06
579.086	297.06
579.297	283.06
579.508	293.06
579.718	284.06
579.929	282.06
580.14	268.06
580.35	285.06
580.561	264.06
580.772	268.06
580.982	273.06
581.193	269.06
581.403	250.06
581.614	274.06
581.825	269.06
582.035	286.06
582.246	260.06
582.456	264.06
582.667	260.06
582.877	264.06
583.087	267.06
583.298	262.06
583.508	245.06
583.719	283.06
583.929	272.06
584.139	269.06
584.35	265.06
584.56	264.06
584.77	264.06
584.981	252.06
585.191	277.06
585.401	261.06
585.611	254.06
585.821	267.06
586.032	253.06
586.242	276.06
586.452	258.06
586.662	268.06
586.872	258.06
587.082	252.06
587.292	261.06
587.502	249.06
587.713	240.06
587.923	244.06
588.133	254.06
588.343	235.06
588.553	256.06
588.762	271.06
588.972	273.06
589.182	267.06
589.392	254.06
589.602	265.06
589.812	258.06
590.022	266.06
590.232	245.06
590.441	256.06
590.651	243.06
590.861	259.06
591.071	243.06
591.281	244.06
591.49	237.06
591.7	270.06
591.91	272.06
592.119	251.06
592.329	264.06
592.539	268.06
592.748	260.06
592.958	265.06
593.167	263.06
593.377	254.06
593.587	238.06
593.796	252.06
594.006	243.06
594.215	231.06
594.424	243.06
594.634	228.06
594.843	260.06
595.053	249.06
595.262	244.06
595.472	244.06
595.681	249.06
595.89	236.06
596.1	247.06
596.309	249.06
596.518	228.06
596.727	234.06
596.937	230.06
597.146	240.06
597.355	246.06
597.564	240.06
597.774	243.06
597.983	237.06
598.192	250.06
598.401	247.06
598.61	226.06
598.819	229.06
599.028	241.06
599.237	221.06
599.446	236.06
599.655	226.06
599.864	250.06
600.073	220.06
600.282	225.06
600.491	235.06
600.7	232.06
600.909	223.06
601.118	226.06
601.327	234.06
601.536	232.06
601.745	251.06
601.953	224.06
602.162	230.06
602.371	205.06
602.58	231.06
602.789	219.06
602.997	241.06
603.206	226.06
603.415	222.06
603.623	214.06
603.832	233.06
604.041	233.06
604.249	209.06
604.458	212.06
604.666	226.06
604.875	202.06
605.084	218.06
605.292	211.06
605.501	224.06
605.709	213.06
605.918	223.06
606.126	228.06
606.334	218.06
606.543	222.06
606.751	209.06
606.96	217.06
607.168	215.06
607.376	206.06
607.585	221.06
607.793	226.06
608.001	232.06
608.21	206.06
608.418	218.06
608.626	214.06
608.834	216.06
609.043	220.06
609.251	210.06
609.459	210.06
609.667	217.06
609.875	229.06
610.083	225.06
610.291	216.06
610.499	215.06
610.707	193.06
610.916	205.06
611.124	211.06
611.332	229.06
611.54	233.06
611.748	222.06
611.955	230.06
612.163	207.06
612.371	209.06
612.579	189.06
612.787	213.06
612.995	221.06
613.203	219.06
613.411	224.06
613.618	206.06
613.826	213.06
614.034	209.06
614.242	205.06
614.449	219.06
614.657	211.06
614.865	204.06
615.072	215.06
615.28	220.06
615.488	203.06
615.695	198.06
615.903	216.06
616.111	194.06
616.318	204.06
616.526	215.06
616.733	214.06
616.941	201.06
617.148	208.06
617.356	215.06
617.563	204.06
617.771	200.06
617.978	209.06
618.185	196.06
618.393	207.06
618.6	227.06
618.807	202.06
619.015	206.06
619.222	208.06
619.429	215.06
619.637	192.06
619.844	200.06
620.051	206.06
620.258	195.06
620.466	212.06
620.673	197.06
620.88	200.06
621.087	205.06
621.294	201.06
621.501	201.06
621.708	216.06
621.915	190.06
622.122	190.06
622.329	204.06
622.536	212.06
622.743	190.06
622.95	198.06
623.157	193.06
623.364	188.06
623.571	192.06
623.778	193.06
623.985	189.06
624.192	195.06
624.399	192.06
624.606	192.06
624.812	188.06
625.019	207.06
625.226	188.06
625.433	206.06
625.639	189.06
625.846	196.06
626.053	198.06
626.259	188.06
626.466	188.06
626.673	191.06
626.879	196.06
627.086	186.06
627.293	196.06
627.499	185.06
627.706	200.06
627.912	189.06
628.119	185.06
628.325	185.06
628.532	188.06
628.738	169.06
628.945	195.06
629.151	158.06
629.357	174.06
629.564	171.06
629.77	182.06
629.976	165.06
630.183	180.06
630.389	186.06
630.595	184.06
630.802	170.06
631.008	173.06
631.214	180.06
631.42	164.06
631.627	180.06
631.833	176.06
632.039	161.06
632.245	167.06
632.451	167.06
632.657	179.06
632.863	170.06
633.069	171.06
633.275	172.06
633.481	157.06
633.688	154.06
633.893	180.06
634.099	168.06
634.305	159.06
634.511	160.06
634.717	153.06
634.923	163.06
635.129	148.06
635.335	172.06
635.541	154.06
635.747	167.06
635.952	176.06
636.158	169.06
636.364	162.06
636.57	189.06
636.775	170.06
636.981	162.06
637.187	177.06
637.392	152.06
637.598	163.06
637.804	158.06
638.009	183.06
638.215	148.06
638.421	148.06
638.626	154.06
638.832	163.06
639.037	158.06
639.243	162.06
639.448	149.06
639.654	167.06
639.859	149.06
640.065	156.06
640.27	153.06
640.475	165.06
640.681	154.06
640.886	180.06
641.091	163.06
641.297	159.06
641.502	164.06
641.707	155.06
641.913	141.06
642.118	156.06
642.323	160.06
642.528	165.06
642.733	160.06
642.939	152.06
643.144	152.06
643.349	160.06
643.554	146.06
643.759	152.06
643.964	148.06
644.169	155.06
644.374	151.06
644.579	150.06
644.784	158.06
644.989	149.06
645.194	132.06
645.399	164.06
645.604	134.06
645.809	149.06
646.014	150.06
646.219	152.06
646.423	138.06
646.628	142.06
646.833	148.06
647.038	165.06
647.243	148.06
647.447	144.06
647.652	141.06
647.857	146.06
648.062	169.06
648.266	158.06
648.471	149.06
648.676	155.06
648.88	157.06
649.085	138.06
649.289	164.06
649.494	156.06
649.698	172.06
649.903	153.06
650.107	161.06
650.312	149.06
650.516	164.06
650.721	143.06
650.925	152.06
651.13	131.06
651.334	148.06
651.539	140.06
651.743	138.06
651.947	147.06
652.152	135.06
652.356	133.06
652.56	134.06
652.764	124.06
652.969	120.06
653.173	137.06
653.377	135.06
653.581	125.06
653.785	119.06
653.99	124.06
654.194	127.06
654.398	124.06
654.602	116.06
654.806	126.06
655.01	131.06
655.214	129.06
655.418	133.06
655.622	139.06
655.826	129.06
656.03	140.06
656.234	108.06
656.438	118.06
656.642	135.06
656.846	121.06
657.049	121.06
657.253	117.06
657.457	120.06
657.661	108.06
657.865	116.06
658.068	109.06
658.272	98.06
658.476	99.06
658.68	108.06
658.883	104.06
659.087	110.06
659.291	92.06
659.494	93.06
659.698	110.06
659.901	101.06
660.105	86.06
660.309	103.06
660.512	100.06
660.716	105.06
660.919	78.06
661.123	106.06
661.326	82.06
661.53	74.06
661.733	90.06
661.936	83.06
662.14	75.06
662.343	76.06
662.546	99.06
662.75	91.06
662.953	89.06
663.156	88.06
663.36	95.06
663.563	89.06
663.766	80.06
663.969	79.06
664.173	70.06
664.376	93.06
664.579	90.06
664.782	84.06
664.985	82.06
665.188	75.06
665.391	82.06
665.594	89.06
665.797	73.06
666	84.06
666.203	81.06
666.406	89.06
666.609	83.06
666.812	77.06
667.015	82.06
667.218	83.06
667.421	86.06
667.624	74.06
667.827	94.06
668.03	99.06
668.232	77.06
668.435	85.06
668.638	73.06
668.841	93.06
669.043	88.06
669.246	93.06
669.449	82.06
669.651	84.06
669.854	90.06
670.057	79.06
670.259	72.06
670.462	75.06
670.665	69.06
670.867	91.06
671.07	90.06
671.272	84.06
671.475	79.06
671.677	82.06
671.88	75.06
672.082	89.06
672.284	88.06
672.487	79.06
672.689	76.06
672.892	82.06
