Data from 1986.PennyLincolnUp.Lamp.En5.5.200Scan.071819.P1_HRD10591_17-08-18-973.txt Node
Date: Thu Jul 18 17:08:18 EDT 2019
User: cochatt
Spectrometer: HR+D1059
Trigger mode: 1
Integration Time (sec): 1.000000E-1
Scans to average: 1
Electric dark correction enabled: true
Nonlinearity correction enabled: false
Boxcar width: 0
XAxis mode: Wavelengths
Number of Pixels in Spectrum: 2048
>>>>>Begin Spectral Data<<<<<
223.165	-13.31
223.4	-13.31
223.635	-13.31
223.869	-19.31
224.104	-13.31
224.338	-12.31
224.573	-14.31
224.808	-10.31
225.042	-14.31
225.277	-20.31
225.511	-14.31
225.746	14.69
225.98	5.69
226.215	9.69
226.449	13.69
226.683	16.69
226.918	33.69
227.152	37.69
227.387	33.69
227.621	53.69
227.856	50.69
228.09	43.69
228.324	48.69
228.559	52.69
228.793	67.69
229.027	73.69
229.262	87.69
229.496	78.69
229.73	108.69
229.964	124.69
230.199	104.69
230.433	118.69
230.667	84.69
230.901	102.69
231.136	88.69
231.37	104.69
231.604	97.69
231.838	96.69
232.072	87.69
232.306	104.69
232.541	100.69
232.775	93.69
233.009	93.69
233.243	101.69
233.477	109.69
233.711	98.69
233.945	109.69
234.179	93.69
234.413	98.69
234.647	108.69
234.881	104.69
235.115	89.69
235.349	100.69
235.583	98.69
235.817	111.69
236.051	109.69
236.285	94.69
236.519	99.69
236.753	103.69
236.987	115.69
237.221	129.69
237.455	157.69
237.689	132.69
237.922	96.69
238.156	106.69
238.39	108.69
238.624	95.69
238.858	104.69
239.091	98.69
239.325	109.69
239.559	114.69
239.793	108.69
240.027	112.69
240.26	112.69
240.494	117.69
240.728	121.69
240.961	117.69
241.195	121.69
241.429	98.69
241.662	95.69
241.896	108.69
242.13	113.69
242.363	94.69
242.597	105.69
242.83	113.69
243.064	104.69
243.298	106.69
243.531	117.69
243.765	106.69
243.998	120.69
244.232	114.69
244.465	101.69
244.699	112.69
244.932	124.69
245.166	129.69
245.399	117.69
245.633	125.69
245.866	114.69
246.099	91.69
246.333	122.69
246.566	112.69
246.8	122.69
247.033	124.69
247.266	120.69
247.5	136.69
247.733	147.69
247.966	140.69
248.2	120.69
248.433	138.69
248.666	128.69
248.899	135.69
249.133	150.69
249.366	156.69
249.599	142.69
249.832	139.69
250.066	126.69
250.299	136.69
250.532	149.69
250.765	148.69
250.998	154.69
251.231	141.69
251.465	151.69
251.698	148.69
251.931	148.69
252.164	155.69
252.397	135.69
252.63	149.69
252.863	145.69
253.096	140.69
253.329	170.69
253.562	156.69
253.795	158.69
254.028	160.69
254.261	158.69
254.494	144.69
254.727	184.69
254.96	187.69
255.193	177.69
255.426	178.69
255.659	155.69
255.892	176.69
256.124	164.69
256.357	158.69
256.59	172.69
256.823	165.69
257.056	162.69
257.289	151.69
257.521	160.69
257.754	153.69
257.987	152.69
258.22	170.69
258.452	178.69
258.685	156.69
258.918	151.69
259.151	162.69
259.383	169.69
259.616	177.69
259.849	156.69
260.081	168.69
260.314	181.69
260.547	173.69
260.779	171.69
261.012	174.69
261.244	163.69
261.477	169.69
261.71	176.69
261.942	170.69
262.175	171.69
262.407	179.69
262.64	157.69
262.872	184.69
263.105	167.69
263.337	179.69
263.57	162.69
263.802	163.69
264.035	170.69
264.267	160.69
264.499	178.69
264.732	172.69
264.964	174.69
265.197	162.69
265.429	162.69
265.661	172.69
265.894	167.69
266.126	166.69
266.358	149.69
266.591	174.69
266.823	164.69
267.055	165.69
267.287	190.69
267.52	162.69
267.752	184.69
267.984	176.69
268.216	170.69
268.448	170.69
268.681	175.69
268.913	162.69
269.145	175.69
269.377	182.69
269.609	196.69
269.841	186.69
270.073	206.69
270.306	200.69
270.538	206.69
270.77	213.69
271.002	198.69
271.234	208.69
271.466	194.69
271.698	212.69
271.93	232.69
272.162	216.69
272.394	220.69
272.626	227.69
272.858	211.69
273.09	206.69
273.322	209.69
273.553	184.69
273.785	194.69
274.017	203.69
274.249	200.69
274.481	203.69
274.713	191.69
274.945	190.69
275.176	203.69
275.408	207.69
275.64	206.69
275.872	195.69
276.104	210.69
276.335	210.69
276.567	195.69
276.799	216.69
277.031	220.69
277.262	224.69
277.494	210.69
277.726	239.69
277.957	207.69
278.189	190.69
278.421	195.69
278.652	204.69
278.884	198.69
279.115	205.69
279.347	203.69
279.579	209.69
279.81	189.69
280.042	206.69
280.273	211.69
280.505	195.69
280.736	189.69
280.968	192.69
281.199	203.69
281.431	196.69
281.662	213.69
281.894	215.69
282.125	187.69
282.356	199.69
282.588	208.69
282.819	215.69
283.051	220.69
283.282	201.69
283.513	217.69
283.745	196.69
283.976	224.69
284.207	217.69
284.439	223.69
284.67	215.69
284.901	223.69
285.132	226.69
285.364	208.69
285.595	209.69
285.826	206.69
286.057	218.69
286.288	206.69
286.52	220.69
286.751	217.69
286.982	205.69
287.213	224.69
287.444	206.69
287.675	219.69
287.906	212.69
288.138	227.69
288.369	235.69
288.6	221.69
288.831	217.69
289.062	236.69
289.293	213.69
289.524	225.69
289.755	214.69
289.986	231.69
290.217	215.69
290.448	222.69
290.679	232.69
290.91	221.69
291.141	230.69
291.371	215.69
291.602	218.69
291.833	225.69
292.064	229.69
292.295	224.69
292.526	246.69
292.757	219.69
292.987	233.69
293.218	222.69
293.449	229.69
293.68	222.69
293.91	233.69
294.141	220.69
294.372	216.69
294.603	239.69
294.833	227.69
295.064	240.69
295.295	228.69
295.525	216.69
295.756	245.69
295.987	242.69
296.217	246.69
296.448	266.69
296.679	242.69
296.909	244.69
297.14	252.69
297.37	223.69
297.601	247.69
297.831	251.69
298.062	228.69
298.292	224.69
298.523	228.69
298.753	229.69
298.984	235.69
299.214	227.69
299.445	237.69
299.675	230.69
299.905	249.69
300.136	240.69
300.366	249.69
300.597	236.69
300.827	232.69
301.057	241.69
301.288	256.69
301.518	249.69
301.748	250.69
301.979	271.69
302.209	260.69
302.439	264.69
302.669	257.69
302.9	232.69
303.13	242.69
303.36	242.69
303.59	245.69
303.82	273.69
304.051	264.69
304.281	271.69
304.511	257.69
304.741	253.69
304.971	262.69
305.201	260.69
305.431	260.69
305.661	244.69
305.891	255.69
306.121	252.69
306.352	274.69
306.582	258.69
306.812	241.69
307.042	254.69
307.272	259.69
307.502	254.69
307.731	265.69
307.961	257.69
308.191	264.69
308.421	259.69
308.651	261.69
308.881	249.69
309.111	270.69
309.341	273.69
309.571	272.69
309.8	278.69
310.03	276.69
310.26	290.69
310.49	259.69
310.72	283.69
310.949	278.69
311.179	305.69
311.409	273.69
311.639	269.69
311.868	266.69
312.098	300.69
312.328	288.69
312.557	287.69
312.787	313.69
313.017	290.69
313.246	291.69
313.476	276.69
313.706	284.69
313.935	276.69
314.165	285.69
314.394	292.69
314.624	301.69
314.853	298.69
315.083	291.69
315.312	296.69
315.542	295.69
315.771	280.69
316.001	292.69
316.23	283.69
316.46	300.69
316.689	286.69
316.919	299.69
317.148	297.69
317.377	281.69
317.607	302.69
317.836	276.69
318.065	275.69
318.295	286.69
318.524	296.69
318.753	286.69
318.983	280.69
319.212	285.69
319.441	296.69
319.67	299.69
319.9	284.69
320.129	290.69
320.358	291.69
320.587	286.69
320.816	294.69
321.046	318.69
321.275	292.69
321.504	293.69
321.733	296.69
321.962	320.69
322.191	326.69
322.42	308.69
322.649	296.69
322.878	320.69
323.108	305.69
323.337	311.69
323.566	337.69
323.795	349.69
324.024	355.69
324.253	432.69
324.482	576.69
324.71	805.69
324.939	1130.69
325.168	931.69
325.397	532.69
325.626	391.69
325.855	342.69
326.084	326.69
326.313	370.69
326.542	340.69
326.77	382.69
326.999	442.69
327.228	567.69
327.457	744.69
327.686	861.69
327.914	599.69
328.143	439.69
328.372	425.69
328.6	398.69
328.829	385.69
329.058	376.69
329.287	381.69
329.515	364.69
329.744	373.69
329.972	384.69
330.201	398.69
330.43	439.69
330.658	400.69
330.887	398.69
331.115	397.69
331.344	390.69
331.572	353.69
331.801	354.69
332.03	352.69
332.258	358.69
332.486	349.69
332.715	338.69
332.943	362.69
333.172	346.69
333.4	355.69
333.629	346.69
333.857	371.69
334.085	395.69
334.314	428.69
334.542	450.69
334.771	467.69
334.999	416.69
335.227	380.69
335.455	369.69
335.684	356.69
335.912	357.69
336.14	340.69
336.369	342.69
336.597	342.69
336.825	349.69
337.053	338.69
337.281	337.69
337.51	345.69
337.738	343.69
337.966	340.69
338.194	329.69
338.422	318.69
338.65	328.69
338.878	341.69
339.106	313.69
339.334	325.69
339.562	320.69
339.79	312.69
340.018	318.69
340.246	316.69
340.474	341.69
340.702	330.69
340.93	321.69
341.158	312.69
341.386	321.69
341.614	316.69
341.842	318.69
342.07	332.69
342.298	321.69
342.526	308.69
342.754	310.69
342.981	302.69
343.209	317.69
343.437	314.69
343.665	321.69
343.893	349.69
344.12	339.69
344.348	333.69
344.576	339.69
344.804	325.69
345.031	325.69
345.259	329.69
345.487	307.69
345.714	320.69
345.942	300.69
346.17	286.69
346.397	309.69
346.625	317.69
346.853	308.69
347.08	324.69
347.308	309.69
347.535	328.69
347.763	301.69
347.99	319.69
348.218	320.69
348.445	314.69
348.673	302.69
348.9	304.69
349.128	317.69
349.355	301.69
349.583	295.69
349.81	313.69
350.037	285.69
350.265	297.69
350.492	292.69
350.72	301.69
350.947	315.69
351.174	304.69
351.402	324.69
351.629	300.69
351.856	299.69
352.083	323.69
352.311	325.69
352.538	288.69
352.765	316.69
352.992	312.69
353.22	311.69
353.447	291.69
353.674	296.69
353.901	298.69
354.128	300.69
354.355	308.69
354.583	299.69
354.81	282.69
355.037	283.69
355.264	282.69
355.491	293.69
355.718	278.69
355.945	301.69
356.172	298.69
356.399	292.69
356.626	294.69
356.853	325.69
357.08	278.69
357.307	283.69
357.534	301.69
357.761	288.69
357.988	285.69
358.215	284.69
358.441	280.69
358.668	309.69
358.895	300.69
359.122	290.69
359.349	313.69
359.576	326.69
359.802	313.69
360.029	304.69
360.256	327.69
360.483	301.69
360.709	290.69
360.936	312.69
361.163	289.69
361.39	301.69
361.616	302.69
361.843	285.69
362.07	291.69
362.296	291.69
362.523	307.69
362.749	311.69
362.976	298.69
363.203	284.69
363.429	301.69
363.656	290.69
363.882	284.69
364.109	284.69
364.335	306.69
364.562	300.69
364.788	301.69
365.015	301.69
365.241	273.69
365.468	300.69
365.694	310.69
365.92	301.69
366.147	299.69
366.373	296.69
366.599	314.69
366.826	293.69
367.052	285.69
367.278	291.69
367.505	288.69
367.731	293.69
367.957	304.69
368.184	291.69
368.41	309.69
368.636	299.69
368.862	304.69
369.089	299.69
369.315	306.69
369.541	280.69
369.767	276.69
369.993	304.69
370.219	290.69
370.445	286.69
370.672	300.69
370.898	308.69
371.124	308.69
371.35	298.69
371.576	308.69
371.802	309.69
372.028	286.69
372.254	276.69
372.48	288.69
372.706	308.69
372.932	308.69
373.158	300.69
373.384	294.69
373.61	300.69
373.835	317.69
374.061	317.69
374.287	308.69
374.513	317.69
374.739	316.69
374.965	321.69
375.191	308.69
375.416	316.69
375.642	297.69
375.868	324.69
376.094	304.69
376.319	301.69
376.545	318.69
376.771	289.69
376.997	302.69
377.222	301.69
377.448	304.69
377.674	313.69
377.899	298.69
378.125	299.69
378.35	299.69
378.576	300.69
378.802	306.69
379.027	305.69
379.253	300.69
379.478	304.69
379.704	294.69
379.929	287.69
380.155	300.69
380.38	309.69
380.606	297.69
380.831	304.69
381.057	303.69
381.282	305.69
381.507	298.69
381.733	299.69
381.958	315.69
382.184	305.69
382.409	324.69
382.634	308.69
382.86	314.69
383.085	310.69
383.31	308.69
383.535	301.69
383.761	328.69
383.986	324.69
384.211	322.69
384.436	330.69
384.662	350.69
384.887	321.69
385.112	336.69
385.337	327.69
385.562	331.69
385.787	330.69
386.013	332.69
386.238	333.69
386.463	336.69
386.688	358.69
386.913	331.69
387.138	325.69
387.363	321.69
387.588	339.69
387.813	338.69
388.038	336.69
388.263	329.69
388.488	362.69
388.713	320.69
388.938	322.69
389.163	334.69
389.387	321.69
389.612	317.69
389.837	319.69
390.062	324.69
390.287	330.69
390.512	328.69
390.736	311.69
390.961	329.69
391.186	341.69
391.411	334.69
391.636	341.69
391.86	336.69
392.085	356.69
392.31	343.69
392.534	333.69
392.759	344.69
392.984	330.69
393.208	331.69
393.433	335.69
393.658	339.69
393.882	322.69
394.107	340.69
394.331	326.69
394.556	313.69
394.78	332.69
395.005	346.69
395.229	333.69
395.454	341.69
395.678	345.69
395.903	352.69
396.127	371.69
396.352	360.69
396.576	350.69
396.801	341.69
397.025	357.69
397.249	353.69
397.474	354.69
397.698	368.69
397.922	378.69
398.147	380.69
398.371	372.69
398.595	373.69
398.82	369.69
399.044	389.69
399.268	407.69
399.492	414.69
399.717	444.69
399.941	468.69
400.165	468.69
400.389	480.69
400.613	440.69
400.837	388.69
401.062	389.69
401.286	396.69
401.51	377.69
401.734	379.69
401.958	386.69
402.182	381.69
402.406	424.69
402.63	396.69
402.854	381.69
403.078	406.69
403.302	394.69
403.526	414.69
403.75	405.69
403.974	399.69
404.198	404.69
404.422	394.69
404.645	423.69
404.869	407.69
405.093	430.69
405.317	416.69
405.541	436.69
405.765	419.69
405.988	417.69
406.212	429.69
406.436	435.69
406.66	434.69
406.883	415.69
407.107	432.69
407.331	465.69
407.555	489.69
407.778	482.69
408.002	445.69
408.226	436.69
408.449	426.69
408.673	442.69
408.896	451.69
409.12	469.69
409.344	441.69
409.567	431.69
409.791	411.69
410.014	404.69
410.238	405.69
410.461	408.69
410.685	402.69
410.908	429.69
411.132	434.69
411.355	447.69
411.578	422.69
411.802	410.69
412.025	404.69
412.249	412.69
412.472	409.69
412.695	407.69
412.919	419.69
413.142	389.69
413.365	407.69
413.589	400.69
413.812	394.69
414.035	426.69
414.258	401.69
414.482	383.69
414.705	400.69
414.928	397.69
415.151	388.69
415.374	402.69
415.597	392.69
415.821	397.69
416.044	373.69
416.267	408.69
416.49	398.69
416.713	382.69
416.936	379.69
417.159	378.69
417.382	366.69
417.605	394.69
417.828	394.69
418.051	404.69
418.274	404.69
418.497	402.69
418.72	390.69
418.943	386.69
419.166	410.69
419.389	436.69
419.611	410.69
419.834	409.69
420.057	427.69
420.28	393.69
420.503	376.69
420.726	401.69
420.948	399.69
421.171	417.69
421.394	434.69
421.617	424.69
421.839	408.69
422.062	400.69
422.285	405.69
422.507	452.69
422.73	474.69
422.953	468.69
423.175	427.69
423.398	412.69
423.621	399.69
423.843	436.69
424.066	407.69
424.288	424.69
424.511	418.69
424.733	474.69
424.956	498.69
425.178	479.69
425.401	479.69
425.623	514.69
425.846	442.69
426.068	426.69
426.291	417.69
426.513	413.69
426.735	410.69
426.958	433.69
427.18	475.69
427.402	555.69
427.625	580.69
427.847	504.69
428.069	477.69
428.292	426.69
428.514	411.69
428.736	391.69
428.958	398.69
429.181	394.69
429.403	390.69
429.625	379.69
429.847	396.69
430.069	445.69
430.292	448.69
430.514	404.69
430.736	397.69
430.958	384.69
431.18	376.69
431.402	390.69
431.624	368.69
431.846	381.69
432.068	384.69
432.29	382.69
432.512	377.69
432.734	371.69
432.956	389.69
433.178	368.69
433.4	364.69
433.622	382.69
433.844	382.69
434.066	365.69
434.287	376.69
434.509	368.69
434.731	392.69
434.953	385.69
435.175	416.69
435.397	419.69
435.618	410.69
435.84	444.69
436.062	465.69
436.284	517.69
436.505	439.69
436.727	425.69
436.949	417.69
437.17	381.69
437.392	381.69
437.614	389.69
437.835	417.69
438.057	442.69
438.278	500.69
438.5	489.69
438.721	548.69
438.943	508.69
439.165	437.69
439.386	426.69
439.608	394.69
439.829	399.69
440.05	428.69
440.272	450.69
440.493	430.69
440.715	413.69
440.936	391.69
441.158	388.69
441.379	370.69
441.6	394.69
441.822	412.69
442.043	416.69
442.264	476.69
442.486	494.69
442.707	422.69
442.928	416.69
443.149	433.69
443.371	435.69
443.592	458.69
443.813	508.69
444.034	504.69
444.255	467.69
444.476	437.69
444.698	435.69
444.919	432.69
445.14	569.69
445.361	487.69
445.582	422.69
445.803	461.69
446.024	512.69
446.245	525.69
446.466	464.69
446.687	425.69
446.908	410.69
447.129	395.69
447.35	416.69
447.571	398.69
447.792	380.69
448.013	393.69
448.234	385.69
448.455	413.69
448.675	466.69
448.896	530.69
449.117	438.69
449.338	423.69
449.559	516.69
449.779	557.69
450	453.69
450.221	377.69
450.442	380.69
450.662	353.69
450.883	366.69
451.104	399.69
451.324	392.69
451.545	357.69
451.766	340.69
451.986	357.69
452.207	354.69
452.428	366.69
452.648	363.69
452.869	362.69
453.089	347.69
453.31	366.69
453.53	344.69
453.751	329.69
453.971	344.69
454.192	355.69
454.412	345.69
454.633	358.69
454.853	352.69
455.073	342.69
455.294	364.69
455.514	380.69
455.734	382.69
455.955	348.69
456.175	353.69
456.395	338.69
456.616	333.69
456.836	321.69
457.056	344.69
457.276	345.69
457.497	331.69
457.717	318.69
457.937	345.69
458.157	349.69
458.377	347.69
458.598	377.69
458.818	396.69
459.038	429.69
459.258	425.69
459.478	411.69
459.698	379.69
459.918	388.69
460.138	378.69
460.358	368.69
460.578	394.69
460.798	388.69
461.018	385.69
461.238	397.69
461.458	398.69
461.678	391.69
461.898	390.69
462.118	387.69
462.338	406.69
462.558	414.69
462.777	404.69
462.997	445.69
463.217	432.69
463.437	435.69
463.657	424.69
463.876	413.69
464.096	416.69
464.316	390.69
464.536	431.69
464.755	429.69
464.975	414.69
465.195	443.69
465.414	457.69
465.634	425.69
465.854	400.69
466.073	381.69
466.293	366.69
466.512	352.69
466.732	379.69
466.951	380.69
467.171	374.69
467.391	372.69
467.61	368.69
467.829	374.69
468.049	388.69
468.268	407.69
468.488	381.69
468.707	353.69
468.927	357.69
469.146	338.69
469.365	359.69
469.585	344.69
469.804	370.69
470.023	377.69
470.243	377.69
470.462	379.69
470.681	379.69
470.901	375.69
471.12	363.69
471.339	374.69
471.558	366.69
471.777	361.69
471.997	375.69
472.216	390.69
472.435	464.69
472.654	438.69
472.873	387.69
473.092	384.69
473.311	389.69
473.53	378.69
473.749	377.69
473.968	391.69
474.187	428.69
474.406	438.69
474.625	411.69
474.844	374.69
475.063	357.69
475.282	368.69
475.501	378.69
475.72	364.69
475.939	388.69
476.158	356.69
476.377	363.69
476.596	374.69
476.814	390.69
477.033	388.69
477.252	403.69
477.471	402.69
477.69	407.69
477.908	416.69
478.127	412.69
478.346	390.69
478.564	408.69
478.783	413.69
479.002	395.69
479.22	432.69
479.439	449.69
479.658	432.69
479.876	442.69
480.095	449.69
480.313	453.69
480.532	446.69
480.751	438.69
480.969	484.69
481.188	590.69
481.406	644.69
481.624	522.69
481.843	456.69
482.061	441.69
482.28	449.69
482.498	430.69
482.717	435.69
482.935	426.69
483.153	443.69
483.372	429.69
483.59	420.69
483.808	428.69
484.027	405.69
484.245	430.69
484.463	422.69
484.681	437.69
484.9	428.69
485.118	454.69
485.336	454.69
485.554	438.69
485.772	429.69
485.99	453.69
486.209	445.69
486.427	446.69
486.645	455.69
486.863	466.69
487.081	450.69
487.299	467.69
487.517	441.69
487.735	448.69
487.953	451.69
488.171	456.69
488.389	447.69
488.607	452.69
488.825	444.69
489.043	449.69
489.261	457.69
489.479	441.69
489.696	454.69
489.914	456.69
490.132	477.69
490.35	466.69
490.568	472.69
490.786	482.69
491.003	468.69
491.221	485.69
491.439	484.69
491.657	498.69
491.874	506.69
492.092	484.69
492.31	520.69
492.527	516.69
492.745	503.69
492.963	494.69
493.18	490.69
493.398	515.69
493.615	498.69
493.833	496.69
494.05	515.69
494.268	512.69
494.485	512.69
494.703	485.69
494.92	527.69
495.138	508.69
495.355	540.69
495.573	501.69
495.79	520.69
496.008	530.69
496.225	502.69
496.442	516.69
496.66	517.69
496.877	527.69
497.094	523.69
497.312	540.69
497.529	523.69
497.746	523.69
497.963	559.69
498.181	578.69
498.398	570.69
498.615	588.69
498.832	586.69
499.049	636.69
499.267	633.69
499.484	667.69
499.701	677.69
499.918	712.69
500.135	761.69
500.352	801.69
500.569	812.69
500.786	809.69
501.003	788.69
501.22	756.69
501.437	742.69
501.654	709.69
501.871	678.69
502.088	640.69
502.305	605.69
502.522	626.69
502.739	609.69
502.956	579.69
503.172	553.69
503.389	545.69
503.606	567.69
503.823	547.69
504.04	540.69
504.256	534.69
504.473	522.69
504.69	530.69
504.907	536.69
505.123	509.69
505.34	502.69
505.557	485.69
505.773	498.69
505.99	478.69
506.207	482.69
506.423	489.69
506.64	477.69
506.856	513.69
507.073	469.69
507.289	461.69
507.506	468.69
507.722	474.69
507.939	473.69
508.155	475.69
508.372	478.69
508.588	458.69
508.805	458.69
509.021	451.69
509.238	455.69
509.454	453.69
509.67	452.69
509.887	444.69
510.103	469.69
510.319	432.69
510.536	505.69
510.752	753.69
510.968	649.69
511.184	474.69
511.401	453.69
511.617	440.69
511.833	426.69
512.049	433.69
512.265	443.69
512.481	418.69
512.698	429.69
512.914	420.69
513.13	418.69
513.346	436.69
513.562	421.69
513.778	446.69
513.994	431.69
514.21	448.69
514.426	437.69
514.642	471.69
514.858	478.69
515.074	460.69
515.29	532.69
515.506	782.69
515.721	667.69
515.937	497.69
516.153	497.69
516.369	492.69
516.585	461.69
516.801	456.69
517.016	440.69
517.232	455.69
517.448	482.69
517.664	465.69
517.879	473.69
518.095	465.69
518.311	460.69
518.527	464.69
518.742	444.69
518.958	447.69
519.173	448.69
519.389	448.69
519.605	444.69
519.82	441.69
520.036	452.69
520.251	456.69
520.467	452.69
520.682	441.69
520.898	462.69
521.113	458.69
521.329	477.69
521.544	516.69
521.76	625.69
521.975	958.69
522.19	967.69
522.406	556.69
522.621	472.69
522.836	422.69
523.052	426.69
523.267	409.69
523.482	412.69
523.698	388.69
523.913	421.69
524.128	398.69
524.343	387.69
524.559	394.69
524.774	372.69
524.989	386.69
525.204	394.69
525.419	394.69
525.634	372.69
525.849	381.69
526.064	381.69
526.28	372.69
526.495	380.69
526.71	365.69
526.925	372.69
527.14	360.69
527.355	350.69
527.57	366.69
527.785	369.69
527.999	353.69
528.214	390.69
528.429	352.69
528.644	349.69
528.859	380.69
529.074	376.69
529.289	376.69
529.503	430.69
529.718	415.69
529.933	381.69
530.148	377.69
530.363	394.69
530.577	370.69
530.792	369.69
531.007	350.69
531.221	371.69
531.436	365.69
531.651	351.69
531.865	365.69
532.08	373.69
532.295	363.69
532.509	340.69
532.724	350.69
532.938	354.69
533.153	344.69
533.367	361.69
533.582	360.69
533.796	352.69
534.011	368.69
534.225	352.69
534.44	361.69
534.654	344.69
534.868	340.69
535.083	338.69
535.297	370.69
535.511	360.69
535.726	360.69
535.94	362.69
536.154	355.69
536.369	328.69
536.583	327.69
536.797	334.69
537.011	340.69
537.225	342.69
537.44	331.69
537.654	332.69
537.868	339.69
538.082	335.69
538.296	345.69
538.51	340.69
538.724	338.69
538.938	353.69
539.153	350.69
539.367	363.69
539.581	373.69
539.795	344.69
540.009	349.69
540.222	346.69
540.436	346.69
540.65	343.69
540.864	348.69
541.078	347.69
541.292	359.69
541.506	355.69
541.72	358.69
541.934	363.69
542.147	350.69
542.361	346.69
542.575	348.69
542.789	334.69
543.002	350.69
543.216	321.69
543.43	356.69
543.644	356.69
543.857	344.69
544.071	340.69
544.285	347.69
544.498	329.69
544.712	327.69
544.925	341.69
545.139	359.69
545.352	331.69
545.566	349.69
545.779	340.69
545.993	354.69
546.206	338.69
546.42	369.69
546.633	327.69
546.847	337.69
547.06	329.69
547.274	333.69
547.487	345.69
547.7	343.69
547.914	347.69
548.127	348.69
548.34	328.69
548.554	323.69
548.767	338.69
548.98	328.69
549.193	329.69
549.407	332.69
549.62	348.69
549.833	348.69
550.046	348.69
550.259	339.69
550.473	325.69
550.686	331.69
550.899	340.69
551.112	334.69
551.325	322.69
551.538	346.69
551.751	339.69
551.964	341.69
552.177	335.69
552.39	355.69
552.603	326.69
552.816	324.69
553.029	346.69
553.242	366.69
553.455	352.69
553.667	357.69
553.88	359.69
554.093	360.69
554.306	332.69
554.519	346.69
554.732	333.69
554.944	328.69
555.157	325.69
555.37	325.69
555.583	319.69
555.795	323.69
556.008	317.69
556.221	314.69
556.433	312.69
556.646	305.69
556.859	309.69
557.071	286.69
557.284	293.69
557.496	303.69
557.709	305.69
557.921	288.69
558.134	309.69
558.346	307.69
558.559	312.69
558.771	294.69
558.984	305.69
559.196	308.69
559.409	285.69
559.621	298.69
559.833	307.69
560.046	279.69
560.258	291.69
560.47	292.69
560.683	294.69
560.895	305.69
561.107	298.69
561.32	285.69
561.532	292.69
561.744	298.69
561.956	296.69
562.168	305.69
562.381	308.69
562.593	293.69
562.805	288.69
563.017	297.69
563.229	290.69
563.441	297.69
563.653	299.69
563.865	317.69
564.077	293.69
564.289	308.69
564.501	307.69
564.713	325.69
564.925	301.69
565.137	313.69
565.349	329.69
565.561	320.69
565.773	329.69
565.985	323.69
566.197	336.69
566.408	339.69
566.62	369.69
566.832	376.69
567.044	377.69
567.255	384.69
567.467	379.69
567.679	391.69
567.891	427.69
568.102	408.69
568.314	397.69
568.526	389.69
568.737	379.69
568.949	350.69
569.161	333.69
569.372	326.69
569.584	309.69
569.795	299.69
570.007	316.69
570.218	313.69
570.43	325.69
570.641	292.69
570.853	288.69
571.064	293.69
571.276	298.69
571.487	280.69
571.698	265.69
571.91	284.69
572.121	259.69
572.333	264.69
572.544	284.69
572.755	284.69
572.966	270.69
573.178	273.69
573.389	256.69
573.6	269.69
573.811	263.69
574.023	259.69
574.234	260.69
574.445	257.69
574.656	250.69
574.867	250.69
575.078	232.69
575.289	269.69
575.501	254.69
575.712	256.69
575.923	251.69
576.134	241.69
576.345	255.69
576.556	248.69
576.767	232.69
576.978	253.69
577.188	262.69
577.399	240.69
577.61	247.69
577.821	252.69
578.032	258.69
578.243	274.69
578.454	397.69
578.665	298.69
578.875	256.69
579.086	247.69
579.297	253.69
579.508	241.69
579.718	249.69
579.929	249.69
580.14	229.69
580.35	208.69
580.561	232.69
580.772	220.69
580.982	241.69
581.193	236.69
581.403	244.69
581.614	243.69
581.825	234.69
582.035	242.69
582.246	243.69
582.456	219.69
582.667	237.69
582.877	257.69
583.087	236.69
583.298	224.69
583.508	237.69
583.719	247.69
583.929	256.69
584.139	216.69
584.35	220.69
584.56	244.69
584.77	215.69
584.981	240.69
585.191	224.69
585.401	221.69
585.611	217.69
585.821	229.69
586.032	237.69
586.242	228.69
586.452	224.69
586.662	234.69
586.872	238.69
587.082	225.69
587.292	209.69
587.502	232.69
587.713	229.69
587.923	218.69
588.133	215.69
588.343	219.69
588.553	222.69
588.762	220.69
588.972	236.69
589.182	291.69
589.392	285.69
589.602	256.69
589.812	279.69
590.022	263.69
590.232	215.69
590.441	226.69
590.651	217.69
590.861	224.69
591.071	223.69
591.281	224.69
591.49	220.69
591.7	233.69
591.91	231.69
592.119	235.69
592.329	228.69
592.539	250.69
592.748	240.69
592.958	246.69
593.167	250.69
593.377	242.69
593.587	241.69
593.796	240.69
594.006	244.69
594.215	240.69
594.424	245.69
594.634	231.69
594.843	240.69
595.053	239.69
595.262	210.69
595.472	234.69
595.681	242.69
595.89	230.69
596.1	207.69
596.309	195.69
596.518	227.69
596.727	227.69
596.937	218.69
597.146	203.69
597.355	210.69
597.564	203.69
597.774	220.69
597.983	192.69
598.192	200.69
598.401	201.69
598.61	214.69
598.819	182.69
599.028	218.69
599.237	217.69
599.446	210.69
599.655	202.69
599.864	218.69
600.073	210.69
600.282	202.69
600.491	205.69
600.7	189.69
600.909	216.69
601.118	201.69
601.327	206.69
601.536	191.69
601.745	199.69
601.953	207.69
602.162	188.69
602.371	183.69
602.58	213.69
602.789	197.69
602.997	194.69
603.206	183.69
603.415	199.69
603.623	188.69
603.832	193.69
604.041	202.69
604.249	193.69
604.458	197.69
604.666	203.69
604.875	198.69
605.084	183.69
605.292	196.69
605.501	195.69
605.709	199.69
605.918	202.69
606.126	208.69
606.334	187.69
606.543	184.69
606.751	201.69
606.96	179.69
607.168	197.69
607.376	188.69
607.585	206.69
607.793	180.69
608.001	187.69
608.21	187.69
608.418	186.69
608.626	185.69
608.834	181.69
609.043	188.69
609.251	186.69
609.459	176.69
609.667	193.69
609.875	187.69
610.083	193.69
610.291	196.69
610.499	197.69
610.707	196.69
610.916	185.69
611.124	204.69
611.332	184.69
611.54	205.69
611.748	196.69
611.955	182.69
612.163	201.69
612.371	179.69
612.579	185.69
612.787	194.69
612.995	189.69
613.203	173.69
613.411	187.69
613.618	201.69
613.826	197.69
614.034	190.69
614.242	189.69
614.449	170.69
614.657	206.69
614.865	192.69
615.072	193.69
615.28	183.69
615.488	190.69
615.695	189.69
615.903	184.69
616.111	178.69
616.318	187.69
616.526	182.69
616.733	180.69
616.941	181.69
617.148	189.69
617.356	170.69
617.563	168.69
617.771	173.69
617.978	163.69
618.185	183.69
618.393	195.69
618.6	178.69
618.807	179.69
619.015	177.69
619.222	195.69
619.429	185.69
619.637	194.69
619.844	182.69
620.051	178.69
620.258	178.69
620.466	177.69
620.673	168.69
620.88	166.69
621.087	186.69
621.294	184.69
621.501	178.69
621.708	181.69
621.915	196.69
622.122	176.69
622.329	173.69
622.536	177.69
622.743	170.69
622.95	184.69
623.157	178.69
623.364	163.69
623.571	172.69
623.778	156.69
623.985	158.69
624.192	155.69
624.399	173.69
624.606	161.69
624.812	175.69
625.019	168.69
625.226	152.69
625.433	171.69
625.639	171.69
625.846	161.69
626.053	165.69
626.259	155.69
626.466	158.69
626.673	167.69
626.879	164.69
627.086	169.69
627.293	155.69
627.499	178.69
627.706	150.69
627.912	156.69
628.119	173.69
628.325	156.69
628.532	144.69
628.738	171.69
628.945	171.69
629.151	164.69
629.357	163.69
629.564	145.69
629.77	164.69
629.976	173.69
630.183	160.69
630.389	147.69
630.595	166.69
630.802	163.69
631.008	160.69
631.214	164.69
631.42	153.69
631.627	142.69
631.833	139.69
632.039	145.69
632.245	158.69
632.451	159.69
632.657	165.69
632.863	157.69
633.069	157.69
633.275	155.69
633.481	164.69
633.688	150.69
633.893	165.69
634.099	162.69
634.305	149.69
634.511	152.69
634.717	145.69
634.923	148.69
635.129	168.69
635.335	166.69
635.541	150.69
635.747	144.69
635.952	145.69
636.158	132.69
636.364	157.69
636.57	167.69
636.775	162.69
636.981	146.69
637.187	168.69
637.392	164.69
637.598	148.69
637.804	153.69
638.009	143.69
638.215	147.69
638.421	139.69
638.626	160.69
638.832	144.69
639.037	133.69
639.243	132.69
639.448	147.69
639.654	133.69
639.859	146.69
640.065	140.69
640.27	160.69
640.475	142.69
640.681	132.69
640.886	152.69
641.091	147.69
641.297	166.69
641.502	152.69
641.707	146.69
641.913	145.69
642.118	149.69
642.323	142.69
642.528	136.69
642.733	134.69
642.939	142.69
643.144	134.69
643.349	135.69
643.554	144.69
643.759	132.69
643.964	127.69
644.169	129.69
644.374	148.69
644.579	153.69
644.784	141.69
644.989	135.69
645.194	140.69
645.399	143.69
645.604	148.69
645.809	141.69
646.014	133.69
646.219	133.69
646.423	134.69
646.628	145.69
646.833	140.69
647.038	144.69
647.243	146.69
647.447	137.69
647.652	128.69
647.857	149.69
648.062	144.69
648.266	139.69
648.471	144.69
648.676	148.69
648.88	140.69
649.085	136.69
649.289	158.69
649.494	154.69
649.698	148.69
649.903	148.69
650.107	150.69
650.312	148.69
650.516	154.69
650.721	123.69
650.925	137.69
651.13	132.69
651.334	125.69
651.539	148.69
651.743	128.69
651.947	135.69
652.152	129.69
652.356	142.69
652.56	133.69
652.764	120.69
652.969	126.69
653.173	126.69
653.377	125.69
653.581	128.69
653.785	139.69
653.99	137.69
654.194	126.69
654.398	124.69
654.602	129.69
654.806	134.69
655.01	130.69
655.214	127.69
655.418	124.69
655.622	129.69
655.826	125.69
656.03	124.69
656.234	131.69
656.438	125.69
656.642	142.69
656.846	132.69
657.049	121.69
657.253	124.69
657.457	123.69
657.661	125.69
657.865	116.69
658.068	112.69
658.272	104.69
658.476	120.69
658.68	107.69
658.883	101.69
659.087	106.69
659.291	99.69
659.494	107.69
659.698	92.69
659.901	97.69
660.105	93.69
660.309	84.69
660.512	91.69
660.716	80.69
660.919	75.69
661.123	98.69
661.326	82.69
661.53	88.69
661.733	93.69
661.936	85.69
662.14	109.69
662.343	81.69
662.546	84.69
662.75	105.69
662.953	83.69
663.156	80.69
663.36	97.69
663.563	92.69
663.766	80.69
663.969	92.69
664.173	84.69
664.376	89.69
664.579	95.69
664.782	62.69
664.985	67.69
665.188	92.69
665.391	74.69
665.594	81.69
665.797	90.69
666	66.69
666.203	70.69
666.406	83.69
666.609	90.69
666.812	75.69
667.015	74.69
667.218	81.69
667.421	82.69
667.624	84.69
667.827	77.69
668.03	78.69
668.232	73.69
668.435	69.69
668.638	80.69
668.841	81.69
669.043	92.69
669.246	73.69
669.449	76.69
669.651	86.69
669.854	83.69
670.057	80.69
670.259	81.69
670.462	76.69
670.665	78.69
670.867	80.69
671.07	89.69
671.272	79.69
671.475	84.69
671.677	94.69
671.88	72.69
672.082	81.69
672.284	82.69
672.487	89.69
672.689	83.69
672.892	79.69
