Data from 1986.PennyLincolnUp.Lamp.En5.5.200Scan.071819.P2_HRD10591_17-10-47-975.txt Node
Date: Thu Jul 18 17:10:47 EDT 2019
User: cochatt
Spectrometer: HR+D1059
Trigger mode: 1
Integration Time (sec): 1.000000E-1
Scans to average: 1
Electric dark correction enabled: true
Nonlinearity correction enabled: false
Boxcar width: 0
XAxis mode: Wavelengths
Number of Pixels in Spectrum: 2048
>>>>>Begin Spectral Data<<<<<
223.165	-10.62
223.4	-10.62
223.635	-10.62
223.869	-1.62
224.104	-16.62
224.338	-11.62
224.573	-3.62
224.808	-24.62
225.042	-15.62
225.277	-9.62
225.511	-14.62
225.746	0.38
225.98	7.38
226.215	21.38
226.449	21.38
226.683	15.38
226.918	14.38
227.152	28.38
227.387	38.38
227.621	48.38
227.856	36.38
228.09	51.38
228.324	39.38
228.559	53.38
228.793	77.38
229.027	86.38
229.262	108.38
229.496	123.38
229.73	142.38
229.964	158.38
230.199	140.38
230.433	120.38
230.667	125.38
230.901	117.38
231.136	128.38
231.37	110.38
231.604	127.38
231.838	112.38
232.072	121.38
232.306	130.38
232.541	104.38
232.775	100.38
233.009	124.38
233.243	119.38
233.477	114.38
233.711	127.38
233.945	120.38
234.179	104.38
234.413	130.38
234.647	120.38
234.881	118.38
235.115	122.38
235.349	133.38
235.583	135.38
235.817	122.38
236.051	114.38
236.285	108.38
236.519	122.38
236.753	111.38
236.987	135.38
237.221	188.38
237.455	270.38
237.689	180.38
237.922	142.38
238.156	137.38
238.39	132.38
238.624	127.38
238.858	120.38
239.091	122.38
239.325	122.38
239.559	127.38
239.793	139.38
240.027	123.38
240.26	134.38
240.494	173.38
240.728	164.38
240.961	162.38
241.195	158.38
241.429	142.38
241.662	154.38
241.896	134.38
242.13	126.38
242.363	127.38
242.597	136.38
242.83	138.38
243.064	128.38
243.298	130.38
243.531	139.38
243.765	123.38
243.998	140.38
244.232	142.38
244.465	146.38
244.699	134.38
244.932	155.38
245.166	144.38
245.399	149.38
245.633	134.38
245.866	139.38
246.099	144.38
246.333	147.38
246.566	146.38
246.8	140.38
247.033	159.38
247.266	164.38
247.5	170.38
247.733	180.38
247.966	174.38
248.2	186.38
248.433	178.38
248.666	199.38
248.899	208.38
249.133	212.38
249.366	222.38
249.599	195.38
249.832	197.38
250.066	183.38
250.299	191.38
250.532	208.38
250.765	205.38
250.998	218.38
251.231	226.38
251.465	226.38
251.698	227.38
251.931	216.38
252.164	233.38
252.397	199.38
252.63	206.38
252.863	207.38
253.096	234.38
253.329	238.38
253.562	250.38
253.795	244.38
254.028	232.38
254.261	237.38
254.494	231.38
254.727	272.38
254.96	314.38
255.193	310.38
255.426	267.38
255.659	250.38
255.892	237.38
256.124	253.38
256.357	232.38
256.59	265.38
256.823	238.38
257.056	218.38
257.289	230.38
257.521	225.38
257.754	217.38
257.987	237.38
258.22	222.38
258.452	230.38
258.685	214.38
258.918	230.38
259.151	223.38
259.383	219.38
259.616	239.38
259.849	225.38
260.081	240.38
260.314	249.38
260.547	265.38
260.779	235.38
261.012	247.38
261.244	214.38
261.477	238.38
261.71	224.38
261.942	246.38
262.175	228.38
262.407	257.38
262.64	217.38
262.872	224.38
263.105	214.38
263.337	220.38
263.57	205.38
263.802	220.38
264.035	239.38
264.267	221.38
264.499	205.38
264.732	228.38
264.964	214.38
265.197	214.38
265.429	214.38
265.661	202.38
265.894	207.38
266.126	223.38
266.358	227.38
266.591	230.38
266.823	224.38
267.055	231.38
267.287	216.38
267.52	214.38
267.752	225.38
267.984	222.38
268.216	230.38
268.448	211.38
268.681	217.38
268.913	221.38
269.145	256.38
269.377	298.38
269.609	276.38
269.841	274.38
270.073	270.38
270.306	300.38
270.538	326.38
270.77	342.38
271.002	298.38
271.234	302.38
271.466	307.38
271.698	314.38
271.93	317.38
272.162	354.38
272.394	317.38
272.626	311.38
272.858	298.38
273.09	318.38
273.322	282.38
273.553	283.38
273.785	258.38
274.017	274.38
274.249	251.38
274.481	261.38
274.713	280.38
274.945	270.38
275.176	255.38
275.408	267.38
275.64	288.38
275.872	248.38
276.104	263.38
276.335	256.38
276.567	285.38
276.799	295.38
277.031	300.38
277.262	311.38
277.494	325.38
277.726	314.38
277.957	299.38
278.189	280.38
278.421	282.38
278.652	255.38
278.884	283.38
279.115	258.38
279.347	273.38
279.579	251.38
279.81	265.38
280.042	251.38
280.273	250.38
280.505	256.38
280.736	260.38
280.968	237.38
281.199	243.38
281.431	262.38
281.662	238.38
281.894	278.38
282.125	272.38
282.356	282.38
282.588	278.38
282.819	314.38
283.051	267.38
283.282	249.38
283.513	268.38
283.745	274.38
283.976	258.38
284.207	279.38
284.439	277.38
284.67	273.38
284.901	262.38
285.132	280.38
285.364	246.38
285.595	244.38
285.826	254.38
286.057	239.38
286.288	256.38
286.52	264.38
286.751	244.38
286.982	259.38
287.213	256.38
287.444	266.38
287.675	264.38
287.906	288.38
288.138	281.38
288.369	281.38
288.6	282.38
288.831	296.38
289.062	293.38
289.293	267.38
289.524	272.38
289.755	290.38
289.986	276.38
290.217	285.38
290.448	278.38
290.679	268.38
290.91	270.38
291.141	230.38
291.371	256.38
291.602	259.38
291.833	266.38
292.064	270.38
292.295	268.38
292.526	259.38
292.757	278.38
292.987	258.38
293.218	274.38
293.449	255.38
293.68	276.38
293.91	259.38
294.141	261.38
294.372	269.38
294.603	271.38
294.833	271.38
295.064	268.38
295.295	291.38
295.525	265.38
295.756	284.38
295.987	300.38
296.217	328.38
296.448	310.38
296.679	289.38
296.909	285.38
297.14	268.38
297.37	278.38
297.601	288.38
297.831	277.38
298.062	263.38
298.292	297.38
298.523	284.38
298.753	261.38
298.984	280.38
299.214	279.38
299.445	278.38
299.675	288.38
299.905	295.38
300.136	284.38
300.366	282.38
300.597	288.38
300.827	300.38
301.057	288.38
301.288	290.38
301.518	311.38
301.748	300.38
301.979	283.38
302.209	302.38
302.439	299.38
302.669	317.38
302.9	304.38
303.13	286.38
303.36	301.38
303.59	311.38
303.82	307.38
304.051	291.38
304.281	315.38
304.511	299.38
304.741	300.38
304.971	303.38
305.201	306.38
305.431	286.38
305.661	288.38
305.891	302.38
306.121	306.38
306.352	317.38
306.582	332.38
306.812	312.38
307.042	336.38
307.272	296.38
307.502	304.38
307.731	304.38
307.961	318.38
308.191	306.38
308.421	314.38
308.651	304.38
308.881	319.38
309.111	319.38
309.341	310.38
309.571	328.38
309.8	344.38
310.03	357.38
310.26	382.38
310.49	360.38
310.72	372.38
310.949	398.38
311.179	402.38
311.409	386.38
311.639	352.38
311.868	364.38
312.098	357.38
312.328	362.38
312.557	382.38
312.787	408.38
313.017	397.38
313.246	386.38
313.476	350.38
313.706	348.38
313.935	381.38
314.165	346.38
314.394	363.38
314.624	394.38
314.853	354.38
315.083	382.38
315.312	373.38
315.542	373.38
315.771	338.38
316.001	328.38
316.23	360.38
316.46	347.38
316.689	372.38
316.919	354.38
317.148	389.38
317.377	390.38
317.607	366.38
317.836	366.38
318.065	365.38
318.295	372.38
318.524	348.38
318.753	347.38
318.983	341.38
319.212	344.38
319.441	373.38
319.67	409.38
319.9	363.38
320.129	362.38
320.358	367.38
320.587	374.38
320.816	384.38
321.046	391.38
321.275	395.38
321.504	382.38
321.733	372.38
321.962	400.38
322.191	421.38
322.42	419.38
322.649	452.38
322.878	447.38
323.108	461.38
323.337	484.38
323.566	531.38
323.795	562.38
324.024	613.38
324.253	782.38
324.482	1080.38
324.71	1636.38
324.939	2380.38
325.168	2100.38
325.397	1114.38
325.626	759.38
325.855	618.38
326.084	534.38
326.313	539.38
326.542	552.38
326.77	574.38
326.999	724.38
327.228	997.38
327.457	1446.38
327.686	1811.38
327.914	1245.38
328.143	821.38
328.372	708.38
328.6	619.38
328.829	612.38
329.058	614.38
329.287	614.38
329.515	586.38
329.744	551.38
329.972	532.38
330.201	565.38
330.43	594.38
330.658	634.38
330.887	675.38
331.115	668.38
331.344	534.38
331.572	513.38
331.801	481.38
332.03	496.38
332.258	473.38
332.486	447.38
332.715	426.38
332.943	428.38
333.172	413.38
333.4	444.38
333.629	459.38
333.857	460.38
334.085	455.38
334.314	469.38
334.542	517.38
334.771	541.38
334.999	499.38
335.227	436.38
335.455	435.38
335.684	425.38
335.912	423.38
336.14	418.38
336.369	429.38
336.597	407.38
336.825	430.38
337.053	405.38
337.281	418.38
337.51	388.38
337.738	387.38
337.966	422.38
338.194	420.38
338.422	404.38
338.65	396.38
338.878	398.38
339.106	401.38
339.334	414.38
339.562	382.38
339.79	379.38
340.018	407.38
340.246	386.38
340.474	400.38
340.702	403.38
340.93	382.38
341.158	402.38
341.386	400.38
341.614	419.38
341.842	411.38
342.07	411.38
342.298	395.38
342.526	376.38
342.754	382.38
342.981	360.38
343.209	377.38
343.437	365.38
343.665	370.38
343.893	388.38
344.12	379.38
344.348	389.38
344.576	388.38
344.804	391.38
345.031	423.38
345.259	418.38
345.487	396.38
345.714	397.38
345.942	378.38
346.17	394.38
346.397	411.38
346.625	374.38
346.853	405.38
347.08	391.38
347.308	394.38
347.535	408.38
347.763	401.38
347.99	401.38
348.218	394.38
348.445	406.38
348.673	410.38
348.9	397.38
349.128	378.38
349.355	378.38
349.583	362.38
349.81	362.38
350.037	380.38
350.265	374.38
350.492	380.38
350.72	359.38
350.947	359.38
351.174	388.38
351.402	409.38
351.629	382.38
351.856	392.38
352.083	394.38
352.311	414.38
352.538	416.38
352.765	400.38
352.992	400.38
353.22	387.38
353.447	388.38
353.674	400.38
353.901	385.38
354.128	362.38
354.355	364.38
354.583	367.38
354.81	359.38
355.037	361.38
355.264	358.38
355.491	340.38
355.718	338.38
355.945	350.38
356.172	344.38
356.399	341.38
356.626	349.38
356.853	355.38
357.08	359.38
357.307	359.38
357.534	353.38
357.761	354.38
357.988	346.38
358.215	359.38
358.441	337.38
358.668	370.38
358.895	352.38
359.122	380.38
359.349	375.38
359.576	371.38
359.802	411.38
360.029	431.38
360.256	454.38
360.483	438.38
360.709	405.38
360.936	388.38
361.163	400.38
361.39	386.38
361.616	389.38
361.843	375.38
362.07	376.38
362.296	416.38
362.523	392.38
362.749	383.38
362.976	373.38
363.203	379.38
363.429	364.38
363.656	375.38
363.882	371.38
364.109	372.38
364.335	356.38
364.562	367.38
364.788	358.38
365.015	365.38
365.241	370.38
365.468	370.38
365.694	374.38
365.92	384.38
366.147	376.38
366.373	372.38
366.599	358.38
366.826	346.38
367.052	349.38
367.278	355.38
367.505	372.38
367.731	362.38
367.957	376.38
368.184	370.38
368.41	363.38
368.636	361.38
368.862	375.38
369.089	355.38
369.315	352.38
369.541	354.38
369.767	336.38
369.993	368.38
370.219	376.38
370.445	341.38
370.672	363.38
370.898	342.38
371.124	351.38
371.35	345.38
371.576	354.38
371.802	365.38
372.028	330.38
372.254	360.38
372.48	347.38
372.706	350.38
372.932	355.38
373.158	351.38
373.384	350.38
373.61	350.38
373.835	347.38
374.061	347.38
374.287	353.38
374.513	344.38
374.739	330.38
374.965	355.38
375.191	357.38
375.416	328.38
375.642	362.38
375.868	341.38
376.094	358.38
376.319	340.38
376.545	367.38
376.771	357.38
376.997	343.38
377.222	357.38
377.448	332.38
377.674	344.38
377.899	336.38
378.125	347.38
378.35	336.38
378.576	348.38
378.802	345.38
379.027	342.38
379.253	335.38
379.478	336.38
379.704	336.38
379.929	365.38
380.155	354.38
380.38	359.38
380.606	348.38
380.831	355.38
381.057	344.38
381.282	349.38
381.507	348.38
381.733	359.38
381.958	341.38
382.184	355.38
382.409	353.38
382.634	364.38
382.86	346.38
383.085	354.38
383.31	344.38
383.535	338.38
383.761	335.38
383.986	349.38
384.211	330.38
384.436	357.38
384.662	358.38
384.887	375.38
385.112	368.38
385.337	356.38
385.562	371.38
385.787	353.38
386.013	368.38
386.238	386.38
386.463	364.38
386.688	367.38
386.913	352.38
387.138	357.38
387.363	375.38
387.588	363.38
387.813	365.38
388.038	335.38
388.263	372.38
388.488	358.38
388.713	365.38
388.938	367.38
389.163	387.38
389.387	373.38
389.612	374.38
389.837	373.38
390.062	371.38
390.287	347.38
390.512	345.38
390.736	356.38
390.961	346.38
391.186	343.38
391.411	349.38
391.636	365.38
391.86	371.38
392.085	370.38
392.31	367.38
392.534	360.38
392.759	340.38
392.984	359.38
393.208	363.38
393.433	358.38
393.658	356.38
393.882	368.38
394.107	375.38
394.331	342.38
394.556	348.38
394.78	334.38
395.005	377.38
395.229	372.38
395.454	377.38
395.678	381.38
395.903	378.38
396.127	392.38
396.352	401.38
396.576	394.38
396.801	371.38
397.025	381.38
397.249	379.38
397.474	362.38
397.698	368.38
397.922	397.38
398.147	398.38
398.371	416.38
398.595	403.38
398.82	392.38
399.044	416.38
399.268	427.38
399.492	416.38
399.717	429.38
399.941	444.38
400.165	484.38
400.389	506.38
400.613	476.38
400.837	445.38
401.062	410.38
401.286	436.38
401.51	407.38
401.734	418.38
401.958	412.38
402.182	414.38
402.406	421.38
402.63	426.38
402.854	414.38
403.078	427.38
403.302	415.38
403.526	444.38
403.75	431.38
403.974	428.38
404.198	413.38
404.422	425.38
404.645	439.38
404.869	459.38
405.093	484.38
405.317	512.38
405.541	530.38
405.765	478.38
405.988	464.38
406.212	470.38
406.436	474.38
406.66	489.38
406.883	464.38
407.107	492.38
407.331	515.38
407.555	588.38
407.778	576.38
408.002	533.38
408.226	488.38
408.449	458.38
408.673	468.38
408.896	489.38
409.12	542.38
409.344	509.38
409.567	461.38
409.791	429.38
410.014	435.38
410.238	423.38
410.461	442.38
410.685	430.38
410.908	446.38
411.132	479.38
411.355	518.38
411.578	495.38
411.802	438.38
412.025	428.38
412.249	460.38
412.472	464.38
412.695	501.38
412.919	470.38
413.142	452.38
413.365	440.38
413.589	421.38
413.812	434.38
414.035	413.38
414.258	398.38
414.482	408.38
414.705	400.38
414.928	392.38
415.151	398.38
415.374	405.38
415.597	395.38
415.821	394.38
416.044	405.38
416.267	408.38
416.49	416.38
416.713	389.38
416.936	396.38
417.159	408.38
417.382	407.38
417.605	409.38
417.828	434.38
418.051	430.38
418.274	428.38
418.497	421.38
418.72	419.38
418.943	393.38
419.166	411.38
419.389	435.38
419.611	427.38
419.834	438.38
420.057	444.38
420.28	442.38
420.503	439.38
420.726	446.38
420.948	455.38
421.171	477.38
421.394	526.38
421.617	476.38
421.839	430.38
422.062	443.38
422.285	454.38
422.507	508.38
422.73	571.38
422.953	569.38
423.175	488.38
423.398	462.38
423.621	471.38
423.843	510.38
424.066	486.38
424.288	471.38
424.511	501.38
424.733	556.38
424.956	634.38
425.178	615.38
425.401	590.38
425.623	594.38
425.846	531.38
426.068	491.38
426.291	471.38
426.513	485.38
426.735	499.38
426.958	545.38
427.18	626.38
427.402	724.38
427.625	835.38
427.847	736.38
428.069	644.38
428.292	565.38
428.514	496.38
428.736	475.38
428.958	474.38
429.181	461.38
429.403	454.38
429.625	462.38
429.847	486.38
430.069	548.38
430.292	550.38
430.514	470.38
430.736	445.38
430.958	415.38
431.18	432.38
431.402	423.38
431.624	412.38
431.846	442.38
432.068	406.38
432.29	408.38
432.512	418.38
432.734	392.38
432.956	437.38
433.178	442.38
433.4	440.38
433.622	434.38
433.844	410.38
434.066	398.38
434.287	415.38
434.509	401.38
434.731	412.38
434.953	419.38
435.175	436.38
435.397	474.38
435.618	499.38
435.84	512.38
436.062	624.38
436.284	678.38
436.505	588.38
436.727	520.38
436.949	464.38
437.17	456.38
437.392	459.38
437.614	470.38
437.835	509.38
438.057	609.38
438.278	720.38
438.5	690.38
438.721	743.38
438.943	712.38
439.165	595.38
439.386	524.38
439.608	523.38
439.829	508.38
440.05	525.38
440.272	578.38
440.493	559.38
440.715	491.38
440.936	475.38
441.158	442.38
441.379	435.38
441.6	458.38
441.822	477.38
442.043	527.38
442.264	621.38
442.486	636.38
442.707	547.38
442.928	499.38
443.149	510.38
443.371	542.38
443.592	576.38
443.813	651.38
444.034	681.38
444.255	586.38
444.476	528.38
444.698	499.38
444.919	468.38
445.14	580.38
445.361	532.38
445.582	519.38
445.803	570.38
446.024	683.38
446.245	692.38
446.466	638.38
446.687	543.38
446.908	491.38
447.129	479.38
447.35	462.38
447.571	460.38
447.792	465.38
448.013	450.38
448.234	468.38
448.455	524.38
448.675	615.38
448.896	715.38
449.117	626.38
449.338	616.38
449.559	678.38
449.779	775.38
450	626.38
450.221	534.38
450.442	472.38
450.662	457.38
450.883	468.38
451.104	490.38
451.324	482.38
451.545	468.38
451.766	455.38
451.986	418.38
452.207	401.38
452.428	399.38
452.648	404.38
452.869	408.38
453.089	417.38
453.31	399.38
453.53	406.38
453.751	409.38
453.971	408.38
454.192	437.38
454.412	431.38
454.633	419.38
454.853	389.38
455.073	388.38
455.294	440.38
455.514	523.38
455.734	489.38
455.955	411.38
456.175	389.38
456.395	404.38
456.616	376.38
456.836	373.38
457.056	392.38
457.276	372.38
457.497	396.38
457.717	355.38
457.937	388.38
458.157	376.38
458.377	395.38
458.598	416.38
458.818	486.38
459.038	570.38
459.258	588.38
459.478	486.38
459.698	420.38
459.918	418.38
460.138	400.38
460.358	394.38
460.578	417.38
460.798	402.38
461.018	394.38
461.238	413.38
461.458	392.38
461.678	394.38
461.898	403.38
462.118	372.38
462.338	408.38
462.558	401.38
462.777	410.38
462.997	411.38
463.217	431.38
463.437	415.38
463.657	416.38
463.876	426.38
464.096	430.38
464.316	438.38
464.536	423.38
464.755	438.38
464.975	450.38
465.195	510.38
465.414	616.38
465.634	537.38
465.854	458.38
466.073	446.38
466.293	425.38
466.512	408.38
466.732	404.38
466.951	399.38
467.171	394.38
467.391	409.38
467.61	431.38
467.829	434.38
468.049	408.38
468.268	431.38
468.488	426.38
468.707	410.38
468.927	402.38
469.146	390.38
469.365	372.38
469.585	390.38
469.804	392.38
470.023	432.38
470.243	407.38
470.462	419.38
470.681	427.38
470.901	446.38
471.12	418.38
471.339	415.38
471.558	403.38
471.777	411.38
471.997	383.38
472.216	423.38
472.435	459.38
472.654	456.38
472.873	427.38
473.092	434.38
473.311	410.38
473.53	410.38
473.749	437.38
473.968	470.38
474.187	572.38
474.406	602.38
474.625	476.38
474.844	464.38
475.063	409.38
475.282	408.38
475.501	435.38
475.72	406.38
475.939	421.38
476.158	419.38
476.377	429.38
476.596	423.38
476.814	437.38
477.033	432.38
477.252	420.38
477.471	442.38
477.69	434.38
477.908	441.38
478.127	449.38
478.346	447.38
478.564	453.38
478.783	466.38
479.002	459.38
479.22	470.38
479.439	463.38
479.658	476.38
479.876	495.38
480.095	510.38
480.313	520.38
480.532	512.38
480.751	480.38
480.969	524.38
481.188	596.38
481.406	667.38
481.624	567.38
481.843	514.38
482.061	498.38
482.28	496.38
482.498	518.38
482.717	482.38
482.935	473.38
483.153	478.38
483.372	472.38
483.59	504.38
483.808	482.38
484.027	479.38
484.245	481.38
484.463	476.38
484.681	504.38
484.9	477.38
485.118	492.38
485.336	493.38
485.554	494.38
485.772	487.38
485.99	494.38
486.209	497.38
486.427	514.38
486.645	530.38
486.863	557.38
487.081	525.38
487.299	528.38
487.517	515.38
487.735	516.38
487.953	521.38
488.171	525.38
488.389	516.38
488.607	522.38
488.825	533.38
489.043	537.38
489.261	522.38
489.479	534.38
489.696	548.38
489.914	539.38
490.132	539.38
490.35	524.38
490.568	568.38
490.786	591.38
491.003	566.38
491.221	596.38
491.439	593.38
491.657	625.38
491.874	633.38
492.092	621.38
492.31	633.38
492.527	609.38
492.745	647.38
492.963	637.38
493.18	640.38
493.398	637.38
493.615	654.38
493.833	650.38
494.05	627.38
494.268	638.38
494.485	641.38
494.703	628.38
494.92	658.38
495.138	639.38
495.355	624.38
495.573	646.38
495.79	636.38
496.008	636.38
496.225	641.38
496.442	637.38
496.66	642.38
496.877	624.38
497.094	634.38
497.312	633.38
497.529	628.38
497.746	674.38
497.963	642.38
498.181	695.38
498.398	682.38
498.615	667.38
498.832	710.38
499.049	696.38
499.267	697.38
499.484	700.38
499.701	703.38
499.918	720.38
500.135	722.38
500.352	770.38
500.569	756.38
500.786	756.38
501.003	750.38
501.22	756.38
501.437	730.38
501.654	770.38
501.871	768.38
502.088	713.38
502.305	713.38
502.522	695.38
502.739	679.38
502.956	649.38
503.172	640.38
503.389	652.38
503.606	641.38
503.823	672.38
504.04	646.38
504.256	651.38
504.473	640.38
504.69	600.38
504.907	628.38
505.123	622.38
505.34	631.38
505.557	610.38
505.773	616.38
505.99	622.38
506.207	620.38
506.423	630.38
506.64	603.38
506.856	593.38
507.073	619.38
507.289	612.38
507.506	598.38
507.722	597.38
507.939	638.38
508.155	640.38
508.372	620.38
508.588	599.38
508.805	584.38
509.021	606.38
509.238	634.38
509.454	626.38
509.67	627.38
509.887	634.38
510.103	597.38
510.319	613.38
510.536	761.38
510.752	1290.38
510.968	1056.38
511.184	621.38
511.401	601.38
511.617	629.38
511.833	570.38
512.049	562.38
512.265	567.38
512.481	580.38
512.698	581.38
512.914	571.38
513.13	562.38
513.346	578.38
513.562	566.38
513.778	592.38
513.994	593.38
514.21	614.38
514.426	611.38
514.642	669.38
514.858	725.38
515.074	775.38
515.29	980.38
515.506	1464.38
515.721	1195.38
515.937	717.38
516.153	676.38
516.369	655.38
516.585	586.38
516.801	570.38
517.016	604.38
517.232	572.38
517.448	582.38
517.664	600.38
517.879	578.38
518.095	567.38
518.311	556.38
518.527	570.38
518.742	557.38
518.958	570.38
519.173	562.38
519.389	560.38
519.605	569.38
519.82	571.38
520.036	597.38
520.251	622.38
520.467	648.38
520.682	651.38
520.898	662.38
521.113	722.38
521.329	761.38
521.544	914.38
521.76	1186.38
521.975	1978.38
522.19	1962.38
522.406	1010.38
522.621	711.38
522.836	650.38
523.052	585.38
523.267	568.38
523.482	529.38
523.698	554.38
523.913	543.38
524.128	537.38
524.343	510.38
524.559	519.38
524.774	508.38
524.989	510.38
525.204	511.38
525.419	502.38
525.634	501.38
525.849	473.38
526.064	478.38
526.28	489.38
526.495	482.38
526.71	478.38
526.925	472.38
527.14	469.38
527.355	451.38
527.57	456.38
527.785	453.38
527.999	469.38
528.214	452.38
528.429	494.38
528.644	459.38
528.859	435.38
529.074	438.38
529.289	500.38
529.503	593.38
529.718	573.38
529.933	505.38
530.148	503.38
530.363	476.38
530.577	444.38
530.792	451.38
531.007	469.38
531.221	452.38
531.436	443.38
531.651	436.38
531.865	423.38
532.08	398.38
532.295	428.38
532.509	439.38
532.724	420.38
532.938	419.38
533.153	430.38
533.367	438.38
533.582	418.38
533.796	418.38
534.011	414.38
534.225	404.38
534.44	396.38
534.654	411.38
534.868	437.38
535.083	411.38
535.297	442.38
535.511	442.38
535.726	441.38
535.94	445.38
536.154	438.38
536.369	432.38
536.583	410.38
536.797	401.38
537.011	423.38
537.225	414.38
537.44	404.38
537.654	418.38
537.868	417.38
538.082	405.38
538.296	420.38
538.51	411.38
538.724	419.38
538.938	423.38
539.153	429.38
539.367	421.38
539.581	431.38
539.795	415.38
540.009	415.38
540.222	407.38
540.436	409.38
540.65	411.38
540.864	423.38
541.078	420.38
541.292	428.38
541.506	404.38
541.72	405.38
541.934	411.38
542.147	417.38
542.361	422.38
542.575	392.38
542.789	386.38
543.002	385.38
543.216	410.38
543.43	427.38
543.644	405.38
543.857	406.38
544.071	406.38
544.285	409.38
544.498	402.38
544.712	395.38
544.925	396.38
545.139	396.38
545.352	398.38
545.566	398.38
545.779	390.38
545.993	382.38
546.206	396.38
546.42	390.38
546.633	408.38
546.847	390.38
547.06	394.38
547.274	375.38
547.487	397.38
547.7	370.38
547.914	380.38
548.127	392.38
548.34	374.38
548.554	380.38
548.767	398.38
548.98	377.38
549.193	369.38
549.407	372.38
549.62	378.38
549.833	360.38
550.046	371.38
550.259	386.38
550.473	388.38
550.686	374.38
550.899	351.38
551.112	374.38
551.325	374.38
551.538	365.38
551.751	372.38
551.964	356.38
552.177	366.38
552.39	375.38
552.603	368.38
552.816	390.38
553.029	384.38
553.242	361.38
553.455	370.38
553.667	370.38
553.88	388.38
554.093	389.38
554.306	370.38
554.519	374.38
554.732	373.38
554.944	366.38
555.157	359.38
555.37	345.38
555.583	356.38
555.795	378.38
556.008	367.38
556.221	348.38
556.433	380.38
556.646	358.38
556.859	350.38
557.071	370.38
557.284	348.38
557.496	342.38
557.709	347.38
557.921	348.38
558.134	334.38
558.346	342.38
558.559	339.38
558.771	347.38
558.984	323.38
559.196	333.38
559.409	338.38
559.621	354.38
559.833	352.38
560.046	334.38
560.258	334.38
560.47	329.38
560.683	347.38
560.895	340.38
561.107	323.38
561.32	332.38
561.532	343.38
561.744	340.38
561.956	334.38
562.168	328.38
562.381	327.38
562.593	325.38
562.805	339.38
563.017	344.38
563.229	329.38
563.441	347.38
563.653	339.38
563.865	342.38
564.077	335.38
564.289	353.38
564.501	341.38
564.713	327.38
564.925	342.38
565.137	354.38
565.349	336.38
565.561	347.38
565.773	360.38
565.985	370.38
566.197	366.38
566.408	367.38
566.62	374.38
566.832	378.38
567.044	379.38
567.255	374.38
567.467	379.38
567.679	394.38
567.891	389.38
568.102	393.38
568.314	358.38
568.526	375.38
568.737	361.38
568.949	351.38
569.161	360.38
569.372	330.38
569.584	337.38
569.795	335.38
570.007	335.38
570.218	415.38
570.43	381.38
570.641	332.38
570.853	329.38
571.064	335.38
571.276	324.38
571.487	323.38
571.698	300.38
571.91	310.38
572.121	314.38
572.333	314.38
572.544	301.38
572.755	312.38
572.966	316.38
573.178	311.38
573.389	290.38
573.6	293.38
573.811	296.38
574.023	297.38
574.234	301.38
574.445	295.38
574.656	297.38
574.867	296.38
575.078	286.38
575.289	299.38
575.501	286.38
575.712	298.38
575.923	284.38
576.134	294.38
576.345	295.38
576.556	268.38
576.767	298.38
576.978	296.38
577.188	291.38
577.399	298.38
577.61	267.38
577.821	291.38
578.032	281.38
578.243	328.38
578.454	630.38
578.665	455.38
578.875	311.38
579.086	292.38
579.297	281.38
579.508	295.38
579.718	289.38
579.929	277.38
580.14	283.38
580.35	263.38
580.561	276.38
580.772	272.38
580.982	268.38
581.193	287.38
581.403	287.38
581.614	286.38
581.825	273.38
582.035	271.38
582.246	270.38
582.456	293.38
582.667	266.38
582.877	277.38
583.087	252.38
583.298	266.38
583.508	269.38
583.719	280.38
583.929	286.38
584.139	271.38
584.35	260.38
584.56	270.38
584.77	254.38
584.981	269.38
585.191	264.38
585.401	270.38
585.611	280.38
585.821	271.38
586.032	281.38
586.242	262.38
586.452	257.38
586.662	249.38
586.872	263.38
587.082	264.38
587.292	269.38
587.502	261.38
587.713	249.38
587.923	267.38
588.133	266.38
588.343	248.38
588.553	257.38
588.762	266.38
588.972	266.38
589.182	280.38
589.392	271.38
589.602	264.38
589.812	258.38
590.022	283.38
590.232	264.38
590.441	260.38
590.651	253.38
590.861	268.38
591.071	252.38
591.281	257.38
591.49	254.38
591.7	263.38
591.91	265.38
592.119	259.38
592.329	251.38
592.539	267.38
592.748	244.38
592.958	255.38
593.167	267.38
593.377	244.38
593.587	282.38
593.796	289.38
594.006	270.38
594.215	259.38
594.424	260.38
594.634	245.38
594.843	263.38
595.053	261.38
595.262	266.38
595.472	255.38
595.681	269.38
595.89	248.38
596.1	243.38
596.309	237.38
596.518	242.38
596.727	235.38
596.937	238.38
597.146	248.38
597.355	243.38
597.564	240.38
597.774	255.38
597.983	254.38
598.192	234.38
598.401	214.38
598.61	240.38
598.819	234.38
599.028	222.38
599.237	235.38
599.446	251.38
599.655	238.38
599.864	240.38
600.073	231.38
600.282	233.38
600.491	239.38
600.7	217.38
600.909	231.38
601.118	234.38
601.327	215.38
601.536	208.38
601.745	235.38
601.953	240.38
602.162	224.38
602.371	222.38
602.58	198.38
602.789	210.38
602.997	221.38
603.206	231.38
603.415	220.38
603.623	224.38
603.832	232.38
604.041	223.38
604.249	209.38
604.458	218.38
604.666	215.38
604.875	224.38
605.084	221.38
605.292	236.38
605.501	220.38
605.709	213.38
605.918	213.38
606.126	211.38
606.334	224.38
606.543	224.38
606.751	210.38
606.96	217.38
607.168	214.38
607.376	223.38
607.585	233.38
607.793	215.38
608.001	236.38
608.21	226.38
608.418	209.38
608.626	212.38
608.834	212.38
609.043	213.38
609.251	216.38
609.459	218.38
609.667	230.38
609.875	223.38
610.083	229.38
610.291	219.38
610.499	217.38
610.707	214.38
610.916	220.38
611.124	218.38
611.332	208.38
611.54	227.38
611.748	234.38
611.955	215.38
612.163	206.38
612.371	200.38
612.579	198.38
612.787	223.38
612.995	196.38
613.203	220.38
613.411	220.38
613.618	218.38
613.826	218.38
614.034	210.38
614.242	196.38
614.449	218.38
614.657	214.38
614.865	206.38
615.072	220.38
615.28	199.38
615.488	204.38
615.695	197.38
615.903	192.38
616.111	214.38
616.318	229.38
616.526	200.38
616.733	202.38
616.941	208.38
617.148	213.38
617.356	206.38
617.563	213.38
617.771	188.38
617.978	217.38
618.185	215.38
618.393	197.38
618.6	196.38
618.807	196.38
619.015	206.38
619.222	221.38
619.429	199.38
619.637	218.38
619.844	216.38
620.051	215.38
620.258	203.38
620.466	209.38
620.673	192.38
620.88	202.38
621.087	204.38
621.294	197.38
621.501	197.38
621.708	203.38
621.915	204.38
622.122	206.38
622.329	194.38
622.536	197.38
622.743	185.38
622.95	195.38
623.157	200.38
623.364	202.38
623.571	207.38
623.778	212.38
623.985	203.38
624.192	204.38
624.399	206.38
624.606	184.38
624.812	180.38
625.019	183.38
625.226	198.38
625.433	195.38
625.639	182.38
625.846	200.38
626.053	184.38
626.259	196.38
626.466	198.38
626.673	197.38
626.879	183.38
627.086	190.38
627.293	196.38
627.499	186.38
627.706	198.38
627.912	182.38
628.119	180.38
628.325	182.38
628.532	186.38
628.738	177.38
628.945	207.38
629.151	182.38
629.357	171.38
629.564	172.38
629.77	175.38
629.976	169.38
630.183	188.38
630.389	180.38
630.595	175.38
630.802	182.38
631.008	186.38
631.214	172.38
631.42	181.38
631.627	186.38
631.833	174.38
632.039	187.38
632.245	184.38
632.451	170.38
632.657	169.38
632.863	168.38
633.069	182.38
633.275	159.38
633.481	169.38
633.688	154.38
633.893	171.38
634.099	181.38
634.305	166.38
634.511	174.38
634.717	169.38
634.923	168.38
635.129	173.38
635.335	170.38
635.541	170.38
635.747	162.38
635.952	178.38
636.158	176.38
636.364	162.38
636.57	182.38
636.775	170.38
636.981	173.38
637.187	180.38
637.392	170.38
637.598	163.38
637.804	166.38
638.009	164.38
638.215	173.38
638.421	164.38
638.626	167.38
638.832	158.38
639.037	151.38
639.243	164.38
639.448	164.38
639.654	180.38
639.859	160.38
640.065	143.38
640.27	159.38
640.475	166.38
640.681	160.38
640.886	163.38
641.091	160.38
641.297	161.38
641.502	155.38
641.707	159.38
641.913	148.38
642.118	175.38
642.323	151.38
642.528	146.38
642.733	162.38
642.939	149.38
643.144	164.38
643.349	159.38
643.554	157.38
643.759	151.38
643.964	154.38
644.169	163.38
644.374	152.38
644.579	150.38
644.784	156.38
644.989	168.38
645.194	150.38
645.399	147.38
645.604	153.38
645.809	151.38
646.014	138.38
646.219	158.38
646.423	170.38
646.628	162.38
646.833	151.38
647.038	157.38
647.243	168.38
647.447	162.38
647.652	156.38
647.857	148.38
648.062	158.38
648.266	145.38
648.471	162.38
648.676	148.38
648.88	145.38
649.085	169.38
649.289	169.38
649.494	164.38
649.698	171.38
649.903	161.38
650.107	164.38
650.312	152.38
650.516	147.38
650.721	154.38
650.925	143.38
651.13	123.38
651.334	144.38
651.539	139.38
651.743	131.38
651.947	136.38
652.152	140.38
652.356	135.38
652.56	131.38
652.764	143.38
652.969	157.38
653.173	140.38
653.377	122.38
653.581	125.38
653.785	140.38
653.99	118.38
654.194	111.38
654.398	138.38
654.602	130.38
654.806	120.38
655.01	149.38
655.214	139.38
655.418	125.38
655.622	149.38
655.826	136.38
656.03	127.38
656.234	135.38
656.438	124.38
656.642	119.38
656.846	124.38
657.049	127.38
657.253	105.38
657.457	128.38
657.661	110.38
657.865	120.38
658.068	102.38
658.272	104.38
658.476	122.38
658.68	109.38
658.883	103.38
659.087	95.38
659.291	92.38
659.494	96.38
659.698	95.38
659.901	103.38
660.105	95.38
660.309	94.38
660.512	83.38
660.716	96.38
660.919	93.38
661.123	100.38
661.326	92.38
661.53	103.38
661.733	79.38
661.936	80.38
662.14	87.38
662.343	94.38
662.546	86.38
662.75	91.38
662.953	93.38
663.156	70.38
663.36	96.38
663.563	90.38
663.766	87.38
663.969	79.38
664.173	88.38
664.376	76.38
664.579	83.38
664.782	79.38
664.985	94.38
665.188	85.38
665.391	86.38
665.594	89.38
665.797	82.38
666	86.38
666.203	66.38
666.406	85.38
666.609	80.38
666.812	102.38
667.015	87.38
667.218	81.38
667.421	88.38
667.624	86.38
667.827	73.38
668.03	75.38
668.232	74.38
668.435	79.38
668.638	77.38
668.841	85.38
669.043	78.38
669.246	98.38
669.449	96.38
669.651	68.38
669.854	91.38
670.057	88.38
670.259	78.38
670.462	99.38
670.665	92.38
670.867	77.38
671.07	81.38
671.272	82.38
671.475	87.38
671.677	85.38
671.88	72.38
672.082	73.38
672.284	89.38
672.487	90.38
672.689	90.38
672.892	70.38
