Data from 1986.PennyLincolnUp.Lamp.En5.5.200Scan.071819.P2_HRD10591_17-10-44-974.txt Node
Date: Thu Jul 18 17:10:44 EDT 2019
User: cochatt
Spectrometer: HR+D1059
Trigger mode: 1
Integration Time (sec): 1.000000E-1
Scans to average: 1
Electric dark correction enabled: true
Nonlinearity correction enabled: false
Boxcar width: 0
XAxis mode: Wavelengths
Number of Pixels in Spectrum: 2048
>>>>>Begin Spectral Data<<<<<
223.165	-13.94
223.4	-13.94
223.635	-13.94
223.869	-20.94
224.104	-21.94
224.338	-18.94
224.573	-13.94
224.808	-15.94
225.042	0.06
225.277	-16.94
225.511	5.06
225.746	7.06
225.98	7.06
226.215	5.06
226.449	8.06
226.683	15.06
226.918	38.06
227.152	37.06
227.387	44.06
227.621	44.06
227.856	39.06
228.09	52.06
228.324	56.06
228.559	73.06
228.793	75.06
229.027	129.06
229.262	110.06
229.496	131.06
229.73	137.06
229.964	167.06
230.199	129.06
230.433	120.06
230.667	118.06
230.901	138.06
231.136	108.06
231.37	115.06
231.604	102.06
231.838	118.06
232.072	125.06
232.306	109.06
232.541	126.06
232.775	111.06
233.009	133.06
233.243	126.06
233.477	112.06
233.711	129.06
233.945	122.06
234.179	119.06
234.413	108.06
234.647	120.06
234.881	120.06
235.115	136.06
235.349	130.06
235.583	118.06
235.817	126.06
236.051	125.06
236.285	108.06
236.519	145.06
236.753	127.06
236.987	141.06
237.221	194.06
237.455	258.06
237.689	216.06
237.922	164.06
238.156	140.06
238.39	138.06
238.624	135.06
238.858	129.06
239.091	122.06
239.325	121.06
239.559	124.06
239.793	129.06
240.027	138.06
240.26	134.06
240.494	166.06
240.728	153.06
240.961	146.06
241.195	156.06
241.429	149.06
241.662	144.06
241.896	152.06
242.13	143.06
242.363	143.06
242.597	134.06
242.83	127.06
243.064	134.06
243.298	144.06
243.531	140.06
243.765	152.06
243.998	151.06
244.232	148.06
244.465	155.06
244.699	144.06
244.932	141.06
245.166	153.06
245.399	148.06
245.633	150.06
245.866	164.06
246.099	142.06
246.333	158.06
246.566	158.06
246.8	152.06
247.033	167.06
247.266	151.06
247.5	171.06
247.733	189.06
247.966	185.06
248.2	178.06
248.433	181.06
248.666	167.06
248.899	187.06
249.133	219.06
249.366	219.06
249.599	216.06
249.832	196.06
250.066	193.06
250.299	176.06
250.532	222.06
250.765	222.06
250.998	258.06
251.231	267.06
251.465	239.06
251.698	219.06
251.931	213.06
252.164	214.06
252.397	218.06
252.63	209.06
252.863	214.06
253.096	236.06
253.329	250.06
253.562	230.06
253.795	261.06
254.028	260.06
254.261	248.06
254.494	245.06
254.727	263.06
254.96	298.06
255.193	307.06
255.426	270.06
255.659	253.06
255.892	265.06
256.124	250.06
256.357	253.06
256.59	259.06
256.823	253.06
257.056	217.06
257.289	232.06
257.521	245.06
257.754	211.06
257.987	223.06
258.22	224.06
258.452	230.06
258.685	221.06
258.918	210.06
259.151	211.06
259.383	227.06
259.616	229.06
259.849	233.06
260.081	249.06
260.314	266.06
260.547	282.06
260.779	258.06
261.012	232.06
261.244	243.06
261.477	234.06
261.71	230.06
261.942	234.06
262.175	258.06
262.407	259.06
262.64	252.06
262.872	231.06
263.105	226.06
263.337	214.06
263.57	215.06
263.802	214.06
264.035	216.06
264.267	226.06
264.499	217.06
264.732	217.06
264.964	206.06
265.197	230.06
265.429	231.06
265.661	226.06
265.894	210.06
266.126	216.06
266.358	215.06
266.591	211.06
266.823	236.06
267.055	242.06
267.287	232.06
267.52	235.06
267.752	210.06
267.984	224.06
268.216	220.06
268.448	257.06
268.681	239.06
268.913	257.06
269.145	251.06
269.377	290.06
269.609	283.06
269.841	277.06
270.073	281.06
270.306	283.06
270.538	336.06
270.77	323.06
271.002	320.06
271.234	319.06
271.466	312.06
271.698	303.06
271.93	329.06
272.162	330.06
272.394	332.06
272.626	319.06
272.858	311.06
273.09	282.06
273.322	289.06
273.553	274.06
273.785	278.06
274.017	284.06
274.249	257.06
274.481	253.06
274.713	273.06
274.945	262.06
275.176	259.06
275.408	266.06
275.64	259.06
275.872	270.06
276.104	265.06
276.335	274.06
276.567	285.06
276.799	281.06
277.031	304.06
277.262	328.06
277.494	328.06
277.726	298.06
277.957	305.06
278.189	285.06
278.421	291.06
278.652	280.06
278.884	265.06
279.115	259.06
279.347	259.06
279.579	268.06
279.81	280.06
280.042	260.06
280.273	274.06
280.505	283.06
280.736	249.06
280.968	265.06
281.199	259.06
281.431	255.06
281.662	249.06
281.894	252.06
282.125	259.06
282.356	290.06
282.588	305.06
282.819	283.06
283.051	263.06
283.282	268.06
283.513	264.06
283.745	269.06
283.976	299.06
284.207	271.06
284.439	295.06
284.67	296.06
284.901	279.06
285.132	260.06
285.364	249.06
285.595	256.06
285.826	261.06
286.057	280.06
286.288	257.06
286.52	281.06
286.751	265.06
286.982	272.06
287.213	279.06
287.444	261.06
287.675	272.06
287.906	278.06
288.138	304.06
288.369	311.06
288.6	307.06
288.831	308.06
289.062	275.06
289.293	283.06
289.524	256.06
289.755	274.06
289.986	269.06
290.217	283.06
290.448	269.06
290.679	274.06
290.91	285.06
291.141	293.06
291.371	279.06
291.602	293.06
291.833	279.06
292.064	274.06
292.295	258.06
292.526	262.06
292.757	284.06
292.987	263.06
293.218	273.06
293.449	279.06
293.68	274.06
293.91	279.06
294.141	262.06
294.372	275.06
294.603	263.06
294.833	263.06
295.064	286.06
295.295	280.06
295.525	271.06
295.756	288.06
295.987	313.06
296.217	306.06
296.448	328.06
296.679	311.06
296.909	277.06
297.14	290.06
297.37	273.06
297.601	304.06
297.831	290.06
298.062	296.06
298.292	276.06
298.523	281.06
298.753	275.06
298.984	279.06
299.214	299.06
299.445	305.06
299.675	303.06
299.905	314.06
300.136	301.06
300.366	289.06
300.597	293.06
300.827	283.06
301.057	292.06
301.288	301.06
301.518	306.06
301.748	309.06
301.979	297.06
302.209	311.06
302.439	310.06
302.669	303.06
302.9	309.06
303.13	305.06
303.36	315.06
303.59	313.06
303.82	319.06
304.051	327.06
304.281	302.06
304.511	305.06
304.741	323.06
304.971	309.06
305.201	304.06
305.431	304.06
305.661	294.06
305.891	299.06
306.121	312.06
306.352	324.06
306.582	321.06
306.812	292.06
307.042	325.06
307.272	313.06
307.502	310.06
307.731	317.06
307.961	316.06
308.191	333.06
308.421	318.06
308.651	326.06
308.881	334.06
309.111	330.06
309.341	325.06
309.571	340.06
309.8	354.06
310.03	350.06
310.26	381.06
310.49	380.06
310.72	388.06
310.949	390.06
311.179	392.06
311.409	375.06
311.639	369.06
311.868	380.06
312.098	394.06
312.328	366.06
312.557	389.06
312.787	419.06
313.017	407.06
313.246	369.06
313.476	377.06
313.706	385.06
313.935	376.06
314.165	392.06
314.394	384.06
314.624	400.06
314.853	390.06
315.083	371.06
315.312	360.06
315.542	380.06
315.771	363.06
316.001	355.06
316.23	367.06
316.46	361.06
316.689	359.06
316.919	352.06
317.148	379.06
317.377	385.06
317.607	371.06
317.836	363.06
318.065	351.06
318.295	362.06
318.524	360.06
318.753	365.06
318.983	359.06
319.212	372.06
319.441	373.06
319.67	371.06
319.9	383.06
320.129	370.06
320.358	351.06
320.587	367.06
320.816	400.06
321.046	377.06
321.275	383.06
321.504	367.06
321.733	403.06
321.962	441.06
322.191	426.06
322.42	441.06
322.649	439.06
322.878	460.06
323.108	464.06
323.337	498.06
323.566	533.06
323.795	588.06
324.024	623.06
324.253	759.06
324.482	1073.06
324.71	1621.06
324.939	2357.06
325.168	2075.06
325.397	1089.06
325.626	729.06
325.855	601.06
326.084	551.06
326.313	522.06
326.542	559.06
326.77	583.06
326.999	670.06
327.228	949.06
327.457	1451.06
327.686	1801.06
327.914	1241.06
328.143	833.06
328.372	674.06
328.6	639.06
328.829	632.06
329.058	610.06
329.287	622.06
329.515	607.06
329.744	557.06
329.972	540.06
330.201	554.06
330.43	610.06
330.658	639.06
330.887	691.06
331.115	647.06
331.344	554.06
331.572	503.06
331.801	489.06
332.03	494.06
332.258	470.06
332.486	450.06
332.715	444.06
332.943	432.06
333.172	414.06
333.4	449.06
333.629	442.06
333.857	455.06
334.085	475.06
334.314	482.06
334.542	539.06
334.771	556.06
334.999	474.06
335.227	449.06
335.455	441.06
335.684	444.06
335.912	429.06
336.14	421.06
336.369	411.06
336.597	438.06
336.825	435.06
337.053	411.06
337.281	408.06
337.51	407.06
337.738	407.06
337.966	412.06
338.194	426.06
338.422	421.06
338.65	410.06
338.878	423.06
339.106	394.06
339.334	417.06
339.562	395.06
339.79	406.06
340.018	414.06
340.246	401.06
340.474	409.06
340.702	406.06
340.93	409.06
341.158	391.06
341.386	402.06
341.614	395.06
341.842	421.06
342.07	400.06
342.298	399.06
342.526	398.06
342.754	391.06
342.981	377.06
343.209	381.06
343.437	393.06
343.665	377.06
343.893	395.06
344.12	374.06
344.348	377.06
344.576	419.06
344.804	395.06
345.031	415.06
345.259	427.06
345.487	438.06
345.714	405.06
345.942	389.06
346.17	397.06
346.397	387.06
346.625	390.06
346.853	388.06
347.08	402.06
347.308	394.06
347.535	407.06
347.763	413.06
347.99	411.06
348.218	414.06
348.445	426.06
348.673	424.06
348.9	390.06
349.128	394.06
349.355	385.06
349.583	375.06
349.81	391.06
350.037	384.06
350.265	375.06
350.492	391.06
350.72	355.06
350.947	401.06
351.174	392.06
351.402	408.06
351.629	410.06
351.856	393.06
352.083	409.06
352.311	418.06
352.538	414.06
352.765	426.06
352.992	421.06
353.22	416.06
353.447	401.06
353.674	407.06
353.901	381.06
354.128	370.06
354.355	353.06
354.583	373.06
354.81	365.06
355.037	352.06
355.264	351.06
355.491	364.06
355.718	360.06
355.945	360.06
356.172	352.06
356.399	352.06
356.626	361.06
356.853	348.06
357.08	339.06
357.307	359.06
357.534	347.06
357.761	343.06
357.988	376.06
358.215	363.06
358.441	363.06
358.668	357.06
358.895	362.06
359.122	367.06
359.349	385.06
359.576	407.06
359.802	425.06
360.029	433.06
360.256	465.06
360.483	445.06
360.709	408.06
360.936	404.06
361.163	391.06
361.39	399.06
361.616	386.06
361.843	395.06
362.07	382.06
362.296	390.06
362.523	383.06
362.749	403.06
362.976	392.06
363.203	368.06
363.429	382.06
363.656	389.06
363.882	386.06
364.109	387.06
364.335	365.06
364.562	384.06
364.788	369.06
365.015	373.06
365.241	384.06
365.468	394.06
365.694	365.06
365.92	376.06
366.147	377.06
366.373	380.06
366.599	365.06
366.826	349.06
367.052	351.06
367.278	351.06
367.505	371.06
367.731	371.06
367.957	368.06
368.184	382.06
368.41	371.06
368.636	389.06
368.862	390.06
369.089	381.06
369.315	360.06
369.541	347.06
369.767	365.06
369.993	359.06
370.219	356.06
370.445	362.06
370.672	348.06
370.898	349.06
371.124	359.06
371.35	343.06
371.576	353.06
371.802	359.06
372.028	368.06
372.254	354.06
372.48	343.06
372.706	344.06
372.932	347.06
373.158	358.06
373.384	374.06
373.61	350.06
373.835	370.06
374.061	342.06
374.287	370.06
374.513	366.06
374.739	380.06
374.965	363.06
375.191	373.06
375.416	365.06
375.642	349.06
375.868	381.06
376.094	364.06
376.319	362.06
376.545	379.06
376.771	328.06
376.997	345.06
377.222	336.06
377.448	334.06
377.674	345.06
377.899	349.06
378.125	332.06
378.35	339.06
378.576	348.06
378.802	345.06
379.027	354.06
379.253	361.06
379.478	359.06
379.704	348.06
379.929	357.06
380.155	363.06
380.38	366.06
380.606	338.06
380.831	361.06
381.057	358.06
381.282	339.06
381.507	352.06
381.733	363.06
381.958	363.06
382.184	358.06
382.409	362.06
382.634	361.06
382.86	350.06
383.085	347.06
383.31	378.06
383.535	362.06
383.761	350.06
383.986	364.06
384.211	352.06
384.436	368.06
384.662	365.06
384.887	360.06
385.112	357.06
385.337	350.06
385.562	358.06
385.787	375.06
386.013	373.06
386.238	387.06
386.463	382.06
386.688	383.06
386.913	366.06
387.138	377.06
387.363	375.06
387.588	368.06
387.813	364.06
388.038	362.06
388.263	373.06
388.488	377.06
388.713	370.06
388.938	373.06
389.163	359.06
389.387	369.06
389.612	357.06
389.837	373.06
390.062	377.06
390.287	366.06
390.512	369.06
390.736	375.06
390.961	365.06
391.186	362.06
391.411	379.06
391.636	384.06
391.86	378.06
392.085	366.06
392.31	345.06
392.534	383.06
392.759	383.06
392.984	380.06
393.208	391.06
393.433	378.06
393.658	382.06
393.882	379.06
394.107	380.06
394.331	373.06
394.556	364.06
394.78	379.06
395.005	353.06
395.229	373.06
395.454	381.06
395.678	393.06
395.903	386.06
396.127	415.06
396.352	429.06
396.576	375.06
396.801	375.06
397.025	383.06
397.249	406.06
397.474	392.06
397.698	404.06
397.922	403.06
398.147	407.06
398.371	422.06
398.595	403.06
398.82	413.06
399.044	398.06
399.268	423.06
399.492	447.06
399.717	446.06
399.941	478.06
400.165	519.06
400.389	519.06
400.613	482.06
400.837	451.06
401.062	437.06
401.286	423.06
401.51	397.06
401.734	423.06
401.958	438.06
402.182	440.06
402.406	442.06
402.63	435.06
402.854	425.06
403.078	426.06
403.302	423.06
403.526	435.06
403.75	424.06
403.974	429.06
404.198	432.06
404.422	435.06
404.645	445.06
404.869	437.06
405.093	470.06
405.317	537.06
405.541	545.06
405.765	498.06
405.988	454.06
406.212	477.06
406.436	497.06
406.66	508.06
406.883	475.06
407.107	503.06
407.331	542.06
407.555	577.06
407.778	581.06
408.002	531.06
408.226	521.06
408.449	473.06
408.673	484.06
408.896	512.06
409.12	557.06
409.344	523.06
409.567	458.06
409.791	465.06
410.014	466.06
410.238	439.06
410.461	430.06
410.685	438.06
410.908	453.06
411.132	481.06
411.355	522.06
411.578	504.06
411.802	448.06
412.025	438.06
412.249	443.06
412.472	445.06
412.695	516.06
412.919	497.06
413.142	436.06
413.365	441.06
413.589	435.06
413.812	411.06
414.035	429.06
414.258	410.06
414.482	405.06
414.705	429.06
414.928	424.06
415.151	393.06
415.374	395.06
415.597	384.06
415.821	409.06
416.044	410.06
416.267	423.06
416.49	416.06
416.713	416.06
416.936	401.06
417.159	429.06
417.382	413.06
417.605	410.06
417.828	444.06
418.051	466.06
418.274	425.06
418.497	413.06
418.72	432.06
418.943	428.06
419.166	439.06
419.389	428.06
419.611	436.06
419.834	449.06
420.057	454.06
420.28	454.06
420.503	446.06
420.726	425.06
420.948	457.06
421.171	491.06
421.394	546.06
421.617	474.06
421.839	467.06
422.062	445.06
422.285	473.06
422.507	522.06
422.73	575.06
422.953	574.06
423.175	498.06
423.398	471.06
423.621	466.06
423.843	483.06
424.066	481.06
424.288	473.06
424.511	493.06
424.733	578.06
424.956	641.06
425.178	603.06
425.401	603.06
425.623	646.06
425.846	553.06
426.068	523.06
426.291	483.06
426.513	493.06
426.735	523.06
426.958	547.06
427.18	592.06
427.402	729.06
427.625	834.06
427.847	765.06
428.069	648.06
428.292	571.06
428.514	509.06
428.736	483.06
428.958	473.06
429.181	463.06
429.403	458.06
429.625	479.06
429.847	501.06
430.069	560.06
430.292	565.06
430.514	475.06
430.736	430.06
430.958	434.06
431.18	439.06
431.402	428.06
431.624	423.06
431.846	408.06
432.068	405.06
432.29	426.06
432.512	423.06
432.734	433.06
432.956	431.06
433.178	432.06
433.4	443.06
433.622	435.06
433.844	427.06
434.066	426.06
434.287	404.06
434.509	423.06
434.731	419.06
434.953	421.06
435.175	479.06
435.397	480.06
435.618	493.06
435.84	548.06
436.062	620.06
436.284	687.06
436.505	585.06
436.727	523.06
436.949	485.06
437.17	461.06
437.392	461.06
437.614	468.06
437.835	507.06
438.057	617.06
438.278	685.06
438.5	711.06
438.721	750.06
438.943	752.06
439.165	604.06
439.386	532.06
439.608	546.06
439.829	531.06
440.05	546.06
440.272	590.06
440.493	566.06
440.715	505.06
440.936	473.06
441.158	465.06
441.379	453.06
441.6	491.06
441.822	486.06
442.043	550.06
442.264	630.06
442.486	659.06
442.707	553.06
442.928	517.06
443.149	543.06
443.371	548.06
443.592	561.06
443.813	673.06
444.034	735.06
444.255	618.06
444.476	535.06
444.698	495.06
444.919	494.06
445.14	566.06
445.361	527.06
445.582	525.06
445.803	591.06
446.024	694.06
446.245	708.06
446.466	653.06
446.687	559.06
446.908	509.06
447.129	477.06
447.35	441.06
447.571	443.06
447.792	437.06
448.013	453.06
448.234	491.06
448.455	531.06
448.675	646.06
448.896	752.06
449.117	659.06
449.338	614.06
449.559	687.06
449.779	780.06
450	623.06
450.221	523.06
450.442	486.06
450.662	480.06
450.883	464.06
451.104	508.06
451.324	479.06
451.545	463.06
451.766	431.06
451.986	423.06
452.207	399.06
452.428	413.06
452.648	427.06
452.869	430.06
453.089	445.06
453.31	438.06
453.53	440.06
453.751	418.06
453.971	437.06
454.192	434.06
454.412	447.06
454.633	430.06
454.853	411.06
455.073	404.06
455.294	464.06
455.514	519.06
455.734	475.06
455.955	411.06
456.175	392.06
456.395	377.06
456.616	379.06
456.836	377.06
457.056	370.06
457.276	395.06
457.497	384.06
457.717	368.06
457.937	389.06
458.157	410.06
458.377	395.06
458.598	417.06
458.818	495.06
459.038	577.06
459.258	594.06
459.478	507.06
459.698	454.06
459.918	411.06
460.138	417.06
460.358	419.06
460.578	401.06
460.798	416.06
461.018	422.06
461.238	413.06
461.458	411.06
461.678	402.06
461.898	411.06
462.118	417.06
462.338	422.06
462.558	412.06
462.777	441.06
462.997	417.06
463.217	427.06
463.437	430.06
463.657	432.06
463.876	415.06
464.096	458.06
464.316	411.06
464.536	462.06
464.755	433.06
464.975	452.06
465.195	523.06
465.414	600.06
465.634	509.06
465.854	465.06
466.073	444.06
466.293	411.06
466.512	410.06
466.732	404.06
466.951	402.06
467.171	407.06
467.391	404.06
467.61	428.06
467.829	435.06
468.049	435.06
468.268	417.06
468.488	423.06
468.707	414.06
468.927	401.06
469.146	418.06
469.365	419.06
469.585	408.06
469.804	420.06
470.023	445.06
470.243	411.06
470.462	425.06
470.681	444.06
470.901	458.06
471.12	414.06
471.339	403.06
471.558	430.06
471.777	423.06
471.997	402.06
472.216	427.06
472.435	483.06
472.654	448.06
472.873	446.06
473.092	407.06
473.311	433.06
473.53	415.06
473.749	424.06
473.968	465.06
474.187	598.06
474.406	598.06
474.625	508.06
474.844	453.06
475.063	417.06
475.282	449.06
475.501	425.06
475.72	431.06
475.939	447.06
476.158	437.06
476.377	436.06
476.596	418.06
476.814	439.06
477.033	437.06
477.252	441.06
477.471	431.06
477.69	464.06
477.908	460.06
478.127	457.06
478.346	437.06
478.564	454.06
478.783	463.06
479.002	443.06
479.22	465.06
479.439	499.06
479.658	505.06
479.876	517.06
480.095	515.06
480.313	532.06
480.532	537.06
480.751	517.06
480.969	527.06
481.188	592.06
481.406	636.06
481.624	578.06
481.843	523.06
482.061	513.06
482.28	507.06
482.498	513.06
482.717	498.06
482.935	504.06
483.153	512.06
483.372	494.06
483.59	502.06
483.808	509.06
484.027	514.06
484.245	498.06
484.463	520.06
484.681	501.06
484.9	509.06
485.118	526.06
485.336	509.06
485.554	531.06
485.772	521.06
485.99	497.06
486.209	530.06
486.427	531.06
486.645	532.06
486.863	545.06
487.081	560.06
487.299	553.06
487.517	551.06
487.735	537.06
487.953	537.06
488.171	540.06
488.389	545.06
488.607	525.06
488.825	517.06
489.043	537.06
489.261	542.06
489.479	559.06
489.696	531.06
489.914	553.06
490.132	572.06
490.35	555.06
490.568	561.06
490.786	575.06
491.003	567.06
491.221	592.06
491.439	615.06
491.657	624.06
491.874	618.06
492.092	605.06
492.31	624.06
492.527	601.06
492.745	631.06
492.963	636.06
493.18	621.06
493.398	652.06
493.615	660.06
493.833	644.06
494.05	631.06
494.268	669.06
494.485	626.06
494.703	622.06
494.92	623.06
495.138	635.06
495.355	660.06
495.573	663.06
495.79	649.06
496.008	644.06
496.225	634.06
496.442	645.06
496.66	649.06
496.877	659.06
497.094	638.06
497.312	661.06
497.529	649.06
497.746	653.06
497.963	671.06
498.181	709.06
498.398	678.06
498.615	652.06
498.832	696.06
499.049	713.06
499.267	692.06
499.484	721.06
499.701	755.06
499.918	738.06
500.135	761.06
500.352	798.06
500.569	757.06
500.786	779.06
501.003	797.06
501.22	787.06
501.437	767.06
501.654	783.06
501.871	765.06
502.088	770.06
502.305	730.06
502.522	717.06
502.739	690.06
502.956	670.06
503.172	655.06
503.389	689.06
503.606	669.06
503.823	659.06
504.04	681.06
504.256	663.06
504.473	646.06
504.69	646.06
504.907	641.06
505.123	653.06
505.34	630.06
505.557	638.06
505.773	614.06
505.99	627.06
506.207	622.06
506.423	649.06
506.64	637.06
506.856	625.06
507.073	630.06
507.289	617.06
507.506	629.06
507.722	642.06
507.939	660.06
508.155	633.06
508.372	602.06
508.588	619.06
508.805	605.06
509.021	609.06
509.238	614.06
509.454	644.06
509.67	639.06
509.887	619.06
510.103	599.06
510.319	625.06
510.536	747.06
510.752	1303.06
510.968	1023.06
511.184	652.06
511.401	607.06
511.617	609.06
511.833	583.06
512.049	571.06
512.265	577.06
512.481	602.06
512.698	578.06
512.914	588.06
513.13	583.06
513.346	559.06
513.562	570.06
513.778	613.06
513.994	615.06
514.21	603.06
514.426	649.06
514.642	704.06
514.858	731.06
515.074	786.06
515.29	962.06
515.506	1447.06
515.721	1174.06
515.937	763.06
516.153	647.06
516.369	633.06
516.585	595.06
516.801	582.06
517.016	591.06
517.232	574.06
517.448	576.06
517.664	594.06
517.879	574.06
518.095	567.06
518.311	586.06
518.527	551.06
518.742	569.06
518.958	587.06
519.173	609.06
519.389	570.06
519.605	574.06
519.82	578.06
520.036	601.06
520.251	654.06
520.467	663.06
520.682	657.06
520.898	687.06
521.113	691.06
521.329	785.06
521.544	874.06
521.76	1147.06
521.975	1998.06
522.19	1937.06
522.406	1025.06
522.621	727.06
522.836	608.06
523.052	618.06
523.267	572.06
523.482	543.06
523.698	550.06
523.913	552.06
524.128	558.06
524.343	527.06
524.559	506.06
524.774	483.06
524.989	502.06
525.204	487.06
525.419	519.06
525.634	508.06
525.849	492.06
526.064	477.06
526.28	485.06
526.495	488.06
526.71	465.06
526.925	454.06
527.14	460.06
527.355	454.06
527.57	458.06
527.785	454.06
527.999	464.06
528.214	449.06
528.429	486.06
528.644	473.06
528.859	463.06
529.074	475.06
529.289	488.06
529.503	575.06
529.718	551.06
529.933	521.06
530.148	487.06
530.363	483.06
530.577	477.06
530.792	458.06
531.007	465.06
531.221	454.06
531.436	444.06
531.651	462.06
531.865	441.06
532.08	446.06
532.295	440.06
532.509	435.06
532.724	426.06
532.938	416.06
533.153	441.06
533.367	439.06
533.582	423.06
533.796	415.06
534.011	423.06
534.225	421.06
534.44	433.06
534.654	409.06
534.868	428.06
535.083	433.06
535.297	458.06
535.511	443.06
535.726	437.06
535.94	446.06
536.154	426.06
536.369	434.06
536.583	429.06
536.797	407.06
537.011	430.06
537.225	415.06
537.44	417.06
537.654	420.06
537.868	407.06
538.082	403.06
538.296	412.06
538.51	434.06
538.724	422.06
538.938	416.06
539.153	413.06
539.367	454.06
539.581	445.06
539.795	431.06
540.009	412.06
540.222	428.06
540.436	427.06
540.65	412.06
540.864	422.06
541.078	437.06
541.292	443.06
541.506	402.06
541.72	425.06
541.934	413.06
542.147	431.06
542.361	417.06
542.575	397.06
542.789	411.06
543.002	404.06
543.216	413.06
543.43	433.06
543.644	418.06
543.857	415.06
544.071	411.06
544.285	413.06
544.498	400.06
544.712	402.06
544.925	412.06
545.139	413.06
545.352	390.06
545.566	406.06
545.779	374.06
545.993	384.06
546.206	400.06
546.42	398.06
546.633	404.06
546.847	393.06
547.06	394.06
547.274	401.06
547.487	387.06
547.7	402.06
547.914	410.06
548.127	380.06
548.34	391.06
548.554	384.06
548.767	365.06
548.98	371.06
549.193	380.06
549.407	389.06
549.62	373.06
549.833	392.06
550.046	386.06
550.259	390.06
550.473	371.06
550.686	382.06
550.899	383.06
551.112	396.06
551.325	377.06
551.538	378.06
551.751	376.06
551.964	366.06
552.177	363.06
552.39	371.06
552.603	380.06
552.816	386.06
553.029	391.06
553.242	397.06
553.455	413.06
553.667	399.06
553.88	396.06
554.093	409.06
554.306	395.06
554.519	379.06
554.732	382.06
554.944	379.06
555.157	359.06
555.37	373.06
555.583	373.06
555.795	358.06
556.008	371.06
556.221	376.06
556.433	364.06
556.646	358.06
556.859	354.06
557.071	358.06
557.284	348.06
557.496	352.06
557.709	354.06
557.921	345.06
558.134	355.06
558.346	364.06
558.559	357.06
558.771	349.06
558.984	370.06
559.196	354.06
559.409	337.06
559.621	338.06
559.833	344.06
560.046	369.06
560.258	342.06
560.47	333.06
560.683	353.06
560.895	339.06
561.107	371.06
561.32	362.06
561.532	335.06
561.744	339.06
561.956	358.06
562.168	350.06
562.381	338.06
562.593	346.06
562.805	353.06
563.017	345.06
563.229	326.06
563.441	367.06
563.653	351.06
563.865	359.06
564.077	347.06
564.289	342.06
564.501	355.06
564.713	350.06
564.925	366.06
565.137	351.06
565.349	343.06
565.561	363.06
565.773	348.06
565.985	357.06
566.197	361.06
566.408	373.06
566.62	366.06
566.832	387.06
567.044	381.06
567.255	390.06
567.467	391.06
567.679	385.06
567.891	393.06
568.102	392.06
568.314	374.06
568.526	383.06
568.737	368.06
568.949	365.06
569.161	343.06
569.372	361.06
569.584	336.06
569.795	350.06
570.007	374.06
570.218	416.06
570.43	393.06
570.641	349.06
570.853	321.06
571.064	328.06
571.276	336.06
571.487	336.06
571.698	326.06
571.91	309.06
572.121	336.06
572.333	317.06
572.544	299.06
572.755	319.06
572.966	312.06
573.178	322.06
573.389	324.06
573.6	313.06
573.811	307.06
574.023	291.06
574.234	296.06
574.445	302.06
574.656	302.06
574.867	310.06
575.078	281.06
575.289	292.06
575.501	288.06
575.712	306.06
575.923	294.06
576.134	312.06
576.345	302.06
576.556	319.06
576.767	306.06
576.978	302.06
577.188	300.06
577.399	276.06
577.61	309.06
577.821	301.06
578.032	294.06
578.243	345.06
578.454	637.06
578.665	460.06
578.875	329.06
579.086	302.06
579.297	300.06
579.508	277.06
579.718	309.06
579.929	274.06
580.14	281.06
580.35	287.06
580.561	285.06
580.772	284.06
580.982	285.06
581.193	287.06
581.403	272.06
581.614	283.06
581.825	279.06
582.035	283.06
582.246	278.06
582.456	254.06
582.667	270.06
582.877	267.06
583.087	278.06
583.298	275.06
583.508	293.06
583.719	286.06
583.929	267.06
584.139	267.06
584.35	269.06
584.56	290.06
584.77	271.06
584.981	271.06
585.191	286.06
585.401	284.06
585.611	271.06
585.821	266.06
586.032	272.06
586.242	255.06
586.452	269.06
586.662	263.06
586.872	269.06
587.082	265.06
587.292	279.06
587.502	283.06
587.713	267.06
587.923	272.06
588.133	268.06
588.343	262.06
588.553	280.06
588.762	258.06
588.972	273.06
589.182	297.06
589.392	282.06
589.602	273.06
589.812	265.06
590.022	271.06
590.232	262.06
590.441	258.06
590.651	266.06
590.861	251.06
591.071	242.06
591.281	286.06
591.49	256.06
591.7	267.06
591.91	269.06
592.119	257.06
592.329	273.06
592.539	273.06
592.748	290.06
592.958	262.06
593.167	262.06
593.377	258.06
593.587	268.06
593.796	272.06
594.006	266.06
594.215	250.06
594.424	273.06
594.634	256.06
594.843	270.06
595.053	264.06
595.262	257.06
595.472	248.06
595.681	248.06
595.89	254.06
596.1	247.06
596.309	264.06
596.518	259.06
596.727	267.06
596.937	242.06
597.146	256.06
597.355	251.06
597.564	249.06
597.774	250.06
597.983	248.06
598.192	240.06
598.401	241.06
598.61	235.06
598.819	253.06
599.028	238.06
599.237	231.06
599.446	234.06
599.655	265.06
599.864	249.06
600.073	253.06
600.282	225.06
600.491	232.06
600.7	259.06
600.909	224.06
601.118	231.06
601.327	220.06
601.536	225.06
601.745	235.06
601.953	237.06
602.162	242.06
602.371	238.06
602.58	236.06
602.789	239.06
602.997	232.06
603.206	224.06
603.415	228.06
603.623	224.06
603.832	233.06
604.041	225.06
604.249	213.06
604.458	234.06
604.666	211.06
604.875	226.06
605.084	223.06
605.292	227.06
605.501	215.06
605.709	232.06
605.918	229.06
606.126	213.06
606.334	201.06
606.543	215.06
606.751	223.06
606.96	223.06
607.168	220.06
607.376	242.06
607.585	223.06
607.793	208.06
608.001	223.06
608.21	221.06
608.418	224.06
608.626	221.06
608.834	235.06
609.043	223.06
609.251	212.06
609.459	234.06
609.667	225.06
609.875	226.06
610.083	223.06
610.291	222.06
610.499	217.06
610.707	230.06
610.916	217.06
611.124	207.06
611.332	226.06
611.54	236.06
611.748	220.06
611.955	221.06
612.163	229.06
612.371	219.06
612.579	220.06
612.787	203.06
612.995	221.06
613.203	218.06
613.411	226.06
613.618	240.06
613.826	213.06
614.034	210.06
614.242	216.06
614.449	224.06
614.657	211.06
614.865	213.06
615.072	216.06
615.28	217.06
615.488	230.06
615.695	198.06
615.903	194.06
616.111	205.06
616.318	209.06
616.526	226.06
616.733	224.06
616.941	208.06
617.148	206.06
617.356	216.06
617.563	221.06
617.771	205.06
617.978	205.06
618.185	203.06
618.393	225.06
618.6	221.06
618.807	216.06
619.015	197.06
619.222	185.06
619.429	202.06
619.637	226.06
619.844	206.06
620.051	202.06
620.258	204.06
620.466	220.06
620.673	201.06
620.88	203.06
621.087	216.06
621.294	193.06
621.501	194.06
621.708	215.06
621.915	207.06
622.122	214.06
622.329	205.06
622.536	207.06
622.743	187.06
622.95	183.06
623.157	195.06
623.364	206.06
623.571	210.06
623.778	204.06
623.985	217.06
624.192	206.06
624.399	186.06
624.606	206.06
624.812	201.06
625.019	197.06
625.226	183.06
625.433	205.06
625.639	180.06
625.846	188.06
626.053	177.06
626.259	182.06
626.466	205.06
626.673	189.06
626.879	187.06
627.086	202.06
627.293	209.06
627.499	206.06
627.706	187.06
627.912	189.06
628.119	205.06
628.325	204.06
628.532	191.06
628.738	197.06
628.945	181.06
629.151	192.06
629.357	198.06
629.564	197.06
629.77	177.06
629.976	173.06
630.183	178.06
630.389	190.06
630.595	200.06
630.802	186.06
631.008	190.06
631.214	173.06
631.42	181.06
631.627	177.06
631.833	181.06
632.039	173.06
632.245	181.06
632.451	175.06
632.657	178.06
632.863	175.06
633.069	171.06
633.275	171.06
633.481	175.06
633.688	187.06
633.893	189.06
634.099	178.06
634.305	183.06
634.511	183.06
634.717	189.06
634.923	171.06
635.129	170.06
635.335	166.06
635.541	171.06
635.747	177.06
635.952	181.06
636.158	181.06
636.364	181.06
636.57	181.06
636.775	187.06
636.981	176.06
637.187	165.06
637.392	165.06
637.598	179.06
637.804	179.06
638.009	181.06
638.215	167.06
638.421	165.06
638.626	176.06
638.832	175.06
639.037	174.06
639.243	173.06
639.448	150.06
639.654	155.06
639.859	172.06
640.065	189.06
640.27	161.06
640.475	163.06
640.681	153.06
640.886	174.06
641.091	166.06
641.297	178.06
641.502	165.06
641.707	171.06
641.913	177.06
642.118	157.06
642.323	148.06
642.528	167.06
642.733	159.06
642.939	169.06
643.144	169.06
643.349	164.06
643.554	168.06
643.759	167.06
643.964	163.06
644.169	157.06
644.374	157.06
644.579	160.06
644.784	163.06
644.989	165.06
645.194	165.06
645.399	151.06
645.604	146.06
645.809	152.06
646.014	139.06
646.219	153.06
646.423	151.06
646.628	151.06
646.833	150.06
647.038	140.06
647.243	174.06
647.447	146.06
647.652	162.06
647.857	151.06
648.062	172.06
648.266	166.06
648.471	149.06
648.676	156.06
648.88	159.06
649.085	174.06
649.289	163.06
649.494	174.06
649.698	177.06
649.903	173.06
650.107	181.06
650.312	169.06
650.516	169.06
650.721	162.06
650.925	153.06
651.13	158.06
651.334	144.06
651.539	133.06
651.743	138.06
651.947	137.06
652.152	144.06
652.356	147.06
652.56	127.06
652.764	139.06
652.969	146.06
653.173	159.06
653.377	133.06
653.581	130.06
653.785	137.06
653.99	157.06
654.194	124.06
654.398	124.06
654.602	153.06
654.806	141.06
655.01	133.06
655.214	152.06
655.418	135.06
655.622	130.06
655.826	133.06
656.03	135.06
656.234	134.06
656.438	140.06
656.642	135.06
656.846	130.06
657.049	138.06
657.253	122.06
657.457	128.06
657.661	114.06
657.865	110.06
658.068	121.06
658.272	104.06
658.476	119.06
658.68	107.06
658.883	123.06
659.087	98.06
659.291	104.06
659.494	95.06
659.698	99.06
659.901	101.06
660.105	105.06
660.309	108.06
660.512	97.06
660.716	98.06
660.919	92.06
661.123	97.06
661.326	100.06
661.53	82.06
661.733	94.06
661.936	96.06
662.14	92.06
662.343	104.06
662.546	97.06
662.75	95.06
662.953	102.06
663.156	75.06
663.36	106.06
663.563	98.06
663.766	84.06
663.969	102.06
664.173	91.06
664.376	85.06
664.579	83.06
664.782	91.06
664.985	90.06
665.188	89.06
665.391	101.06
665.594	91.06
665.797	82.06
666	75.06
666.203	88.06
666.406	86.06
666.609	91.06
666.812	95.06
667.015	89.06
667.218	101.06
667.421	92.06
667.624	94.06
667.827	88.06
668.03	89.06
668.232	86.06
668.435	76.06
668.638	85.06
668.841	79.06
669.043	72.06
669.246	90.06
669.449	96.06
669.651	87.06
669.854	82.06
670.057	73.06
670.259	82.06
670.462	87.06
670.665	86.06
670.867	81.06
671.07	100.06
671.272	93.06
671.475	90.06
671.677	93.06
671.88	89.06
672.082	85.06
672.284	90.06
672.487	85.06
672.689	82.06
672.892	88.06
