Data from 1986.PennyLincolnUp.Lamp.En5.5.200Scan.071819.P2_HRD10591_17-10-31-974.txt Node
Date: Thu Jul 18 17:10:31 EDT 2019
User: cochatt
Spectrometer: HR+D1059
Trigger mode: 1
Integration Time (sec): 1.000000E-1
Scans to average: 1
Electric dark correction enabled: true
Nonlinearity correction enabled: false
Boxcar width: 0
XAxis mode: Wavelengths
Number of Pixels in Spectrum: 2048
>>>>>Begin Spectral Data<<<<<
223.165	-21.12
223.4	-21.12
223.635	-21.12
223.869	-15.12
224.104	-21.12
224.338	-16.12
224.573	-6.12
224.808	-21.12
225.042	-10.12
225.277	-9.12
225.511	6.88
225.746	3.88
225.98	15.88
226.215	11.88
226.449	22.88
226.683	14.88
226.918	13.88
227.152	29.88
227.387	28.88
227.621	35.88
227.856	38.88
228.09	56.88
228.324	50.88
228.559	61.88
228.793	77.88
229.027	98.88
229.262	114.88
229.496	120.88
229.73	135.88
229.964	150.88
230.199	130.88
230.433	101.88
230.667	119.88
230.901	118.88
231.136	120.88
231.37	112.88
231.604	112.88
231.838	109.88
232.072	107.88
232.306	124.88
232.541	121.88
232.775	103.88
233.009	98.88
233.243	118.88
233.477	109.88
233.711	115.88
233.945	119.88
234.179	117.88
234.413	110.88
234.647	106.88
234.881	128.88
235.115	132.88
235.349	120.88
235.583	120.88
235.817	120.88
236.051	119.88
236.285	126.88
236.519	120.88
236.753	138.88
236.987	156.88
237.221	201.88
237.455	233.88
237.689	184.88
237.922	145.88
238.156	136.88
238.39	124.88
238.624	131.88
238.858	130.88
239.091	118.88
239.325	119.88
239.559	122.88
239.793	123.88
240.027	134.88
240.26	133.88
240.494	166.88
240.728	151.88
240.961	154.88
241.195	155.88
241.429	148.88
241.662	129.88
241.896	141.88
242.13	119.88
242.363	127.88
242.597	134.88
242.83	129.88
243.064	136.88
243.298	134.88
243.531	146.88
243.765	138.88
243.998	149.88
244.232	135.88
244.465	138.88
244.699	141.88
244.932	127.88
245.166	123.88
245.399	150.88
245.633	153.88
245.866	156.88
246.099	149.88
246.333	143.88
246.566	151.88
246.8	154.88
247.033	150.88
247.266	163.88
247.5	182.88
247.733	175.88
247.966	171.88
248.2	165.88
248.433	175.88
248.666	167.88
248.899	206.88
249.133	212.88
249.366	221.88
249.599	201.88
249.832	174.88
250.066	186.88
250.299	178.88
250.532	190.88
250.765	199.88
250.998	245.88
251.231	236.88
251.465	235.88
251.698	218.88
251.931	190.88
252.164	197.88
252.397	198.88
252.63	212.88
252.863	198.88
253.096	207.88
253.329	238.88
253.562	235.88
253.795	235.88
254.028	215.88
254.261	222.88
254.494	239.88
254.727	239.88
254.96	307.88
255.193	296.88
255.426	282.88
255.659	254.88
255.892	246.88
256.124	233.88
256.357	238.88
256.59	227.88
256.823	220.88
257.056	223.88
257.289	227.88
257.521	222.88
257.754	227.88
257.987	222.88
258.22	216.88
258.452	196.88
258.685	203.88
258.918	209.88
259.151	214.88
259.383	213.88
259.616	231.88
259.849	231.88
260.081	237.88
260.314	274.88
260.547	267.88
260.779	252.88
261.012	232.88
261.244	236.88
261.477	221.88
261.71	219.88
261.942	235.88
262.175	233.88
262.407	255.88
262.64	226.88
262.872	231.88
263.105	205.88
263.337	204.88
263.57	219.88
263.802	199.88
264.035	191.88
264.267	226.88
264.499	209.88
264.732	200.88
264.964	207.88
265.197	207.88
265.429	197.88
265.661	192.88
265.894	205.88
266.126	223.88
266.358	223.88
266.591	202.88
266.823	219.88
267.055	225.88
267.287	213.88
267.52	209.88
267.752	210.88
267.984	214.88
268.216	215.88
268.448	230.88
268.681	223.88
268.913	230.88
269.145	231.88
269.377	254.88
269.609	285.88
269.841	280.88
270.073	262.88
270.306	279.88
270.538	300.88
270.77	301.88
271.002	301.88
271.234	299.88
271.466	297.88
271.698	319.88
271.93	321.88
272.162	306.88
272.394	324.88
272.626	283.88
272.858	288.88
273.09	282.88
273.322	273.88
273.553	275.88
273.785	277.88
274.017	257.88
274.249	249.88
274.481	259.88
274.713	246.88
274.945	270.88
275.176	275.88
275.408	244.88
275.64	249.88
275.872	260.88
276.104	254.88
276.335	256.88
276.567	273.88
276.799	269.88
277.031	289.88
277.262	318.88
277.494	302.88
277.726	297.88
277.957	267.88
278.189	275.88
278.421	278.88
278.652	250.88
278.884	243.88
279.115	258.88
279.347	254.88
279.579	259.88
279.81	230.88
280.042	252.88
280.273	246.88
280.505	243.88
280.736	264.88
280.968	250.88
281.199	264.88
281.431	248.88
281.662	251.88
281.894	252.88
282.125	243.88
282.356	270.88
282.588	302.88
282.819	293.88
283.051	248.88
283.282	248.88
283.513	243.88
283.745	267.88
283.976	261.88
284.207	270.88
284.439	275.88
284.67	256.88
284.901	257.88
285.132	262.88
285.364	256.88
285.595	254.88
285.826	254.88
286.057	262.88
286.288	233.88
286.52	273.88
286.751	256.88
286.982	257.88
287.213	266.88
287.444	258.88
287.675	259.88
287.906	285.88
288.138	266.88
288.369	278.88
288.6	266.88
288.831	264.88
289.062	275.88
289.293	264.88
289.524	270.88
289.755	281.88
289.986	285.88
290.217	272.88
290.448	247.88
290.679	263.88
290.91	264.88
291.141	263.88
291.371	263.88
291.602	264.88
291.833	276.88
292.064	266.88
292.295	276.88
292.526	266.88
292.757	258.88
292.987	274.88
293.218	252.88
293.449	255.88
293.68	266.88
293.91	244.88
294.141	263.88
294.372	254.88
294.603	264.88
294.833	256.88
295.064	267.88
295.295	258.88
295.525	270.88
295.756	269.88
295.987	275.88
296.217	304.88
296.448	303.88
296.679	284.88
296.909	262.88
297.14	269.88
297.37	291.88
297.601	269.88
297.831	261.88
298.062	262.88
298.292	278.88
298.523	274.88
298.753	286.88
298.984	276.88
299.214	283.88
299.445	271.88
299.675	275.88
299.905	285.88
300.136	275.88
300.366	256.88
300.597	267.88
300.827	284.88
301.057	290.88
301.288	287.88
301.518	303.88
301.748	285.88
301.979	301.88
302.209	290.88
302.439	301.88
302.669	287.88
302.9	290.88
303.13	288.88
303.36	279.88
303.59	293.88
303.82	307.88
304.051	306.88
304.281	302.88
304.511	282.88
304.741	294.88
304.971	263.88
305.201	294.88
305.431	284.88
305.661	296.88
305.891	282.88
306.121	295.88
306.352	315.88
306.582	307.88
306.812	298.88
307.042	303.88
307.272	297.88
307.502	282.88
307.731	315.88
307.961	294.88
308.191	308.88
308.421	295.88
308.651	303.88
308.881	312.88
309.111	326.88
309.341	314.88
309.571	325.88
309.8	328.88
310.03	347.88
310.26	362.88
310.49	354.88
310.72	362.88
310.949	374.88
311.179	399.88
311.409	352.88
311.639	359.88
311.868	346.88
312.098	350.88
312.328	365.88
312.557	382.88
312.787	394.88
313.017	397.88
313.246	345.88
313.476	356.88
313.706	338.88
313.935	349.88
314.165	379.88
314.394	394.88
314.624	378.88
314.853	358.88
315.083	366.88
315.312	341.88
315.542	339.88
315.771	348.88
316.001	346.88
316.23	324.88
316.46	340.88
316.689	352.88
316.919	360.88
317.148	335.88
317.377	363.88
317.607	363.88
317.836	353.88
318.065	344.88
318.295	337.88
318.524	352.88
318.753	342.88
318.983	354.88
319.212	337.88
319.441	362.88
319.67	375.88
319.9	346.88
320.129	366.88
320.358	356.88
320.587	374.88
320.816	355.88
321.046	376.88
321.275	375.88
321.504	399.88
321.733	385.88
321.962	386.88
322.191	405.88
322.42	433.88
322.649	437.88
322.878	451.88
323.108	456.88
323.337	477.88
323.566	494.88
323.795	534.88
324.024	622.88
324.253	726.88
324.482	1065.88
324.71	1648.88
324.939	2264.88
325.168	2009.88
325.397	1098.88
325.626	718.88
325.855	585.88
326.084	526.88
326.313	505.88
326.542	534.88
326.77	578.88
326.999	683.88
327.228	932.88
327.457	1424.88
327.686	1722.88
327.914	1216.88
328.143	801.88
328.372	677.88
328.6	609.88
328.829	594.88
329.058	600.88
329.287	628.88
329.515	582.88
329.744	504.88
329.972	502.88
330.201	520.88
330.43	533.88
330.658	599.88
330.887	631.88
331.115	618.88
331.344	521.88
331.572	496.88
331.801	474.88
332.03	455.88
332.258	434.88
332.486	418.88
332.715	407.88
332.943	396.88
333.172	406.88
333.4	420.88
333.629	440.88
333.857	432.88
334.085	434.88
334.314	452.88
334.542	461.88
334.771	486.88
334.999	463.88
335.227	434.88
335.455	420.88
335.684	413.88
335.912	386.88
336.14	395.88
336.369	411.88
336.597	408.88
336.825	408.88
337.053	417.88
337.281	391.88
337.51	399.88
337.738	397.88
337.966	391.88
338.194	389.88
338.422	395.88
338.65	369.88
338.878	395.88
339.106	409.88
339.334	388.88
339.562	385.88
339.79	388.88
340.018	385.88
340.246	396.88
340.474	394.88
340.702	398.88
340.93	359.88
341.158	383.88
341.386	382.88
341.614	400.88
341.842	399.88
342.07	380.88
342.298	387.88
342.526	372.88
342.754	385.88
342.981	362.88
343.209	372.88
343.437	354.88
343.665	372.88
343.893	368.88
344.12	385.88
344.348	374.88
344.576	395.88
344.804	395.88
345.031	388.88
345.259	405.88
345.487	408.88
345.714	384.88
345.942	367.88
346.17	406.88
346.397	380.88
346.625	379.88
346.853	383.88
347.08	379.88
347.308	381.88
347.535	384.88
347.763	382.88
347.99	394.88
348.218	391.88
348.445	392.88
348.673	389.88
348.9	389.88
349.128	383.88
349.355	361.88
349.583	366.88
349.81	378.88
350.037	378.88
350.265	368.88
350.492	365.88
350.72	363.88
350.947	361.88
351.174	377.88
351.402	374.88
351.629	390.88
351.856	390.88
352.083	389.88
352.311	398.88
352.538	412.88
352.765	421.88
352.992	370.88
353.22	377.88
353.447	364.88
353.674	363.88
353.901	375.88
354.128	338.88
354.355	352.88
354.583	327.88
354.81	339.88
355.037	344.88
355.264	347.88
355.491	324.88
355.718	349.88
355.945	351.88
356.172	338.88
356.399	342.88
356.626	347.88
356.853	332.88
357.08	340.88
357.307	320.88
357.534	332.88
357.761	327.88
357.988	322.88
358.215	346.88
358.441	338.88
358.668	333.88
358.895	340.88
359.122	342.88
359.349	343.88
359.576	366.88
359.802	421.88
360.029	412.88
360.256	429.88
360.483	434.88
360.709	399.88
360.936	390.88
361.163	387.88
361.39	390.88
361.616	398.88
361.843	382.88
362.07	381.88
362.296	386.88
362.523	390.88
362.749	353.88
362.976	378.88
363.203	361.88
363.429	348.88
363.656	351.88
363.882	377.88
364.109	355.88
364.335	356.88
364.562	362.88
364.788	336.88
365.015	343.88
365.241	341.88
365.468	362.88
365.694	357.88
365.92	374.88
366.147	364.88
366.373	341.88
366.599	331.88
366.826	347.88
367.052	356.88
367.278	343.88
367.505	344.88
367.731	349.88
367.957	331.88
368.184	341.88
368.41	341.88
368.636	363.88
368.862	352.88
369.089	358.88
369.315	348.88
369.541	340.88
369.767	344.88
369.993	337.88
370.219	351.88
370.445	319.88
370.672	342.88
370.898	321.88
371.124	338.88
371.35	363.88
371.576	337.88
371.802	329.88
372.028	326.88
372.254	356.88
372.48	344.88
372.706	343.88
372.932	338.88
373.158	347.88
373.384	342.88
373.61	353.88
373.835	351.88
374.061	335.88
374.287	347.88
374.513	340.88
374.739	346.88
374.965	352.88
375.191	352.88
375.416	331.88
375.642	343.88
375.868	346.88
376.094	339.88
376.319	329.88
376.545	336.88
376.771	356.88
376.997	328.88
377.222	326.88
377.448	333.88
377.674	327.88
377.899	335.88
378.125	324.88
378.35	334.88
378.576	335.88
378.802	322.88
379.027	329.88
379.253	330.88
379.478	310.88
379.704	331.88
379.929	354.88
380.155	336.88
380.38	336.88
380.606	341.88
380.831	327.88
381.057	340.88
381.282	328.88
381.507	349.88
381.733	333.88
381.958	340.88
382.184	342.88
382.409	337.88
382.634	338.88
382.86	342.88
383.085	341.88
383.31	331.88
383.535	356.88
383.761	347.88
383.986	342.88
384.211	346.88
384.436	351.88
384.662	343.88
384.887	351.88
385.112	330.88
385.337	352.88
385.562	344.88
385.787	364.88
386.013	348.88
386.238	367.88
386.463	375.88
386.688	364.88
386.913	366.88
387.138	351.88
387.363	349.88
387.588	345.88
387.813	359.88
388.038	351.88
388.263	342.88
388.488	351.88
388.713	359.88
388.938	365.88
389.163	360.88
389.387	343.88
389.612	348.88
389.837	344.88
390.062	366.88
390.287	347.88
390.512	342.88
390.736	341.88
390.961	344.88
391.186	355.88
391.411	348.88
391.636	338.88
391.86	352.88
392.085	352.88
392.31	354.88
392.534	357.88
392.759	355.88
392.984	355.88
393.208	360.88
393.433	343.88
393.658	352.88
393.882	354.88
394.107	339.88
394.331	332.88
394.556	353.88
394.78	344.88
395.005	348.88
395.229	342.88
395.454	358.88
395.678	355.88
395.903	362.88
396.127	382.88
396.352	388.88
396.576	381.88
396.801	367.88
397.025	362.88
397.249	370.88
397.474	366.88
397.698	347.88
397.922	374.88
398.147	399.88
398.371	386.88
398.595	380.88
398.82	375.88
399.044	387.88
399.268	388.88
399.492	409.88
399.717	436.88
399.941	438.88
400.165	453.88
400.389	478.88
400.613	443.88
400.837	415.88
401.062	431.88
401.286	411.88
401.51	386.88
401.734	378.88
401.958	395.88
402.182	402.88
402.406	388.88
402.63	416.88
402.854	416.88
403.078	404.88
403.302	381.88
403.526	408.88
403.75	418.88
403.974	408.88
404.198	399.88
404.422	428.88
404.645	410.88
404.869	418.88
405.093	441.88
405.317	462.88
405.541	490.88
405.765	472.88
405.988	438.88
406.212	460.88
406.436	467.88
406.66	507.88
406.883	452.88
407.107	470.88
407.331	525.88
407.555	571.88
407.778	537.88
408.002	511.88
408.226	483.88
408.449	461.88
408.673	443.88
408.896	495.88
409.12	502.88
409.344	508.88
409.567	415.88
409.791	426.88
410.014	420.88
410.238	410.88
410.461	427.88
410.685	416.88
410.908	433.88
411.132	469.88
411.355	495.88
411.578	446.88
411.802	435.88
412.025	411.88
412.249	409.88
412.472	424.88
412.695	471.88
412.919	437.88
413.142	414.88
413.365	413.88
413.589	409.88
413.812	406.88
414.035	390.88
414.258	374.88
414.482	390.88
414.705	384.88
414.928	373.88
415.151	375.88
415.374	365.88
415.597	394.88
415.821	380.88
416.044	386.88
416.267	389.88
416.49	386.88
416.713	372.88
416.936	391.88
417.159	385.88
417.382	404.88
417.605	398.88
417.828	406.88
418.051	427.88
418.274	411.88
418.497	388.88
418.72	398.88
418.943	414.88
419.166	397.88
419.389	406.88
419.611	398.88
419.834	407.88
420.057	420.88
420.28	430.88
420.503	412.88
420.726	399.88
420.948	428.88
421.171	499.88
421.394	490.88
421.617	439.88
421.839	426.88
422.062	416.88
422.285	440.88
422.507	510.88
422.73	582.88
422.953	547.88
423.175	459.88
423.398	430.88
423.621	461.88
423.843	469.88
424.066	481.88
424.288	475.88
424.511	452.88
424.733	537.88
424.956	610.88
425.178	590.88
425.401	587.88
425.623	602.88
425.846	501.88
426.068	469.88
426.291	469.88
426.513	466.88
426.735	477.88
426.958	524.88
427.18	606.88
427.402	720.88
427.625	784.88
427.847	708.88
428.069	588.88
428.292	543.88
428.514	488.88
428.736	464.88
428.958	456.88
429.181	435.88
429.403	434.88
429.625	437.88
429.847	475.88
430.069	528.88
430.292	536.88
430.514	463.88
430.736	441.88
430.958	433.88
431.18	395.88
431.402	417.88
431.624	398.88
431.846	393.88
432.068	394.88
432.29	406.88
432.512	401.88
432.734	412.88
432.956	425.88
433.178	427.88
433.4	418.88
433.622	404.88
433.844	397.88
434.066	410.88
434.287	417.88
434.509	400.88
434.731	400.88
434.953	412.88
435.175	417.88
435.397	452.88
435.618	472.88
435.84	508.88
436.062	587.88
436.284	657.88
436.505	559.88
436.727	496.88
436.949	468.88
437.17	453.88
437.392	438.88
437.614	438.88
437.835	503.88
438.057	585.88
438.278	674.88
438.5	667.88
438.721	708.88
438.943	706.88
439.165	554.88
439.386	500.88
439.608	508.88
439.829	498.88
440.05	497.88
440.272	567.88
440.493	532.88
440.715	503.88
440.936	464.88
441.158	438.88
441.379	447.88
441.6	439.88
441.822	461.88
442.043	510.88
442.264	600.88
442.486	632.88
442.707	520.88
442.928	487.88
443.149	502.88
443.371	524.88
443.592	547.88
443.813	630.88
444.034	682.88
444.255	560.88
444.476	522.88
444.698	480.88
444.919	462.88
445.14	549.88
445.361	519.88
445.582	483.88
445.803	559.88
446.024	652.88
446.245	645.88
446.466	625.88
446.687	528.88
446.908	474.88
447.129	442.88
447.35	428.88
447.571	430.88
447.792	438.88
448.013	466.88
448.234	467.88
448.455	518.88
448.675	642.88
448.896	708.88
449.117	605.88
449.338	580.88
449.559	659.88
449.779	736.88
450	603.88
450.221	516.88
450.442	470.88
450.662	459.88
450.883	457.88
451.104	463.88
451.324	438.88
451.545	422.88
451.766	408.88
451.986	390.88
452.207	380.88
452.428	386.88
452.648	383.88
452.869	405.88
453.089	403.88
453.31	424.88
453.53	394.88
453.751	396.88
453.971	396.88
454.192	416.88
454.412	420.88
454.633	406.88
454.853	394.88
455.073	392.88
455.294	422.88
455.514	489.88
455.734	466.88
455.955	390.88
456.175	382.88
456.395	370.88
456.616	349.88
456.836	388.88
457.056	350.88
457.276	351.88
457.497	367.88
457.717	372.88
457.937	381.88
458.157	381.88
458.377	378.88
458.598	422.88
458.818	476.88
459.038	572.88
459.258	543.88
459.478	476.88
459.698	425.88
459.918	399.88
460.138	409.88
460.358	389.88
460.578	408.88
460.798	406.88
461.018	392.88
461.238	376.88
461.458	374.88
461.678	378.88
461.898	403.88
462.118	382.88
462.338	390.88
462.558	401.88
462.777	385.88
462.997	409.88
463.217	408.88
463.437	418.88
463.657	394.88
463.876	396.88
464.096	399.88
464.316	407.88
464.536	403.88
464.755	407.88
464.975	423.88
465.195	484.88
465.414	595.88
465.634	491.88
465.854	446.88
466.073	418.88
466.293	376.88
466.512	396.88
466.732	379.88
466.951	384.88
467.171	397.88
467.391	390.88
467.61	397.88
467.829	429.88
468.049	397.88
468.268	389.88
468.488	392.88
468.707	383.88
468.927	377.88
469.146	375.88
469.365	372.88
469.585	382.88
469.804	379.88
470.023	404.88
470.243	396.88
470.462	404.88
470.681	416.88
470.901	423.88
471.12	390.88
471.339	394.88
471.558	412.88
471.777	402.88
471.997	386.88
472.216	391.88
472.435	430.88
472.654	428.88
472.873	383.88
473.092	404.88
473.311	395.88
473.53	399.88
473.749	409.88
473.968	449.88
474.187	572.88
474.406	612.88
474.625	460.88
474.844	411.88
475.063	399.88
475.282	399.88
475.501	403.88
475.72	412.88
475.939	415.88
476.158	416.88
476.377	413.88
476.596	399.88
476.814	430.88
477.033	415.88
477.252	428.88
477.471	410.88
477.69	420.88
477.908	427.88
478.127	416.88
478.346	412.88
478.564	424.88
478.783	426.88
479.002	443.88
479.22	450.88
479.439	470.88
479.658	468.88
479.876	480.88
480.095	484.88
480.313	510.88
480.532	495.88
480.751	478.88
480.969	502.88
481.188	557.88
481.406	591.88
481.624	512.88
481.843	498.88
482.061	493.88
482.28	481.88
482.498	462.88
482.717	449.88
482.935	483.88
483.153	436.88
483.372	484.88
483.59	485.88
483.808	450.88
484.027	444.88
484.245	476.88
484.463	483.88
484.681	484.88
484.9	491.88
485.118	472.88
485.336	495.88
485.554	460.88
485.772	464.88
485.99	485.88
486.209	501.88
486.427	475.88
486.645	503.88
486.863	535.88
487.081	519.88
487.299	503.88
487.517	531.88
487.735	517.88
487.953	531.88
488.171	502.88
488.389	518.88
488.607	515.88
488.825	511.88
489.043	520.88
489.261	506.88
489.479	509.88
489.696	505.88
489.914	518.88
490.132	521.88
490.35	533.88
490.568	539.88
490.786	568.88
491.003	567.88
491.221	565.88
491.439	570.88
491.657	554.88
491.874	592.88
492.092	585.88
492.31	593.88
492.527	604.88
492.745	586.88
492.963	604.88
493.18	587.88
493.398	621.88
493.615	617.88
493.833	613.88
494.05	633.88
494.268	623.88
494.485	600.88
494.703	603.88
494.92	599.88
495.138	594.88
495.355	606.88
495.573	600.88
495.79	606.88
496.008	629.88
496.225	629.88
496.442	620.88
496.66	632.88
496.877	605.88
497.094	600.88
497.312	630.88
497.529	640.88
497.746	640.88
497.963	639.88
498.181	652.88
498.398	637.88
498.615	640.88
498.832	668.88
499.049	643.88
499.267	658.88
499.484	658.88
499.701	680.88
499.918	698.88
500.135	736.88
500.352	715.88
500.569	707.88
500.786	715.88
501.003	728.88
501.22	729.88
501.437	699.88
501.654	720.88
501.871	739.88
502.088	720.88
502.305	678.88
502.522	684.88
502.739	632.88
502.956	644.88
503.172	650.88
503.389	648.88
503.606	645.88
503.823	634.88
504.04	617.88
504.256	621.88
504.473	604.88
504.69	612.88
504.907	590.88
505.123	578.88
505.34	604.88
505.557	612.88
505.773	605.88
505.99	594.88
506.207	598.88
506.423	604.88
506.64	619.88
506.856	594.88
507.073	576.88
507.289	596.88
507.506	586.88
507.722	605.88
507.939	641.88
508.155	610.88
508.372	578.88
508.588	585.88
508.805	568.88
509.021	576.88
509.238	587.88
509.454	595.88
509.67	599.88
509.887	584.88
510.103	585.88
510.319	591.88
510.536	733.88
510.752	1268.88
510.968	1004.88
511.184	633.88
511.401	581.88
511.617	595.88
511.833	549.88
512.049	551.88
512.265	559.88
512.481	563.88
512.698	570.88
512.914	554.88
513.13	543.88
513.346	548.88
513.562	560.88
513.778	546.88
513.994	566.88
514.21	587.88
514.426	610.88
514.642	643.88
514.858	699.88
515.074	780.88
515.29	946.88
515.506	1468.88
515.721	1186.88
515.937	733.88
516.153	634.88
516.369	605.88
516.585	582.88
516.801	547.88
517.016	578.88
517.232	569.88
517.448	540.88
517.664	551.88
517.879	559.88
518.095	550.88
518.311	546.88
518.527	559.88
518.742	535.88
518.958	549.88
519.173	539.88
519.389	546.88
519.605	538.88
519.82	547.88
520.036	578.88
520.251	622.88
520.467	633.88
520.682	644.88
520.898	671.88
521.113	673.88
521.329	761.88
521.544	872.88
521.76	1140.88
521.975	1984.88
522.19	1960.88
522.406	996.88
522.621	707.88
522.836	615.88
523.052	560.88
523.267	539.88
523.482	536.88
523.698	536.88
523.913	520.88
524.128	516.88
524.343	508.88
524.559	483.88
524.774	482.88
524.989	471.88
525.204	496.88
525.419	492.88
525.634	481.88
525.849	485.88
526.064	442.88
526.28	451.88
526.495	445.88
526.71	440.88
526.925	451.88
527.14	451.88
527.355	427.88
527.57	444.88
527.785	437.88
527.999	440.88
528.214	451.88
528.429	431.88
528.644	447.88
528.859	460.88
529.074	448.88
529.289	463.88
529.503	564.88
529.718	534.88
529.933	465.88
530.148	470.88
530.363	444.88
530.577	434.88
530.792	439.88
531.007	438.88
531.221	419.88
531.436	430.88
531.651	404.88
531.865	413.88
532.08	405.88
532.295	419.88
532.509	423.88
532.724	408.88
532.938	424.88
533.153	406.88
533.367	417.88
533.582	411.88
533.796	426.88
534.011	412.88
534.225	415.88
534.44	402.88
534.654	406.88
534.868	383.88
535.083	411.88
535.297	396.88
535.511	430.88
535.726	414.88
535.94	436.88
536.154	415.88
536.369	429.88
536.583	401.88
536.797	404.88
537.011	411.88
537.225	385.88
537.44	382.88
537.654	401.88
537.868	390.88
538.082	384.88
538.296	419.88
538.51	393.88
538.724	406.88
538.938	388.88
539.153	389.88
539.367	427.88
539.581	406.88
539.795	390.88
540.009	406.88
540.222	394.88
540.436	392.88
540.65	394.88
540.864	411.88
541.078	394.88
541.292	421.88
541.506	405.88
541.72	405.88
541.934	404.88
542.147	405.88
542.361	395.88
542.575	376.88
542.789	382.88
543.002	376.88
543.216	416.88
543.43	392.88
543.644	401.88
543.857	383.88
544.071	395.88
544.285	397.88
544.498	397.88
544.712	386.88
544.925	401.88
545.139	411.88
545.352	378.88
545.566	382.88
545.779	372.88
545.993	367.88
546.206	392.88
546.42	356.88
546.633	395.88
546.847	390.88
547.06	367.88
547.274	376.88
547.487	384.88
547.7	367.88
547.914	363.88
548.127	365.88
548.34	351.88
548.554	363.88
548.767	357.88
548.98	348.88
549.193	358.88
549.407	362.88
549.62	372.88
549.833	350.88
550.046	352.88
550.259	364.88
550.473	342.88
550.686	349.88
550.899	351.88
551.112	358.88
551.325	361.88
551.538	342.88
551.751	347.88
551.964	349.88
552.177	354.88
552.39	358.88
552.603	350.88
552.816	348.88
553.029	368.88
553.242	371.88
553.455	370.88
553.667	379.88
553.88	389.88
554.093	376.88
554.306	372.88
554.519	371.88
554.732	350.88
554.944	344.88
555.157	347.88
555.37	341.88
555.583	352.88
555.795	345.88
556.008	342.88
556.221	329.88
556.433	338.88
556.646	337.88
556.859	339.88
557.071	343.88
557.284	340.88
557.496	333.88
557.709	326.88
557.921	322.88
558.134	337.88
558.346	320.88
558.559	335.88
558.771	334.88
558.984	323.88
559.196	350.88
559.409	330.88
559.621	312.88
559.833	333.88
560.046	329.88
560.258	326.88
560.47	326.88
560.683	329.88
560.895	320.88
561.107	331.88
561.32	323.88
561.532	320.88
561.744	314.88
561.956	330.88
562.168	334.88
562.381	318.88
562.593	333.88
562.805	321.88
563.017	319.88
563.229	314.88
563.441	331.88
563.653	336.88
563.865	321.88
564.077	309.88
564.289	340.88
564.501	336.88
564.713	330.88
564.925	324.88
565.137	360.88
565.349	344.88
565.561	347.88
565.773	356.88
565.985	331.88
566.197	366.88
566.408	364.88
566.62	359.88
566.832	388.88
567.044	356.88
567.255	359.88
567.467	354.88
567.679	351.88
567.891	373.88
568.102	368.88
568.314	356.88
568.526	346.88
568.737	358.88
568.949	361.88
569.161	334.88
569.372	332.88
569.584	329.88
569.795	332.88
570.007	343.88
570.218	398.88
570.43	356.88
570.641	312.88
570.853	302.88
571.064	313.88
571.276	308.88
571.487	308.88
571.698	301.88
571.91	301.88
572.121	291.88
572.333	297.88
572.544	287.88
572.755	295.88
572.966	289.88
573.178	283.88
573.389	297.88
573.6	292.88
573.811	269.88
574.023	276.88
574.234	282.88
574.445	286.88
574.656	276.88
574.867	293.88
575.078	291.88
575.289	290.88
575.501	300.88
575.712	260.88
575.923	266.88
576.134	281.88
576.345	289.88
576.556	298.88
576.767	295.88
576.978	275.88
577.188	300.88
577.399	281.88
577.61	286.88
577.821	276.88
578.032	290.88
578.243	340.88
578.454	616.88
578.665	438.88
578.875	315.88
579.086	280.88
579.297	283.88
579.508	290.88
579.718	271.88
579.929	255.88
580.14	281.88
580.35	263.88
580.561	271.88
580.772	260.88
580.982	267.88
581.193	246.88
581.403	257.88
581.614	259.88
581.825	246.88
582.035	282.88
582.246	249.88
582.456	269.88
582.667	260.88
582.877	261.88
583.087	272.88
583.298	278.88
583.508	263.88
583.719	253.88
583.929	256.88
584.139	261.88
584.35	262.88
584.56	261.88
584.77	258.88
584.981	265.88
585.191	270.88
585.401	276.88
585.611	254.88
585.821	233.88
586.032	249.88
586.242	246.88
586.452	254.88
586.662	248.88
586.872	253.88
587.082	259.88
587.292	252.88
587.502	246.88
587.713	239.88
587.923	231.88
588.133	235.88
588.343	243.88
588.553	239.88
588.762	234.88
588.972	254.88
589.182	273.88
589.392	275.88
589.602	269.88
589.812	267.88
590.022	262.88
590.232	251.88
590.441	236.88
590.651	254.88
590.861	246.88
591.071	242.88
591.281	252.88
591.49	248.88
591.7	235.88
591.91	242.88
592.119	259.88
592.329	242.88
592.539	247.88
592.748	256.88
592.958	243.88
593.167	239.88
593.377	246.88
593.587	258.88
593.796	251.88
594.006	252.88
594.215	254.88
594.424	250.88
594.634	248.88
594.843	238.88
595.053	252.88
595.262	255.88
595.472	227.88
595.681	240.88
595.89	259.88
596.1	239.88
596.309	235.88
596.518	229.88
596.727	246.88
596.937	238.88
597.146	254.88
597.355	239.88
597.564	228.88
597.774	239.88
597.983	242.88
598.192	212.88
598.401	209.88
598.61	230.88
598.819	228.88
599.028	212.88
599.237	222.88
599.446	222.88
599.655	228.88
599.864	205.88
600.073	201.88
600.282	214.88
600.491	227.88
600.7	211.88
600.909	222.88
601.118	232.88
601.327	228.88
601.536	226.88
601.745	225.88
601.953	221.88
602.162	242.88
602.371	216.88
602.58	208.88
602.789	219.88
602.997	215.88
603.206	233.88
603.415	212.88
603.623	222.88
603.832	227.88
604.041	226.88
604.249	214.88
604.458	207.88
604.666	214.88
604.875	219.88
605.084	218.88
605.292	192.88
605.501	221.88
605.709	210.88
605.918	212.88
606.126	229.88
606.334	204.88
606.543	188.88
606.751	216.88
606.96	200.88
607.168	211.88
607.376	204.88
607.585	218.88
607.793	207.88
608.001	204.88
608.21	214.88
608.418	212.88
608.626	202.88
608.834	196.88
609.043	206.88
609.251	213.88
609.459	204.88
609.667	184.88
609.875	198.88
610.083	205.88
610.291	212.88
610.499	212.88
610.707	203.88
610.916	209.88
611.124	218.88
611.332	219.88
611.54	215.88
611.748	210.88
611.955	193.88
612.163	202.88
612.371	205.88
612.579	205.88
612.787	200.88
612.995	213.88
613.203	221.88
613.411	211.88
613.618	203.88
613.826	207.88
614.034	205.88
614.242	213.88
614.449	192.88
614.657	207.88
614.865	204.88
615.072	207.88
615.28	208.88
615.488	203.88
615.695	213.88
615.903	223.88
616.111	196.88
616.318	190.88
616.526	210.88
616.733	205.88
616.941	189.88
617.148	195.88
617.356	207.88
617.563	210.88
617.771	206.88
617.978	216.88
618.185	214.88
618.393	195.88
618.6	210.88
618.807	199.88
619.015	196.88
619.222	194.88
619.429	194.88
619.637	213.88
619.844	208.88
620.051	192.88
620.258	207.88
620.466	194.88
620.673	186.88
620.88	203.88
621.087	202.88
621.294	188.88
621.501	189.88
621.708	208.88
621.915	209.88
622.122	199.88
622.329	196.88
622.536	200.88
622.743	200.88
622.95	190.88
623.157	180.88
623.364	186.88
623.571	172.88
623.778	195.88
623.985	183.88
624.192	184.88
624.399	189.88
624.606	191.88
624.812	189.88
625.019	182.88
625.226	183.88
625.433	186.88
625.639	179.88
625.846	190.88
626.053	181.88
626.259	179.88
626.466	187.88
626.673	174.88
626.879	176.88
627.086	183.88
627.293	182.88
627.499	186.88
627.706	188.88
627.912	190.88
628.119	182.88
628.325	169.88
628.532	189.88
628.738	174.88
628.945	178.88
629.151	187.88
629.357	173.88
629.564	182.88
629.77	176.88
629.976	182.88
630.183	166.88
630.389	180.88
630.595	172.88
630.802	187.88
631.008	166.88
631.214	182.88
631.42	173.88
631.627	180.88
631.833	192.88
632.039	159.88
632.245	165.88
632.451	171.88
632.657	187.88
632.863	191.88
633.069	188.88
633.275	155.88
633.481	162.88
633.688	169.88
633.893	175.88
634.099	157.88
634.305	160.88
634.511	150.88
634.717	173.88
634.923	152.88
635.129	156.88
635.335	152.88
635.541	188.88
635.747	163.88
635.952	178.88
636.158	167.88
636.364	168.88
636.57	166.88
636.775	166.88
636.981	184.88
637.187	165.88
637.392	159.88
637.598	163.88
637.804	152.88
638.009	173.88
638.215	164.88
638.421	157.88
638.626	159.88
638.832	163.88
639.037	145.88
639.243	151.88
639.448	176.88
639.654	158.88
639.859	149.88
640.065	173.88
640.27	161.88
640.475	156.88
640.681	152.88
640.886	157.88
641.091	165.88
641.297	175.88
641.502	154.88
641.707	159.88
641.913	174.88
642.118	156.88
642.323	152.88
642.528	155.88
642.733	154.88
642.939	157.88
643.144	136.88
643.349	144.88
643.554	153.88
643.759	144.88
643.964	167.88
644.169	151.88
644.374	155.88
644.579	149.88
644.784	174.88
644.989	157.88
645.194	143.88
645.399	148.88
645.604	131.88
645.809	140.88
646.014	150.88
646.219	167.88
646.423	147.88
646.628	139.88
646.833	144.88
647.038	151.88
647.243	145.88
647.447	150.88
647.652	174.88
647.857	138.88
648.062	139.88
648.266	144.88
648.471	154.88
648.676	157.88
648.88	157.88
649.085	158.88
649.289	150.88
649.494	160.88
649.698	162.88
649.903	164.88
650.107	162.88
650.312	141.88
650.516	132.88
650.721	149.88
650.925	142.88
651.13	147.88
651.334	128.88
651.539	125.88
651.743	137.88
651.947	134.88
652.152	152.88
652.356	141.88
652.56	152.88
652.764	119.88
652.969	137.88
653.173	134.88
653.377	125.88
653.581	122.88
653.785	118.88
653.99	142.88
654.194	143.88
654.398	134.88
654.602	118.88
654.806	122.88
655.01	131.88
655.214	126.88
655.418	123.88
655.622	145.88
655.826	124.88
656.03	126.88
656.234	127.88
656.438	127.88
656.642	130.88
656.846	122.88
657.049	114.88
657.253	118.88
657.457	120.88
657.661	106.88
657.865	111.88
658.068	113.88
658.272	108.88
658.476	101.88
658.68	103.88
658.883	105.88
659.087	107.88
659.291	114.88
659.494	95.88
659.698	101.88
659.901	82.88
660.105	85.88
660.309	90.88
660.512	98.88
660.716	86.88
660.919	85.88
661.123	89.88
661.326	93.88
661.53	87.88
661.733	81.88
661.936	84.88
662.14	84.88
662.343	95.88
662.546	93.88
662.75	81.88
662.953	94.88
663.156	82.88
663.36	93.88
663.563	85.88
663.766	96.88
663.969	84.88
664.173	89.88
664.376	83.88
664.579	89.88
664.782	90.88
664.985	94.88
665.188	85.88
665.391	80.88
665.594	87.88
665.797	96.88
666	79.88
666.203	72.88
666.406	81.88
666.609	80.88
666.812	87.88
667.015	88.88
667.218	87.88
667.421	73.88
667.624	86.88
667.827	102.88
668.03	83.88
668.232	80.88
668.435	77.88
668.638	95.88
668.841	85.88
669.043	97.88
669.246	89.88
669.449	82.88
669.651	86.88
669.854	89.88
670.057	82.88
670.259	85.88
670.462	76.88
670.665	69.88
670.867	85.88
671.07	85.88
671.272	76.88
671.475	78.88
671.677	74.88
671.88	76.88
672.082	101.88
672.284	93.88
672.487	99.88
672.689	95.88
672.892	90.88
