Data from 1986.PennyLincolnUp.Lamp.En5.5.200Scan.071819.P2_HRD10591_17-12-13-973.txt Node
Date: Thu Jul 18 17:12:13 EDT 2019
User: cochatt
Spectrometer: HR+D1059
Trigger mode: 1
Integration Time (sec): 1.000000E-1
Scans to average: 1
Electric dark correction enabled: true
Nonlinearity correction enabled: false
Boxcar width: 0
XAxis mode: Wavelengths
Number of Pixels in Spectrum: 2048
>>>>>Begin Spectral Data<<<<<
223.165	-20.25
223.4	-20.25
223.635	-20.25
223.869	-15.25
224.104	-32.25
224.338	-11.25
224.573	-17.25
224.808	-12.25
225.042	8.75
225.277	-7.25
225.511	-2.25
225.746	13.75
225.98	-4.25
226.215	7.75
226.449	17.75
226.683	8.75
226.918	23.75
227.152	41.75
227.387	30.75
227.621	34.75
227.856	50.75
228.09	44.75
228.324	49.75
228.559	45.75
228.793	67.75
229.027	91.75
229.262	96.75
229.496	121.75
229.73	140.75
229.964	157.75
230.199	132.75
230.433	130.75
230.667	130.75
230.901	104.75
231.136	106.75
231.37	116.75
231.604	125.75
231.838	119.75
232.072	123.75
232.306	108.75
232.541	119.75
232.775	121.75
233.009	129.75
233.243	124.75
233.477	114.75
233.711	114.75
233.945	115.75
234.179	133.75
234.413	120.75
234.647	118.75
234.881	112.75
235.115	115.75
235.349	124.75
235.583	118.75
235.817	121.75
236.051	137.75
236.285	126.75
236.519	124.75
236.753	133.75
236.987	158.75
237.221	180.75
237.455	232.75
237.689	201.75
237.922	168.75
238.156	146.75
238.39	126.75
238.624	129.75
238.858	123.75
239.091	113.75
239.325	126.75
239.559	127.75
239.793	132.75
240.027	141.75
240.26	133.75
240.494	156.75
240.728	161.75
240.961	165.75
241.195	150.75
241.429	152.75
241.662	144.75
241.896	142.75
242.13	168.75
242.363	146.75
242.597	146.75
242.83	137.75
243.064	146.75
243.298	148.75
243.531	134.75
243.765	140.75
243.998	143.75
244.232	140.75
244.465	149.75
244.699	148.75
244.932	172.75
245.166	148.75
245.399	140.75
245.633	152.75
245.866	153.75
246.099	135.75
246.333	163.75
246.566	174.75
246.8	170.75
247.033	163.75
247.266	177.75
247.5	176.75
247.733	184.75
247.966	188.75
248.2	173.75
248.433	189.75
248.666	187.75
248.899	199.75
249.133	232.75
249.366	243.75
249.599	207.75
249.832	201.75
250.066	228.75
250.299	200.75
250.532	248.75
250.765	263.75
250.998	248.75
251.231	266.75
251.465	257.75
251.698	242.75
251.931	221.75
252.164	209.75
252.397	226.75
252.63	203.75
252.863	222.75
253.096	251.75
253.329	256.75
253.562	233.75
253.795	228.75
254.028	244.75
254.261	237.75
254.494	243.75
254.727	275.75
254.96	294.75
255.193	293.75
255.426	288.75
255.659	298.75
255.892	317.75
256.124	345.75
256.357	352.75
256.59	341.75
256.823	292.75
257.056	284.75
257.289	254.75
257.521	258.75
257.754	239.75
257.987	248.75
258.22	242.75
258.452	262.75
258.685	258.75
258.918	232.75
259.151	232.75
259.383	255.75
259.616	253.75
259.849	230.75
260.081	262.75
260.314	285.75
260.547	275.75
260.779	268.75
261.012	252.75
261.244	255.75
261.477	243.75
261.71	246.75
261.942	268.75
262.175	260.75
262.407	249.75
262.64	230.75
262.872	233.75
263.105	218.75
263.337	215.75
263.57	225.75
263.802	236.75
264.035	229.75
264.267	228.75
264.499	218.75
264.732	228.75
264.964	223.75
265.197	212.75
265.429	233.75
265.661	218.75
265.894	228.75
266.126	236.75
266.358	234.75
266.591	224.75
266.823	234.75
267.055	222.75
267.287	252.75
267.52	235.75
267.752	223.75
267.984	248.75
268.216	250.75
268.448	250.75
268.681	243.75
268.913	265.75
269.145	286.75
269.377	296.75
269.609	281.75
269.841	299.75
270.073	288.75
270.306	323.75
270.538	337.75
270.77	330.75
271.002	326.75
271.234	325.75
271.466	326.75
271.698	338.75
271.93	334.75
272.162	344.75
272.394	345.75
272.626	340.75
272.858	311.75
273.09	320.75
273.322	299.75
273.553	288.75
273.785	284.75
274.017	281.75
274.249	293.75
274.481	309.75
274.713	281.75
274.945	298.75
275.176	305.75
275.408	292.75
275.64	278.75
275.872	269.75
276.104	283.75
276.335	273.75
276.567	306.75
276.799	308.75
277.031	343.75
277.262	340.75
277.494	339.75
277.726	308.75
277.957	308.75
278.189	301.75
278.421	299.75
278.652	282.75
278.884	277.75
279.115	280.75
279.347	274.75
279.579	280.75
279.81	278.75
280.042	273.75
280.273	277.75
280.505	308.75
280.736	293.75
280.968	278.75
281.199	273.75
281.431	284.75
281.662	283.75
281.894	283.75
282.125	291.75
282.356	318.75
282.588	323.75
282.819	333.75
283.051	313.75
283.282	295.75
283.513	273.75
283.745	302.75
283.976	288.75
284.207	284.75
284.439	271.75
284.67	274.75
284.901	281.75
285.132	273.75
285.364	300.75
285.595	295.75
285.826	293.75
286.057	312.75
286.288	306.75
286.52	288.75
286.751	285.75
286.982	286.75
287.213	314.75
287.444	316.75
287.675	292.75
287.906	321.75
288.138	312.75
288.369	315.75
288.6	323.75
288.831	306.75
289.062	291.75
289.293	305.75
289.524	296.75
289.755	293.75
289.986	282.75
290.217	295.75
290.448	272.75
290.679	292.75
290.91	276.75
291.141	304.75
291.371	302.75
291.602	290.75
291.833	292.75
292.064	297.75
292.295	283.75
292.526	274.75
292.757	285.75
292.987	288.75
293.218	292.75
293.449	289.75
293.68	292.75
293.91	285.75
294.141	287.75
294.372	280.75
294.603	296.75
294.833	300.75
295.064	302.75
295.295	312.75
295.525	299.75
295.756	300.75
295.987	309.75
296.217	324.75
296.448	330.75
296.679	308.75
296.909	301.75
297.14	306.75
297.37	297.75
297.601	311.75
297.831	293.75
298.062	301.75
298.292	273.75
298.523	289.75
298.753	307.75
298.984	308.75
299.214	309.75
299.445	295.75
299.675	329.75
299.905	312.75
300.136	324.75
300.366	317.75
300.597	315.75
300.827	316.75
301.057	328.75
301.288	317.75
301.518	322.75
301.748	320.75
301.979	334.75
302.209	321.75
302.439	327.75
302.669	338.75
302.9	328.75
303.13	325.75
303.36	312.75
303.59	336.75
303.82	329.75
304.051	344.75
304.281	322.75
304.511	316.75
304.741	343.75
304.971	322.75
305.201	348.75
305.431	328.75
305.661	324.75
305.891	329.75
306.121	319.75
306.352	344.75
306.582	314.75
306.812	339.75
307.042	347.75
307.272	331.75
307.502	343.75
307.731	353.75
307.961	338.75
308.191	336.75
308.421	347.75
308.651	355.75
308.881	332.75
309.111	363.75
309.341	335.75
309.571	354.75
309.8	367.75
310.03	363.75
310.26	373.75
310.49	381.75
310.72	383.75
310.949	419.75
311.179	416.75
311.409	394.75
311.639	390.75
311.868	376.75
312.098	376.75
312.328	396.75
312.557	422.75
312.787	433.75
313.017	411.75
313.246	404.75
313.476	394.75
313.706	386.75
313.935	388.75
314.165	395.75
314.394	404.75
314.624	393.75
314.853	402.75
315.083	393.75
315.312	390.75
315.542	391.75
315.771	396.75
316.001	358.75
316.23	386.75
316.46	390.75
316.689	370.75
316.919	392.75
317.148	393.75
317.377	401.75
317.607	412.75
317.836	390.75
318.065	386.75
318.295	395.75
318.524	385.75
318.753	382.75
318.983	383.75
319.212	402.75
319.441	405.75
319.67	408.75
319.9	428.75
320.129	381.75
320.358	399.75
320.587	394.75
320.816	427.75
321.046	412.75
321.275	427.75
321.504	404.75
321.733	418.75
321.962	428.75
322.191	452.75
322.42	451.75
322.649	471.75
322.878	480.75
323.108	493.75
323.337	514.75
323.566	539.75
323.795	607.75
324.024	637.75
324.253	774.75
324.482	1111.75
324.71	1684.75
324.939	2424.75
325.168	2189.75
325.397	1125.75
325.626	730.75
325.855	632.75
326.084	566.75
326.313	555.75
326.542	573.75
326.77	620.75
326.999	730.75
327.228	992.75
327.457	1496.75
327.686	1817.75
327.914	1293.75
328.143	868.75
328.372	800.75
328.6	748.75
328.829	685.75
329.058	685.75
329.287	703.75
329.515	662.75
329.744	663.75
329.972	692.75
330.201	756.75
330.43	859.75
330.658	859.75
330.887	778.75
331.115	702.75
331.344	625.75
331.572	556.75
331.801	536.75
332.03	551.75
332.258	535.75
332.486	519.75
332.715	507.75
332.943	521.75
333.172	516.75
333.4	520.75
333.629	541.75
333.857	593.75
334.085	629.75
334.314	734.75
334.542	904.75
334.771	968.75
334.999	744.75
335.227	593.75
335.455	541.75
335.684	517.75
335.912	502.75
336.14	478.75
336.369	461.75
336.597	462.75
336.825	487.75
337.053	454.75
337.281	465.75
337.51	468.75
337.738	455.75
337.966	446.75
338.194	472.75
338.422	446.75
338.65	452.75
338.878	427.75
339.106	426.75
339.334	454.75
339.562	421.75
339.79	434.75
340.018	416.75
340.246	424.75
340.474	428.75
340.702	440.75
340.93	444.75
341.158	432.75
341.386	430.75
341.614	422.75
341.842	441.75
342.07	419.75
342.298	415.75
342.526	411.75
342.754	402.75
342.981	405.75
343.209	412.75
343.437	401.75
343.665	404.75
343.893	418.75
344.12	420.75
344.348	411.75
344.576	436.75
344.804	449.75
345.031	432.75
345.259	450.75
345.487	440.75
345.714	437.75
345.942	417.75
346.17	426.75
346.397	409.75
346.625	423.75
346.853	425.75
347.08	423.75
347.308	433.75
347.535	418.75
347.763	412.75
347.99	417.75
348.218	428.75
348.445	442.75
348.673	408.75
348.9	425.75
349.128	411.75
349.355	394.75
349.583	412.75
349.81	397.75
350.037	382.75
350.265	395.75
350.492	409.75
350.72	418.75
350.947	414.75
351.174	415.75
351.402	436.75
351.629	446.75
351.856	428.75
352.083	426.75
352.311	436.75
352.538	420.75
352.765	444.75
352.992	426.75
353.22	440.75
353.447	424.75
353.674	404.75
353.901	398.75
354.128	392.75
354.355	399.75
354.583	387.75
354.81	408.75
355.037	378.75
355.264	370.75
355.491	380.75
355.718	380.75
355.945	353.75
356.172	379.75
356.399	368.75
356.626	378.75
356.853	380.75
357.08	378.75
357.307	364.75
357.534	345.75
357.761	364.75
357.988	370.75
358.215	378.75
358.441	390.75
358.668	370.75
358.895	378.75
359.122	376.75
359.349	404.75
359.576	420.75
359.802	428.75
360.029	472.75
360.256	471.75
360.483	444.75
360.709	426.75
360.936	418.75
361.163	403.75
361.39	413.75
361.616	436.75
361.843	365.75
362.07	404.75
362.296	404.75
362.523	422.75
362.749	397.75
362.976	402.75
363.203	396.75
363.429	386.75
363.656	395.75
363.882	399.75
364.109	377.75
364.335	394.75
364.562	381.75
364.788	404.75
365.015	390.75
365.241	386.75
365.468	400.75
365.694	390.75
365.92	374.75
366.147	385.75
366.373	391.75
366.599	382.75
366.826	400.75
367.052	396.75
367.278	392.75
367.505	409.75
367.731	386.75
367.957	392.75
368.184	402.75
368.41	381.75
368.636	398.75
368.862	399.75
369.089	394.75
369.315	397.75
369.541	366.75
369.767	396.75
369.993	399.75
370.219	381.75
370.445	380.75
370.672	363.75
370.898	372.75
371.124	372.75
371.35	380.75
371.576	390.75
371.802	386.75
372.028	377.75
372.254	369.75
372.48	372.75
372.706	360.75
372.932	384.75
373.158	364.75
373.384	370.75
373.61	386.75
373.835	380.75
374.061	388.75
374.287	380.75
374.513	373.75
374.739	379.75
374.965	373.75
375.191	363.75
375.416	380.75
375.642	377.75
375.868	350.75
376.094	392.75
376.319	380.75
376.545	360.75
376.771	368.75
376.997	370.75
377.222	365.75
377.448	375.75
377.674	378.75
377.899	378.75
378.125	363.75
378.35	357.75
378.576	378.75
378.802	388.75
379.027	375.75
379.253	362.75
379.478	360.75
379.704	360.75
379.929	370.75
380.155	372.75
380.38	378.75
380.606	376.75
380.831	377.75
381.057	365.75
381.282	358.75
381.507	370.75
381.733	377.75
381.958	381.75
382.184	376.75
382.409	390.75
382.634	359.75
382.86	388.75
383.085	368.75
383.31	356.75
383.535	380.75
383.761	380.75
383.986	388.75
384.211	391.75
384.436	384.75
384.662	378.75
384.887	387.75
385.112	384.75
385.337	393.75
385.562	385.75
385.787	377.75
386.013	399.75
386.238	375.75
386.463	388.75
386.688	386.75
386.913	392.75
387.138	405.75
387.363	406.75
387.588	396.75
387.813	402.75
388.038	398.75
388.263	392.75
388.488	395.75
388.713	394.75
388.938	408.75
389.163	394.75
389.387	393.75
389.612	384.75
389.837	411.75
390.062	388.75
390.287	394.75
390.512	375.75
390.736	378.75
390.961	393.75
391.186	377.75
391.411	396.75
391.636	381.75
391.86	384.75
392.085	407.75
392.31	396.75
392.534	387.75
392.759	389.75
392.984	386.75
393.208	364.75
393.433	368.75
393.658	370.75
393.882	389.75
394.107	392.75
394.331	379.75
394.556	374.75
394.78	397.75
395.005	380.75
395.229	402.75
395.454	402.75
395.678	394.75
395.903	419.75
396.127	432.75
396.352	434.75
396.576	402.75
396.801	406.75
397.025	398.75
397.249	405.75
397.474	414.75
397.698	424.75
397.922	428.75
398.147	438.75
398.371	452.75
398.595	440.75
398.82	417.75
399.044	441.75
399.268	441.75
399.492	437.75
399.717	467.75
399.941	482.75
400.165	534.75
400.389	555.75
400.613	491.75
400.837	446.75
401.062	448.75
401.286	429.75
401.51	432.75
401.734	445.75
401.958	430.75
402.182	451.75
402.406	458.75
402.63	446.75
402.854	468.75
403.078	459.75
403.302	439.75
403.526	477.75
403.75	448.75
403.974	456.75
404.198	463.75
404.422	456.75
404.645	491.75
404.869	498.75
405.093	552.75
405.317	592.75
405.541	630.75
405.765	580.75
405.988	543.75
406.212	543.75
406.436	546.75
406.66	551.75
406.883	516.75
407.107	540.75
407.331	571.75
407.555	603.75
407.778	618.75
408.002	566.75
408.226	497.75
408.449	499.75
408.673	516.75
408.896	531.75
409.12	563.75
409.344	535.75
409.567	491.75
409.791	493.75
410.014	467.75
410.238	473.75
410.461	472.75
410.685	469.75
410.908	493.75
411.132	536.75
411.355	570.75
411.578	534.75
411.802	481.75
412.025	477.75
412.249	512.75
412.472	540.75
412.695	615.75
412.919	614.75
413.142	537.75
413.365	533.75
413.589	493.75
413.812	497.75
414.035	486.75
414.258	467.75
414.482	441.75
414.705	459.75
414.928	440.75
415.151	435.75
415.374	465.75
415.597	446.75
415.821	441.75
416.044	455.75
416.267	464.75
416.49	456.75
416.713	442.75
416.936	453.75
417.159	434.75
417.382	467.75
417.605	469.75
417.828	463.75
418.051	493.75
418.274	444.75
418.497	476.75
418.72	452.75
418.943	445.75
419.166	468.75
419.389	477.75
419.611	496.75
419.834	497.75
420.057	489.75
420.28	535.75
420.503	528.75
420.726	531.75
420.948	532.75
421.171	533.75
421.394	579.75
421.617	493.75
421.839	484.75
422.062	486.75
422.285	483.75
422.507	551.75
422.73	625.75
422.953	578.75
423.175	512.75
423.398	482.75
423.621	484.75
423.843	476.75
424.066	537.75
424.288	485.75
424.511	500.75
424.733	578.75
424.956	657.75
425.178	626.75
425.401	650.75
425.623	660.75
425.846	562.75
426.068	530.75
426.291	516.75
426.513	498.75
426.735	520.75
426.958	558.75
427.18	657.75
427.402	762.75
427.625	843.75
427.847	773.75
428.069	706.75
428.292	619.75
428.514	552.75
428.736	516.75
428.958	519.75
429.181	476.75
429.403	478.75
429.625	477.75
429.847	515.75
430.069	593.75
430.292	590.75
430.514	504.75
430.736	467.75
430.958	466.75
431.18	457.75
431.402	439.75
431.624	440.75
431.846	441.75
432.068	457.75
432.29	416.75
432.512	449.75
432.734	454.75
432.956	452.75
433.178	460.75
433.4	477.75
433.622	468.75
433.844	448.75
434.066	440.75
434.287	442.75
434.509	458.75
434.731	449.75
434.953	461.75
435.175	482.75
435.397	507.75
435.618	508.75
435.84	550.75
436.062	653.75
436.284	719.75
436.505	589.75
436.727	520.75
436.949	500.75
437.17	491.75
437.392	469.75
437.614	480.75
437.835	546.75
438.057	627.75
438.278	708.75
438.5	717.75
438.721	820.75
438.943	726.75
439.165	598.75
439.386	547.75
439.608	542.75
439.829	530.75
440.05	578.75
440.272	635.75
440.493	553.75
440.715	516.75
440.936	485.75
441.158	471.75
441.379	469.75
441.6	467.75
441.822	514.75
442.043	553.75
442.264	642.75
442.486	669.75
442.707	564.75
442.928	541.75
443.149	538.75
443.371	553.75
443.592	597.75
443.813	683.75
444.034	739.75
444.255	613.75
444.476	549.75
444.698	500.75
444.919	500.75
445.14	619.75
445.361	584.75
445.582	566.75
445.803	634.75
446.024	715.75
446.245	744.75
446.466	659.75
446.687	564.75
446.908	530.75
447.129	509.75
447.35	476.75
447.571	480.75
447.792	473.75
448.013	466.75
448.234	493.75
448.455	528.75
448.675	672.75
448.896	766.75
449.117	650.75
449.338	630.75
449.559	716.75
449.779	794.75
450	643.75
450.221	556.75
450.442	509.75
450.662	481.75
450.883	471.75
451.104	520.75
451.324	496.75
451.545	471.75
451.766	452.75
451.986	444.75
452.207	445.75
452.428	432.75
452.648	439.75
452.869	426.75
453.089	459.75
453.31	461.75
453.53	437.75
453.751	420.75
453.971	423.75
454.192	463.75
454.412	437.75
454.633	430.75
454.853	407.75
455.073	423.75
455.294	450.75
455.514	520.75
455.734	510.75
455.955	456.75
456.175	409.75
456.395	388.75
456.616	388.75
456.836	390.75
457.056	403.75
457.276	388.75
457.497	422.75
457.717	380.75
457.937	412.75
458.157	404.75
458.377	409.75
458.598	445.75
458.818	502.75
459.038	591.75
459.258	613.75
459.478	491.75
459.698	446.75
459.918	418.75
460.138	436.75
460.358	436.75
460.578	428.75
460.798	443.75
461.018	443.75
461.238	422.75
461.458	420.75
461.678	417.75
461.898	442.75
462.118	416.75
462.338	450.75
462.558	430.75
462.777	428.75
462.997	450.75
463.217	438.75
463.437	444.75
463.657	437.75
463.876	447.75
464.096	439.75
464.316	434.75
464.536	481.75
464.755	462.75
464.975	481.75
465.195	517.75
465.414	598.75
465.634	536.75
465.854	485.75
466.073	452.75
466.293	440.75
466.512	445.75
466.732	458.75
466.951	436.75
467.171	409.75
467.391	426.75
467.61	450.75
467.829	448.75
468.049	464.75
468.268	530.75
468.488	477.75
468.707	443.75
468.927	450.75
469.146	435.75
469.365	433.75
469.585	412.75
469.804	442.75
470.023	432.75
470.243	449.75
470.462	450.75
470.681	474.75
470.901	465.75
471.12	462.75
471.339	445.75
471.558	444.75
471.777	463.75
471.997	457.75
472.216	518.75
472.435	683.75
472.654	636.75
472.873	507.75
473.092	516.75
473.311	489.75
473.53	468.75
473.749	465.75
473.968	520.75
474.187	636.75
474.406	650.75
474.625	523.75
474.844	479.75
475.063	466.75
475.282	467.75
475.501	472.75
475.72	441.75
475.939	451.75
476.158	461.75
476.377	467.75
476.596	470.75
476.814	481.75
477.033	472.75
477.252	475.75
477.471	491.75
477.69	462.75
477.908	483.75
478.127	488.75
478.346	488.75
478.564	482.75
478.783	501.75
479.002	504.75
479.22	510.75
479.439	511.75
479.658	528.75
479.876	551.75
480.095	559.75
480.313	589.75
480.532	560.75
480.751	592.75
480.969	640.75
481.188	910.75
481.406	1113.75
481.624	775.75
481.843	666.75
482.061	619.75
482.28	610.75
482.498	576.75
482.717	586.75
482.935	569.75
483.153	558.75
483.372	565.75
483.59	562.75
483.808	550.75
484.027	558.75
484.245	552.75
484.463	555.75
484.681	554.75
484.9	537.75
485.118	535.75
485.336	569.75
485.554	561.75
485.772	566.75
485.99	540.75
486.209	559.75
486.427	584.75
486.645	590.75
486.863	580.75
487.081	600.75
487.299	581.75
487.517	578.75
487.735	598.75
487.953	590.75
488.171	598.75
488.389	590.75
488.607	603.75
488.825	592.75
489.043	604.75
489.261	603.75
489.479	604.75
489.696	589.75
489.914	612.75
490.132	634.75
490.35	638.75
490.568	637.75
490.786	628.75
491.003	652.75
491.221	678.75
491.439	682.75
491.657	711.75
491.874	706.75
492.092	698.75
492.31	729.75
492.527	702.75
492.745	724.75
492.963	731.75
493.18	717.75
493.398	740.75
493.615	733.75
493.833	708.75
494.05	707.75
494.268	729.75
494.485	727.75
494.703	681.75
494.92	726.75
495.138	715.75
495.355	725.75
495.573	733.75
495.79	732.75
496.008	709.75
496.225	728.75
496.442	695.75
496.66	701.75
496.877	716.75
497.094	686.75
497.312	696.75
497.529	698.75
497.746	704.75
497.963	738.75
498.181	713.75
498.398	718.75
498.615	746.75
498.832	762.75
499.049	746.75
499.267	750.75
499.484	746.75
499.701	767.75
499.918	783.75
500.135	800.75
500.352	804.75
500.569	833.75
500.786	842.75
501.003	845.75
501.22	824.75
501.437	834.75
501.654	821.75
501.871	833.75
502.088	783.75
502.305	806.75
502.522	744.75
502.739	756.75
502.956	699.75
503.172	736.75
503.389	713.75
503.606	696.75
503.823	704.75
504.04	698.75
504.256	693.75
504.473	689.75
504.69	672.75
504.907	670.75
505.123	677.75
505.34	668.75
505.557	640.75
505.773	677.75
505.99	655.75
506.207	670.75
506.423	646.75
506.64	680.75
506.856	646.75
507.073	635.75
507.289	656.75
507.506	650.75
507.722	653.75
507.939	682.75
508.155	646.75
508.372	652.75
508.588	633.75
508.805	621.75
509.021	632.75
509.238	654.75
509.454	642.75
509.67	647.75
509.887	646.75
510.103	628.75
510.319	652.75
510.536	757.75
510.752	1233.75
510.968	1049.75
511.184	669.75
511.401	665.75
511.617	620.75
511.833	637.75
512.049	653.75
512.265	633.75
512.481	620.75
512.698	628.75
512.914	613.75
513.13	617.75
513.346	624.75
513.562	617.75
513.778	628.75
513.994	634.75
514.21	632.75
514.426	632.75
514.642	690.75
514.858	717.75
515.074	765.75
515.29	932.75
515.506	1344.75
515.721	1080.75
515.937	772.75
516.153	692.75
516.369	660.75
516.585	646.75
516.801	617.75
517.016	616.75
517.232	588.75
517.448	600.75
517.664	618.75
517.879	626.75
518.095	596.75
518.311	596.75
518.527	592.75
518.742	612.75
518.958	604.75
519.173	596.75
519.389	603.75
519.605	573.75
519.82	622.75
520.036	625.75
520.251	655.75
520.467	670.75
520.682	665.75
520.898	686.75
521.113	710.75
521.329	764.75
521.544	884.75
521.76	1098.75
521.975	1781.75
522.19	1786.75
522.406	965.75
522.621	727.75
522.836	648.75
523.052	626.75
523.267	572.75
523.482	563.75
523.698	553.75
523.913	573.75
524.128	548.75
524.343	553.75
524.559	527.75
524.774	529.75
524.989	538.75
525.204	538.75
525.419	546.75
525.634	511.75
525.849	528.75
526.064	505.75
526.28	505.75
526.495	489.75
526.71	486.75
526.925	489.75
527.14	502.75
527.355	494.75
527.57	470.75
527.785	477.75
527.999	469.75
528.214	469.75
528.429	517.75
528.644	491.75
528.859	485.75
529.074	498.75
529.289	512.75
529.503	587.75
529.718	587.75
529.933	521.75
530.148	501.75
530.363	501.75
530.577	472.75
530.792	480.75
531.007	461.75
531.221	459.75
531.436	464.75
531.651	471.75
531.865	482.75
532.08	457.75
532.295	457.75
532.509	457.75
532.724	447.75
532.938	470.75
533.153	428.75
533.367	450.75
533.582	438.75
533.796	459.75
534.011	455.75
534.225	430.75
534.44	444.75
534.654	454.75
534.868	460.75
535.083	464.75
535.297	444.75
535.511	466.75
535.726	451.75
535.94	455.75
536.154	448.75
536.369	466.75
536.583	453.75
536.797	442.75
537.011	464.75
537.225	424.75
537.44	429.75
537.654	454.75
537.868	452.75
538.082	436.75
538.296	441.75
538.51	432.75
538.724	452.75
538.938	442.75
539.153	435.75
539.367	428.75
539.581	440.75
539.795	461.75
540.009	439.75
540.222	461.75
540.436	439.75
540.65	430.75
540.864	455.75
541.078	458.75
541.292	448.75
541.506	427.75
541.72	421.75
541.934	419.75
542.147	439.75
542.361	421.75
542.575	412.75
542.789	417.75
543.002	411.75
543.216	412.75
543.43	444.75
543.644	433.75
543.857	425.75
544.071	430.75
544.285	449.75
544.498	428.75
544.712	410.75
544.925	420.75
545.139	443.75
545.352	421.75
545.566	412.75
545.779	420.75
545.993	400.75
546.206	424.75
546.42	436.75
546.633	421.75
546.847	415.75
547.06	425.75
547.274	423.75
547.487	404.75
547.7	407.75
547.914	412.75
548.127	394.75
548.34	416.75
548.554	394.75
548.767	403.75
548.98	388.75
549.193	395.75
549.407	413.75
549.62	380.75
549.833	389.75
550.046	375.75
550.259	387.75
550.473	388.75
550.686	393.75
550.899	408.75
551.112	385.75
551.325	397.75
551.538	413.75
551.751	406.75
551.964	381.75
552.177	390.75
552.39	397.75
552.603	412.75
552.816	388.75
553.029	388.75
553.242	398.75
553.455	400.75
553.667	411.75
553.88	428.75
554.093	420.75
554.306	410.75
554.519	397.75
554.732	388.75
554.944	386.75
555.157	381.75
555.37	384.75
555.583	385.75
555.795	386.75
556.008	398.75
556.221	403.75
556.433	372.75
556.646	396.75
556.859	386.75
557.071	378.75
557.284	379.75
557.496	380.75
557.709	355.75
557.921	362.75
558.134	372.75
558.346	376.75
558.559	374.75
558.771	371.75
558.984	352.75
559.196	365.75
559.409	378.75
559.621	372.75
559.833	362.75
560.046	362.75
560.258	355.75
560.47	349.75
560.683	360.75
560.895	352.75
561.107	347.75
561.32	340.75
561.532	365.75
561.744	360.75
561.956	370.75
562.168	344.75
562.381	347.75
562.593	341.75
562.805	373.75
563.017	358.75
563.229	358.75
563.441	350.75
563.653	354.75
563.865	372.75
564.077	364.75
564.289	352.75
564.501	378.75
564.713	366.75
564.925	372.75
565.137	374.75
565.349	383.75
565.561	369.75
565.773	373.75
565.985	381.75
566.197	378.75
566.408	383.75
566.62	388.75
566.832	382.75
567.044	416.75
567.255	390.75
567.467	402.75
567.679	418.75
567.891	419.75
568.102	390.75
568.314	371.75
568.526	400.75
568.737	381.75
568.949	372.75
569.161	364.75
569.372	354.75
569.584	365.75
569.795	341.75
570.007	359.75
570.218	400.75
570.43	406.75
570.641	339.75
570.853	342.75
571.064	344.75
571.276	347.75
571.487	356.75
571.698	339.75
571.91	330.75
572.121	325.75
572.333	345.75
572.544	328.75
572.755	326.75
572.966	331.75
573.178	322.75
573.389	333.75
573.6	331.75
573.811	319.75
574.023	319.75
574.234	317.75
574.445	316.75
574.656	312.75
574.867	311.75
575.078	323.75
575.289	315.75
575.501	305.75
575.712	310.75
575.923	317.75
576.134	320.75
576.345	305.75
576.556	321.75
576.767	309.75
576.978	307.75
577.188	321.75
577.399	307.75
577.61	326.75
577.821	314.75
578.032	316.75
578.243	359.75
578.454	589.75
578.665	438.75
578.875	334.75
579.086	301.75
579.297	302.75
579.508	302.75
579.718	309.75
579.929	286.75
580.14	308.75
580.35	295.75
580.561	292.75
580.772	292.75
580.982	292.75
581.193	302.75
581.403	290.75
581.614	298.75
581.825	285.75
582.035	295.75
582.246	285.75
582.456	281.75
582.667	305.75
582.877	266.75
583.087	294.75
583.298	297.75
583.508	279.75
583.719	285.75
583.929	280.75
584.139	272.75
584.35	279.75
584.56	288.75
584.77	298.75
584.981	266.75
585.191	285.75
585.401	276.75
585.611	281.75
585.821	292.75
586.032	274.75
586.242	281.75
586.452	294.75
586.662	285.75
586.872	278.75
587.082	288.75
587.292	268.75
587.502	271.75
587.713	269.75
587.923	270.75
588.133	290.75
588.343	300.75
588.553	283.75
588.762	293.75
588.972	274.75
589.182	269.75
589.392	271.75
589.602	296.75
589.812	286.75
590.022	282.75
590.232	273.75
590.441	272.75
590.651	292.75
590.861	283.75
591.071	268.75
591.281	267.75
591.49	277.75
591.7	280.75
591.91	264.75
592.119	286.75
592.329	285.75
592.539	271.75
592.748	266.75
592.958	279.75
593.167	274.75
593.377	293.75
593.587	305.75
593.796	279.75
594.006	277.75
594.215	283.75
594.424	285.75
594.634	267.75
594.843	266.75
595.053	268.75
595.262	266.75
595.472	287.75
595.681	266.75
595.89	268.75
596.1	280.75
596.309	271.75
596.518	259.75
596.727	260.75
596.937	257.75
597.146	253.75
597.355	265.75
597.564	266.75
597.774	262.75
597.983	261.75
598.192	262.75
598.401	249.75
598.61	247.75
598.819	238.75
599.028	237.75
599.237	236.75
599.446	264.75
599.655	268.75
599.864	252.75
600.073	237.75
600.282	238.75
600.491	243.75
600.7	260.75
600.909	246.75
601.118	226.75
601.327	244.75
601.536	228.75
601.745	228.75
601.953	237.75
602.162	260.75
602.371	254.75
602.58	246.75
602.789	262.75
602.997	238.75
603.206	240.75
603.415	221.75
603.623	235.75
603.832	226.75
604.041	240.75
604.249	218.75
604.458	242.75
604.666	229.75
604.875	239.75
605.084	243.75
605.292	233.75
605.501	250.75
605.709	211.75
605.918	246.75
606.126	233.75
606.334	224.75
606.543	253.75
606.751	224.75
606.96	228.75
607.168	241.75
607.376	220.75
607.585	229.75
607.793	229.75
608.001	230.75
608.21	240.75
608.418	228.75
608.626	228.75
608.834	242.75
609.043	246.75
609.251	215.75
609.459	216.75
609.667	229.75
609.875	232.75
610.083	211.75
610.291	241.75
610.499	220.75
610.707	239.75
610.916	227.75
611.124	256.75
611.332	231.75
611.54	272.75
611.748	237.75
611.955	232.75
612.163	244.75
612.371	232.75
612.579	219.75
612.787	240.75
612.995	243.75
613.203	243.75
613.411	233.75
613.618	212.75
613.826	225.75
614.034	230.75
614.242	212.75
614.449	225.75
614.657	245.75
614.865	227.75
615.072	230.75
615.28	208.75
615.488	195.75
615.695	225.75
615.903	220.75
616.111	224.75
616.318	252.75
616.526	226.75
616.733	228.75
616.941	224.75
617.148	224.75
617.356	218.75
617.563	232.75
617.771	222.75
617.978	210.75
618.185	224.75
618.393	219.75
618.6	229.75
618.807	226.75
619.015	224.75
619.222	214.75
619.429	216.75
619.637	226.75
619.844	229.75
620.051	214.75
620.258	215.75
620.466	202.75
620.673	202.75
620.88	216.75
621.087	202.75
621.294	222.75
621.501	217.75
621.708	202.75
621.915	216.75
622.122	209.75
622.329	213.75
622.536	213.75
622.743	217.75
622.95	214.75
623.157	211.75
623.364	195.75
623.571	212.75
623.778	188.75
623.985	213.75
624.192	203.75
624.399	203.75
624.606	219.75
624.812	209.75
625.019	189.75
625.226	213.75
625.433	199.75
625.639	193.75
625.846	196.75
626.053	206.75
626.259	212.75
626.466	211.75
626.673	190.75
626.879	185.75
627.086	204.75
627.293	206.75
627.499	196.75
627.706	189.75
627.912	180.75
628.119	206.75
628.325	196.75
628.532	186.75
628.738	202.75
628.945	193.75
629.151	188.75
629.357	196.75
629.564	207.75
629.77	172.75
629.976	195.75
630.183	193.75
630.389	192.75
630.595	188.75
630.802	200.75
631.008	189.75
631.214	205.75
631.42	182.75
631.627	206.75
631.833	191.75
632.039	200.75
632.245	184.75
632.451	177.75
632.657	187.75
632.863	179.75
633.069	174.75
633.275	165.75
633.481	165.75
633.688	178.75
633.893	186.75
634.099	179.75
634.305	185.75
634.511	164.75
634.717	184.75
634.923	173.75
635.129	184.75
635.335	168.75
635.541	178.75
635.747	165.75
635.952	174.75
636.158	181.75
636.364	191.75
636.57	220.75
636.775	205.75
636.981	189.75
637.187	190.75
637.392	174.75
637.598	169.75
637.804	181.75
638.009	172.75
638.215	187.75
638.421	174.75
638.626	182.75
638.832	181.75
639.037	158.75
639.243	161.75
639.448	187.75
639.654	156.75
639.859	180.75
640.065	161.75
640.27	173.75
640.475	170.75
640.681	160.75
640.886	178.75
641.091	173.75
641.297	164.75
641.502	169.75
641.707	160.75
641.913	162.75
642.118	172.75
642.323	165.75
642.528	166.75
642.733	169.75
642.939	154.75
643.144	158.75
643.349	164.75
643.554	163.75
643.759	161.75
643.964	153.75
644.169	165.75
644.374	149.75
644.579	167.75
644.784	153.75
644.989	145.75
645.194	152.75
645.399	172.75
645.604	152.75
645.809	159.75
646.014	164.75
646.219	151.75
646.423	144.75
646.628	163.75
646.833	172.75
647.038	176.75
647.243	155.75
647.447	153.75
647.652	163.75
647.857	161.75
648.062	160.75
648.266	165.75
648.471	152.75
648.676	178.75
648.88	157.75
649.085	155.75
649.289	168.75
649.494	150.75
649.698	172.75
649.903	172.75
650.107	163.75
650.312	174.75
650.516	144.75
650.721	168.75
650.925	147.75
651.13	141.75
651.334	146.75
651.539	157.75
651.743	159.75
651.947	155.75
652.152	132.75
652.356	138.75
652.56	131.75
652.764	136.75
652.969	148.75
653.173	136.75
653.377	117.75
653.581	139.75
653.785	125.75
653.99	147.75
654.194	126.75
654.398	136.75
654.602	118.75
654.806	130.75
655.01	124.75
655.214	123.75
655.418	128.75
655.622	129.75
655.826	130.75
656.03	128.75
656.234	120.75
656.438	143.75
656.642	125.75
656.846	130.75
657.049	121.75
657.253	126.75
657.457	112.75
657.661	120.75
657.865	109.75
658.068	104.75
658.272	108.75
658.476	117.75
658.68	93.75
658.883	98.75
659.087	111.75
659.291	79.75
659.494	103.75
659.698	99.75
659.901	105.75
660.105	99.75
660.309	91.75
660.512	99.75
660.716	102.75
660.919	84.75
661.123	104.75
661.326	97.75
661.53	84.75
661.733	88.75
661.936	94.75
662.14	85.75
662.343	82.75
662.546	76.75
662.75	82.75
662.953	86.75
663.156	101.75
663.36	102.75
663.563	85.75
663.766	97.75
663.969	83.75
664.173	92.75
664.376	79.75
664.579	72.75
664.782	84.75
664.985	90.75
665.188	69.75
665.391	76.75
665.594	81.75
665.797	86.75
666	90.75
666.203	86.75
666.406	86.75
666.609	73.75
666.812	77.75
667.015	89.75
667.218	106.75
667.421	87.75
667.624	83.75
667.827	73.75
668.03	69.75
668.232	94.75
668.435	82.75
668.638	89.75
668.841	72.75
669.043	91.75
669.246	95.75
669.449	80.75
669.651	87.75
669.854	74.75
670.057	82.75
670.259	82.75
670.462	84.75
670.665	82.75
670.867	81.75
671.07	88.75
671.272	83.75
671.475	97.75
671.677	93.75
671.88	78.75
672.082	70.75
672.284	94.75
672.487	83.75
672.689	82.75
672.892	84.75
