Data from 1986.PennyLincolnUp.Lamp.En5.5.200Scan.071819.P2_HRD10591_17-10-01-974.txt Node
Date: Thu Jul 18 17:10:01 EDT 2019
User: cochatt
Spectrometer: HR+D1059
Trigger mode: 1
Integration Time (sec): 1.000000E-1
Scans to average: 1
Electric dark correction enabled: true
Nonlinearity correction enabled: false
Boxcar width: 0
XAxis mode: Wavelengths
Number of Pixels in Spectrum: 2048
>>>>>Begin Spectral Data<<<<<
223.165	-20.31
223.4	-20.31
223.635	-20.31
223.869	-12.31
224.104	-8.31
224.338	-18.31
224.573	-8.31
224.808	-22.31
225.042	-15.31
225.277	-7.31
225.511	-19.31
225.746	6.69
225.98	10.69
226.215	11.69
226.449	31.69
226.683	21.69
226.918	22.69
227.152	26.69
227.387	33.69
227.621	39.69
227.856	33.69
228.09	36.69
228.324	35.69
228.559	64.69
228.793	72.69
229.027	96.69
229.262	103.69
229.496	112.69
229.73	136.69
229.964	149.69
230.199	126.69
230.433	117.69
230.667	97.69
230.901	100.69
231.136	110.69
231.37	114.69
231.604	116.69
231.838	111.69
232.072	107.69
232.306	116.69
232.541	96.69
232.775	118.69
233.009	105.69
233.243	119.69
233.477	105.69
233.711	114.69
233.945	109.69
234.179	114.69
234.413	109.69
234.647	110.69
234.881	108.69
235.115	116.69
235.349	120.69
235.583	124.69
235.817	106.69
236.051	123.69
236.285	134.69
236.519	124.69
236.753	126.69
236.987	136.69
237.221	158.69
237.455	214.69
237.689	176.69
237.922	135.69
238.156	136.69
238.39	133.69
238.624	131.69
238.858	127.69
239.091	117.69
239.325	113.69
239.559	124.69
239.793	126.69
240.027	111.69
240.26	122.69
240.494	155.69
240.728	168.69
240.961	152.69
241.195	139.69
241.429	136.69
241.662	119.69
241.896	127.69
242.13	123.69
242.363	129.69
242.597	130.69
242.83	140.69
243.064	132.69
243.298	137.69
243.531	127.69
243.765	132.69
243.998	134.69
244.232	136.69
244.465	152.69
244.699	141.69
244.932	134.69
245.166	154.69
245.399	130.69
245.633	142.69
245.866	133.69
246.099	139.69
246.333	147.69
246.566	139.69
246.8	139.69
247.033	142.69
247.266	148.69
247.5	167.69
247.733	140.69
247.966	169.69
248.2	161.69
248.433	165.69
248.666	177.69
248.899	193.69
249.133	200.69
249.366	206.69
249.599	201.69
249.832	179.69
250.066	185.69
250.299	171.69
250.532	162.69
250.765	188.69
250.998	200.69
251.231	224.69
251.465	231.69
251.698	200.69
251.931	188.69
252.164	201.69
252.397	186.69
252.63	207.69
252.863	208.69
253.096	201.69
253.329	209.69
253.562	204.69
253.795	210.69
254.028	228.69
254.261	216.69
254.494	210.69
254.727	250.69
254.96	288.69
255.193	272.69
255.426	238.69
255.659	247.69
255.892	231.69
256.124	218.69
256.357	195.69
256.59	221.69
256.823	212.69
257.056	197.69
257.289	202.69
257.521	202.69
257.754	222.69
257.987	220.69
258.22	204.69
258.452	210.69
258.685	204.69
258.918	204.69
259.151	196.69
259.383	201.69
259.616	212.69
259.849	233.69
260.081	231.69
260.314	245.69
260.547	235.69
260.779	251.69
261.012	228.69
261.244	227.69
261.477	216.69
261.71	226.69
261.942	214.69
262.175	220.69
262.407	230.69
262.64	188.69
262.872	213.69
263.105	205.69
263.337	203.69
263.57	205.69
263.802	190.69
264.035	190.69
264.267	214.69
264.499	202.69
264.732	212.69
264.964	203.69
265.197	202.69
265.429	221.69
265.661	193.69
265.894	185.69
266.126	197.69
266.358	210.69
266.591	199.69
266.823	209.69
267.055	212.69
267.287	209.69
267.52	216.69
267.752	216.69
267.984	206.69
268.216	220.69
268.448	223.69
268.681	223.69
268.913	244.69
269.145	232.69
269.377	262.69
269.609	263.69
269.841	249.69
270.073	267.69
270.306	272.69
270.538	310.69
270.77	283.69
271.002	293.69
271.234	297.69
271.466	289.69
271.698	305.69
271.93	295.69
272.162	290.69
272.394	302.69
272.626	276.69
272.858	267.69
273.09	271.69
273.322	253.69
273.553	263.69
273.785	252.69
274.017	251.69
274.249	249.69
274.481	245.69
274.713	253.69
274.945	268.69
275.176	238.69
275.408	263.69
275.64	267.69
275.872	225.69
276.104	233.69
276.335	246.69
276.567	265.69
276.799	264.69
277.031	283.69
277.262	294.69
277.494	280.69
277.726	277.69
277.957	275.69
278.189	264.69
278.421	247.69
278.652	250.69
278.884	237.69
279.115	235.69
279.347	244.69
279.579	242.69
279.81	244.69
280.042	237.69
280.273	261.69
280.505	245.69
280.736	232.69
280.968	246.69
281.199	270.69
281.431	246.69
281.662	259.69
281.894	267.69
282.125	234.69
282.356	271.69
282.588	284.69
282.819	291.69
283.051	260.69
283.282	261.69
283.513	249.69
283.745	237.69
283.976	253.69
284.207	265.69
284.439	257.69
284.67	249.69
284.901	240.69
285.132	244.69
285.364	241.69
285.595	244.69
285.826	237.69
286.057	260.69
286.288	256.69
286.52	250.69
286.751	253.69
286.982	259.69
287.213	257.69
287.444	250.69
287.675	262.69
287.906	261.69
288.138	261.69
288.369	268.69
288.6	296.69
288.831	259.69
289.062	257.69
289.293	226.69
289.524	256.69
289.755	261.69
289.986	260.69
290.217	282.69
290.448	268.69
290.679	250.69
290.91	273.69
291.141	267.69
291.371	252.69
291.602	253.69
291.833	268.69
292.064	242.69
292.295	256.69
292.526	257.69
292.757	263.69
292.987	259.69
293.218	249.69
293.449	260.69
293.68	255.69
293.91	247.69
294.141	229.69
294.372	249.69
294.603	260.69
294.833	275.69
295.064	262.69
295.295	257.69
295.525	246.69
295.756	281.69
295.987	262.69
296.217	277.69
296.448	298.69
296.679	274.69
296.909	264.69
297.14	251.69
297.37	249.69
297.601	289.69
297.831	270.69
298.062	264.69
298.292	279.69
298.523	274.69
298.753	272.69
298.984	262.69
299.214	273.69
299.445	268.69
299.675	268.69
299.905	278.69
300.136	279.69
300.366	272.69
300.597	271.69
300.827	273.69
301.057	283.69
301.288	300.69
301.518	311.69
301.748	294.69
301.979	289.69
302.209	294.69
302.439	300.69
302.669	295.69
302.9	279.69
303.13	290.69
303.36	289.69
303.59	288.69
303.82	297.69
304.051	279.69
304.281	302.69
304.511	282.69
304.741	292.69
304.971	305.69
305.201	277.69
305.431	296.69
305.661	255.69
305.891	279.69
306.121	296.69
306.352	293.69
306.582	285.69
306.812	295.69
307.042	289.69
307.272	276.69
307.502	297.69
307.731	299.69
307.961	305.69
308.191	284.69
308.421	285.69
308.651	307.69
308.881	300.69
309.111	304.69
309.341	301.69
309.571	290.69
309.8	310.69
310.03	342.69
310.26	337.69
310.49	320.69
310.72	354.69
310.949	366.69
311.179	355.69
311.409	337.69
311.639	348.69
311.868	347.69
312.098	344.69
312.328	357.69
312.557	386.69
312.787	378.69
313.017	351.69
313.246	366.69
313.476	352.69
313.706	350.69
313.935	326.69
314.165	352.69
314.394	344.69
314.624	356.69
314.853	354.69
315.083	341.69
315.312	320.69
315.542	340.69
315.771	330.69
316.001	333.69
316.23	330.69
316.46	339.69
316.689	345.69
316.919	325.69
317.148	357.69
317.377	353.69
317.607	357.69
317.836	340.69
318.065	331.69
318.295	328.69
318.524	319.69
318.753	358.69
318.983	332.69
319.212	324.69
319.441	341.69
319.67	331.69
319.9	331.69
320.129	334.69
320.358	346.69
320.587	352.69
320.816	348.69
321.046	388.69
321.275	352.69
321.504	345.69
321.733	355.69
321.962	360.69
322.191	377.69
322.42	380.69
322.649	415.69
322.878	429.69
323.108	428.69
323.337	451.69
323.566	483.69
323.795	498.69
324.024	564.69
324.253	679.69
324.482	944.69
324.71	1494.69
324.939	2092.69
325.168	1846.69
325.397	997.69
325.626	634.69
325.855	540.69
326.084	496.69
326.313	517.69
326.542	466.69
326.77	532.69
326.999	617.69
327.228	839.69
327.457	1307.69
327.686	1574.69
327.914	1081.69
328.143	698.69
328.372	600.69
328.6	549.69
328.829	514.69
329.058	552.69
329.287	545.69
329.515	515.69
329.744	453.69
329.972	468.69
330.201	448.69
330.43	463.69
330.658	496.69
330.887	558.69
331.115	544.69
331.344	488.69
331.572	440.69
331.801	454.69
332.03	452.69
332.258	435.69
332.486	406.69
332.715	387.69
332.943	393.69
333.172	389.69
333.4	393.69
333.629	406.69
333.857	410.69
334.085	387.69
334.314	395.69
334.542	385.69
334.771	409.69
334.999	405.69
335.227	369.69
335.455	384.69
335.684	379.69
335.912	374.69
336.14	386.69
336.369	382.69
336.597	404.69
336.825	407.69
337.053	388.69
337.281	379.69
337.51	376.69
337.738	366.69
337.966	394.69
338.194	388.69
338.422	376.69
338.65	360.69
338.878	391.69
339.106	368.69
339.334	360.69
339.562	376.69
339.79	374.69
340.018	380.69
340.246	355.69
340.474	358.69
340.702	397.69
340.93	372.69
341.158	350.69
341.386	392.69
341.614	393.69
341.842	395.69
342.07	359.69
342.298	371.69
342.526	363.69
342.754	356.69
342.981	347.69
343.209	371.69
343.437	365.69
343.665	380.69
343.893	379.69
344.12	377.69
344.348	362.69
344.576	387.69
344.804	378.69
345.031	404.69
345.259	393.69
345.487	382.69
345.714	374.69
345.942	380.69
346.17	379.69
346.397	366.69
346.625	368.69
346.853	361.69
347.08	361.69
347.308	367.69
347.535	390.69
347.763	378.69
347.99	361.69
348.218	381.69
348.445	380.69
348.673	372.69
348.9	384.69
349.128	361.69
349.355	347.69
349.583	359.69
349.81	335.69
350.037	348.69
350.265	357.69
350.492	370.69
350.72	357.69
350.947	356.69
351.174	366.69
351.402	380.69
351.629	372.69
351.856	374.69
352.083	370.69
352.311	379.69
352.538	381.69
352.765	377.69
352.992	378.69
353.22	371.69
353.447	380.69
353.674	352.69
353.901	344.69
354.128	349.69
354.355	348.69
354.583	334.69
354.81	334.69
355.037	344.69
355.264	340.69
355.491	341.69
355.718	324.69
355.945	326.69
356.172	331.69
356.399	326.69
356.626	327.69
356.853	344.69
357.08	342.69
357.307	339.69
357.534	333.69
357.761	339.69
357.988	313.69
358.215	333.69
358.441	308.69
358.668	319.69
358.895	331.69
359.122	356.69
359.349	363.69
359.576	365.69
359.802	382.69
360.029	409.69
360.256	435.69
360.483	404.69
360.709	374.69
360.936	356.69
361.163	379.69
361.39	368.69
361.616	372.69
361.843	363.69
362.07	377.69
362.296	359.69
362.523	368.69
362.749	347.69
362.976	360.69
363.203	356.69
363.429	336.69
363.656	350.69
363.882	353.69
364.109	352.69
364.335	356.69
364.562	333.69
364.788	356.69
365.015	332.69
365.241	326.69
365.468	350.69
365.694	351.69
365.92	355.69
366.147	324.69
366.373	343.69
366.599	351.69
366.826	337.69
367.052	332.69
367.278	322.69
367.505	358.69
367.731	331.69
367.957	321.69
368.184	323.69
368.41	356.69
368.636	357.69
368.862	349.69
369.089	342.69
369.315	339.69
369.541	329.69
369.767	365.69
369.993	350.69
370.219	341.69
370.445	335.69
370.672	322.69
370.898	342.69
371.124	326.69
371.35	324.69
371.576	348.69
371.802	344.69
372.028	332.69
372.254	340.69
372.48	335.69
372.706	316.69
372.932	347.69
373.158	317.69
373.384	347.69
373.61	334.69
373.835	332.69
374.061	327.69
374.287	334.69
374.513	321.69
374.739	331.69
374.965	327.69
375.191	337.69
375.416	338.69
375.642	323.69
375.868	330.69
376.094	337.69
376.319	324.69
376.545	336.69
376.771	360.69
376.997	331.69
377.222	339.69
377.448	337.69
377.674	322.69
377.899	334.69
378.125	344.69
378.35	333.69
378.576	322.69
378.802	343.69
379.027	332.69
379.253	331.69
379.478	329.69
379.704	330.69
379.929	329.69
380.155	339.69
380.38	333.69
380.606	340.69
380.831	341.69
381.057	331.69
381.282	314.69
381.507	336.69
381.733	357.69
381.958	320.69
382.184	318.69
382.409	342.69
382.634	345.69
382.86	332.69
383.085	329.69
383.31	344.69
383.535	347.69
383.761	341.69
383.986	354.69
384.211	341.69
384.436	345.69
384.662	360.69
384.887	353.69
385.112	340.69
385.337	364.69
385.562	345.69
385.787	357.69
386.013	361.69
386.238	352.69
386.463	383.69
386.688	368.69
386.913	329.69
387.138	349.69
387.363	355.69
387.588	343.69
387.813	351.69
388.038	337.69
388.263	358.69
388.488	324.69
388.713	357.69
388.938	356.69
389.163	356.69
389.387	368.69
389.612	376.69
389.837	346.69
390.062	360.69
390.287	344.69
390.512	342.69
390.736	346.69
390.961	356.69
391.186	339.69
391.411	353.69
391.636	347.69
391.86	348.69
392.085	353.69
392.31	357.69
392.534	361.69
392.759	339.69
392.984	365.69
393.208	350.69
393.433	362.69
393.658	352.69
393.882	341.69
394.107	342.69
394.331	360.69
394.556	359.69
394.78	350.69
395.005	338.69
395.229	342.69
395.454	366.69
395.678	360.69
395.903	374.69
396.127	386.69
396.352	407.69
396.576	377.69
396.801	382.69
397.025	381.69
397.249	358.69
397.474	375.69
397.698	371.69
397.922	375.69
398.147	378.69
398.371	409.69
398.595	380.69
398.82	390.69
399.044	394.69
399.268	393.69
399.492	427.69
399.717	436.69
399.941	440.69
400.165	465.69
400.389	490.69
400.613	450.69
400.837	410.69
401.062	398.69
401.286	400.69
401.51	419.69
401.734	397.69
401.958	387.69
402.182	388.69
402.406	393.69
402.63	394.69
402.854	402.69
403.078	385.69
403.302	406.69
403.526	413.69
403.75	423.69
403.974	417.69
404.198	411.69
404.422	398.69
404.645	414.69
404.869	396.69
405.093	442.69
405.317	459.69
405.541	459.69
405.765	420.69
405.988	430.69
406.212	437.69
406.436	470.69
406.66	481.69
406.883	422.69
407.107	483.69
407.331	494.69
407.555	568.69
407.778	561.69
408.002	501.69
408.226	470.69
408.449	465.69
408.673	464.69
408.896	499.69
409.12	528.69
409.344	480.69
409.567	447.69
409.791	434.69
410.014	421.69
410.238	409.69
410.461	427.69
410.685	402.69
410.908	444.69
411.132	467.69
411.355	474.69
411.578	473.69
411.802	410.69
412.025	398.69
412.249	417.69
412.472	410.69
412.695	425.69
412.919	395.69
413.142	396.69
413.365	378.69
413.589	389.69
413.812	393.69
414.035	382.69
414.258	388.69
414.482	381.69
414.705	385.69
414.928	375.69
415.151	391.69
415.374	378.69
415.597	384.69
415.821	359.69
416.044	375.69
416.267	392.69
416.49	385.69
416.713	384.69
416.936	382.69
417.159	382.69
417.382	397.69
417.605	397.69
417.828	398.69
418.051	427.69
418.274	425.69
418.497	410.69
418.72	384.69
418.943	390.69
419.166	420.69
419.389	414.69
419.611	402.69
419.834	422.69
420.057	407.69
420.28	399.69
420.503	393.69
420.726	384.69
420.948	408.69
421.171	442.69
421.394	485.69
421.617	445.69
421.839	415.69
422.062	406.69
422.285	424.69
422.507	472.69
422.73	542.69
422.953	555.69
423.175	497.69
423.398	462.69
423.621	448.69
423.843	444.69
424.066	450.69
424.288	456.69
424.511	470.69
424.733	507.69
424.956	586.69
425.178	576.69
425.401	565.69
425.623	596.69
425.846	519.69
426.068	470.69
426.291	452.69
426.513	466.69
426.735	488.69
426.958	496.69
427.18	560.69
427.402	689.69
427.625	787.69
427.847	692.69
428.069	570.69
428.292	510.69
428.514	444.69
428.736	433.69
428.958	437.69
429.181	429.69
429.403	427.69
429.625	448.69
429.847	478.69
430.069	530.69
430.292	526.69
430.514	425.69
430.736	424.69
430.958	409.69
431.18	398.69
431.402	406.69
431.624	408.69
431.846	390.69
432.068	380.69
432.29	392.69
432.512	414.69
432.734	410.69
432.956	416.69
433.178	422.69
433.4	413.69
433.622	414.69
433.844	404.69
434.066	405.69
434.287	400.69
434.509	397.69
434.731	402.69
434.953	414.69
435.175	438.69
435.397	442.69
435.618	450.69
435.84	501.69
436.062	587.69
436.284	638.69
436.505	523.69
436.727	488.69
436.949	440.69
437.17	440.69
437.392	437.69
437.614	443.69
437.835	478.69
438.057	547.69
438.278	663.69
438.5	635.69
438.721	685.69
438.943	686.69
439.165	565.69
439.386	482.69
439.608	483.69
439.829	477.69
440.05	505.69
440.272	561.69
440.493	483.69
440.715	463.69
440.936	432.69
441.158	440.69
441.379	433.69
441.6	420.69
441.822	447.69
442.043	488.69
442.264	572.69
442.486	613.69
442.707	518.69
442.928	478.69
443.149	489.69
443.371	505.69
443.592	563.69
443.813	606.69
444.034	646.69
444.255	552.69
444.476	493.69
444.698	450.69
444.919	458.69
445.14	577.69
445.361	550.69
445.582	523.69
445.803	577.69
446.024	638.69
446.245	662.69
446.466	589.69
446.687	534.69
446.908	482.69
447.129	454.69
447.35	450.69
447.571	451.69
447.792	425.69
448.013	438.69
448.234	478.69
448.455	490.69
448.675	598.69
448.896	700.69
449.117	586.69
449.338	563.69
449.559	660.69
449.779	747.69
450	598.69
450.221	505.69
450.442	437.69
450.662	413.69
450.883	443.69
451.104	437.69
451.324	464.69
451.545	420.69
451.766	424.69
451.986	392.69
452.207	390.69
452.428	367.69
452.648	380.69
452.869	391.69
453.089	409.69
453.31	406.69
453.53	380.69
453.751	384.69
453.971	412.69
454.192	398.69
454.412	405.69
454.633	379.69
454.853	406.69
455.073	385.69
455.294	400.69
455.514	493.69
455.734	465.69
455.955	383.69
456.175	388.69
456.395	355.69
456.616	359.69
456.836	347.69
457.056	357.69
457.276	365.69
457.497	393.69
457.717	359.69
457.937	351.69
458.157	370.69
458.377	361.69
458.598	394.69
458.818	453.69
459.038	538.69
459.258	534.69
459.478	437.69
459.698	416.69
459.918	384.69
460.138	399.69
460.358	401.69
460.578	396.69
460.798	399.69
461.018	393.69
461.238	399.69
461.458	394.69
461.678	373.69
461.898	391.69
462.118	390.69
462.338	409.69
462.558	401.69
462.777	398.69
462.997	394.69
463.217	422.69
463.437	431.69
463.657	398.69
463.876	419.69
464.096	418.69
464.316	423.69
464.536	420.69
464.755	421.69
464.975	432.69
465.195	478.69
465.414	548.69
465.634	473.69
465.854	430.69
466.073	430.69
466.293	395.69
466.512	383.69
466.732	396.69
466.951	383.69
467.171	384.69
467.391	379.69
467.61	388.69
467.829	388.69
468.049	386.69
468.268	386.69
468.488	393.69
468.707	393.69
468.927	372.69
469.146	356.69
469.365	371.69
469.585	378.69
469.804	392.69
470.023	407.69
470.243	403.69
470.462	390.69
470.681	412.69
470.901	396.69
471.12	404.69
471.339	385.69
471.558	408.69
471.777	412.69
471.997	381.69
472.216	382.69
472.435	397.69
472.654	397.69
472.873	388.69
473.092	382.69
473.311	368.69
473.53	391.69
473.749	390.69
473.968	434.69
474.187	559.69
474.406	558.69
474.625	438.69
474.844	410.69
475.063	384.69
475.282	414.69
475.501	404.69
475.72	412.69
475.939	390.69
476.158	406.69
476.377	402.69
476.596	400.69
476.814	413.69
477.033	406.69
477.252	409.69
477.471	417.69
477.69	414.69
477.908	432.69
478.127	419.69
478.346	423.69
478.564	427.69
478.783	420.69
479.002	441.69
479.22	424.69
479.439	458.69
479.658	457.69
479.876	475.69
480.095	480.69
480.313	499.69
480.532	468.69
480.751	475.69
480.969	497.69
481.188	462.69
481.406	508.69
481.624	482.69
481.843	442.69
482.061	466.69
482.28	470.69
482.498	466.69
482.717	442.69
482.935	462.69
483.153	478.69
483.372	472.69
483.59	439.69
483.808	474.69
484.027	468.69
484.245	449.69
484.463	474.69
484.681	464.69
484.9	466.69
485.118	485.69
485.336	489.69
485.554	472.69
485.772	471.69
485.99	485.69
486.209	476.69
486.427	485.69
486.645	485.69
486.863	519.69
487.081	518.69
487.299	498.69
487.517	515.69
487.735	507.69
487.953	496.69
488.171	506.69
488.389	505.69
488.607	509.69
488.825	501.69
489.043	497.69
489.261	506.69
489.479	498.69
489.696	514.69
489.914	510.69
490.132	519.69
490.35	503.69
490.568	487.69
490.786	544.69
491.003	526.69
491.221	531.69
491.439	567.69
491.657	572.69
491.874	568.69
492.092	562.69
492.31	576.69
492.527	565.69
492.745	568.69
492.963	600.69
493.18	606.69
493.398	578.69
493.615	601.69
493.833	583.69
494.05	608.69
494.268	601.69
494.485	580.69
494.703	585.69
494.92	593.69
495.138	591.69
495.355	603.69
495.573	615.69
495.79	608.69
496.008	595.69
496.225	593.69
496.442	608.69
496.66	605.69
496.877	604.69
497.094	626.69
497.312	630.69
497.529	622.69
497.746	620.69
497.963	631.69
498.181	622.69
498.398	638.69
498.615	636.69
498.832	644.69
499.049	646.69
499.267	652.69
499.484	663.69
499.701	690.69
499.918	708.69
500.135	707.69
500.352	721.69
500.569	732.69
500.786	739.69
501.003	734.69
501.22	723.69
501.437	707.69
501.654	729.69
501.871	724.69
502.088	709.69
502.305	674.69
502.522	660.69
502.739	658.69
502.956	624.69
503.172	643.69
503.389	611.69
503.606	644.69
503.823	640.69
504.04	596.69
504.256	598.69
504.473	619.69
504.69	603.69
504.907	588.69
505.123	576.69
505.34	594.69
505.557	584.69
505.773	590.69
505.99	574.69
506.207	592.69
506.423	590.69
506.64	577.69
506.856	570.69
507.073	566.69
507.289	594.69
507.506	589.69
507.722	589.69
507.939	580.69
508.155	604.69
508.372	596.69
508.588	568.69
508.805	566.69
509.021	532.69
509.238	572.69
509.454	574.69
509.67	562.69
509.887	563.69
510.103	567.69
510.319	584.69
510.536	699.69
510.752	1218.69
510.968	983.69
511.184	609.69
511.401	562.69
511.617	537.69
511.833	557.69
512.049	545.69
512.265	517.69
512.481	522.69
512.698	536.69
512.914	538.69
513.13	522.69
513.346	530.69
513.562	532.69
513.778	544.69
513.994	537.69
514.21	581.69
514.426	595.69
514.642	624.69
514.858	645.69
515.074	683.69
515.29	896.69
515.506	1347.69
515.721	1078.69
515.937	686.69
516.153	620.69
516.369	583.69
516.585	570.69
516.801	557.69
517.016	544.69
517.232	552.69
517.448	551.69
517.664	554.69
517.879	536.69
518.095	556.69
518.311	527.69
518.527	554.69
518.742	535.69
518.958	518.69
519.173	525.69
519.389	540.69
519.605	533.69
519.82	568.69
520.036	581.69
520.251	568.69
520.467	592.69
520.682	583.69
520.898	602.69
521.113	645.69
521.329	671.69
521.544	800.69
521.76	1063.69
521.975	1834.69
522.19	1767.69
522.406	893.69
522.621	708.69
522.836	599.69
523.052	561.69
523.267	529.69
523.482	518.69
523.698	522.69
523.913	508.69
524.128	524.69
524.343	490.69
524.559	470.69
524.774	481.69
524.989	491.69
525.204	469.69
525.419	482.69
525.634	456.69
525.849	452.69
526.064	446.69
526.28	450.69
526.495	446.69
526.71	443.69
526.925	430.69
527.14	439.69
527.355	440.69
527.57	451.69
527.785	427.69
527.999	436.69
528.214	443.69
528.429	438.69
528.644	442.69
528.859	435.69
529.074	440.69
529.289	468.69
529.503	539.69
529.718	543.69
529.933	475.69
530.148	442.69
530.363	433.69
530.577	406.69
530.792	423.69
531.007	412.69
531.221	440.69
531.436	428.69
531.651	428.69
531.865	430.69
532.08	406.69
532.295	419.69
532.509	426.69
532.724	403.69
532.938	381.69
533.153	395.69
533.367	408.69
533.582	402.69
533.796	409.69
534.011	428.69
534.225	408.69
534.44	386.69
534.654	409.69
534.868	421.69
535.083	390.69
535.297	423.69
535.511	408.69
535.726	413.69
535.94	423.69
536.154	425.69
536.369	413.69
536.583	412.69
536.797	427.69
537.011	408.69
537.225	399.69
537.44	393.69
537.654	393.69
537.868	418.69
538.082	403.69
538.296	392.69
538.51	419.69
538.724	396.69
538.938	405.69
539.153	392.69
539.367	432.69
539.581	402.69
539.795	404.69
540.009	384.69
540.222	390.69
540.436	386.69
540.65	389.69
540.864	405.69
541.078	417.69
541.292	405.69
541.506	410.69
541.72	394.69
541.934	395.69
542.147	398.69
542.361	407.69
542.575	397.69
542.789	387.69
543.002	397.69
543.216	390.69
543.43	402.69
543.644	400.69
543.857	394.69
544.071	380.69
544.285	398.69
544.498	381.69
544.712	376.69
544.925	403.69
545.139	374.69
545.352	376.69
545.566	369.69
545.779	369.69
545.993	381.69
546.206	376.69
546.42	384.69
546.633	383.69
546.847	384.69
547.06	382.69
547.274	365.69
547.487	381.69
547.7	372.69
547.914	374.69
548.127	375.69
548.34	351.69
548.554	341.69
548.767	375.69
548.98	384.69
549.193	378.69
549.407	345.69
549.62	348.69
549.833	370.69
550.046	352.69
550.259	357.69
550.473	371.69
550.686	356.69
550.899	359.69
551.112	354.69
551.325	360.69
551.538	369.69
551.751	370.69
551.964	376.69
552.177	368.69
552.39	361.69
552.603	360.69
552.816	356.69
553.029	373.69
553.242	358.69
553.455	362.69
553.667	356.69
553.88	397.69
554.093	382.69
554.306	374.69
554.519	385.69
554.732	387.69
554.944	366.69
555.157	367.69
555.37	347.69
555.583	366.69
555.795	339.69
556.008	332.69
556.221	349.69
556.433	342.69
556.646	343.69
556.859	350.69
557.071	346.69
557.284	342.69
557.496	356.69
557.709	325.69
557.921	334.69
558.134	328.69
558.346	347.69
558.559	344.69
558.771	347.69
558.984	340.69
559.196	344.69
559.409	344.69
559.621	333.69
559.833	326.69
560.046	325.69
560.258	331.69
560.47	309.69
560.683	346.69
560.895	326.69
561.107	325.69
561.32	324.69
561.532	338.69
561.744	345.69
561.956	339.69
562.168	328.69
562.381	334.69
562.593	320.69
562.805	340.69
563.017	330.69
563.229	325.69
563.441	325.69
563.653	313.69
563.865	320.69
564.077	341.69
564.289	336.69
564.501	337.69
564.713	320.69
564.925	330.69
565.137	345.69
565.349	349.69
565.561	338.69
565.773	337.69
565.985	347.69
566.197	353.69
566.408	372.69
566.62	363.69
566.832	362.69
567.044	371.69
567.255	379.69
567.467	372.69
567.679	359.69
567.891	392.69
568.102	362.69
568.314	380.69
568.526	372.69
568.737	347.69
568.949	344.69
569.161	342.69
569.372	340.69
569.584	345.69
569.795	314.69
570.007	332.69
570.218	384.69
570.43	384.69
570.641	338.69
570.853	319.69
571.064	322.69
571.276	320.69
571.487	313.69
571.698	299.69
571.91	315.69
572.121	327.69
572.333	297.69
572.544	292.69
572.755	304.69
572.966	304.69
573.178	285.69
573.389	278.69
573.6	310.69
573.811	295.69
574.023	278.69
574.234	293.69
574.445	276.69
574.656	271.69
574.867	292.69
575.078	281.69
575.289	288.69
575.501	293.69
575.712	296.69
575.923	288.69
576.134	275.69
576.345	281.69
576.556	274.69
576.767	293.69
576.978	296.69
577.188	289.69
577.399	282.69
577.61	279.69
577.821	289.69
578.032	279.69
578.243	354.69
578.454	595.69
578.665	432.69
578.875	297.69
579.086	285.69
579.297	262.69
579.508	278.69
579.718	261.69
579.929	276.69
580.14	280.69
580.35	263.69
580.561	258.69
580.772	264.69
580.982	280.69
581.193	276.69
581.403	282.69
581.614	268.69
581.825	274.69
582.035	269.69
582.246	256.69
582.456	244.69
582.667	244.69
582.877	235.69
583.087	252.69
583.298	270.69
583.508	265.69
583.719	264.69
583.929	252.69
584.139	268.69
584.35	262.69
584.56	249.69
584.77	261.69
584.981	270.69
585.191	263.69
585.401	254.69
585.611	262.69
585.821	264.69
586.032	262.69
586.242	258.69
586.452	260.69
586.662	262.69
586.872	231.69
587.082	251.69
587.292	262.69
587.502	240.69
587.713	260.69
587.923	259.69
588.133	259.69
588.343	257.69
588.553	251.69
588.762	250.69
588.972	254.69
589.182	305.69
589.392	320.69
589.602	279.69
589.812	284.69
590.022	281.69
590.232	247.69
590.441	257.69
590.651	265.69
590.861	266.69
591.071	253.69
591.281	265.69
591.49	255.69
591.7	244.69
591.91	241.69
592.119	253.69
592.329	244.69
592.539	258.69
592.748	248.69
592.958	249.69
593.167	263.69
593.377	256.69
593.587	268.69
593.796	269.69
594.006	259.69
594.215	252.69
594.424	256.69
594.634	243.69
594.843	245.69
595.053	256.69
595.262	234.69
595.472	244.69
595.681	250.69
595.89	228.69
596.1	242.69
596.309	237.69
596.518	254.69
596.727	228.69
596.937	241.69
597.146	240.69
597.355	223.69
597.564	223.69
597.774	227.69
597.983	228.69
598.192	246.69
598.401	223.69
598.61	217.69
598.819	231.69
599.028	243.69
599.237	218.69
599.446	212.69
599.655	211.69
599.864	213.69
600.073	219.69
600.282	236.69
600.491	220.69
600.7	215.69
600.909	220.69
601.118	219.69
601.327	228.69
601.536	233.69
601.745	228.69
601.953	205.69
602.162	214.69
602.371	219.69
602.58	224.69
602.789	230.69
602.997	230.69
603.206	211.69
603.415	228.69
603.623	197.69
603.832	215.69
604.041	222.69
604.249	224.69
604.458	210.69
604.666	219.69
604.875	194.69
605.084	226.69
605.292	205.69
605.501	207.69
605.709	188.69
605.918	213.69
606.126	220.69
606.334	201.69
606.543	224.69
606.751	199.69
606.96	208.69
607.168	212.69
607.376	217.69
607.585	218.69
607.793	213.69
608.001	196.69
608.21	210.69
608.418	218.69
608.626	217.69
608.834	214.69
609.043	218.69
609.251	208.69
609.459	208.69
609.667	196.69
609.875	209.69
610.083	212.69
610.291	202.69
610.499	213.69
610.707	194.69
610.916	220.69
611.124	213.69
611.332	220.69
611.54	225.69
611.748	204.69
611.955	232.69
612.163	206.69
612.371	214.69
612.579	211.69
612.787	218.69
612.995	197.69
613.203	208.69
613.411	202.69
613.618	201.69
613.826	204.69
614.034	192.69
614.242	181.69
614.449	216.69
614.657	203.69
614.865	201.69
615.072	194.69
615.28	200.69
615.488	201.69
615.695	216.69
615.903	204.69
616.111	200.69
616.318	197.69
616.526	205.69
616.733	202.69
616.941	209.69
617.148	202.69
617.356	187.69
617.563	200.69
617.771	210.69
617.978	194.69
618.185	198.69
618.393	210.69
618.6	221.69
618.807	192.69
619.015	196.69
619.222	181.69
619.429	196.69
619.637	186.69
619.844	188.69
620.051	187.69
620.258	204.69
620.466	189.69
620.673	200.69
620.88	196.69
621.087	190.69
621.294	181.69
621.501	187.69
621.708	195.69
621.915	201.69
622.122	209.69
622.329	190.69
622.536	188.69
622.743	184.69
622.95	185.69
623.157	201.69
623.364	182.69
623.571	166.69
623.778	195.69
623.985	188.69
624.192	196.69
624.399	180.69
624.606	181.69
624.812	190.69
625.019	199.69
625.226	204.69
625.433	203.69
625.639	188.69
625.846	187.69
626.053	172.69
626.259	184.69
626.466	171.69
626.673	180.69
626.879	181.69
627.086	171.69
627.293	194.69
627.499	186.69
627.706	184.69
627.912	185.69
628.119	174.69
628.325	180.69
628.532	175.69
628.738	174.69
628.945	171.69
629.151	167.69
629.357	177.69
629.564	173.69
629.77	176.69
629.976	170.69
630.183	178.69
630.389	186.69
630.595	180.69
630.802	170.69
631.008	176.69
631.214	157.69
631.42	163.69
631.627	180.69
631.833	154.69
632.039	156.69
632.245	164.69
632.451	160.69
632.657	170.69
632.863	162.69
633.069	168.69
633.275	168.69
633.481	166.69
633.688	166.69
633.893	177.69
634.099	178.69
634.305	164.69
634.511	171.69
634.717	154.69
634.923	162.69
635.129	166.69
635.335	171.69
635.541	144.69
635.747	152.69
635.952	156.69
636.158	160.69
636.364	163.69
636.57	164.69
636.775	163.69
636.981	165.69
637.187	170.69
637.392	156.69
637.598	156.69
637.804	166.69
638.009	149.69
638.215	162.69
638.421	160.69
638.626	152.69
638.832	151.69
639.037	155.69
639.243	160.69
639.448	166.69
639.654	149.69
639.859	157.69
640.065	161.69
640.27	139.69
640.475	147.69
640.681	172.69
640.886	164.69
641.091	155.69
641.297	158.69
641.502	151.69
641.707	159.69
641.913	160.69
642.118	150.69
642.323	132.69
642.528	148.69
642.733	161.69
642.939	142.69
643.144	146.69
643.349	156.69
643.554	164.69
643.759	149.69
643.964	155.69
644.169	151.69
644.374	154.69
644.579	143.69
644.784	148.69
644.989	156.69
645.194	170.69
645.399	149.69
645.604	145.69
645.809	156.69
646.014	162.69
646.219	134.69
646.423	154.69
646.628	140.69
646.833	163.69
647.038	166.69
647.243	139.69
647.447	158.69
647.652	148.69
647.857	150.69
648.062	142.69
648.266	148.69
648.471	144.69
648.676	149.69
648.88	153.69
649.085	144.69
649.289	152.69
649.494	149.69
649.698	163.69
649.903	166.69
650.107	169.69
650.312	160.69
650.516	142.69
650.721	147.69
650.925	129.69
651.13	141.69
651.334	150.69
651.539	135.69
651.743	129.69
651.947	136.69
652.152	148.69
652.356	134.69
652.56	141.69
652.764	138.69
652.969	142.69
653.173	139.69
653.377	118.69
653.581	139.69
653.785	138.69
653.99	147.69
654.194	118.69
654.398	106.69
654.602	122.69
654.806	131.69
655.01	145.69
655.214	136.69
655.418	116.69
655.622	137.69
655.826	153.69
656.03	133.69
656.234	126.69
656.438	128.69
656.642	126.69
656.846	107.69
657.049	115.69
657.253	116.69
657.457	115.69
657.661	115.69
657.865	106.69
658.068	92.69
658.272	109.69
658.476	125.69
658.68	96.69
658.883	114.69
659.087	89.69
659.291	87.69
659.494	88.69
659.698	102.69
659.901	94.69
660.105	88.69
660.309	92.69
660.512	81.69
660.716	102.69
660.919	100.69
661.123	97.69
661.326	82.69
661.53	98.69
661.733	85.69
661.936	96.69
662.14	78.69
662.343	70.69
662.546	69.69
662.75	90.69
662.953	86.69
663.156	80.69
663.36	78.69
663.563	80.69
663.766	82.69
663.969	86.69
664.173	95.69
664.376	84.69
664.579	88.69
664.782	88.69
664.985	73.69
665.188	82.69
665.391	85.69
665.594	84.69
665.797	97.69
666	70.69
666.203	88.69
666.406	84.69
666.609	78.69
666.812	82.69
667.015	78.69
667.218	75.69
667.421	82.69
667.624	90.69
667.827	77.69
668.03	75.69
668.232	76.69
668.435	84.69
668.638	87.69
668.841	83.69
669.043	85.69
669.246	86.69
669.449	80.69
669.651	85.69
669.854	74.69
670.057	86.69
670.259	87.69
670.462	81.69
670.665	59.69
670.867	88.69
671.07	91.69
671.272	75.69
671.475	83.69
671.677	91.69
671.88	80.69
672.082	61.69
672.284	73.69
672.487	72.69
672.689	72.69
672.892	75.69
