Data from 1986.PennyLincolnUp.Lamp.En5.5.200Scan.071819.P2_HRD10591_17-10-56-974.txt Node
Date: Thu Jul 18 17:10:56 EDT 2019
User: cochatt
Spectrometer: HR+D1059
Trigger mode: 1
Integration Time (sec): 1.000000E-1
Scans to average: 1
Electric dark correction enabled: true
Nonlinearity correction enabled: false
Boxcar width: 0
XAxis mode: Wavelengths
Number of Pixels in Spectrum: 2048
>>>>>Begin Spectral Data<<<<<
223.165	-4.94
223.4	-4.94
223.635	-4.94
223.869	-11.94
224.104	0.06
224.338	-21.94
224.573	-19.94
224.808	-3.94
225.042	-15.94
225.277	9.06
225.511	4.06
225.746	-7.94
225.98	-1.94
226.215	7.06
226.449	6.06
226.683	8.06
226.918	20.06
227.152	34.06
227.387	44.06
227.621	43.06
227.856	53.06
228.09	60.06
228.324	52.06
228.559	53.06
228.793	75.06
229.027	84.06
229.262	108.06
229.496	120.06
229.73	126.06
229.964	171.06
230.199	137.06
230.433	120.06
230.667	112.06
230.901	123.06
231.136	122.06
231.37	105.06
231.604	128.06
231.838	99.06
232.072	108.06
232.306	119.06
232.541	112.06
232.775	115.06
233.009	108.06
233.243	114.06
233.477	104.06
233.711	105.06
233.945	119.06
234.179	120.06
234.413	115.06
234.647	112.06
234.881	112.06
235.115	110.06
235.349	112.06
235.583	115.06
235.817	121.06
236.051	123.06
236.285	124.06
236.519	117.06
236.753	126.06
236.987	144.06
237.221	201.06
237.455	252.06
237.689	202.06
237.922	160.06
238.156	132.06
238.39	127.06
238.624	130.06
238.858	121.06
239.091	115.06
239.325	133.06
239.559	114.06
239.793	136.06
240.027	136.06
240.26	148.06
240.494	156.06
240.728	148.06
240.961	165.06
241.195	150.06
241.429	147.06
241.662	154.06
241.896	129.06
242.13	128.06
242.363	131.06
242.597	130.06
242.83	140.06
243.064	138.06
243.298	151.06
243.531	140.06
243.765	133.06
243.998	142.06
244.232	154.06
244.465	144.06
244.699	137.06
244.932	148.06
245.166	133.06
245.399	138.06
245.633	146.06
245.866	149.06
246.099	152.06
246.333	120.06
246.566	168.06
246.8	161.06
247.033	164.06
247.266	160.06
247.5	178.06
247.733	165.06
247.966	180.06
248.2	178.06
248.433	180.06
248.666	197.06
248.899	209.06
249.133	209.06
249.366	223.06
249.599	209.06
249.832	194.06
250.066	186.06
250.299	205.06
250.532	204.06
250.765	207.06
250.998	240.06
251.231	265.06
251.465	235.06
251.698	221.06
251.931	188.06
252.164	203.06
252.397	208.06
252.63	212.06
252.863	202.06
253.096	229.06
253.329	237.06
253.562	246.06
253.795	232.06
254.028	237.06
254.261	235.06
254.494	222.06
254.727	253.06
254.96	294.06
255.193	299.06
255.426	240.06
255.659	245.06
255.892	254.06
256.124	251.06
256.357	270.06
256.59	263.06
256.823	242.06
257.056	242.06
257.289	221.06
257.521	217.06
257.754	209.06
257.987	206.06
258.22	215.06
258.452	217.06
258.685	196.06
258.918	208.06
259.151	213.06
259.383	226.06
259.616	233.06
259.849	225.06
260.081	250.06
260.314	268.06
260.547	260.06
260.779	252.06
261.012	241.06
261.244	228.06
261.477	235.06
261.71	233.06
261.942	242.06
262.175	244.06
262.407	225.06
262.64	246.06
262.872	235.06
263.105	221.06
263.337	207.06
263.57	231.06
263.802	223.06
264.035	220.06
264.267	219.06
264.499	216.06
264.732	227.06
264.964	219.06
265.197	225.06
265.429	210.06
265.661	209.06
265.894	234.06
266.126	217.06
266.358	221.06
266.591	219.06
266.823	218.06
267.055	227.06
267.287	248.06
267.52	222.06
267.752	236.06
267.984	235.06
268.216	218.06
268.448	235.06
268.681	243.06
268.913	238.06
269.145	269.06
269.377	272.06
269.609	264.06
269.841	297.06
270.073	272.06
270.306	295.06
270.538	324.06
270.77	329.06
271.002	315.06
271.234	307.06
271.466	309.06
271.698	335.06
271.93	325.06
272.162	337.06
272.394	341.06
272.626	308.06
272.858	297.06
273.09	284.06
273.322	284.06
273.553	271.06
273.785	268.06
274.017	277.06
274.249	266.06
274.481	249.06
274.713	258.06
274.945	262.06
275.176	259.06
275.408	285.06
275.64	271.06
275.872	251.06
276.104	253.06
276.335	267.06
276.567	288.06
276.799	300.06
277.031	316.06
277.262	313.06
277.494	323.06
277.726	307.06
277.957	288.06
278.189	275.06
278.421	280.06
278.652	272.06
278.884	270.06
279.115	270.06
279.347	269.06
279.579	245.06
279.81	259.06
280.042	276.06
280.273	262.06
280.505	259.06
280.736	249.06
280.968	264.06
281.199	265.06
281.431	268.06
281.662	248.06
281.894	260.06
282.125	264.06
282.356	290.06
282.588	280.06
282.819	309.06
283.051	270.06
283.282	265.06
283.513	269.06
283.745	271.06
283.976	267.06
284.207	277.06
284.439	282.06
284.67	261.06
284.901	252.06
285.132	268.06
285.364	266.06
285.595	263.06
285.826	269.06
286.057	278.06
286.288	273.06
286.52	278.06
286.751	270.06
286.982	265.06
287.213	266.06
287.444	277.06
287.675	269.06
287.906	279.06
288.138	292.06
288.369	302.06
288.6	287.06
288.831	281.06
289.062	285.06
289.293	294.06
289.524	276.06
289.755	272.06
289.986	263.06
290.217	254.06
290.448	266.06
290.679	251.06
290.91	267.06
291.141	276.06
291.371	266.06
291.602	278.06
291.833	289.06
292.064	286.06
292.295	276.06
292.526	288.06
292.757	274.06
292.987	252.06
293.218	262.06
293.449	264.06
293.68	284.06
293.91	268.06
294.141	280.06
294.372	262.06
294.603	278.06
294.833	284.06
295.064	276.06
295.295	266.06
295.525	270.06
295.756	276.06
295.987	296.06
296.217	293.06
296.448	308.06
296.679	290.06
296.909	279.06
297.14	267.06
297.37	283.06
297.601	259.06
297.831	280.06
298.062	265.06
298.292	280.06
298.523	286.06
298.753	276.06
298.984	278.06
299.214	293.06
299.445	280.06
299.675	280.06
299.905	292.06
300.136	281.06
300.366	280.06
300.597	280.06
300.827	292.06
301.057	297.06
301.288	320.06
301.518	308.06
301.748	299.06
301.979	296.06
302.209	315.06
302.439	286.06
302.669	315.06
302.9	308.06
303.13	308.06
303.36	292.06
303.59	316.06
303.82	305.06
304.051	334.06
304.281	310.06
304.511	302.06
304.741	300.06
304.971	295.06
305.201	297.06
305.431	314.06
305.661	317.06
305.891	304.06
306.121	302.06
306.352	334.06
306.582	328.06
306.812	314.06
307.042	310.06
307.272	309.06
307.502	301.06
307.731	306.06
307.961	305.06
308.191	305.06
308.421	321.06
308.651	299.06
308.881	323.06
309.111	329.06
309.341	332.06
309.571	327.06
309.8	355.06
310.03	355.06
310.26	358.06
310.49	358.06
310.72	365.06
310.949	376.06
311.179	394.06
311.409	375.06
311.639	356.06
311.868	368.06
312.098	384.06
312.328	369.06
312.557	387.06
312.787	409.06
313.017	407.06
313.246	361.06
313.476	366.06
313.706	356.06
313.935	357.06
314.165	372.06
314.394	392.06
314.624	395.06
314.853	372.06
315.083	361.06
315.312	362.06
315.542	339.06
315.771	337.06
316.001	344.06
316.23	368.06
316.46	346.06
316.689	365.06
316.919	361.06
317.148	363.06
317.377	378.06
317.607	383.06
317.836	352.06
318.065	353.06
318.295	367.06
318.524	345.06
318.753	352.06
318.983	358.06
319.212	349.06
319.441	394.06
319.67	400.06
319.9	355.06
320.129	372.06
320.358	351.06
320.587	362.06
320.816	365.06
321.046	378.06
321.275	383.06
321.504	397.06
321.733	401.06
321.962	406.06
322.191	435.06
322.42	420.06
322.649	436.06
322.878	459.06
323.108	466.06
323.337	503.06
323.566	516.06
323.795	560.06
324.024	610.06
324.253	741.06
324.482	1072.06
324.71	1627.06
324.939	2369.06
325.168	2076.06
325.397	1100.06
325.626	710.06
325.855	600.06
326.084	556.06
326.313	533.06
326.542	526.06
326.77	570.06
326.999	710.06
327.228	989.06
327.457	1455.06
327.686	1780.06
327.914	1244.06
328.143	802.06
328.372	712.06
328.6	644.06
328.829	608.06
329.058	619.06
329.287	642.06
329.515	581.06
329.744	539.06
329.972	546.06
330.201	588.06
330.43	602.06
330.658	633.06
330.887	671.06
331.115	634.06
331.344	555.06
331.572	498.06
331.801	484.06
332.03	504.06
332.258	475.06
332.486	458.06
332.715	458.06
332.943	451.06
333.172	420.06
333.4	463.06
333.629	452.06
333.857	460.06
334.085	492.06
334.314	506.06
334.542	538.06
334.771	571.06
334.999	501.06
335.227	473.06
335.455	453.06
335.684	436.06
335.912	418.06
336.14	399.06
336.369	426.06
336.597	416.06
336.825	446.06
337.053	419.06
337.281	403.06
337.51	421.06
337.738	416.06
337.966	423.06
338.194	417.06
338.422	404.06
338.65	400.06
338.878	405.06
339.106	398.06
339.334	412.06
339.562	387.06
339.79	399.06
340.018	396.06
340.246	400.06
340.474	402.06
340.702	416.06
340.93	397.06
341.158	386.06
341.386	404.06
341.614	391.06
341.842	406.06
342.07	400.06
342.298	405.06
342.526	408.06
342.754	388.06
342.981	408.06
343.209	386.06
343.437	383.06
343.665	378.06
343.893	408.06
344.12	410.06
344.348	398.06
344.576	388.06
344.804	417.06
345.031	421.06
345.259	421.06
345.487	416.06
345.714	398.06
345.942	384.06
346.17	375.06
346.397	398.06
346.625	386.06
346.853	393.06
347.08	397.06
347.308	407.06
347.535	392.06
347.763	391.06
347.99	413.06
348.218	406.06
348.445	408.06
348.673	401.06
348.9	386.06
349.128	379.06
349.355	376.06
349.583	368.06
349.81	371.06
350.037	359.06
350.265	386.06
350.492	362.06
350.72	382.06
350.947	380.06
351.174	402.06
351.402	404.06
351.629	405.06
351.856	407.06
352.083	402.06
352.311	420.06
352.538	414.06
352.765	399.06
352.992	400.06
353.22	408.06
353.447	403.06
353.674	376.06
353.901	371.06
354.128	353.06
354.355	363.06
354.583	365.06
354.81	359.06
355.037	365.06
355.264	354.06
355.491	356.06
355.718	343.06
355.945	346.06
356.172	331.06
356.399	356.06
356.626	336.06
356.853	346.06
357.08	350.06
357.307	335.06
357.534	340.06
357.761	369.06
357.988	356.06
358.215	358.06
358.441	362.06
358.668	363.06
358.895	360.06
359.122	352.06
359.349	362.06
359.576	393.06
359.802	420.06
360.029	462.06
360.256	474.06
360.483	440.06
360.709	396.06
360.936	380.06
361.163	403.06
361.39	395.06
361.616	395.06
361.843	388.06
362.07	386.06
362.296	405.06
362.523	382.06
362.749	388.06
362.976	388.06
363.203	382.06
363.429	362.06
363.656	376.06
363.882	368.06
364.109	348.06
364.335	346.06
364.562	353.06
364.788	369.06
365.015	374.06
365.241	374.06
365.468	371.06
365.694	373.06
365.92	377.06
366.147	356.06
366.373	340.06
366.599	342.06
366.826	371.06
367.052	368.06
367.278	370.06
367.505	357.06
367.731	364.06
367.957	375.06
368.184	351.06
368.41	375.06
368.636	396.06
368.862	374.06
369.089	373.06
369.315	361.06
369.541	358.06
369.767	331.06
369.993	350.06
370.219	358.06
370.445	344.06
370.672	356.06
370.898	365.06
371.124	337.06
371.35	357.06
371.576	355.06
371.802	356.06
372.028	347.06
372.254	352.06
372.48	357.06
372.706	336.06
372.932	343.06
373.158	331.06
373.384	351.06
373.61	344.06
373.835	372.06
374.061	353.06
374.287	355.06
374.513	352.06
374.739	361.06
374.965	357.06
375.191	358.06
375.416	346.06
375.642	374.06
375.868	353.06
376.094	348.06
376.319	360.06
376.545	361.06
376.771	334.06
376.997	325.06
377.222	337.06
377.448	346.06
377.674	361.06
377.899	334.06
378.125	325.06
378.35	345.06
378.576	349.06
378.802	351.06
379.027	348.06
379.253	331.06
379.478	358.06
379.704	341.06
379.929	352.06
380.155	352.06
380.38	373.06
380.606	359.06
380.831	348.06
381.057	351.06
381.282	358.06
381.507	357.06
381.733	343.06
381.958	349.06
382.184	345.06
382.409	343.06
382.634	352.06
382.86	343.06
383.085	353.06
383.31	342.06
383.535	353.06
383.761	352.06
383.986	368.06
384.211	357.06
384.436	370.06
384.662	375.06
384.887	374.06
385.112	362.06
385.337	361.06
385.562	377.06
385.787	360.06
386.013	362.06
386.238	372.06
386.463	394.06
386.688	368.06
386.913	357.06
387.138	359.06
387.363	383.06
387.588	363.06
387.813	368.06
388.038	359.06
388.263	371.06
388.488	348.06
388.713	369.06
388.938	374.06
389.163	376.06
389.387	358.06
389.612	370.06
389.837	374.06
390.062	379.06
390.287	368.06
390.512	353.06
390.736	373.06
390.961	352.06
391.186	356.06
391.411	369.06
391.636	370.06
391.86	381.06
392.085	393.06
392.31	363.06
392.534	363.06
392.759	358.06
392.984	363.06
393.208	353.06
393.433	352.06
393.658	370.06
393.882	374.06
394.107	370.06
394.331	360.06
394.556	372.06
394.78	366.06
395.005	365.06
395.229	355.06
395.454	384.06
395.678	370.06
395.903	382.06
396.127	405.06
396.352	422.06
396.576	376.06
396.801	372.06
397.025	379.06
397.249	381.06
397.474	388.06
397.698	379.06
397.922	394.06
398.147	412.06
398.371	416.06
398.595	388.06
398.82	396.06
399.044	428.06
399.268	401.06
399.492	427.06
399.717	457.06
399.941	476.06
400.165	512.06
400.389	506.06
400.613	469.06
400.837	450.06
401.062	416.06
401.286	432.06
401.51	406.06
401.734	405.06
401.958	404.06
402.182	419.06
402.406	424.06
402.63	435.06
402.854	435.06
403.078	420.06
403.302	410.06
403.526	442.06
403.75	431.06
403.974	429.06
404.198	430.06
404.422	435.06
404.645	448.06
404.869	476.06
405.093	491.06
405.317	527.06
405.541	524.06
405.765	493.06
405.988	476.06
406.212	459.06
406.436	482.06
406.66	523.06
406.883	476.06
407.107	475.06
407.331	515.06
407.555	597.06
407.778	572.06
408.002	538.06
408.226	500.06
408.449	472.06
408.673	479.06
408.896	508.06
409.12	537.06
409.344	523.06
409.567	454.06
409.791	444.06
410.014	436.06
410.238	421.06
410.461	426.06
410.685	425.06
410.908	448.06
411.132	491.06
411.355	536.06
411.578	508.06
411.802	456.06
412.025	453.06
412.249	445.06
412.472	477.06
412.695	489.06
412.919	488.06
413.142	441.06
413.365	446.06
413.589	437.06
413.812	415.06
414.035	408.06
414.258	408.06
414.482	414.06
414.705	399.06
414.928	410.06
415.151	404.06
415.374	405.06
415.597	386.06
415.821	405.06
416.044	405.06
416.267	428.06
416.49	420.06
416.713	412.06
416.936	417.06
417.159	404.06
417.382	424.06
417.605	423.06
417.828	432.06
418.051	424.06
418.274	429.06
418.497	419.06
418.72	415.06
418.943	406.06
419.166	428.06
419.389	434.06
419.611	421.06
419.834	434.06
420.057	448.06
420.28	458.06
420.503	449.06
420.726	440.06
420.948	466.06
421.171	507.06
421.394	535.06
421.617	473.06
421.839	426.06
422.062	438.06
422.285	452.06
422.507	509.06
422.73	573.06
422.953	538.06
423.175	476.06
423.398	482.06
423.621	463.06
423.843	483.06
424.066	497.06
424.288	476.06
424.511	487.06
424.733	553.06
424.956	636.06
425.178	621.06
425.401	594.06
425.623	600.06
425.846	530.06
426.068	498.06
426.291	500.06
426.513	476.06
426.735	518.06
426.958	547.06
427.18	598.06
427.402	741.06
427.625	812.06
427.847	746.06
428.069	613.06
428.292	544.06
428.514	489.06
428.736	492.06
428.958	468.06
429.181	450.06
429.403	466.06
429.625	449.06
429.847	497.06
430.069	555.06
430.292	570.06
430.514	474.06
430.736	465.06
430.958	438.06
431.18	434.06
431.402	448.06
431.624	420.06
431.846	402.06
432.068	425.06
432.29	420.06
432.512	427.06
432.734	416.06
432.956	415.06
433.178	440.06
433.4	444.06
433.622	423.06
433.844	416.06
434.066	407.06
434.287	404.06
434.509	413.06
434.731	409.06
434.953	437.06
435.175	448.06
435.397	488.06
435.618	471.06
435.84	557.06
436.062	630.06
436.284	688.06
436.505	574.06
436.727	529.06
436.949	447.06
437.17	452.06
437.392	463.06
437.614	477.06
437.835	501.06
438.057	584.06
438.278	683.06
438.5	696.06
438.721	731.06
438.943	725.06
439.165	570.06
439.386	534.06
439.608	521.06
439.829	525.06
440.05	545.06
440.272	598.06
440.493	549.06
440.715	491.06
440.936	460.06
441.158	462.06
441.379	461.06
441.6	461.06
441.822	483.06
442.043	535.06
442.264	625.06
442.486	668.06
442.707	554.06
442.928	525.06
443.149	538.06
443.371	511.06
443.592	570.06
443.813	667.06
444.034	716.06
444.255	576.06
444.476	494.06
444.698	488.06
444.919	476.06
445.14	583.06
445.361	530.06
445.582	546.06
445.803	609.06
446.024	710.06
446.245	692.06
446.466	633.06
446.687	538.06
446.908	485.06
447.129	474.06
447.35	449.06
447.571	444.06
447.792	446.06
448.013	449.06
448.234	488.06
448.455	524.06
448.675	638.06
448.896	739.06
449.117	638.06
449.338	624.06
449.559	672.06
449.779	790.06
450	626.06
450.221	522.06
450.442	491.06
450.662	459.06
450.883	468.06
451.104	468.06
451.324	461.06
451.545	426.06
451.766	409.06
451.986	412.06
452.207	418.06
452.428	432.06
452.648	427.06
452.869	408.06
453.089	406.06
453.31	403.06
453.53	410.06
453.751	402.06
453.971	418.06
454.192	460.06
454.412	425.06
454.633	421.06
454.853	422.06
455.073	414.06
455.294	440.06
455.514	516.06
455.734	512.06
455.955	420.06
456.175	380.06
456.395	380.06
456.616	380.06
456.836	368.06
457.056	355.06
457.276	370.06
457.497	368.06
457.717	373.06
457.937	406.06
458.157	393.06
458.377	381.06
458.598	412.06
458.818	462.06
459.038	573.06
459.258	581.06
459.478	493.06
459.698	421.06
459.918	414.06
460.138	393.06
460.358	404.06
460.578	411.06
460.798	414.06
461.018	426.06
461.238	403.06
461.458	404.06
461.678	405.06
461.898	413.06
462.118	409.06
462.338	410.06
462.558	424.06
462.777	419.06
462.997	427.06
463.217	422.06
463.437	432.06
463.657	420.06
463.876	442.06
464.096	417.06
464.316	422.06
464.536	412.06
464.755	439.06
464.975	451.06
465.195	505.06
465.414	617.06
465.634	530.06
465.854	469.06
466.073	424.06
466.293	421.06
466.512	426.06
466.732	415.06
466.951	402.06
467.171	423.06
467.391	394.06
467.61	437.06
467.829	423.06
468.049	438.06
468.268	440.06
468.488	418.06
468.707	419.06
468.927	404.06
469.146	420.06
469.365	395.06
469.585	412.06
469.804	407.06
470.023	437.06
470.243	418.06
470.462	409.06
470.681	442.06
470.901	434.06
471.12	429.06
471.339	412.06
471.558	440.06
471.777	430.06
471.997	413.06
472.216	427.06
472.435	493.06
472.654	452.06
472.873	428.06
473.092	420.06
473.311	424.06
473.53	409.06
473.749	422.06
473.968	470.06
474.187	585.06
474.406	626.06
474.625	492.06
474.844	448.06
475.063	426.06
475.282	423.06
475.501	415.06
475.72	449.06
475.939	419.06
476.158	428.06
476.377	450.06
476.596	426.06
476.814	436.06
477.033	438.06
477.252	444.06
477.471	427.06
477.69	439.06
477.908	442.06
478.127	446.06
478.346	442.06
478.564	449.06
478.783	458.06
479.002	454.06
479.22	471.06
479.439	473.06
479.658	492.06
479.876	516.06
480.095	500.06
480.313	541.06
480.532	546.06
480.751	532.06
480.969	525.06
481.188	595.06
481.406	699.06
481.624	576.06
481.843	548.06
482.061	521.06
482.28	515.06
482.498	497.06
482.717	512.06
482.935	489.06
483.153	490.06
483.372	483.06
483.59	494.06
483.808	494.06
484.027	485.06
484.245	497.06
484.463	512.06
484.681	510.06
484.9	494.06
485.118	515.06
485.336	519.06
485.554	499.06
485.772	512.06
485.99	514.06
486.209	489.06
486.427	508.06
486.645	522.06
486.863	540.06
487.081	560.06
487.299	562.06
487.517	552.06
487.735	547.06
487.953	546.06
488.171	560.06
488.389	548.06
488.607	551.06
488.825	532.06
489.043	547.06
489.261	550.06
489.479	557.06
489.696	549.06
489.914	552.06
490.132	557.06
490.35	554.06
490.568	575.06
490.786	592.06
491.003	581.06
491.221	594.06
491.439	635.06
491.657	637.06
491.874	642.06
492.092	652.06
492.31	617.06
492.527	624.06
492.745	644.06
492.963	626.06
493.18	636.06
493.398	630.06
493.615	642.06
493.833	650.06
494.05	660.06
494.268	640.06
494.485	641.06
494.703	655.06
494.92	641.06
495.138	650.06
495.355	645.06
495.573	653.06
495.79	651.06
496.008	664.06
496.225	652.06
496.442	627.06
496.66	665.06
496.877	650.06
497.094	653.06
497.312	651.06
497.529	646.06
497.746	676.06
497.963	646.06
498.181	702.06
498.398	711.06
498.615	659.06
498.832	723.06
499.049	670.06
499.267	672.06
499.484	685.06
499.701	702.06
499.918	705.06
500.135	739.06
500.352	740.06
500.569	771.06
500.786	772.06
501.003	782.06
501.22	795.06
501.437	740.06
501.654	775.06
501.871	766.06
502.088	762.06
502.305	723.06
502.522	703.06
502.739	706.06
502.956	685.06
503.172	658.06
503.389	646.06
503.606	667.06
503.823	681.06
504.04	654.06
504.256	655.06
504.473	648.06
504.69	644.06
504.907	640.06
505.123	611.06
505.34	624.06
505.557	641.06
505.773	646.06
505.99	626.06
506.207	641.06
506.423	644.06
506.64	624.06
506.856	608.06
507.073	618.06
507.289	601.06
507.506	616.06
507.722	646.06
507.939	648.06
508.155	624.06
508.372	613.06
508.588	605.06
508.805	565.06
509.021	592.06
509.238	628.06
509.454	624.06
509.67	598.06
509.887	624.06
510.103	603.06
510.319	624.06
510.536	749.06
510.752	1318.06
510.968	1054.06
511.184	629.06
511.401	612.06
511.617	592.06
511.833	589.06
512.049	586.06
512.265	583.06
512.481	569.06
512.698	553.06
512.914	583.06
513.13	584.06
513.346	584.06
513.562	589.06
513.778	580.06
513.994	608.06
514.21	584.06
514.426	641.06
514.642	668.06
514.858	718.06
515.074	779.06
515.29	971.06
515.506	1471.06
515.721	1159.06
515.937	740.06
516.153	655.06
516.369	634.06
516.585	606.06
516.801	580.06
517.016	607.06
517.232	587.06
517.448	552.06
517.664	590.06
517.879	585.06
518.095	546.06
518.311	574.06
518.527	583.06
518.742	580.06
518.958	566.06
519.173	557.06
519.389	567.06
519.605	572.06
519.82	585.06
520.036	600.06
520.251	611.06
520.467	659.06
520.682	638.06
520.898	680.06
521.113	688.06
521.329	755.06
521.544	896.06
521.76	1121.06
521.975	1894.06
522.19	1896.06
522.406	1015.06
522.621	716.06
522.836	626.06
523.052	576.06
523.267	582.06
523.482	575.06
523.698	542.06
523.913	543.06
524.128	561.06
524.343	534.06
524.559	521.06
524.774	488.06
524.989	477.06
525.204	479.06
525.419	511.06
525.634	509.06
525.849	510.06
526.064	471.06
526.28	459.06
526.495	472.06
526.71	444.06
526.925	444.06
527.14	456.06
527.355	457.06
527.57	450.06
527.785	457.06
527.999	451.06
528.214	442.06
528.429	445.06
528.644	456.06
528.859	434.06
529.074	455.06
529.289	491.06
529.503	590.06
529.718	564.06
529.933	491.06
530.148	484.06
530.363	483.06
530.577	453.06
530.792	448.06
531.007	441.06
531.221	437.06
531.436	434.06
531.651	426.06
531.865	438.06
532.08	430.06
532.295	453.06
532.509	456.06
532.724	404.06
532.938	425.06
533.153	419.06
533.367	427.06
533.582	408.06
533.796	432.06
534.011	426.06
534.225	421.06
534.44	414.06
534.654	424.06
534.868	422.06
535.083	416.06
535.297	425.06
535.511	436.06
535.726	442.06
535.94	420.06
536.154	421.06
536.369	427.06
536.583	419.06
536.797	421.06
537.011	396.06
537.225	419.06
537.44	413.06
537.654	427.06
537.868	398.06
538.082	430.06
538.296	426.06
538.51	405.06
538.724	404.06
538.938	420.06
539.153	430.06
539.367	444.06
539.581	425.06
539.795	423.06
540.009	425.06
540.222	402.06
540.436	401.06
540.65	435.06
540.864	425.06
541.078	429.06
541.292	425.06
541.506	426.06
541.72	403.06
541.934	420.06
542.147	434.06
542.361	407.06
542.575	399.06
542.789	397.06
543.002	411.06
543.216	399.06
543.43	410.06
543.644	436.06
543.857	392.06
544.071	414.06
544.285	396.06
544.498	391.06
544.712	417.06
544.925	404.06
545.139	383.06
545.352	395.06
545.566	404.06
545.779	385.06
545.993	395.06
546.206	380.06
546.42	396.06
546.633	392.06
546.847	376.06
547.06	391.06
547.274	385.06
547.487	373.06
547.7	373.06
547.914	388.06
548.127	367.06
548.34	394.06
548.554	395.06
548.767	383.06
548.98	375.06
549.193	368.06
549.407	374.06
549.62	369.06
549.833	376.06
550.046	388.06
550.259	389.06
550.473	387.06
550.686	369.06
550.899	368.06
551.112	375.06
551.325	368.06
551.538	374.06
551.751	363.06
551.964	374.06
552.177	362.06
552.39	372.06
552.603	386.06
552.816	385.06
553.029	345.06
553.242	359.06
553.455	373.06
553.667	394.06
553.88	395.06
554.093	391.06
554.306	388.06
554.519	384.06
554.732	372.06
554.944	361.06
555.157	373.06
555.37	351.06
555.583	373.06
555.795	354.06
556.008	352.06
556.221	344.06
556.433	356.06
556.646	347.06
556.859	338.06
557.071	343.06
557.284	369.06
557.496	343.06
557.709	362.06
557.921	332.06
558.134	346.06
558.346	354.06
558.559	369.06
558.771	347.06
558.984	359.06
559.196	355.06
559.409	336.06
559.621	343.06
559.833	337.06
560.046	340.06
560.258	333.06
560.47	347.06
560.683	347.06
560.895	342.06
561.107	352.06
561.32	319.06
561.532	352.06
561.744	337.06
561.956	334.06
562.168	354.06
562.381	344.06
562.593	322.06
562.805	356.06
563.017	345.06
563.229	339.06
563.441	354.06
563.653	346.06
563.865	341.06
564.077	338.06
564.289	344.06
564.501	356.06
564.713	342.06
564.925	350.06
565.137	364.06
565.349	348.06
565.561	331.06
565.773	340.06
565.985	370.06
566.197	356.06
566.408	384.06
566.62	390.06
566.832	391.06
567.044	404.06
567.255	392.06
567.467	378.06
567.679	374.06
567.891	396.06
568.102	383.06
568.314	406.06
568.526	373.06
568.737	346.06
568.949	335.06
569.161	357.06
569.372	346.06
569.584	338.06
569.795	353.06
570.007	355.06
570.218	406.06
570.43	402.06
570.641	343.06
570.853	339.06
571.064	340.06
571.276	316.06
571.487	309.06
571.698	320.06
571.91	323.06
572.121	321.06
572.333	321.06
572.544	312.06
572.755	317.06
572.966	305.06
573.178	308.06
573.389	305.06
573.6	317.06
573.811	289.06
574.023	278.06
574.234	298.06
574.445	286.06
574.656	292.06
574.867	297.06
575.078	295.06
575.289	299.06
575.501	292.06
575.712	274.06
575.923	292.06
576.134	288.06
576.345	288.06
576.556	300.06
576.767	295.06
576.978	294.06
577.188	301.06
577.399	301.06
577.61	296.06
577.821	297.06
578.032	295.06
578.243	347.06
578.454	584.06
578.665	432.06
578.875	311.06
579.086	293.06
579.297	280.06
579.508	297.06
579.718	283.06
579.929	271.06
580.14	276.06
580.35	277.06
580.561	292.06
580.772	275.06
580.982	292.06
581.193	276.06
581.403	276.06
581.614	280.06
581.825	288.06
582.035	264.06
582.246	258.06
582.456	273.06
582.667	271.06
582.877	258.06
583.087	250.06
583.298	252.06
583.508	254.06
583.719	264.06
583.929	265.06
584.139	260.06
584.35	252.06
584.56	266.06
584.77	261.06
584.981	282.06
585.191	270.06
585.401	260.06
585.611	269.06
585.821	260.06
586.032	285.06
586.242	260.06
586.452	264.06
586.662	271.06
586.872	268.06
587.082	246.06
587.292	257.06
587.502	260.06
587.713	255.06
587.923	257.06
588.133	240.06
588.343	251.06
588.553	270.06
588.762	250.06
588.972	289.06
589.182	292.06
589.392	292.06
589.602	266.06
589.812	267.06
590.022	271.06
590.232	269.06
590.441	248.06
590.651	260.06
590.861	259.06
591.071	254.06
591.281	255.06
591.49	268.06
591.7	267.06
591.91	250.06
592.119	259.06
592.329	262.06
592.539	285.06
592.748	264.06
592.958	260.06
593.167	253.06
593.377	269.06
593.587	259.06
593.796	256.06
594.006	260.06
594.215	246.06
594.424	251.06
594.634	258.06
594.843	249.06
595.053	241.06
595.262	256.06
595.472	261.06
595.681	244.06
595.89	254.06
596.1	248.06
596.309	255.06
596.518	251.06
596.727	249.06
596.937	240.06
597.146	264.06
597.355	236.06
597.564	235.06
597.774	225.06
597.983	234.06
598.192	230.06
598.401	244.06
598.61	236.06
598.819	233.06
599.028	233.06
599.237	230.06
599.446	235.06
599.655	230.06
599.864	220.06
600.073	208.06
600.282	233.06
600.491	230.06
600.7	225.06
600.909	227.06
601.118	235.06
601.327	235.06
601.536	205.06
601.745	236.06
601.953	228.06
602.162	220.06
602.371	227.06
602.58	256.06
602.789	236.06
602.997	247.06
603.206	205.06
603.415	236.06
603.623	216.06
603.832	221.06
604.041	230.06
604.249	216.06
604.458	229.06
604.666	215.06
604.875	236.06
605.084	224.06
605.292	214.06
605.501	221.06
605.709	217.06
605.918	206.06
606.126	224.06
606.334	235.06
606.543	242.06
606.751	224.06
606.96	215.06
607.168	224.06
607.376	224.06
607.585	228.06
607.793	206.06
608.001	229.06
608.21	215.06
608.418	212.06
608.626	201.06
608.834	215.06
609.043	213.06
609.251	207.06
609.459	206.06
609.667	235.06
609.875	218.06
610.083	215.06
610.291	226.06
610.499	225.06
610.707	207.06
610.916	221.06
611.124	226.06
611.332	220.06
611.54	219.06
611.748	218.06
611.955	244.06
612.163	218.06
612.371	213.06
612.579	218.06
612.787	230.06
612.995	206.06
613.203	224.06
613.411	205.06
613.618	239.06
613.826	212.06
614.034	200.06
614.242	225.06
614.449	229.06
614.657	202.06
614.865	212.06
615.072	216.06
615.28	215.06
615.488	226.06
615.695	222.06
615.903	210.06
616.111	206.06
616.318	212.06
616.526	204.06
616.733	219.06
616.941	203.06
617.148	216.06
617.356	213.06
617.563	204.06
617.771	206.06
617.978	217.06
618.185	208.06
618.393	208.06
618.6	209.06
618.807	214.06
619.015	201.06
619.222	200.06
619.429	188.06
619.637	179.06
619.844	190.06
620.051	192.06
620.258	203.06
620.466	192.06
620.673	199.06
620.88	204.06
621.087	206.06
621.294	205.06
621.501	195.06
621.708	207.06
621.915	195.06
622.122	211.06
622.329	203.06
622.536	197.06
622.743	202.06
622.95	195.06
623.157	196.06
623.364	193.06
623.571	186.06
623.778	207.06
623.985	197.06
624.192	205.06
624.399	199.06
624.606	203.06
624.812	192.06
625.019	194.06
625.226	204.06
625.433	182.06
625.639	191.06
625.846	180.06
626.053	169.06
626.259	189.06
626.466	192.06
626.673	194.06
626.879	203.06
627.086	194.06
627.293	178.06
627.499	203.06
627.706	177.06
627.912	195.06
628.119	187.06
628.325	201.06
628.532	196.06
628.738	186.06
628.945	181.06
629.151	184.06
629.357	177.06
629.564	181.06
629.77	186.06
629.976	174.06
630.183	179.06
630.389	203.06
630.595	180.06
630.802	192.06
631.008	185.06
631.214	176.06
631.42	169.06
631.627	162.06
631.833	174.06
632.039	167.06
632.245	168.06
632.451	173.06
632.657	181.06
632.863	169.06
633.069	178.06
633.275	186.06
633.481	177.06
633.688	157.06
633.893	172.06
634.099	180.06
634.305	171.06
634.511	176.06
634.717	167.06
634.923	168.06
635.129	175.06
635.335	154.06
635.541	161.06
635.747	177.06
635.952	161.06
636.158	185.06
636.364	162.06
636.57	161.06
636.775	161.06
636.981	174.06
637.187	191.06
637.392	158.06
637.598	160.06
637.804	158.06
638.009	167.06
638.215	172.06
638.421	153.06
638.626	161.06
638.832	169.06
639.037	166.06
639.243	159.06
639.448	171.06
639.654	152.06
639.859	169.06
640.065	171.06
640.27	184.06
640.475	164.06
640.681	171.06
640.886	157.06
641.091	152.06
641.297	154.06
641.502	159.06
641.707	167.06
641.913	145.06
642.118	156.06
642.323	150.06
642.528	160.06
642.733	161.06
642.939	153.06
643.144	147.06
643.349	148.06
643.554	165.06
643.759	163.06
643.964	156.06
644.169	150.06
644.374	156.06
644.579	164.06
644.784	165.06
644.989	163.06
645.194	172.06
645.399	159.06
645.604	150.06
645.809	140.06
646.014	147.06
646.219	158.06
646.423	158.06
646.628	163.06
646.833	148.06
647.038	154.06
647.243	137.06
647.447	143.06
647.652	148.06
647.857	165.06
648.062	150.06
648.266	152.06
648.471	168.06
648.676	164.06
648.88	154.06
649.085	144.06
649.289	150.06
649.494	156.06
649.698	176.06
649.903	167.06
650.107	137.06
650.312	153.06
650.516	157.06
650.721	152.06
650.925	141.06
651.13	138.06
651.334	144.06
651.539	127.06
651.743	148.06
651.947	142.06
652.152	137.06
652.356	136.06
652.56	139.06
652.764	126.06
652.969	129.06
653.173	126.06
653.377	126.06
653.581	129.06
653.785	119.06
653.99	127.06
654.194	142.06
654.398	126.06
654.602	138.06
654.806	113.06
655.01	130.06
655.214	145.06
655.418	124.06
655.622	124.06
655.826	111.06
656.03	127.06
656.234	115.06
656.438	126.06
656.642	125.06
656.846	129.06
657.049	129.06
657.253	112.06
657.457	113.06
657.661	122.06
657.865	117.06
658.068	114.06
658.272	115.06
658.476	99.06
658.68	84.06
658.883	94.06
659.087	101.06
659.291	107.06
659.494	105.06
659.698	114.06
659.901	104.06
660.105	84.06
660.309	83.06
660.512	96.06
660.716	97.06
660.919	91.06
661.123	100.06
661.326	85.06
661.53	78.06
661.733	103.06
661.936	92.06
662.14	83.06
662.343	100.06
662.546	84.06
662.75	90.06
662.953	84.06
663.156	78.06
663.36	99.06
663.563	88.06
663.766	74.06
663.969	85.06
664.173	76.06
664.376	100.06
664.579	80.06
664.782	79.06
664.985	84.06
665.188	98.06
665.391	84.06
665.594	89.06
665.797	81.06
666	87.06
666.203	81.06
666.406	83.06
666.609	88.06
666.812	88.06
667.015	91.06
667.218	86.06
667.421	93.06
667.624	84.06
667.827	79.06
668.03	78.06
668.232	90.06
668.435	87.06
668.638	77.06
668.841	94.06
669.043	75.06
669.246	82.06
669.449	78.06
669.651	79.06
669.854	89.06
670.057	69.06
670.259	75.06
670.462	87.06
670.665	85.06
670.867	85.06
671.07	90.06
671.272	74.06
671.475	87.06
671.677	74.06
671.88	75.06
672.082	66.06
672.284	69.06
672.487	79.06
672.689	83.06
672.892	73.06
