Data from 1986.PennyLincolnUp.Lamp.En5.5.200Scan.071819.P1_HRD10591_17-08-28-975.txt Node
Date: Thu Jul 18 17:08:28 EDT 2019
User: cochatt
Spectrometer: HR+D1059
Trigger mode: 1
Integration Time (sec): 1.000000E-1
Scans to average: 1
Electric dark correction enabled: true
Nonlinearity correction enabled: false
Boxcar width: 0
XAxis mode: Wavelengths
Number of Pixels in Spectrum: 2048
>>>>>Begin Spectral Data<<<<<
223.165	-18.25
223.4	-18.25
223.635	-18.25
223.869	-11.25
224.104	-30.25
224.338	-2.25
224.573	-15.25
224.808	-5.25
225.042	-3.25
225.277	-11.25
225.511	-8.25
225.746	3.75
225.98	10.75
226.215	20.75
226.449	14.75
226.683	16.75
226.918	18.75
227.152	19.75
227.387	20.75
227.621	31.75
227.856	37.75
228.09	39.75
228.324	43.75
228.559	51.75
228.793	60.75
229.027	85.75
229.262	72.75
229.496	78.75
229.73	103.75
229.964	120.75
230.199	106.75
230.433	92.75
230.667	104.75
230.901	100.75
231.136	99.75
231.37	96.75
231.604	101.75
231.838	90.75
232.072	92.75
232.306	89.75
232.541	106.75
232.775	102.75
233.009	96.75
233.243	88.75
233.477	96.75
233.711	104.75
233.945	105.75
234.179	104.75
234.413	98.75
234.647	89.75
234.881	98.75
235.115	107.75
235.349	126.75
235.583	107.75
235.817	108.75
236.051	104.75
236.285	100.75
236.519	101.75
236.753	121.75
236.987	124.75
237.221	153.75
237.455	171.75
237.689	144.75
237.922	129.75
238.156	120.75
238.39	106.75
238.624	107.75
238.858	102.75
239.091	117.75
239.325	113.75
239.559	94.75
239.793	118.75
240.027	116.75
240.26	123.75
240.494	131.75
240.728	120.75
240.961	126.75
241.195	114.75
241.429	122.75
241.662	124.75
241.896	105.75
242.13	120.75
242.363	112.75
242.597	129.75
242.83	125.75
243.064	121.75
243.298	108.75
243.531	105.75
243.765	116.75
243.998	132.75
244.232	119.75
244.465	118.75
244.699	132.75
244.932	136.75
245.166	131.75
245.399	118.75
245.633	117.75
245.866	141.75
246.099	121.75
246.333	126.75
246.566	129.75
246.8	126.75
247.033	130.75
247.266	132.75
247.5	123.75
247.733	128.75
247.966	152.75
248.2	137.75
248.433	135.75
248.666	140.75
248.899	154.75
249.133	162.75
249.366	159.75
249.599	161.75
249.832	168.75
250.066	141.75
250.299	143.75
250.532	152.75
250.765	149.75
250.998	162.75
251.231	160.75
251.465	171.75
251.698	157.75
251.931	156.75
252.164	155.75
252.397	162.75
252.63	162.75
252.863	174.75
253.096	184.75
253.329	184.75
253.562	195.75
253.795	172.75
254.028	182.75
254.261	174.75
254.494	184.75
254.727	208.75
254.96	210.75
255.193	191.75
255.426	206.75
255.659	183.75
255.892	168.75
256.124	167.75
256.357	161.75
256.59	173.75
256.823	172.75
257.056	170.75
257.289	171.75
257.521	168.75
257.754	161.75
257.987	166.75
258.22	164.75
258.452	156.75
258.685	176.75
258.918	165.75
259.151	168.75
259.383	174.75
259.616	169.75
259.849	190.75
260.081	164.75
260.314	182.75
260.547	192.75
260.779	169.75
261.012	192.75
261.244	182.75
261.477	175.75
261.71	185.75
261.942	182.75
262.175	178.75
262.407	173.75
262.64	180.75
262.872	172.75
263.105	184.75
263.337	181.75
263.57	184.75
263.802	193.75
264.035	170.75
264.267	181.75
264.499	165.75
264.732	172.75
264.964	178.75
265.197	166.75
265.429	167.75
265.661	171.75
265.894	173.75
266.126	198.75
266.358	188.75
266.591	178.75
266.823	163.75
267.055	170.75
267.287	183.75
267.52	181.75
267.752	187.75
267.984	176.75
268.216	198.75
268.448	189.75
268.681	190.75
268.913	201.75
269.145	212.75
269.377	226.75
269.609	212.75
269.841	200.75
270.073	208.75
270.306	218.75
270.538	236.75
270.77	225.75
271.002	249.75
271.234	216.75
271.466	210.75
271.698	217.75
271.93	240.75
272.162	258.75
272.394	251.75
272.626	243.75
272.858	221.75
273.09	217.75
273.322	206.75
273.553	231.75
273.785	228.75
274.017	204.75
274.249	216.75
274.481	228.75
274.713	211.75
274.945	209.75
275.176	199.75
275.408	222.75
275.64	222.75
275.872	220.75
276.104	224.75
276.335	221.75
276.567	197.75
276.799	216.75
277.031	262.75
277.262	226.75
277.494	218.75
277.726	234.75
277.957	234.75
278.189	236.75
278.421	225.75
278.652	204.75
278.884	211.75
279.115	216.75
279.347	217.75
279.579	234.75
279.81	211.75
280.042	231.75
280.273	222.75
280.505	200.75
280.736	235.75
280.968	226.75
281.199	206.75
281.431	229.75
281.662	217.75
281.894	209.75
282.125	210.75
282.356	228.75
282.588	254.75
282.819	222.75
283.051	220.75
283.282	227.75
283.513	226.75
283.745	251.75
283.976	222.75
284.207	236.75
284.439	221.75
284.67	222.75
284.901	221.75
285.132	232.75
285.364	219.75
285.595	222.75
285.826	234.75
286.057	238.75
286.288	211.75
286.52	235.75
286.751	216.75
286.982	218.75
287.213	227.75
287.444	230.75
287.675	219.75
287.906	237.75
288.138	261.75
288.369	240.75
288.6	251.75
288.831	237.75
289.062	221.75
289.293	252.75
289.524	229.75
289.755	238.75
289.986	248.75
290.217	226.75
290.448	243.75
290.679	240.75
290.91	231.75
291.141	232.75
291.371	232.75
291.602	236.75
291.833	236.75
292.064	230.75
292.295	253.75
292.526	240.75
292.757	224.75
292.987	237.75
293.218	229.75
293.449	249.75
293.68	246.75
293.91	222.75
294.141	227.75
294.372	220.75
294.603	220.75
294.833	237.75
295.064	254.75
295.295	237.75
295.525	259.75
295.756	263.75
295.987	252.75
296.217	270.75
296.448	275.75
296.679	258.75
296.909	251.75
297.14	259.75
297.37	256.75
297.601	236.75
297.831	232.75
298.062	253.75
298.292	218.75
298.523	253.75
298.753	245.75
298.984	270.75
299.214	249.75
299.445	262.75
299.675	247.75
299.905	262.75
300.136	231.75
300.366	255.75
300.597	250.75
300.827	260.75
301.057	273.75
301.288	277.75
301.518	263.75
301.748	261.75
301.979	270.75
302.209	264.75
302.439	282.75
302.669	257.75
302.9	281.75
303.13	280.75
303.36	264.75
303.59	277.75
303.82	291.75
304.051	275.75
304.281	260.75
304.511	263.75
304.741	261.75
304.971	261.75
305.201	249.75
305.431	274.75
305.661	262.75
305.891	269.75
306.121	268.75
306.352	273.75
306.582	288.75
306.812	284.75
307.042	284.75
307.272	276.75
307.502	288.75
307.731	273.75
307.961	268.75
308.191	264.75
308.421	268.75
308.651	285.75
308.881	271.75
309.111	281.75
309.341	256.75
309.571	278.75
309.8	304.75
310.03	291.75
310.26	310.75
310.49	307.75
310.72	286.75
310.949	302.75
311.179	286.75
311.409	314.75
311.639	292.75
311.868	289.75
312.098	306.75
312.328	321.75
312.557	300.75
312.787	332.75
313.017	340.75
313.246	319.75
313.476	292.75
313.706	308.75
313.935	312.75
314.165	320.75
314.394	316.75
314.624	315.75
314.853	286.75
315.083	301.75
315.312	304.75
315.542	304.75
315.771	308.75
316.001	307.75
316.23	305.75
316.46	294.75
316.689	309.75
316.919	296.75
317.148	294.75
317.377	299.75
317.607	317.75
317.836	327.75
318.065	308.75
318.295	311.75
318.524	315.75
318.753	319.75
318.983	314.75
319.212	309.75
319.441	322.75
319.67	308.75
319.9	297.75
320.129	310.75
320.358	296.75
320.587	319.75
320.816	323.75
321.046	315.75
321.275	308.75
321.504	328.75
321.733	321.75
321.962	316.75
322.191	338.75
322.42	342.75
322.649	342.75
322.878	360.75
323.108	343.75
323.337	359.75
323.566	379.75
323.795	384.75
324.024	421.75
324.253	478.75
324.482	668.75
324.71	965.75
324.939	1322.75
325.168	1113.75
325.397	617.75
325.626	433.75
325.855	388.75
326.084	374.75
326.313	356.75
326.542	374.75
326.77	386.75
326.999	470.75
327.228	597.75
327.457	867.75
327.686	994.75
327.914	690.75
328.143	482.75
328.372	441.75
328.6	436.75
328.829	405.75
329.058	414.75
329.287	426.75
329.515	407.75
329.744	388.75
329.972	400.75
330.201	412.75
330.43	459.75
330.658	454.75
330.887	448.75
331.115	422.75
331.344	421.75
331.572	381.75
331.801	394.75
332.03	359.75
332.258	352.75
332.486	356.75
332.715	369.75
332.943	373.75
333.172	375.75
333.4	378.75
333.629	378.75
333.857	392.75
334.085	397.75
334.314	417.75
334.542	474.75
334.771	480.75
334.999	415.75
335.227	364.75
335.455	363.75
335.684	374.75
335.912	363.75
336.14	368.75
336.369	343.75
336.597	360.75
336.825	348.75
337.053	360.75
337.281	356.75
337.51	346.75
337.738	360.75
337.966	349.75
338.194	359.75
338.422	353.75
338.65	356.75
338.878	352.75
339.106	352.75
339.334	358.75
339.562	325.75
339.79	349.75
340.018	332.75
340.246	345.75
340.474	348.75
340.702	357.75
340.93	353.75
341.158	338.75
341.386	339.75
341.614	351.75
341.842	340.75
342.07	347.75
342.298	329.75
342.526	340.75
342.754	313.75
342.981	330.75
343.209	353.75
343.437	333.75
343.665	342.75
343.893	334.75
344.12	360.75
344.348	339.75
344.576	354.75
344.804	341.75
345.031	352.75
345.259	336.75
345.487	347.75
345.714	341.75
345.942	324.75
346.17	311.75
346.397	315.75
346.625	332.75
346.853	335.75
347.08	319.75
347.308	334.75
347.535	328.75
347.763	343.75
347.99	330.75
348.218	330.75
348.445	331.75
348.673	331.75
348.9	331.75
349.128	326.75
349.355	318.75
349.583	331.75
349.81	296.75
350.037	323.75
350.265	322.75
350.492	314.75
350.72	293.75
350.947	294.75
351.174	324.75
351.402	328.75
351.629	320.75
351.856	337.75
352.083	329.75
352.311	328.75
352.538	351.75
352.765	335.75
352.992	336.75
353.22	336.75
353.447	314.75
353.674	324.75
353.901	310.75
354.128	317.75
354.355	323.75
354.583	309.75
354.81	308.75
355.037	303.75
355.264	293.75
355.491	308.75
355.718	313.75
355.945	300.75
356.172	313.75
356.399	317.75
356.626	312.75
356.853	306.75
357.08	316.75
357.307	304.75
357.534	292.75
357.761	284.75
357.988	326.75
358.215	307.75
358.441	304.75
358.668	321.75
358.895	323.75
359.122	309.75
359.349	315.75
359.576	316.75
359.802	345.75
360.029	354.75
360.256	358.75
360.483	347.75
360.709	321.75
360.936	333.75
361.163	321.75
361.39	317.75
361.616	340.75
361.843	308.75
362.07	321.75
362.296	309.75
362.523	310.75
362.749	312.75
362.976	313.75
363.203	301.75
363.429	307.75
363.656	310.75
363.882	326.75
364.109	312.75
364.335	308.75
364.562	331.75
364.788	314.75
365.015	297.75
365.241	300.75
365.468	312.75
365.694	317.75
365.92	314.75
366.147	315.75
366.373	301.75
366.599	301.75
366.826	310.75
367.052	298.75
367.278	293.75
367.505	314.75
367.731	297.75
367.957	308.75
368.184	306.75
368.41	300.75
368.636	322.75
368.862	324.75
369.089	327.75
369.315	326.75
369.541	306.75
369.767	318.75
369.993	306.75
370.219	311.75
370.445	309.75
370.672	312.75
370.898	291.75
371.124	316.75
371.35	316.75
371.576	327.75
371.802	308.75
372.028	305.75
372.254	314.75
372.48	323.75
372.706	299.75
372.932	305.75
373.158	300.75
373.384	326.75
373.61	317.75
373.835	322.75
374.061	312.75
374.287	326.75
374.513	318.75
374.739	314.75
374.965	339.75
375.191	332.75
375.416	335.75
375.642	308.75
375.868	322.75
376.094	308.75
376.319	319.75
376.545	316.75
376.771	318.75
376.997	320.75
377.222	299.75
377.448	311.75
377.674	313.75
377.899	325.75
378.125	310.75
378.35	313.75
378.576	286.75
378.802	329.75
379.027	298.75
379.253	313.75
379.478	309.75
379.704	314.75
379.929	300.75
380.155	317.75
380.38	331.75
380.606	313.75
380.831	309.75
381.057	305.75
381.282	309.75
381.507	300.75
381.733	336.75
381.958	328.75
382.184	316.75
382.409	325.75
382.634	316.75
382.86	322.75
383.085	334.75
383.31	327.75
383.535	340.75
383.761	321.75
383.986	328.75
384.211	322.75
384.436	332.75
384.662	330.75
384.887	340.75
385.112	332.75
385.337	330.75
385.562	350.75
385.787	340.75
386.013	339.75
386.238	348.75
386.463	344.75
386.688	335.75
386.913	337.75
387.138	333.75
387.363	326.75
387.588	333.75
387.813	343.75
388.038	341.75
388.263	348.75
388.488	339.75
388.713	342.75
388.938	334.75
389.163	359.75
389.387	347.75
389.612	344.75
389.837	340.75
390.062	346.75
390.287	338.75
390.512	328.75
390.736	343.75
390.961	340.75
391.186	338.75
391.411	350.75
391.636	344.75
391.86	356.75
392.085	356.75
392.31	355.75
392.534	362.75
392.759	373.75
392.984	369.75
393.208	349.75
393.433	357.75
393.658	339.75
393.882	349.75
394.107	336.75
394.331	334.75
394.556	362.75
394.78	344.75
395.005	357.75
395.229	340.75
395.454	349.75
395.678	348.75
395.903	359.75
396.127	380.75
396.352	368.75
396.576	364.75
396.801	347.75
397.025	355.75
397.249	367.75
397.474	360.75
397.698	374.75
397.922	379.75
398.147	382.75
398.371	397.75
398.595	368.75
398.82	402.75
399.044	402.75
399.268	418.75
399.492	434.75
399.717	461.75
399.941	479.75
400.165	466.75
400.389	467.75
400.613	442.75
400.837	409.75
401.062	411.75
401.286	403.75
401.51	412.75
401.734	394.75
401.958	400.75
402.182	409.75
402.406	413.75
402.63	421.75
402.854	409.75
403.078	399.75
403.302	430.75
403.526	431.75
403.75	405.75
403.974	413.75
404.198	398.75
404.422	435.75
404.645	416.75
404.869	434.75
405.093	417.75
405.317	451.75
405.541	446.75
405.765	413.75
405.988	433.75
406.212	444.75
406.436	443.75
406.66	477.75
406.883	451.75
407.107	461.75
407.331	500.75
407.555	533.75
407.778	513.75
408.002	475.75
408.226	461.75
408.449	457.75
408.673	460.75
408.896	472.75
409.12	494.75
409.344	480.75
409.567	460.75
409.791	422.75
410.014	422.75
410.238	397.75
410.461	424.75
410.685	424.75
410.908	400.75
411.132	433.75
411.355	488.75
411.578	457.75
411.802	420.75
412.025	417.75
412.249	410.75
412.472	418.75
412.695	419.75
412.919	418.75
413.142	413.75
413.365	409.75
413.589	408.75
413.812	424.75
414.035	398.75
414.258	402.75
414.482	410.75
414.705	412.75
414.928	398.75
415.151	415.75
415.374	392.75
415.597	421.75
415.821	416.75
416.044	394.75
416.267	417.75
416.49	418.75
416.713	412.75
416.936	427.75
417.159	391.75
417.382	424.75
417.605	398.75
417.828	401.75
418.051	396.75
418.274	414.75
418.497	394.75
418.72	412.75
418.943	398.75
419.166	426.75
419.389	448.75
419.611	439.75
419.834	438.75
420.057	411.75
420.28	436.75
420.503	428.75
420.726	415.75
420.948	418.75
421.171	449.75
421.394	472.75
421.617	427.75
421.839	406.75
422.062	428.75
422.285	433.75
422.507	456.75
422.73	529.75
422.953	491.75
423.175	472.75
423.398	446.75
423.621	434.75
423.843	463.75
424.066	444.75
424.288	454.75
424.511	464.75
424.733	477.75
424.956	528.75
425.178	498.75
425.401	501.75
425.623	526.75
425.846	450.75
426.068	436.75
426.291	430.75
426.513	419.75
426.735	461.75
426.958	454.75
427.18	505.75
427.402	575.75
427.625	632.75
427.847	564.75
428.069	492.75
428.292	451.75
428.514	424.75
428.736	424.75
428.958	420.75
429.181	417.75
429.403	398.75
429.625	434.75
429.847	451.75
430.069	473.75
430.292	475.75
430.514	424.75
430.736	411.75
430.958	420.75
431.18	404.75
431.402	400.75
431.624	409.75
431.846	381.75
432.068	399.75
432.29	388.75
432.512	386.75
432.734	396.75
432.956	398.75
433.178	405.75
433.4	386.75
433.622	404.75
433.844	395.75
434.066	408.75
434.287	407.75
434.509	391.75
434.731	411.75
434.953	406.75
435.175	432.75
435.397	414.75
435.618	425.75
435.84	456.75
436.062	516.75
436.284	536.75
436.505	455.75
436.727	428.75
436.949	394.75
437.17	401.75
437.392	422.75
437.614	427.75
437.835	443.75
438.057	485.75
438.278	570.75
438.5	553.75
438.721	613.75
438.943	557.75
439.165	457.75
439.386	419.75
439.608	427.75
439.829	418.75
440.05	441.75
440.272	468.75
440.493	454.75
440.715	432.75
440.936	408.75
441.158	417.75
441.379	418.75
441.6	425.75
441.822	434.75
442.043	486.75
442.264	512.75
442.486	531.75
442.707	486.75
442.928	452.75
443.149	453.75
443.371	468.75
443.592	488.75
443.813	567.75
444.034	573.75
444.255	493.75
444.476	468.75
444.698	474.75
444.919	480.75
445.14	534.75
445.361	496.75
445.582	484.75
445.803	496.75
446.024	565.75
446.245	553.75
446.466	508.75
446.687	454.75
446.908	425.75
447.129	395.75
447.35	410.75
447.571	409.75
447.792	390.75
448.013	378.75
448.234	409.75
448.455	419.75
448.675	519.75
448.896	581.75
449.117	484.75
449.338	474.75
449.559	537.75
449.779	569.75
450	483.75
450.221	397.75
450.442	380.75
450.662	400.75
450.883	377.75
451.104	397.75
451.324	388.75
451.545	391.75
451.766	384.75
451.986	366.75
452.207	365.75
452.428	345.75
452.648	371.75
452.869	364.75
453.089	357.75
453.31	379.75
453.53	370.75
453.751	374.75
453.971	354.75
454.192	374.75
454.412	374.75
454.633	365.75
454.853	370.75
455.073	341.75
455.294	383.75
455.514	418.75
455.734	401.75
455.955	390.75
456.175	357.75
456.395	363.75
456.616	340.75
456.836	364.75
457.056	355.75
457.276	345.75
457.497	348.75
457.717	368.75
457.937	342.75
458.157	354.75
458.377	328.75
458.598	380.75
458.818	400.75
459.038	434.75
459.258	471.75
459.478	413.75
459.698	388.75
459.918	378.75
460.138	388.75
460.358	398.75
460.578	413.75
460.798	406.75
461.018	424.75
461.238	404.75
461.458	416.75
461.678	404.75
461.898	410.75
462.118	411.75
462.338	420.75
462.558	451.75
462.777	426.75
462.997	439.75
463.217	436.75
463.437	460.75
463.657	457.75
463.876	438.75
464.096	444.75
464.316	434.75
464.536	441.75
464.755	432.75
464.975	419.75
465.195	440.75
465.414	494.75
465.634	449.75
465.854	418.75
466.073	392.75
466.293	394.75
466.512	370.75
466.732	385.75
466.951	370.75
467.171	378.75
467.391	364.75
467.61	371.75
467.829	382.75
468.049	405.75
468.268	395.75
468.488	397.75
468.707	388.75
468.927	374.75
469.146	377.75
469.365	364.75
469.585	370.75
469.804	380.75
470.023	397.75
470.243	394.75
470.462	390.75
470.681	406.75
470.901	370.75
471.12	393.75
471.339	394.75
471.558	406.75
471.777	392.75
471.997	382.75
472.216	403.75
472.435	473.75
472.654	452.75
472.873	392.75
473.092	387.75
473.311	383.75
473.53	383.75
473.749	396.75
473.968	422.75
474.187	473.75
474.406	469.75
474.625	407.75
474.844	392.75
475.063	405.75
475.282	379.75
475.501	378.75
475.72	372.75
475.939	375.75
476.158	383.75
476.377	416.75
476.596	393.75
476.814	413.75
477.033	394.75
477.252	416.75
477.471	416.75
477.69	418.75
477.908	425.75
478.127	428.75
478.346	420.75
478.564	406.75
478.783	408.75
479.002	433.75
479.22	443.75
479.439	440.75
479.658	447.75
479.876	458.75
480.095	477.75
480.313	470.75
480.532	477.75
480.751	481.75
480.969	484.75
481.188	575.75
481.406	648.75
481.624	519.75
481.843	474.75
482.061	461.75
482.28	467.75
482.498	451.75
482.717	438.75
482.935	451.75
483.153	460.75
483.372	440.75
483.59	464.75
483.808	428.75
484.027	462.75
484.245	457.75
484.463	431.75
484.681	460.75
484.9	475.75
485.118	435.75
485.336	453.75
485.554	471.75
485.772	462.75
485.99	472.75
486.209	447.75
486.427	478.75
486.645	489.75
486.863	489.75
487.081	487.75
487.299	473.75
487.517	476.75
487.735	480.75
487.953	481.75
488.171	456.75
488.389	476.75
488.607	466.75
488.825	479.75
489.043	494.75
489.261	476.75
489.479	471.75
489.696	485.75
489.914	487.75
490.132	493.75
490.35	501.75
490.568	489.75
490.786	488.75
491.003	526.75
491.221	517.75
491.439	520.75
491.657	508.75
491.874	540.75
492.092	534.75
492.31	541.75
492.527	530.75
492.745	541.75
492.963	517.75
493.18	524.75
493.398	551.75
493.615	555.75
493.833	569.75
494.05	551.75
494.268	557.75
494.485	542.75
494.703	523.75
494.92	524.75
495.138	554.75
495.355	555.75
495.573	537.75
495.79	540.75
496.008	563.75
496.225	579.75
496.442	566.75
496.66	550.75
496.877	548.75
497.094	575.75
497.312	574.75
497.529	566.75
497.746	574.75
497.963	574.75
498.181	582.75
498.398	604.75
498.615	626.75
498.832	645.75
499.049	664.75
499.267	664.75
499.484	684.75
499.701	704.75
499.918	769.75
500.135	821.75
500.352	820.75
500.569	861.75
500.786	844.75
501.003	824.75
501.22	782.75
501.437	759.75
501.654	731.75
501.871	728.75
502.088	713.75
502.305	661.75
502.522	628.75
502.739	626.75
502.956	589.75
503.172	585.75
503.389	578.75
503.606	583.75
503.823	584.75
504.04	578.75
504.256	570.75
504.473	563.75
504.69	554.75
504.907	556.75
505.123	520.75
505.34	552.75
505.557	519.75
505.773	542.75
505.99	535.75
506.207	524.75
506.423	518.75
506.64	516.75
506.856	512.75
507.073	517.75
507.289	488.75
507.506	525.75
507.722	532.75
507.939	516.75
508.155	519.75
508.372	503.75
508.588	492.75
508.805	499.75
509.021	475.75
509.238	508.75
509.454	496.75
509.67	466.75
509.887	470.75
510.103	486.75
510.319	500.75
510.536	563.75
510.752	899.75
510.968	732.75
511.184	482.75
511.401	479.75
511.617	466.75
511.833	476.75
512.049	444.75
512.265	461.75
512.481	469.75
512.698	463.75
512.914	462.75
513.13	460.75
513.346	433.75
513.562	459.75
513.778	442.75
513.994	462.75
514.21	465.75
514.426	466.75
514.642	511.75
514.858	533.75
515.074	538.75
515.29	648.75
515.506	927.75
515.721	760.75
515.937	545.75
516.153	514.75
516.369	472.75
516.585	503.75
516.801	489.75
517.016	491.75
517.232	511.75
517.448	487.75
517.664	500.75
517.879	497.75
518.095	513.75
518.311	511.75
518.527	475.75
518.742	483.75
518.958	475.75
519.173	454.75
519.389	480.75
519.605	476.75
519.82	462.75
520.036	453.75
520.251	487.75
520.467	511.75
520.682	482.75
520.898	477.75
521.113	494.75
521.329	547.75
521.544	587.75
521.76	733.75
521.975	1161.75
522.19	1149.75
522.406	628.75
522.621	495.75
522.836	459.75
523.052	448.75
523.267	433.75
523.482	421.75
523.698	412.75
523.913	429.75
524.128	415.75
524.343	412.75
524.559	416.75
524.774	404.75
524.989	397.75
525.204	413.75
525.419	414.75
525.634	387.75
525.849	398.75
526.064	402.75
526.28	386.75
526.495	402.75
526.71	373.75
526.925	390.75
527.14	396.75
527.355	385.75
527.57	370.75
527.785	376.75
527.999	394.75
528.214	398.75
528.429	381.75
528.644	372.75
528.859	374.75
529.074	371.75
529.289	399.75
529.503	477.75
529.718	436.75
529.933	406.75
530.148	396.75
530.363	394.75
530.577	390.75
530.792	382.75
531.007	382.75
531.221	390.75
531.436	378.75
531.651	378.75
531.865	380.75
532.08	394.75
532.295	409.75
532.509	379.75
532.724	376.75
532.938	380.75
533.153	371.75
533.367	382.75
533.582	374.75
533.796	389.75
534.011	367.75
534.225	371.75
534.44	369.75
534.654	372.75
534.868	377.75
535.083	367.75
535.297	363.75
535.511	390.75
535.726	385.75
535.94	372.75
536.154	373.75
536.369	384.75
536.583	347.75
536.797	352.75
537.011	365.75
537.225	363.75
537.44	348.75
537.654	363.75
537.868	359.75
538.082	358.75
538.296	364.75
538.51	356.75
538.724	363.75
538.938	348.75
539.153	356.75
539.367	370.75
539.581	365.75
539.795	363.75
540.009	368.75
540.222	370.75
540.436	349.75
540.65	355.75
540.864	368.75
541.078	382.75
541.292	364.75
541.506	359.75
541.72	362.75
541.934	382.75
542.147	362.75
542.361	361.75
542.575	345.75
542.789	348.75
543.002	372.75
543.216	360.75
543.43	353.75
543.644	362.75
543.857	355.75
544.071	362.75
544.285	356.75
544.498	360.75
544.712	364.75
544.925	376.75
545.139	376.75
545.352	365.75
545.566	377.75
545.779	363.75
545.993	350.75
546.206	365.75
546.42	366.75
546.633	365.75
546.847	354.75
547.06	349.75
547.274	361.75
547.487	351.75
547.7	337.75
547.914	336.75
548.127	356.75
548.34	370.75
548.554	359.75
548.767	361.75
548.98	343.75
549.193	354.75
549.407	353.75
549.62	354.75
549.833	342.75
550.046	359.75
550.259	341.75
550.473	332.75
550.686	343.75
550.899	354.75
551.112	354.75
551.325	342.75
551.538	345.75
551.751	336.75
551.964	334.75
552.177	324.75
552.39	346.75
552.603	354.75
552.816	348.75
553.029	347.75
553.242	360.75
553.455	362.75
553.667	363.75
553.88	368.75
554.093	360.75
554.306	349.75
554.519	350.75
554.732	339.75
554.944	330.75
555.157	348.75
555.37	346.75
555.583	334.75
555.795	333.75
556.008	321.75
556.221	316.75
556.433	320.75
556.646	312.75
556.859	321.75
557.071	315.75
557.284	310.75
557.496	306.75
557.709	295.75
557.921	317.75
558.134	293.75
558.346	309.75
558.559	322.75
558.771	297.75
558.984	318.75
559.196	318.75
559.409	326.75
559.621	307.75
559.833	300.75
560.046	283.75
560.258	306.75
560.47	301.75
560.683	305.75
560.895	309.75
561.107	316.75
561.32	317.75
561.532	308.75
561.744	304.75
561.956	288.75
562.168	307.75
562.381	290.75
562.593	323.75
562.805	297.75
563.017	290.75
563.229	305.75
563.441	305.75
563.653	311.75
563.865	312.75
564.077	307.75
564.289	314.75
564.501	322.75
564.713	305.75
564.925	320.75
565.137	336.75
565.349	327.75
565.561	338.75
565.773	344.75
565.985	340.75
566.197	365.75
566.408	355.75
566.62	392.75
566.832	375.75
567.044	373.75
567.255	379.75
567.467	405.75
567.679	411.75
567.891	418.75
568.102	416.75
568.314	388.75
568.526	378.75
568.737	358.75
568.949	355.75
569.161	346.75
569.372	325.75
569.584	322.75
569.795	321.75
570.007	313.75
570.218	324.75
570.43	334.75
570.641	318.75
570.853	304.75
571.064	296.75
571.276	315.75
571.487	295.75
571.698	311.75
571.91	279.75
572.121	291.75
572.333	284.75
572.544	268.75
572.755	276.75
572.966	290.75
573.178	267.75
573.389	258.75
573.6	272.75
573.811	267.75
574.023	273.75
574.234	272.75
574.445	268.75
574.656	242.75
574.867	270.75
575.078	258.75
575.289	261.75
575.501	266.75
575.712	249.75
575.923	246.75
576.134	252.75
576.345	247.75
576.556	273.75
576.767	272.75
576.978	253.75
577.188	272.75
577.399	254.75
577.61	262.75
577.821	251.75
578.032	268.75
578.243	262.75
578.454	421.75
578.665	339.75
578.875	263.75
579.086	259.75
579.297	259.75
579.508	251.75
579.718	270.75
579.929	256.75
580.14	244.75
580.35	245.75
580.561	242.75
580.772	245.75
580.982	240.75
581.193	256.75
581.403	234.75
581.614	242.75
581.825	235.75
582.035	240.75
582.246	237.75
582.456	243.75
582.667	253.75
582.877	229.75
583.087	233.75
583.298	233.75
583.508	237.75
583.719	245.75
583.929	244.75
584.139	238.75
584.35	247.75
584.56	237.75
584.77	230.75
584.981	233.75
585.191	241.75
585.401	244.75
585.611	226.75
585.821	240.75
586.032	242.75
586.242	236.75
586.452	238.75
586.662	234.75
586.872	230.75
587.082	223.75
587.292	229.75
587.502	223.75
587.713	239.75
587.923	225.75
588.133	209.75
588.343	216.75
588.553	242.75
588.762	233.75
588.972	252.75
589.182	284.75
589.392	282.75
589.602	254.75
589.812	277.75
590.022	247.75
590.232	217.75
590.441	225.75
590.651	250.75
590.861	226.75
591.071	224.75
591.281	228.75
591.49	220.75
591.7	229.75
591.91	244.75
592.119	232.75
592.329	250.75
592.539	248.75
592.748	234.75
592.958	239.75
593.167	252.75
593.377	259.75
593.587	257.75
593.796	253.75
594.006	230.75
594.215	242.75
594.424	256.75
594.634	231.75
594.843	244.75
595.053	264.75
595.262	225.75
595.472	230.75
595.681	234.75
595.89	232.75
596.1	228.75
596.309	222.75
596.518	216.75
596.727	239.75
596.937	219.75
597.146	223.75
597.355	208.75
597.564	224.75
597.774	216.75
597.983	222.75
598.192	204.75
598.401	208.75
598.61	204.75
598.819	201.75
599.028	204.75
599.237	202.75
599.446	230.75
599.655	223.75
599.864	192.75
600.073	214.75
600.282	205.75
600.491	209.75
600.7	196.75
600.909	202.75
601.118	208.75
601.327	210.75
601.536	219.75
601.745	207.75
601.953	198.75
602.162	211.75
602.371	217.75
602.58	212.75
602.789	185.75
602.997	176.75
603.206	193.75
603.415	200.75
603.623	188.75
603.832	203.75
604.041	205.75
604.249	202.75
604.458	201.75
604.666	195.75
604.875	187.75
605.084	186.75
605.292	201.75
605.501	195.75
605.709	200.75
605.918	196.75
606.126	200.75
606.334	206.75
606.543	212.75
606.751	194.75
606.96	187.75
607.168	200.75
607.376	197.75
607.585	200.75
607.793	201.75
608.001	212.75
608.21	190.75
608.418	172.75
608.626	204.75
608.834	200.75
609.043	201.75
609.251	187.75
609.459	178.75
609.667	186.75
609.875	181.75
610.083	190.75
610.291	189.75
610.499	199.75
610.707	181.75
610.916	191.75
611.124	195.75
611.332	197.75
611.54	210.75
611.748	190.75
611.955	203.75
612.163	201.75
612.371	201.75
612.579	206.75
612.787	208.75
612.995	206.75
613.203	196.75
613.411	186.75
613.618	208.75
613.826	207.75
614.034	186.75
614.242	169.75
614.449	176.75
614.657	204.75
614.865	178.75
615.072	181.75
615.28	172.75
615.488	186.75
615.695	204.75
615.903	205.75
616.111	190.75
616.318	190.75
616.526	187.75
616.733	180.75
616.941	192.75
617.148	201.75
617.356	189.75
617.563	176.75
617.771	184.75
617.978	185.75
618.185	186.75
618.393	188.75
618.6	200.75
618.807	170.75
619.015	177.75
619.222	204.75
619.429	183.75
619.637	166.75
619.844	190.75
620.051	188.75
620.258	181.75
620.466	168.75
620.673	174.75
620.88	183.75
621.087	192.75
621.294	177.75
621.501	162.75
621.708	183.75
621.915	173.75
622.122	178.75
622.329	183.75
622.536	185.75
622.743	177.75
622.95	172.75
623.157	167.75
623.364	176.75
623.571	167.75
623.778	173.75
623.985	168.75
624.192	176.75
624.399	177.75
624.606	179.75
624.812	154.75
625.019	161.75
625.226	165.75
625.433	186.75
625.639	169.75
625.846	179.75
626.053	163.75
626.259	158.75
626.466	167.75
626.673	176.75
626.879	183.75
627.086	170.75
627.293	180.75
627.499	162.75
627.706	171.75
627.912	157.75
628.119	174.75
628.325	185.75
628.532	149.75
628.738	178.75
628.945	171.75
629.151	158.75
629.357	169.75
629.564	149.75
629.77	151.75
629.976	176.75
630.183	152.75
630.389	156.75
630.595	166.75
630.802	157.75
631.008	139.75
631.214	173.75
631.42	158.75
631.627	169.75
631.833	166.75
632.039	168.75
632.245	156.75
632.451	155.75
632.657	146.75
632.863	151.75
633.069	169.75
633.275	157.75
633.481	150.75
633.688	168.75
633.893	149.75
634.099	149.75
634.305	158.75
634.511	129.75
634.717	130.75
634.923	163.75
635.129	142.75
635.335	153.75
635.541	152.75
635.747	161.75
635.952	154.75
636.158	152.75
636.364	153.75
636.57	161.75
636.775	164.75
636.981	160.75
637.187	150.75
637.392	147.75
637.598	149.75
637.804	157.75
638.009	148.75
638.215	155.75
638.421	151.75
638.626	144.75
638.832	157.75
639.037	156.75
639.243	140.75
639.448	158.75
639.654	150.75
639.859	149.75
640.065	162.75
640.27	154.75
640.475	155.75
640.681	151.75
640.886	136.75
641.091	142.75
641.297	146.75
641.502	155.75
641.707	148.75
641.913	137.75
642.118	138.75
642.323	148.75
642.528	140.75
642.733	159.75
642.939	147.75
643.144	154.75
643.349	140.75
643.554	144.75
643.759	137.75
643.964	135.75
644.169	143.75
644.374	142.75
644.579	130.75
644.784	153.75
644.989	141.75
645.194	134.75
645.399	145.75
645.604	138.75
645.809	143.75
646.014	134.75
646.219	134.75
646.423	145.75
646.628	147.75
646.833	147.75
647.038	141.75
647.243	144.75
647.447	138.75
647.652	140.75
647.857	136.75
648.062	138.75
648.266	137.75
648.471	129.75
648.676	138.75
648.88	139.75
649.085	138.75
649.289	165.75
649.494	167.75
649.698	154.75
649.903	148.75
650.107	137.75
650.312	142.75
650.516	130.75
650.721	136.75
650.925	138.75
651.13	145.75
651.334	128.75
651.539	132.75
651.743	130.75
651.947	150.75
652.152	133.75
652.356	118.75
652.56	134.75
652.764	117.75
652.969	127.75
653.173	120.75
653.377	106.75
653.581	117.75
653.785	123.75
653.99	117.75
654.194	122.75
654.398	125.75
654.602	123.75
654.806	135.75
655.01	125.75
655.214	130.75
655.418	133.75
655.622	132.75
655.826	122.75
656.03	120.75
656.234	135.75
656.438	138.75
656.642	131.75
656.846	132.75
657.049	108.75
657.253	132.75
657.457	116.75
657.661	115.75
657.865	105.75
658.068	114.75
658.272	109.75
658.476	95.75
658.68	86.75
658.883	88.75
659.087	99.75
659.291	101.75
659.494	88.75
659.698	100.75
659.901	90.75
660.105	83.75
660.309	91.75
660.512	93.75
660.716	93.75
660.919	94.75
661.123	89.75
661.326	87.75
661.53	76.75
661.733	78.75
661.936	86.75
662.14	82.75
662.343	80.75
662.546	89.75
662.75	81.75
662.953	93.75
663.156	85.75
663.36	83.75
663.563	89.75
663.766	98.75
663.969	87.75
664.173	78.75
664.376	81.75
664.579	81.75
664.782	86.75
664.985	89.75
665.188	90.75
665.391	86.75
665.594	80.75
665.797	96.75
666	80.75
666.203	93.75
666.406	85.75
666.609	92.75
666.812	65.75
667.015	84.75
667.218	98.75
667.421	77.75
667.624	73.75
667.827	75.75
668.03	84.75
668.232	82.75
668.435	83.75
668.638	81.75
668.841	75.75
669.043	98.75
669.246	84.75
669.449	81.75
669.651	74.75
669.854	71.75
670.057	80.75
670.259	75.75
670.462	97.75
670.665	92.75
670.867	94.75
671.07	85.75
671.272	91.75
671.475	84.75
671.677	74.75
671.88	73.75
672.082	80.75
672.284	80.75
672.487	81.75
672.689	77.75
672.892	72.75
