Data from 1986.PennyLincolnUp.Lamp.En5.5.200Scan.071819.P2_HRD10591_17-10-00-974.txt Node
Date: Thu Jul 18 17:10:00 EDT 2019
User: cochatt
Spectrometer: HR+D1059
Trigger mode: 1
Integration Time (sec): 1.000000E-1
Scans to average: 1
Electric dark correction enabled: true
Nonlinearity correction enabled: false
Boxcar width: 0
XAxis mode: Wavelengths
Number of Pixels in Spectrum: 2048
>>>>>Begin Spectral Data<<<<<
223.165	-16.12
223.4	-16.12
223.635	-16.12
223.869	-9.12
224.104	-29.12
224.338	-10.12
224.573	-18.12
224.808	-16.12
225.042	-2.12
225.277	-8.12
225.511	-10.12
225.746	4.88
225.98	6.88
226.215	16.88
226.449	7.88
226.683	16.88
226.918	24.88
227.152	40.88
227.387	31.88
227.621	27.88
227.856	46.88
228.09	48.88
228.324	51.88
228.559	52.88
228.793	80.88
229.027	101.88
229.262	106.88
229.496	118.88
229.73	141.88
229.964	176.88
230.199	136.88
230.433	112.88
230.667	115.88
230.901	119.88
231.136	116.88
231.37	114.88
231.604	107.88
231.838	113.88
232.072	111.88
232.306	100.88
232.541	109.88
232.775	101.88
233.009	119.88
233.243	127.88
233.477	126.88
233.711	115.88
233.945	106.88
234.179	94.88
234.413	124.88
234.647	123.88
234.881	111.88
235.115	120.88
235.349	117.88
235.583	120.88
235.817	125.88
236.051	127.88
236.285	136.88
236.519	128.88
236.753	146.88
236.987	132.88
237.221	174.88
237.455	232.88
237.689	187.88
237.922	135.88
238.156	113.88
238.39	111.88
238.624	127.88
238.858	131.88
239.091	127.88
239.325	125.88
239.559	121.88
239.793	142.88
240.027	136.88
240.26	136.88
240.494	159.88
240.728	141.88
240.961	148.88
241.195	148.88
241.429	150.88
241.662	128.88
241.896	140.88
242.13	137.88
242.363	133.88
242.597	132.88
242.83	120.88
243.064	151.88
243.298	149.88
243.531	132.88
243.765	124.88
243.998	138.88
244.232	140.88
244.465	156.88
244.699	150.88
244.932	147.88
245.166	142.88
245.399	139.88
245.633	148.88
245.866	147.88
246.099	168.88
246.333	148.88
246.566	149.88
246.8	146.88
247.033	160.88
247.266	148.88
247.5	171.88
247.733	155.88
247.966	164.88
248.2	186.88
248.433	183.88
248.666	167.88
248.899	176.88
249.133	192.88
249.366	219.88
249.599	189.88
249.832	183.88
250.066	203.88
250.299	188.88
250.532	190.88
250.765	215.88
250.998	213.88
251.231	207.88
251.465	204.88
251.698	184.88
251.931	208.88
252.164	208.88
252.397	182.88
252.63	207.88
252.863	205.88
253.096	208.88
253.329	229.88
253.562	226.88
253.795	230.88
254.028	224.88
254.261	230.88
254.494	231.88
254.727	260.88
254.96	280.88
255.193	278.88
255.426	257.88
255.659	238.88
255.892	233.88
256.124	218.88
256.357	204.88
256.59	224.88
256.823	206.88
257.056	215.88
257.289	214.88
257.521	211.88
257.754	213.88
257.987	209.88
258.22	216.88
258.452	209.88
258.685	211.88
258.918	203.88
259.151	220.88
259.383	232.88
259.616	218.88
259.849	233.88
260.081	231.88
260.314	247.88
260.547	264.88
260.779	245.88
261.012	250.88
261.244	235.88
261.477	204.88
261.71	217.88
261.942	238.88
262.175	234.88
262.407	213.88
262.64	220.88
262.872	195.88
263.105	213.88
263.337	221.88
263.57	223.88
263.802	199.88
264.035	223.88
264.267	206.88
264.499	205.88
264.732	211.88
264.964	199.88
265.197	206.88
265.429	223.88
265.661	206.88
265.894	218.88
266.126	204.88
266.358	195.88
266.591	220.88
266.823	227.88
267.055	225.88
267.287	231.88
267.52	215.88
267.752	207.88
267.984	231.88
268.216	212.88
268.448	234.88
268.681	213.88
268.913	242.88
269.145	238.88
269.377	276.88
269.609	263.88
269.841	267.88
270.073	260.88
270.306	281.88
270.538	291.88
270.77	315.88
271.002	311.88
271.234	297.88
271.466	289.88
271.698	307.88
271.93	305.88
272.162	323.88
272.394	323.88
272.626	300.88
272.858	278.88
273.09	281.88
273.322	259.88
273.553	269.88
273.785	248.88
274.017	255.88
274.249	240.88
274.481	248.88
274.713	251.88
274.945	259.88
275.176	263.88
275.408	259.88
275.64	248.88
275.872	243.88
276.104	249.88
276.335	245.88
276.567	259.88
276.799	264.88
277.031	273.88
277.262	289.88
277.494	303.88
277.726	293.88
277.957	268.88
278.189	262.88
278.421	259.88
278.652	240.88
278.884	245.88
279.115	233.88
279.347	260.88
279.579	255.88
279.81	252.88
280.042	253.88
280.273	244.88
280.505	256.88
280.736	246.88
280.968	230.88
281.199	253.88
281.431	223.88
281.662	231.88
281.894	238.88
282.125	240.88
282.356	259.88
282.588	287.88
282.819	299.88
283.051	255.88
283.282	264.88
283.513	247.88
283.745	244.88
283.976	253.88
284.207	247.88
284.439	261.88
284.67	256.88
284.901	251.88
285.132	263.88
285.364	244.88
285.595	259.88
285.826	263.88
286.057	264.88
286.288	240.88
286.52	263.88
286.751	250.88
286.982	262.88
287.213	251.88
287.444	242.88
287.675	255.88
287.906	281.88
288.138	278.88
288.369	279.88
288.6	276.88
288.831	268.88
289.062	273.88
289.293	271.88
289.524	270.88
289.755	256.88
289.986	263.88
290.217	231.88
290.448	252.88
290.679	257.88
290.91	261.88
291.141	274.88
291.371	252.88
291.602	245.88
291.833	272.88
292.064	259.88
292.295	260.88
292.526	261.88
292.757	253.88
292.987	265.88
293.218	259.88
293.449	280.88
293.68	249.88
293.91	265.88
294.141	240.88
294.372	257.88
294.603	244.88
294.833	258.88
295.064	280.88
295.295	246.88
295.525	267.88
295.756	260.88
295.987	274.88
296.217	300.88
296.448	318.88
296.679	275.88
296.909	269.88
297.14	260.88
297.37	272.88
297.601	295.88
297.831	265.88
298.062	271.88
298.292	274.88
298.523	279.88
298.753	276.88
298.984	277.88
299.214	276.88
299.445	267.88
299.675	248.88
299.905	283.88
300.136	269.88
300.366	279.88
300.597	283.88
300.827	278.88
301.057	286.88
301.288	282.88
301.518	280.88
301.748	279.88
301.979	284.88
302.209	277.88
302.439	301.88
302.669	282.88
302.9	303.88
303.13	283.88
303.36	297.88
303.59	284.88
303.82	311.88
304.051	305.88
304.281	279.88
304.511	282.88
304.741	303.88
304.971	297.88
305.201	280.88
305.431	289.88
305.661	292.88
305.891	275.88
306.121	285.88
306.352	310.88
306.582	309.88
306.812	282.88
307.042	300.88
307.272	299.88
307.502	281.88
307.731	297.88
307.961	302.88
308.191	283.88
308.421	297.88
308.651	308.88
308.881	309.88
309.111	288.88
309.341	298.88
309.571	315.88
309.8	312.88
310.03	340.88
310.26	323.88
310.49	329.88
310.72	368.88
310.949	359.88
311.179	384.88
311.409	345.88
311.639	361.88
311.868	345.88
312.098	356.88
312.328	382.88
312.557	359.88
312.787	373.88
313.017	364.88
313.246	370.88
313.476	343.88
313.706	336.88
313.935	355.88
314.165	357.88
314.394	363.88
314.624	368.88
314.853	357.88
315.083	343.88
315.312	323.88
315.542	332.88
315.771	323.88
316.001	325.88
316.23	323.88
316.46	353.88
316.689	316.88
316.919	344.88
317.148	365.88
317.377	369.88
317.607	354.88
317.836	331.88
318.065	344.88
318.295	340.88
318.524	340.88
318.753	345.88
318.983	347.88
319.212	350.88
319.441	344.88
319.67	354.88
319.9	359.88
320.129	344.88
320.358	321.88
320.587	355.88
320.816	374.88
321.046	371.88
321.275	365.88
321.504	374.88
321.733	378.88
321.962	380.88
322.191	375.88
322.42	402.88
322.649	430.88
322.878	427.88
323.108	443.88
323.337	469.88
323.566	502.88
323.795	546.88
324.024	591.88
324.253	707.88
324.482	1001.88
324.71	1542.88
324.939	2201.88
325.168	1910.88
325.397	1004.88
325.626	681.88
325.855	566.88
326.084	482.88
326.313	469.88
326.542	478.88
326.77	504.88
326.999	644.88
327.228	908.88
327.457	1350.88
327.686	1663.88
327.914	1119.88
328.143	696.88
328.372	635.88
328.6	569.88
328.829	571.88
329.058	561.88
329.287	601.88
329.515	517.88
329.744	489.88
329.972	447.88
330.201	475.88
330.43	488.88
330.658	515.88
330.887	605.88
331.115	579.88
331.344	510.88
331.572	455.88
331.801	453.88
332.03	472.88
332.258	430.88
332.486	405.88
332.715	401.88
332.943	401.88
333.172	405.88
333.4	383.88
333.629	401.88
333.857	401.88
334.085	399.88
334.314	383.88
334.542	387.88
334.771	419.88
334.999	384.88
335.227	385.88
335.455	404.88
335.684	382.88
335.912	388.88
336.14	378.88
336.369	389.88
336.597	398.88
336.825	410.88
337.053	404.88
337.281	384.88
337.51	381.88
337.738	404.88
337.966	382.88
338.194	390.88
338.422	401.88
338.65	387.88
338.878	360.88
339.106	351.88
339.334	367.88
339.562	366.88
339.79	365.88
340.018	383.88
340.246	374.88
340.474	375.88
340.702	383.88
340.93	383.88
341.158	356.88
341.386	379.88
341.614	383.88
341.842	358.88
342.07	387.88
342.298	383.88
342.526	366.88
342.754	367.88
342.981	357.88
343.209	369.88
343.437	373.88
343.665	375.88
343.893	385.88
344.12	379.88
344.348	379.88
344.576	383.88
344.804	386.88
345.031	400.88
345.259	399.88
345.487	384.88
345.714	386.88
345.942	380.88
346.17	374.88
346.397	380.88
346.625	378.88
346.853	384.88
347.08	372.88
347.308	376.88
347.535	379.88
347.763	379.88
347.99	375.88
348.218	376.88
348.445	385.88
348.673	384.88
348.9	369.88
349.128	365.88
349.355	361.88
349.583	357.88
349.81	342.88
350.037	344.88
350.265	363.88
350.492	353.88
350.72	363.88
350.947	381.88
351.174	365.88
351.402	389.88
351.629	394.88
351.856	364.88
352.083	386.88
352.311	387.88
352.538	406.88
352.765	380.88
352.992	381.88
353.22	376.88
353.447	364.88
353.674	371.88
353.901	352.88
354.128	346.88
354.355	342.88
354.583	331.88
354.81	359.88
355.037	315.88
355.264	322.88
355.491	327.88
355.718	345.88
355.945	325.88
356.172	341.88
356.399	331.88
356.626	334.88
356.853	348.88
357.08	329.88
357.307	335.88
357.534	336.88
357.761	336.88
357.988	331.88
358.215	357.88
358.441	314.88
358.668	340.88
358.895	350.88
359.122	344.88
359.349	360.88
359.576	374.88
359.802	396.88
360.029	424.88
360.256	431.88
360.483	422.88
360.709	356.88
360.936	368.88
361.163	365.88
361.39	385.88
361.616	384.88
361.843	381.88
362.07	371.88
362.296	387.88
362.523	371.88
362.749	377.88
362.976	359.88
363.203	368.88
363.429	338.88
363.656	345.88
363.882	364.88
364.109	338.88
364.335	350.88
364.562	352.88
364.788	356.88
365.015	356.88
365.241	349.88
365.468	349.88
365.694	360.88
365.92	372.88
366.147	338.88
366.373	356.88
366.599	345.88
366.826	331.88
367.052	337.88
367.278	348.88
367.505	344.88
367.731	341.88
367.957	350.88
368.184	344.88
368.41	338.88
368.636	356.88
368.862	353.88
369.089	357.88
369.315	347.88
369.541	325.88
369.767	347.88
369.993	339.88
370.219	350.88
370.445	328.88
370.672	336.88
370.898	354.88
371.124	318.88
371.35	324.88
371.576	343.88
371.802	335.88
372.028	357.88
372.254	314.88
372.48	322.88
372.706	342.88
372.932	339.88
373.158	341.88
373.384	335.88
373.61	348.88
373.835	333.88
374.061	341.88
374.287	330.88
374.513	334.88
374.739	327.88
374.965	352.88
375.191	337.88
375.416	345.88
375.642	342.88
375.868	358.88
376.094	355.88
376.319	352.88
376.545	335.88
376.771	324.88
376.997	335.88
377.222	341.88
377.448	338.88
377.674	340.88
377.899	323.88
378.125	325.88
378.35	328.88
378.576	342.88
378.802	337.88
379.027	329.88
379.253	335.88
379.478	317.88
379.704	327.88
379.929	335.88
380.155	328.88
380.38	350.88
380.606	349.88
380.831	350.88
381.057	336.88
381.282	334.88
381.507	338.88
381.733	331.88
381.958	336.88
382.184	349.88
382.409	323.88
382.634	336.88
382.86	348.88
383.085	324.88
383.31	336.88
383.535	364.88
383.761	343.88
383.986	346.88
384.211	362.88
384.436	360.88
384.662	348.88
384.887	335.88
385.112	355.88
385.337	351.88
385.562	347.88
385.787	351.88
386.013	366.88
386.238	374.88
386.463	375.88
386.688	354.88
386.913	345.88
387.138	348.88
387.363	359.88
387.588	363.88
387.813	357.88
388.038	375.88
388.263	358.88
388.488	360.88
388.713	379.88
388.938	352.88
389.163	355.88
389.387	359.88
389.612	356.88
389.837	357.88
390.062	347.88
390.287	365.88
390.512	358.88
390.736	337.88
390.961	359.88
391.186	354.88
391.411	339.88
391.636	348.88
391.86	373.88
392.085	364.88
392.31	358.88
392.534	365.88
392.759	370.88
392.984	368.88
393.208	365.88
393.433	355.88
393.658	349.88
393.882	356.88
394.107	352.88
394.331	346.88
394.556	349.88
394.78	357.88
395.005	367.88
395.229	364.88
395.454	354.88
395.678	380.88
395.903	379.88
396.127	360.88
396.352	415.88
396.576	381.88
396.801	368.88
397.025	381.88
397.249	371.88
397.474	377.88
397.698	345.88
397.922	371.88
398.147	385.88
398.371	392.88
398.595	394.88
398.82	384.88
399.044	380.88
399.268	396.88
399.492	416.88
399.717	428.88
399.941	461.88
400.165	443.88
400.389	511.88
400.613	461.88
400.837	420.88
401.062	400.88
401.286	394.88
401.51	397.88
401.734	375.88
401.958	389.88
402.182	415.88
402.406	435.88
402.63	417.88
402.854	402.88
403.078	410.88
403.302	414.88
403.526	415.88
403.75	415.88
403.974	404.88
404.198	407.88
404.422	408.88
404.645	424.88
404.869	409.88
405.093	428.88
405.317	433.88
405.541	465.88
405.765	446.88
405.988	423.88
406.212	441.88
406.436	469.88
406.66	477.88
406.883	472.88
407.107	469.88
407.331	516.88
407.555	572.88
407.778	557.88
408.002	494.88
408.226	471.88
408.449	452.88
408.673	451.88
408.896	488.88
409.12	512.88
409.344	507.88
409.567	439.88
409.791	426.88
410.014	398.88
410.238	390.88
410.461	407.88
410.685	414.88
410.908	412.88
411.132	468.88
411.355	498.88
411.578	432.88
411.802	409.88
412.025	401.88
412.249	420.88
412.472	410.88
412.695	429.88
412.919	395.88
413.142	411.88
413.365	391.88
413.589	385.88
413.812	397.88
414.035	394.88
414.258	359.88
414.482	360.88
414.705	394.88
414.928	394.88
415.151	391.88
415.374	392.88
415.597	395.88
415.821	381.88
416.044	382.88
416.267	410.88
416.49	396.88
416.713	382.88
416.936	381.88
417.159	373.88
417.382	406.88
417.605	382.88
417.828	409.88
418.051	424.88
418.274	410.88
418.497	397.88
418.72	373.88
418.943	409.88
419.166	421.88
419.389	416.88
419.611	447.88
419.834	399.88
420.057	423.88
420.28	403.88
420.503	412.88
420.726	402.88
420.948	424.88
421.171	478.88
421.394	505.88
421.617	438.88
421.839	431.88
422.062	428.88
422.285	437.88
422.507	488.88
422.73	534.88
422.953	516.88
423.175	471.88
423.398	460.88
423.621	439.88
423.843	452.88
424.066	449.88
424.288	447.88
424.511	470.88
424.733	526.88
424.956	605.88
425.178	589.88
425.401	558.88
425.623	632.88
425.846	504.88
426.068	465.88
426.291	467.88
426.513	441.88
426.735	455.88
426.958	501.88
427.18	580.88
427.402	664.88
427.625	750.88
427.847	687.88
428.069	578.88
428.292	496.88
428.514	470.88
428.736	457.88
428.958	453.88
429.181	454.88
429.403	421.88
429.625	441.88
429.847	483.88
430.069	519.88
430.292	525.88
430.514	455.88
430.736	426.88
430.958	416.88
431.18	429.88
431.402	409.88
431.624	388.88
431.846	409.88
432.068	397.88
432.29	406.88
432.512	397.88
432.734	402.88
432.956	409.88
433.178	408.88
433.4	402.88
433.622	397.88
433.844	382.88
434.066	417.88
434.287	411.88
434.509	394.88
434.731	395.88
434.953	424.88
435.175	438.88
435.397	446.88
435.618	473.88
435.84	487.88
436.062	592.88
436.284	661.88
436.505	543.88
436.727	509.88
436.949	448.88
437.17	435.88
437.392	452.88
437.614	444.88
437.835	477.88
438.057	565.88
438.278	660.88
438.5	663.88
438.721	708.88
438.943	708.88
439.165	564.88
439.386	501.88
439.608	494.88
439.829	507.88
440.05	518.88
440.272	561.88
440.493	525.88
440.715	470.88
440.936	455.88
441.158	440.88
441.379	429.88
441.6	429.88
441.822	475.88
442.043	488.88
442.264	560.88
442.486	624.88
442.707	525.88
442.928	484.88
443.149	493.88
443.371	520.88
443.592	556.88
443.813	611.88
444.034	657.88
444.255	573.88
444.476	487.88
444.698	476.88
444.919	454.88
445.14	587.88
445.361	551.88
445.582	494.88
445.803	560.88
446.024	676.88
446.245	680.88
446.466	608.88
446.687	535.88
446.908	480.88
447.129	483.88
447.35	446.88
447.571	453.88
447.792	420.88
448.013	443.88
448.234	461.88
448.455	511.88
448.675	598.88
448.896	687.88
449.117	610.88
449.338	563.88
449.559	649.88
449.779	719.88
450	588.88
450.221	489.88
450.442	469.88
450.662	432.88
450.883	422.88
451.104	469.88
451.324	437.88
451.545	397.88
451.766	431.88
451.986	412.88
452.207	391.88
452.428	399.88
452.648	397.88
452.869	401.88
453.089	394.88
453.31	431.88
453.53	416.88
453.751	394.88
453.971	409.88
454.192	415.88
454.412	414.88
454.633	412.88
454.853	391.88
455.073	395.88
455.294	428.88
455.514	480.88
455.734	455.88
455.955	407.88
456.175	372.88
456.395	354.88
456.616	359.88
456.836	350.88
457.056	369.88
457.276	339.88
457.497	377.88
457.717	347.88
457.937	345.88
458.157	375.88
458.377	395.88
458.598	424.88
458.818	451.88
459.038	555.88
459.258	545.88
459.478	445.88
459.698	408.88
459.918	390.88
460.138	396.88
460.358	389.88
460.578	391.88
460.798	408.88
461.018	395.88
461.238	401.88
461.458	387.88
461.678	379.88
461.898	382.88
462.118	403.88
462.338	401.88
462.558	413.88
462.777	402.88
462.997	417.88
463.217	419.88
463.437	405.88
463.657	407.88
463.876	400.88
464.096	421.88
464.316	404.88
464.536	427.88
464.755	421.88
464.975	441.88
465.195	475.88
465.414	542.88
465.634	485.88
465.854	454.88
466.073	440.88
466.293	408.88
466.512	420.88
466.732	394.88
466.951	379.88
467.171	380.88
467.391	387.88
467.61	397.88
467.829	407.88
468.049	381.88
468.268	384.88
468.488	379.88
468.707	365.88
468.927	379.88
469.146	362.88
469.365	364.88
469.585	381.88
469.804	385.88
470.023	368.88
470.243	399.88
470.462	400.88
470.681	416.88
470.901	437.88
471.12	397.88
471.339	388.88
471.558	396.88
471.777	389.88
471.997	381.88
472.216	373.88
472.435	414.88
472.654	398.88
472.873	385.88
473.092	388.88
473.311	405.88
473.53	390.88
473.749	409.88
473.968	449.88
474.187	555.88
474.406	576.88
474.625	472.88
474.844	420.88
475.063	386.88
475.282	398.88
475.501	412.88
475.72	395.88
475.939	410.88
476.158	393.88
476.377	429.88
476.596	407.88
476.814	410.88
477.033	409.88
477.252	429.88
477.471	426.88
477.69	420.88
477.908	435.88
478.127	423.88
478.346	398.88
478.564	433.88
478.783	429.88
479.002	447.88
479.22	436.88
479.439	468.88
479.658	486.88
479.876	489.88
480.095	482.88
480.313	507.88
480.532	485.88
480.751	475.88
480.969	458.88
481.188	486.88
481.406	477.88
481.624	483.88
481.843	478.88
482.061	452.88
482.28	473.88
482.498	453.88
482.717	449.88
482.935	455.88
483.153	446.88
483.372	451.88
483.59	448.88
483.808	474.88
484.027	460.88
484.245	472.88
484.463	460.88
484.681	501.88
484.9	485.88
485.118	480.88
485.336	486.88
485.554	460.88
485.772	472.88
485.99	487.88
486.209	485.88
486.427	489.88
486.645	528.88
486.863	521.88
487.081	515.88
487.299	512.88
487.517	479.88
487.735	481.88
487.953	495.88
488.171	514.88
488.389	508.88
488.607	496.88
488.825	506.88
489.043	517.88
489.261	536.88
489.479	531.88
489.696	532.88
489.914	508.88
490.132	493.88
490.35	531.88
490.568	534.88
490.786	557.88
491.003	535.88
491.221	574.88
491.439	566.88
491.657	567.88
491.874	586.88
492.092	578.88
492.31	569.88
492.527	547.88
492.745	589.88
492.963	583.88
493.18	582.88
493.398	596.88
493.615	597.88
493.833	585.88
494.05	590.88
494.268	593.88
494.485	580.88
494.703	585.88
494.92	589.88
495.138	608.88
495.355	613.88
495.573	606.88
495.79	589.88
496.008	592.88
496.225	590.88
496.442	560.88
496.66	591.88
496.877	592.88
497.094	599.88
497.312	626.88
497.529	620.88
497.746	633.88
497.963	629.88
498.181	613.88
498.398	634.88
498.615	655.88
498.832	639.88
499.049	654.88
499.267	699.88
499.484	651.88
499.701	669.88
499.918	707.88
500.135	716.88
500.352	718.88
500.569	746.88
500.786	730.88
501.003	756.88
501.22	742.88
501.437	730.88
501.654	734.88
501.871	732.88
502.088	706.88
502.305	681.88
502.522	661.88
502.739	656.88
502.956	623.88
503.172	645.88
503.389	643.88
503.606	631.88
503.823	607.88
504.04	641.88
504.256	625.88
504.473	600.88
504.69	593.88
504.907	614.88
505.123	592.88
505.34	575.88
505.557	591.88
505.773	596.88
505.99	594.88
506.207	589.88
506.423	603.88
506.64	604.88
506.856	581.88
507.073	578.88
507.289	602.88
507.506	560.88
507.722	620.88
507.939	615.88
508.155	583.88
508.372	580.88
508.588	560.88
508.805	563.88
509.021	577.88
509.238	584.88
509.454	585.88
509.67	599.88
509.887	589.88
510.103	575.88
510.319	605.88
510.536	670.88
510.752	1254.88
510.968	1001.88
511.184	612.88
511.401	573.88
511.617	560.88
511.833	543.88
512.049	532.88
512.265	551.88
512.481	541.88
512.698	548.88
512.914	531.88
513.13	548.88
513.346	551.88
513.562	532.88
513.778	532.88
513.994	548.88
514.21	560.88
514.426	594.88
514.642	629.88
514.858	679.88
515.074	711.88
515.29	861.88
515.506	1366.88
515.721	1115.88
515.937	722.88
516.153	611.88
516.369	598.88
516.585	576.88
516.801	559.88
517.016	549.88
517.232	578.88
517.448	549.88
517.664	524.88
517.879	553.88
518.095	519.88
518.311	532.88
518.527	520.88
518.742	533.88
518.958	555.88
519.173	525.88
519.389	548.88
519.605	547.88
519.82	540.88
520.036	563.88
520.251	603.88
520.467	603.88
520.682	607.88
520.898	645.88
521.113	646.88
521.329	702.88
521.544	823.88
521.76	1076.88
521.975	1846.88
522.19	1862.88
522.406	947.88
522.621	665.88
522.836	590.88
523.052	573.88
523.267	553.88
523.482	529.88
523.698	508.88
523.913	518.88
524.128	524.88
524.343	488.88
524.559	504.88
524.774	475.88
524.989	491.88
525.204	480.88
525.419	487.88
525.634	479.88
525.849	451.88
526.064	451.88
526.28	452.88
526.495	459.88
526.71	453.88
526.925	456.88
527.14	445.88
527.355	433.88
527.57	478.88
527.785	448.88
527.999	427.88
528.214	422.88
528.429	441.88
528.644	437.88
528.859	425.88
529.074	447.88
529.289	475.88
529.503	567.88
529.718	566.88
529.933	489.88
530.148	449.88
530.363	454.88
530.577	443.88
530.792	427.88
531.007	422.88
531.221	432.88
531.436	430.88
531.651	436.88
531.865	403.88
532.08	435.88
532.295	411.88
532.509	409.88
532.724	420.88
532.938	421.88
533.153	418.88
533.367	419.88
533.582	407.88
533.796	414.88
534.011	412.88
534.225	407.88
534.44	390.88
534.654	409.88
534.868	410.88
535.083	402.88
535.297	399.88
535.511	415.88
535.726	423.88
535.94	423.88
536.154	418.88
536.369	404.88
536.583	402.88
536.797	401.88
537.011	377.88
537.225	379.88
537.44	375.88
537.654	413.88
537.868	391.88
538.082	397.88
538.296	400.88
538.51	390.88
538.724	391.88
538.938	381.88
539.153	408.88
539.367	410.88
539.581	420.88
539.795	403.88
540.009	414.88
540.222	382.88
540.436	388.88
540.65	396.88
540.864	396.88
541.078	388.88
541.292	420.88
541.506	402.88
541.72	405.88
541.934	395.88
542.147	409.88
542.361	399.88
542.575	405.88
542.789	384.88
543.002	385.88
543.216	390.88
543.43	410.88
543.644	401.88
543.857	375.88
544.071	390.88
544.285	397.88
544.498	393.88
544.712	408.88
544.925	387.88
545.139	385.88
545.352	374.88
545.566	391.88
545.779	381.88
545.993	383.88
546.206	388.88
546.42	384.88
546.633	380.88
546.847	381.88
547.06	365.88
547.274	377.88
547.487	363.88
547.7	363.88
547.914	376.88
548.127	365.88
548.34	379.88
548.554	372.88
548.767	363.88
548.98	361.88
549.193	357.88
549.407	345.88
549.62	358.88
549.833	368.88
550.046	352.88
550.259	362.88
550.473	348.88
550.686	343.88
550.899	370.88
551.112	330.88
551.325	344.88
551.538	364.88
551.751	352.88
551.964	354.88
552.177	340.88
552.39	356.88
552.603	355.88
552.816	363.88
553.029	369.88
553.242	362.88
553.455	376.88
553.667	379.88
553.88	388.88
554.093	381.88
554.306	357.88
554.519	350.88
554.732	364.88
554.944	345.88
555.157	357.88
555.37	356.88
555.583	340.88
555.795	342.88
556.008	359.88
556.221	336.88
556.433	337.88
556.646	342.88
556.859	345.88
557.071	343.88
557.284	334.88
557.496	336.88
557.709	335.88
557.921	330.88
558.134	328.88
558.346	323.88
558.559	339.88
558.771	328.88
558.984	315.88
559.196	332.88
559.409	325.88
559.621	333.88
559.833	331.88
560.046	328.88
560.258	327.88
560.47	317.88
560.683	328.88
560.895	335.88
561.107	330.88
561.32	323.88
561.532	323.88
561.744	334.88
561.956	314.88
562.168	326.88
562.381	311.88
562.593	352.88
562.805	348.88
563.017	326.88
563.229	345.88
563.441	315.88
563.653	336.88
563.865	326.88
564.077	335.88
564.289	336.88
564.501	341.88
564.713	307.88
564.925	328.88
565.137	357.88
565.349	354.88
565.561	332.88
565.773	343.88
565.985	323.88
566.197	342.88
566.408	345.88
566.62	369.88
566.832	366.88
567.044	361.88
567.255	364.88
567.467	379.88
567.679	356.88
567.891	390.88
568.102	377.88
568.314	362.88
568.526	353.88
568.737	358.88
568.949	361.88
569.161	324.88
569.372	342.88
569.584	329.88
569.795	336.88
570.007	352.88
570.218	391.88
570.43	384.88
570.641	328.88
570.853	301.88
571.064	317.88
571.276	307.88
571.487	318.88
571.698	296.88
571.91	304.88
572.121	281.88
572.333	291.88
572.544	311.88
572.755	296.88
572.966	280.88
573.178	299.88
573.389	301.88
573.6	301.88
573.811	292.88
574.023	286.88
574.234	276.88
574.445	285.88
574.656	285.88
574.867	301.88
575.078	279.88
575.289	296.88
575.501	314.88
575.712	291.88
575.923	280.88
576.134	283.88
576.345	288.88
576.556	296.88
576.767	279.88
576.978	284.88
577.188	293.88
577.399	259.88
577.61	280.88
577.821	277.88
578.032	281.88
578.243	342.88
578.454	610.88
578.665	428.88
578.875	287.88
579.086	284.88
579.297	267.88
579.508	285.88
579.718	283.88
579.929	249.88
580.14	257.88
580.35	269.88
580.561	263.88
580.772	265.88
580.982	266.88
581.193	269.88
581.403	276.88
581.614	265.88
581.825	251.88
582.035	261.88
582.246	269.88
582.456	264.88
582.667	270.88
582.877	278.88
583.087	266.88
583.298	268.88
583.508	254.88
583.719	251.88
583.929	264.88
584.139	271.88
584.35	249.88
584.56	268.88
584.77	264.88
584.981	269.88
585.191	262.88
585.401	271.88
585.611	252.88
585.821	257.88
586.032	262.88
586.242	263.88
586.452	253.88
586.662	241.88
586.872	260.88
587.082	258.88
587.292	256.88
587.502	269.88
587.713	247.88
587.923	247.88
588.133	247.88
588.343	238.88
588.553	236.88
588.762	259.88
588.972	275.88
589.182	294.88
589.392	292.88
589.602	241.88
589.812	293.88
590.022	273.88
590.232	258.88
590.441	240.88
590.651	259.88
590.861	251.88
591.071	262.88
591.281	263.88
591.49	254.88
591.7	249.88
591.91	259.88
592.119	258.88
592.329	252.88
592.539	248.88
592.748	252.88
592.958	260.88
593.167	247.88
593.377	257.88
593.587	250.88
593.796	254.88
594.006	240.88
594.215	244.88
594.424	252.88
594.634	263.88
594.843	246.88
595.053	233.88
595.262	235.88
595.472	232.88
595.681	225.88
595.89	251.88
596.1	231.88
596.309	232.88
596.518	248.88
596.727	222.88
596.937	238.88
597.146	240.88
597.355	228.88
597.564	243.88
597.774	229.88
597.983	222.88
598.192	225.88
598.401	234.88
598.61	236.88
598.819	225.88
599.028	232.88
599.237	237.88
599.446	237.88
599.655	241.88
599.864	227.88
600.073	218.88
600.282	226.88
600.491	211.88
600.7	219.88
600.909	221.88
601.118	210.88
601.327	213.88
601.536	215.88
601.745	217.88
601.953	208.88
602.162	208.88
602.371	238.88
602.58	231.88
602.789	223.88
602.997	232.88
603.206	215.88
603.415	218.88
603.623	226.88
603.832	214.88
604.041	204.88
604.249	203.88
604.458	225.88
604.666	228.88
604.875	209.88
605.084	208.88
605.292	213.88
605.501	209.88
605.709	213.88
605.918	211.88
606.126	231.88
606.334	220.88
606.543	217.88
606.751	222.88
606.96	228.88
607.168	204.88
607.376	204.88
607.585	215.88
607.793	225.88
608.001	210.88
608.21	200.88
608.418	212.88
608.626	201.88
608.834	207.88
609.043	207.88
609.251	214.88
609.459	210.88
609.667	228.88
609.875	217.88
610.083	215.88
610.291	197.88
610.499	201.88
610.707	209.88
610.916	219.88
611.124	199.88
611.332	216.88
611.54	223.88
611.748	209.88
611.955	217.88
612.163	195.88
612.371	219.88
612.579	215.88
612.787	207.88
612.995	223.88
613.203	220.88
613.411	226.88
613.618	210.88
613.826	203.88
614.034	238.88
614.242	207.88
614.449	211.88
614.657	208.88
614.865	200.88
615.072	219.88
615.28	209.88
615.488	211.88
615.695	206.88
615.903	216.88
616.111	190.88
616.318	195.88
616.526	207.88
616.733	218.88
616.941	207.88
617.148	201.88
617.356	201.88
617.563	199.88
617.771	201.88
617.978	197.88
618.185	204.88
618.393	194.88
618.6	187.88
618.807	205.88
619.015	198.88
619.222	213.88
619.429	199.88
619.637	189.88
619.844	206.88
620.051	204.88
620.258	189.88
620.466	191.88
620.673	185.88
620.88	189.88
621.087	187.88
621.294	185.88
621.501	196.88
621.708	186.88
621.915	203.88
622.122	219.88
622.329	202.88
622.536	193.88
622.743	196.88
622.95	199.88
623.157	197.88
623.364	191.88
623.571	193.88
623.778	196.88
623.985	212.88
624.192	191.88
624.399	197.88
624.606	199.88
624.812	183.88
625.019	192.88
625.226	189.88
625.433	196.88
625.639	193.88
625.846	179.88
626.053	179.88
626.259	181.88
626.466	188.88
626.673	196.88
626.879	184.88
627.086	201.88
627.293	184.88
627.499	187.88
627.706	181.88
627.912	183.88
628.119	177.88
628.325	175.88
628.532	170.88
628.738	193.88
628.945	174.88
629.151	179.88
629.357	174.88
629.564	177.88
629.77	193.88
629.976	173.88
630.183	163.88
630.389	196.88
630.595	171.88
630.802	172.88
631.008	186.88
631.214	167.88
631.42	177.88
631.627	188.88
631.833	183.88
632.039	169.88
632.245	181.88
632.451	176.88
632.657	177.88
632.863	159.88
633.069	171.88
633.275	175.88
633.481	157.88
633.688	179.88
633.893	176.88
634.099	172.88
634.305	170.88
634.511	158.88
634.717	166.88
634.923	163.88
635.129	181.88
635.335	169.88
635.541	165.88
635.747	168.88
635.952	150.88
636.158	141.88
636.364	167.88
636.57	179.88
636.775	152.88
636.981	174.88
637.187	157.88
637.392	169.88
637.598	183.88
637.804	162.88
638.009	157.88
638.215	155.88
638.421	151.88
638.626	152.88
638.832	157.88
639.037	153.88
639.243	171.88
639.448	155.88
639.654	151.88
639.859	152.88
640.065	150.88
640.27	178.88
640.475	172.88
640.681	155.88
640.886	148.88
641.091	149.88
641.297	151.88
641.502	162.88
641.707	145.88
641.913	149.88
642.118	159.88
642.323	152.88
642.528	151.88
642.733	145.88
642.939	155.88
643.144	155.88
643.349	153.88
643.554	166.88
643.759	168.88
643.964	155.88
644.169	155.88
644.374	145.88
644.579	173.88
644.784	146.88
644.989	168.88
645.194	148.88
645.399	147.88
645.604	160.88
645.809	136.88
646.014	157.88
646.219	153.88
646.423	148.88
646.628	145.88
646.833	153.88
647.038	152.88
647.243	146.88
647.447	155.88
647.652	152.88
647.857	155.88
648.062	153.88
648.266	153.88
648.471	168.88
648.676	148.88
648.88	137.88
649.085	144.88
649.289	159.88
649.494	158.88
649.698	169.88
649.903	173.88
650.107	165.88
650.312	150.88
650.516	160.88
650.721	147.88
650.925	140.88
651.13	155.88
651.334	141.88
651.539	133.88
651.743	149.88
651.947	146.88
652.152	142.88
652.356	154.88
652.56	133.88
652.764	140.88
652.969	149.88
653.173	135.88
653.377	132.88
653.581	131.88
653.785	135.88
653.99	138.88
654.194	141.88
654.398	140.88
654.602	132.88
654.806	132.88
655.01	130.88
655.214	126.88
655.418	125.88
655.622	128.88
655.826	121.88
656.03	110.88
656.234	133.88
656.438	127.88
656.642	139.88
656.846	132.88
657.049	128.88
657.253	115.88
657.457	101.88
657.661	126.88
657.865	115.88
658.068	131.88
658.272	115.88
658.476	116.88
658.68	106.88
658.883	110.88
659.087	85.88
659.291	106.88
659.494	96.88
659.698	95.88
659.901	95.88
660.105	106.88
660.309	98.88
660.512	97.88
660.716	95.88
660.919	94.88
661.123	99.88
661.326	95.88
661.53	102.88
661.733	85.88
661.936	88.88
662.14	86.88
662.343	91.88
662.546	96.88
662.75	91.88
662.953	99.88
663.156	87.88
663.36	90.88
663.563	85.88
663.766	69.88
663.969	77.88
664.173	87.88
664.376	83.88
664.579	87.88
664.782	89.88
664.985	85.88
665.188	107.88
665.391	87.88
665.594	77.88
665.797	82.88
666	84.88
666.203	62.88
666.406	77.88
666.609	85.88
666.812	82.88
667.015	87.88
667.218	83.88
667.421	85.88
667.624	80.88
667.827	65.88
668.03	80.88
668.232	88.88
668.435	82.88
668.638	82.88
668.841	91.88
669.043	59.88
669.246	84.88
669.449	80.88
669.651	87.88
669.854	86.88
670.057	93.88
670.259	86.88
670.462	90.88
670.665	95.88
670.867	87.88
671.07	89.88
671.272	62.88
671.475	90.88
671.677	87.88
671.88	100.88
672.082	83.88
672.284	86.88
672.487	91.88
672.689	72.88
672.892	71.88
