Data from 1986.PennyLincolnUp.Lamp.En5.5.200Scan.071819.P2_HRD10591_17-11-48-974.txt Node
Date: Thu Jul 18 17:11:48 EDT 2019
User: cochatt
Spectrometer: HR+D1059
Trigger mode: 1
Integration Time (sec): 1.000000E-1
Scans to average: 1
Electric dark correction enabled: true
Nonlinearity correction enabled: false
Boxcar width: 0
XAxis mode: Wavelengths
Number of Pixels in Spectrum: 2048
>>>>>Begin Spectral Data<<<<<
223.165	-9.25
223.4	-9.25
223.635	-9.25
223.869	-16.25
224.104	-15.25
224.338	-16.25
224.573	-20.25
224.808	-12.25
225.042	-11.25
225.277	-4.25
225.511	-5.25
225.746	18.75
225.98	6.75
226.215	13.75
226.449	6.75
226.683	25.75
226.918	12.75
227.152	25.75
227.387	39.75
227.621	36.75
227.856	51.75
228.09	55.75
228.324	55.75
228.559	63.75
228.793	57.75
229.027	110.75
229.262	116.75
229.496	130.75
229.73	144.75
229.964	168.75
230.199	150.75
230.433	133.75
230.667	119.75
230.901	127.75
231.136	114.75
231.37	112.75
231.604	109.75
231.838	121.75
232.072	107.75
232.306	107.75
232.541	118.75
232.775	125.75
233.009	106.75
233.243	125.75
233.477	124.75
233.711	114.75
233.945	115.75
234.179	126.75
234.413	126.75
234.647	115.75
234.881	114.75
235.115	129.75
235.349	116.75
235.583	125.75
235.817	134.75
236.051	132.75
236.285	135.75
236.519	149.75
236.753	142.75
236.987	149.75
237.221	192.75
237.455	247.75
237.689	206.75
237.922	155.75
238.156	127.75
238.39	134.75
238.624	132.75
238.858	138.75
239.091	128.75
239.325	138.75
239.559	144.75
239.793	144.75
240.027	126.75
240.26	158.75
240.494	165.75
240.728	158.75
240.961	151.75
241.195	160.75
241.429	153.75
241.662	146.75
241.896	138.75
242.13	139.75
242.363	130.75
242.597	149.75
242.83	150.75
243.064	131.75
243.298	141.75
243.531	153.75
243.765	152.75
243.998	144.75
244.232	156.75
244.465	156.75
244.699	165.75
244.932	153.75
245.166	158.75
245.399	154.75
245.633	155.75
245.866	168.75
246.099	163.75
246.333	160.75
246.566	170.75
246.8	149.75
247.033	167.75
247.266	167.75
247.5	172.75
247.733	194.75
247.966	175.75
248.2	176.75
248.433	171.75
248.666	190.75
248.899	207.75
249.133	212.75
249.366	253.75
249.599	218.75
249.832	217.75
250.066	214.75
250.299	212.75
250.532	213.75
250.765	230.75
250.998	268.75
251.231	268.75
251.465	250.75
251.698	244.75
251.931	235.75
252.164	225.75
252.397	218.75
252.63	223.75
252.863	225.75
253.096	242.75
253.329	253.75
253.562	245.75
253.795	255.75
254.028	242.75
254.261	219.75
254.494	260.75
254.727	298.75
254.96	323.75
255.193	322.75
255.426	311.75
255.659	274.75
255.892	290.75
256.124	302.75
256.357	322.75
256.59	322.75
256.823	274.75
257.056	263.75
257.289	268.75
257.521	244.75
257.754	239.75
257.987	214.75
258.22	238.75
258.452	229.75
258.685	259.75
258.918	231.75
259.151	242.75
259.383	234.75
259.616	270.75
259.849	242.75
260.081	261.75
260.314	273.75
260.547	292.75
260.779	271.75
261.012	247.75
261.244	250.75
261.477	266.75
261.71	249.75
261.942	249.75
262.175	267.75
262.407	243.75
262.64	232.75
262.872	246.75
263.105	230.75
263.337	226.75
263.57	206.75
263.802	237.75
264.035	225.75
264.267	229.75
264.499	229.75
264.732	233.75
264.964	227.75
265.197	226.75
265.429	217.75
265.661	219.75
265.894	230.75
266.126	221.75
266.358	224.75
266.591	243.75
266.823	248.75
267.055	246.75
267.287	234.75
267.52	239.75
267.752	238.75
267.984	222.75
268.216	255.75
268.448	250.75
268.681	253.75
268.913	265.75
269.145	285.75
269.377	305.75
269.609	302.75
269.841	288.75
270.073	303.75
270.306	304.75
270.538	321.75
270.77	335.75
271.002	341.75
271.234	332.75
271.466	327.75
271.698	343.75
271.93	384.75
272.162	354.75
272.394	335.75
272.626	322.75
272.858	310.75
273.09	295.75
273.322	304.75
273.553	294.75
273.785	266.75
274.017	287.75
274.249	269.75
274.481	275.75
274.713	292.75
274.945	278.75
275.176	280.75
275.408	287.75
275.64	285.75
275.872	279.75
276.104	298.75
276.335	268.75
276.567	282.75
276.799	302.75
277.031	340.75
277.262	340.75
277.494	350.75
277.726	324.75
277.957	294.75
278.189	294.75
278.421	292.75
278.652	282.75
278.884	293.75
279.115	280.75
279.347	266.75
279.579	271.75
279.81	271.75
280.042	297.75
280.273	294.75
280.505	276.75
280.736	285.75
280.968	278.75
281.199	278.75
281.431	270.75
281.662	259.75
281.894	276.75
282.125	286.75
282.356	306.75
282.588	332.75
282.819	335.75
283.051	288.75
283.282	290.75
283.513	262.75
283.745	275.75
283.976	295.75
284.207	282.75
284.439	287.75
284.67	301.75
284.901	295.75
285.132	269.75
285.364	294.75
285.595	285.75
285.826	264.75
286.057	278.75
286.288	282.75
286.52	286.75
286.751	301.75
286.982	290.75
287.213	290.75
287.444	286.75
287.675	276.75
287.906	288.75
288.138	303.75
288.369	299.75
288.6	300.75
288.831	293.75
289.062	291.75
289.293	292.75
289.524	312.75
289.755	296.75
289.986	304.75
290.217	286.75
290.448	297.75
290.679	274.75
290.91	269.75
291.141	272.75
291.371	274.75
291.602	276.75
291.833	277.75
292.064	290.75
292.295	300.75
292.526	299.75
292.757	292.75
292.987	295.75
293.218	276.75
293.449	296.75
293.68	286.75
293.91	280.75
294.141	296.75
294.372	270.75
294.603	296.75
294.833	304.75
295.064	288.75
295.295	290.75
295.525	290.75
295.756	303.75
295.987	321.75
296.217	310.75
296.448	337.75
296.679	303.75
296.909	311.75
297.14	282.75
297.37	295.75
297.601	312.75
297.831	318.75
298.062	301.75
298.292	284.75
298.523	304.75
298.753	311.75
298.984	308.75
299.214	293.75
299.445	294.75
299.675	306.75
299.905	303.75
300.136	308.75
300.366	322.75
300.597	319.75
300.827	314.75
301.057	319.75
301.288	310.75
301.518	325.75
301.748	298.75
301.979	339.75
302.209	304.75
302.439	329.75
302.669	316.75
302.9	309.75
303.13	310.75
303.36	325.75
303.59	322.75
303.82	351.75
304.051	351.75
304.281	324.75
304.511	320.75
304.741	315.75
304.971	315.75
305.201	312.75
305.431	322.75
305.661	311.75
305.891	317.75
306.121	320.75
306.352	339.75
306.582	342.75
306.812	344.75
307.042	324.75
307.272	339.75
307.502	342.75
307.731	317.75
307.961	341.75
308.191	335.75
308.421	346.75
308.651	330.75
308.881	340.75
309.111	345.75
309.341	331.75
309.571	361.75
309.8	380.75
310.03	382.75
310.26	390.75
310.49	383.75
310.72	393.75
310.949	404.75
311.179	422.75
311.409	390.75
311.639	385.75
311.868	386.75
312.098	373.75
312.328	411.75
312.557	403.75
312.787	405.75
313.017	437.75
313.246	408.75
313.476	381.75
313.706	363.75
313.935	365.75
314.165	383.75
314.394	406.75
314.624	418.75
314.853	388.75
315.083	413.75
315.312	382.75
315.542	382.75
315.771	373.75
316.001	386.75
316.23	358.75
316.46	388.75
316.689	388.75
316.919	386.75
317.148	400.75
317.377	402.75
317.607	406.75
317.836	404.75
318.065	384.75
318.295	371.75
318.524	393.75
318.753	357.75
318.983	365.75
319.212	365.75
319.441	391.75
319.67	408.75
319.9	381.75
320.129	394.75
320.358	397.75
320.587	394.75
320.816	405.75
321.046	426.75
321.275	430.75
321.504	392.75
321.733	427.75
321.962	404.75
322.191	448.75
322.42	457.75
322.649	468.75
322.878	480.75
323.108	508.75
323.337	518.75
323.566	553.75
323.795	618.75
324.024	647.75
324.253	793.75
324.482	1132.75
324.71	1708.75
324.939	2458.75
325.168	2158.75
325.397	1170.75
325.626	785.75
325.855	637.75
326.084	581.75
326.313	562.75
326.542	575.75
326.77	612.75
326.999	740.75
327.228	1039.75
327.457	1531.75
327.686	1878.75
327.914	1302.75
328.143	885.75
328.372	760.75
328.6	746.75
328.829	682.75
329.058	684.75
329.287	691.75
329.515	648.75
329.744	614.75
329.972	640.75
330.201	708.75
330.43	803.75
330.658	783.75
330.887	731.75
331.115	686.75
331.344	593.75
331.572	554.75
331.801	545.75
332.03	527.75
332.258	508.75
332.486	479.75
332.715	486.75
332.943	515.75
333.172	490.75
333.4	501.75
333.629	532.75
333.857	573.75
334.085	592.75
334.314	672.75
334.542	786.75
334.771	859.75
334.999	666.75
335.227	553.75
335.455	516.75
335.684	471.75
335.912	473.75
336.14	461.75
336.369	466.75
336.597	475.75
336.825	473.75
337.053	459.75
337.281	458.75
337.51	445.75
337.738	441.75
337.966	433.75
338.194	436.75
338.422	447.75
338.65	457.75
338.878	422.75
339.106	439.75
339.334	420.75
339.562	431.75
339.79	440.75
340.018	429.75
340.246	437.75
340.474	445.75
340.702	421.75
340.93	436.75
341.158	429.75
341.386	438.75
341.614	438.75
341.842	442.75
342.07	403.75
342.298	407.75
342.526	410.75
342.754	413.75
342.981	381.75
343.209	410.75
343.437	409.75
343.665	419.75
343.893	387.75
344.12	404.75
344.348	406.75
344.576	412.75
344.804	422.75
345.031	432.75
345.259	459.75
345.487	433.75
345.714	426.75
345.942	412.75
346.17	399.75
346.397	406.75
346.625	390.75
346.853	420.75
347.08	410.75
347.308	410.75
347.535	419.75
347.763	447.75
347.99	428.75
348.218	436.75
348.445	448.75
348.673	435.75
348.9	410.75
349.128	397.75
349.355	399.75
349.583	388.75
349.81	400.75
350.037	411.75
350.265	378.75
350.492	396.75
350.72	391.75
350.947	411.75
351.174	406.75
351.402	412.75
351.629	435.75
351.856	415.75
352.083	438.75
352.311	432.75
352.538	436.75
352.765	453.75
352.992	445.75
353.22	420.75
353.447	414.75
353.674	407.75
353.901	400.75
354.128	399.75
354.355	374.75
354.583	383.75
354.81	374.75
355.037	401.75
355.264	405.75
355.491	364.75
355.718	390.75
355.945	356.75
356.172	374.75
356.399	343.75
356.626	365.75
356.853	364.75
357.08	378.75
357.307	354.75
357.534	366.75
357.761	387.75
357.988	380.75
358.215	361.75
358.441	376.75
358.668	358.75
358.895	368.75
359.122	409.75
359.349	402.75
359.576	402.75
359.802	428.75
360.029	472.75
360.256	447.75
360.483	468.75
360.709	422.75
360.936	418.75
361.163	401.75
361.39	405.75
361.616	397.75
361.843	409.75
362.07	423.75
362.296	400.75
362.523	398.75
362.749	419.75
362.976	393.75
363.203	386.75
363.429	395.75
363.656	397.75
363.882	380.75
364.109	370.75
364.335	386.75
364.562	372.75
364.788	378.75
365.015	391.75
365.241	380.75
365.468	381.75
365.694	382.75
365.92	390.75
366.147	387.75
366.373	382.75
366.599	383.75
366.826	361.75
367.052	359.75
367.278	360.75
367.505	373.75
367.731	373.75
367.957	396.75
368.184	379.75
368.41	398.75
368.636	414.75
368.862	408.75
369.089	392.75
369.315	404.75
369.541	370.75
369.767	364.75
369.993	386.75
370.219	367.75
370.445	372.75
370.672	362.75
370.898	364.75
371.124	377.75
371.35	364.75
371.576	358.75
371.802	365.75
372.028	373.75
372.254	373.75
372.48	374.75
372.706	366.75
372.932	360.75
373.158	354.75
373.384	379.75
373.61	381.75
373.835	376.75
374.061	367.75
374.287	384.75
374.513	379.75
374.739	376.75
374.965	393.75
375.191	384.75
375.416	375.75
375.642	356.75
375.868	374.75
376.094	377.75
376.319	371.75
376.545	372.75
376.771	367.75
376.997	370.75
377.222	365.75
377.448	368.75
377.674	371.75
377.899	363.75
378.125	357.75
378.35	346.75
378.576	363.75
378.802	359.75
379.027	362.75
379.253	370.75
379.478	330.75
379.704	351.75
379.929	375.75
380.155	360.75
380.38	364.75
380.606	362.75
380.831	376.75
381.057	364.75
381.282	372.75
381.507	370.75
381.733	363.75
381.958	386.75
382.184	356.75
382.409	366.75
382.634	361.75
382.86	368.75
383.085	377.75
383.31	370.75
383.535	361.75
383.761	360.75
383.986	384.75
384.211	379.75
384.436	372.75
384.662	381.75
384.887	374.75
385.112	368.75
385.337	385.75
385.562	404.75
385.787	379.75
386.013	395.75
386.238	404.75
386.463	379.75
386.688	415.75
386.913	391.75
387.138	375.75
387.363	378.75
387.588	384.75
387.813	399.75
388.038	396.75
388.263	386.75
388.488	391.75
388.713	397.75
388.938	390.75
389.163	385.75
389.387	380.75
389.612	394.75
389.837	397.75
390.062	396.75
390.287	380.75
390.512	380.75
390.736	379.75
390.961	381.75
391.186	379.75
391.411	393.75
391.636	367.75
391.86	397.75
392.085	390.75
392.31	390.75
392.534	412.75
392.759	388.75
392.984	358.75
393.208	384.75
393.433	395.75
393.658	372.75
393.882	390.75
394.107	363.75
394.331	390.75
394.556	380.75
394.78	392.75
395.005	389.75
395.229	386.75
395.454	397.75
395.678	390.75
395.903	394.75
396.127	412.75
396.352	422.75
396.576	410.75
396.801	390.75
397.025	381.75
397.249	386.75
397.474	419.75
397.698	385.75
397.922	415.75
398.147	414.75
398.371	442.75
398.595	438.75
398.82	410.75
399.044	423.75
399.268	424.75
399.492	455.75
399.717	465.75
399.941	471.75
400.165	515.75
400.389	522.75
400.613	501.75
400.837	467.75
401.062	454.75
401.286	442.75
401.51	424.75
401.734	431.75
401.958	437.75
402.182	426.75
402.406	434.75
402.63	452.75
402.854	427.75
403.078	448.75
403.302	454.75
403.526	445.75
403.75	452.75
403.974	466.75
404.198	454.75
404.422	467.75
404.645	462.75
404.869	494.75
405.093	524.75
405.317	572.75
405.541	595.75
405.765	551.75
405.988	517.75
406.212	506.75
406.436	534.75
406.66	552.75
406.883	527.75
407.107	532.75
407.331	554.75
407.555	614.75
407.778	606.75
408.002	561.75
408.226	500.75
408.449	524.75
408.673	518.75
408.896	517.75
409.12	592.75
409.344	537.75
409.567	470.75
409.791	455.75
410.014	465.75
410.238	457.75
410.461	453.75
410.685	473.75
410.908	474.75
411.132	537.75
411.355	561.75
411.578	520.75
411.802	484.75
412.025	479.75
412.249	500.75
412.472	516.75
412.695	592.75
412.919	564.75
413.142	529.75
413.365	506.75
413.589	494.75
413.812	478.75
414.035	458.75
414.258	447.75
414.482	427.75
414.705	432.75
414.928	450.75
415.151	440.75
415.374	422.75
415.597	428.75
415.821	442.75
416.044	431.75
416.267	448.75
416.49	440.75
416.713	435.75
416.936	446.75
417.159	436.75
417.382	457.75
417.605	440.75
417.828	455.75
418.051	444.75
418.274	444.75
418.497	442.75
418.72	438.75
418.943	420.75
419.166	441.75
419.389	473.75
419.611	475.75
419.834	480.75
420.057	458.75
420.28	494.75
420.503	475.75
420.726	494.75
420.948	496.75
421.171	548.75
421.394	578.75
421.617	494.75
421.839	459.75
422.062	477.75
422.285	495.75
422.507	533.75
422.73	605.75
422.953	586.75
423.175	522.75
423.398	500.75
423.621	471.75
423.843	499.75
424.066	509.75
424.288	507.75
424.511	518.75
424.733	598.75
424.956	640.75
425.178	636.75
425.401	586.75
425.623	622.75
425.846	566.75
426.068	510.75
426.291	502.75
426.513	483.75
426.735	532.75
426.958	567.75
427.18	626.75
427.402	730.75
427.625	818.75
427.847	793.75
428.069	688.75
428.292	612.75
428.514	520.75
428.736	526.75
428.958	513.75
429.181	492.75
429.403	479.75
429.625	500.75
429.847	520.75
430.069	591.75
430.292	568.75
430.514	507.75
430.736	472.75
430.958	458.75
431.18	453.75
431.402	458.75
431.624	444.75
431.846	451.75
432.068	439.75
432.29	420.75
432.512	449.75
432.734	450.75
432.956	465.75
433.178	450.75
433.4	467.75
433.622	438.75
433.844	430.75
434.066	435.75
434.287	442.75
434.509	438.75
434.731	444.75
434.953	444.75
435.175	481.75
435.397	486.75
435.618	509.75
435.84	543.75
436.062	630.75
436.284	685.75
436.505	606.75
436.727	548.75
436.949	495.75
437.17	484.75
437.392	452.75
437.614	484.75
437.835	538.75
438.057	630.75
438.278	698.75
438.5	717.75
438.721	764.75
438.943	749.75
439.165	595.75
439.386	563.75
439.608	535.75
439.829	520.75
440.05	563.75
440.272	593.75
440.493	580.75
440.715	495.75
440.936	497.75
441.158	474.75
441.379	469.75
441.6	483.75
441.822	535.75
442.043	560.75
442.264	638.75
442.486	683.75
442.707	549.75
442.928	520.75
443.149	530.75
443.371	567.75
443.592	588.75
443.813	691.75
444.034	738.75
444.255	619.75
444.476	535.75
444.698	495.75
444.919	502.75
445.14	592.75
445.361	594.75
445.582	553.75
445.803	620.75
446.024	729.75
446.245	736.75
446.466	669.75
446.687	582.75
446.908	530.75
447.129	475.75
447.35	469.75
447.571	482.75
447.792	450.75
448.013	472.75
448.234	503.75
448.455	552.75
448.675	646.75
448.896	762.75
449.117	657.75
449.338	618.75
449.559	714.75
449.779	797.75
450	670.75
450.221	536.75
450.442	516.75
450.662	476.75
450.883	488.75
451.104	503.75
451.324	464.75
451.545	453.75
451.766	453.75
451.986	431.75
452.207	412.75
452.428	421.75
452.648	463.75
452.869	432.75
453.089	430.75
453.31	437.75
453.53	451.75
453.751	428.75
453.971	428.75
454.192	429.75
454.412	442.75
454.633	454.75
454.853	434.75
455.073	419.75
455.294	450.75
455.514	531.75
455.734	502.75
455.955	438.75
456.175	391.75
456.395	416.75
456.616	401.75
456.836	397.75
457.056	389.75
457.276	378.75
457.497	391.75
457.717	396.75
457.937	397.75
458.157	415.75
458.377	414.75
458.598	427.75
458.818	500.75
459.038	607.75
459.258	591.75
459.478	514.75
459.698	448.75
459.918	425.75
460.138	428.75
460.358	424.75
460.578	420.75
460.798	429.75
461.018	422.75
461.238	426.75
461.458	410.75
461.678	414.75
461.898	435.75
462.118	413.75
462.338	416.75
462.558	422.75
462.777	453.75
462.997	435.75
463.217	438.75
463.437	458.75
463.657	438.75
463.876	448.75
464.096	472.75
464.316	429.75
464.536	477.75
464.755	446.75
464.975	460.75
465.195	518.75
465.414	611.75
465.634	541.75
465.854	477.75
466.073	466.75
466.293	452.75
466.512	436.75
466.732	431.75
466.951	446.75
467.171	414.75
467.391	422.75
467.61	449.75
467.829	458.75
468.049	480.75
468.268	501.75
468.488	470.75
468.707	444.75
468.927	434.75
469.146	420.75
469.365	433.75
469.585	414.75
469.804	445.75
470.023	444.75
470.243	428.75
470.462	451.75
470.681	456.75
470.901	451.75
471.12	428.75
471.339	447.75
471.558	470.75
471.777	459.75
471.997	435.75
472.216	483.75
472.435	618.75
472.654	562.75
472.873	487.75
473.092	476.75
473.311	461.75
473.53	455.75
473.749	479.75
473.968	484.75
474.187	610.75
474.406	638.75
474.625	517.75
474.844	482.75
475.063	456.75
475.282	453.75
475.501	461.75
475.72	473.75
475.939	461.75
476.158	449.75
476.377	460.75
476.596	452.75
476.814	443.75
477.033	459.75
477.252	489.75
477.471	473.75
477.69	469.75
477.908	481.75
478.127	484.75
478.346	484.75
478.564	481.75
478.783	485.75
479.002	494.75
479.22	487.75
479.439	528.75
479.658	516.75
479.876	535.75
480.095	557.75
480.313	569.75
480.532	556.75
480.751	574.75
480.969	628.75
481.188	842.75
481.406	982.75
481.624	726.75
481.843	642.75
482.061	610.75
482.28	570.75
482.498	572.75
482.717	559.75
482.935	555.75
483.153	549.75
483.372	540.75
483.59	550.75
483.808	555.75
484.027	527.75
484.245	541.75
484.463	537.75
484.681	562.75
484.9	547.75
485.118	555.75
485.336	570.75
485.554	542.75
485.772	524.75
485.99	546.75
486.209	566.75
486.427	554.75
486.645	569.75
486.863	592.75
487.081	572.75
487.299	576.75
487.517	585.75
487.735	584.75
487.953	564.75
488.171	555.75
488.389	586.75
488.607	581.75
488.825	590.75
489.043	588.75
489.261	596.75
489.479	598.75
489.696	596.75
489.914	608.75
490.132	615.75
490.35	588.75
490.568	598.75
490.786	630.75
491.003	630.75
491.221	650.75
491.439	637.75
491.657	695.75
491.874	700.75
492.092	673.75
492.31	682.75
492.527	686.75
492.745	696.75
492.963	708.75
493.18	714.75
493.398	704.75
493.615	697.75
493.833	711.75
494.05	703.75
494.268	709.75
494.485	696.75
494.703	687.75
494.92	701.75
495.138	706.75
495.355	708.75
495.573	710.75
495.79	700.75
496.008	688.75
496.225	688.75
496.442	671.75
496.66	700.75
496.877	700.75
497.094	698.75
497.312	702.75
497.529	675.75
497.746	712.75
497.963	715.75
498.181	739.75
498.398	726.75
498.615	725.75
498.832	734.75
499.049	741.75
499.267	722.75
499.484	751.75
499.701	770.75
499.918	772.75
500.135	790.75
500.352	812.75
500.569	802.75
500.786	821.75
501.003	830.75
501.22	800.75
501.437	805.75
501.654	825.75
501.871	799.75
502.088	797.75
502.305	751.75
502.522	738.75
502.739	726.75
502.956	697.75
503.172	713.75
503.389	687.75
503.606	712.75
503.823	695.75
504.04	708.75
504.256	690.75
504.473	672.75
504.69	662.75
504.907	662.75
505.123	636.75
505.34	671.75
505.557	642.75
505.773	640.75
505.99	655.75
506.207	666.75
506.423	666.75
506.64	660.75
506.856	654.75
507.073	649.75
507.289	671.75
507.506	651.75
507.722	661.75
507.939	670.75
508.155	631.75
508.372	624.75
508.588	637.75
508.805	635.75
509.021	659.75
509.238	634.75
509.454	652.75
509.67	652.75
509.887	630.75
510.103	640.75
510.319	664.75
510.536	757.75
510.752	1248.75
510.968	1068.75
511.184	654.75
511.401	640.75
511.617	638.75
511.833	619.75
512.049	638.75
512.265	633.75
512.481	615.75
512.698	628.75
512.914	591.75
513.13	611.75
513.346	627.75
513.562	608.75
513.778	618.75
513.994	622.75
514.21	631.75
514.426	648.75
514.642	712.75
514.858	733.75
515.074	758.75
515.29	926.75
515.506	1414.75
515.721	1149.75
515.937	746.75
516.153	682.75
516.369	638.75
516.585	619.75
516.801	612.75
517.016	572.75
517.232	590.75
517.448	613.75
517.664	606.75
517.879	597.75
518.095	595.75
518.311	604.75
518.527	590.75
518.742	580.75
518.958	611.75
519.173	597.75
519.389	587.75
519.605	596.75
519.82	582.75
520.036	620.75
520.251	637.75
520.467	658.75
520.682	672.75
520.898	692.75
521.113	716.75
521.329	775.75
521.544	874.75
521.76	1129.75
521.975	1910.75
522.19	1854.75
522.406	1007.75
522.621	725.75
522.836	637.75
523.052	621.75
523.267	572.75
523.482	570.75
523.698	540.75
523.913	566.75
524.128	572.75
524.343	546.75
524.559	526.75
524.774	534.75
524.989	523.75
525.204	517.75
525.419	528.75
525.634	517.75
525.849	508.75
526.064	496.75
526.28	500.75
526.495	479.75
526.71	485.75
526.925	478.75
527.14	484.75
527.355	491.75
527.57	484.75
527.785	483.75
527.999	470.75
528.214	478.75
528.429	469.75
528.644	459.75
528.859	470.75
529.074	471.75
529.289	509.75
529.503	587.75
529.718	584.75
529.933	529.75
530.148	490.75
530.363	478.75
530.577	490.75
530.792	474.75
531.007	471.75
531.221	473.75
531.436	470.75
531.651	440.75
531.865	445.75
532.08	455.75
532.295	463.75
532.509	452.75
532.724	451.75
532.938	449.75
533.153	469.75
533.367	463.75
533.582	460.75
533.796	458.75
534.011	452.75
534.225	439.75
534.44	459.75
534.654	435.75
534.868	441.75
535.083	434.75
535.297	452.75
535.511	443.75
535.726	450.75
535.94	468.75
536.154	457.75
536.369	444.75
536.583	461.75
536.797	451.75
537.011	439.75
537.225	445.75
537.44	446.75
537.654	448.75
537.868	425.75
538.082	450.75
538.296	438.75
538.51	438.75
538.724	420.75
538.938	424.75
539.153	426.75
539.367	454.75
539.581	458.75
539.795	442.75
540.009	443.75
540.222	430.75
540.436	430.75
540.65	429.75
540.864	430.75
541.078	434.75
541.292	438.75
541.506	447.75
541.72	440.75
541.934	424.75
542.147	426.75
542.361	425.75
542.575	410.75
542.789	441.75
543.002	439.75
543.216	429.75
543.43	436.75
543.644	425.75
543.857	419.75
544.071	436.75
544.285	436.75
544.498	425.75
544.712	415.75
544.925	429.75
545.139	414.75
545.352	402.75
545.566	401.75
545.779	405.75
545.993	424.75
546.206	403.75
546.42	416.75
546.633	401.75
546.847	416.75
547.06	418.75
547.274	405.75
547.487	411.75
547.7	412.75
547.914	405.75
548.127	410.75
548.34	408.75
548.554	407.75
548.767	399.75
548.98	376.75
549.193	399.75
549.407	408.75
549.62	400.75
549.833	408.75
550.046	376.75
550.259	391.75
550.473	376.75
550.686	400.75
550.899	389.75
551.112	396.75
551.325	407.75
551.538	398.75
551.751	370.75
551.964	388.75
552.177	401.75
552.39	380.75
552.603	400.75
552.816	372.75
553.029	395.75
553.242	397.75
553.455	408.75
553.667	424.75
553.88	421.75
554.093	418.75
554.306	420.75
554.519	396.75
554.732	398.75
554.944	383.75
555.157	402.75
555.37	400.75
555.583	400.75
555.795	389.75
556.008	365.75
556.221	370.75
556.433	372.75
556.646	380.75
556.859	384.75
557.071	382.75
557.284	359.75
557.496	357.75
557.709	364.75
557.921	370.75
558.134	362.75
558.346	376.75
558.559	356.75
558.771	358.75
558.984	364.75
559.196	366.75
559.409	354.75
559.621	371.75
559.833	353.75
560.046	347.75
560.258	351.75
560.47	349.75
560.683	349.75
560.895	363.75
561.107	351.75
561.32	375.75
561.532	363.75
561.744	354.75
561.956	382.75
562.168	360.75
562.381	358.75
562.593	351.75
562.805	357.75
563.017	370.75
563.229	370.75
563.441	356.75
563.653	342.75
563.865	351.75
564.077	346.75
564.289	372.75
564.501	363.75
564.713	373.75
564.925	370.75
565.137	374.75
565.349	380.75
565.561	379.75
565.773	383.75
565.985	365.75
566.197	386.75
566.408	377.75
566.62	373.75
566.832	384.75
567.044	394.75
567.255	400.75
567.467	400.75
567.679	404.75
567.891	402.75
568.102	394.75
568.314	380.75
568.526	379.75
568.737	397.75
568.949	370.75
569.161	370.75
569.372	357.75
569.584	361.75
569.795	351.75
570.007	366.75
570.218	415.75
570.43	397.75
570.641	357.75
570.853	330.75
571.064	338.75
571.276	323.75
571.487	327.75
571.698	329.75
571.91	342.75
572.121	335.75
572.333	315.75
572.544	330.75
572.755	331.75
572.966	322.75
573.178	331.75
573.389	331.75
573.6	302.75
573.811	328.75
574.023	324.75
574.234	320.75
574.445	328.75
574.656	317.75
574.867	312.75
575.078	324.75
575.289	315.75
575.501	323.75
575.712	302.75
575.923	306.75
576.134	312.75
576.345	322.75
576.556	340.75
576.767	320.75
576.978	310.75
577.188	315.75
577.399	305.75
577.61	314.75
577.821	299.75
578.032	330.75
578.243	346.75
578.454	599.75
578.665	440.75
578.875	330.75
579.086	303.75
579.297	307.75
579.508	308.75
579.718	295.75
579.929	303.75
580.14	302.75
580.35	297.75
580.561	302.75
580.772	294.75
580.982	290.75
581.193	287.75
581.403	278.75
581.614	292.75
581.825	281.75
582.035	294.75
582.246	287.75
582.456	307.75
582.667	298.75
582.877	278.75
583.087	291.75
583.298	287.75
583.508	284.75
583.719	293.75
583.929	289.75
584.139	292.75
584.35	294.75
584.56	284.75
584.77	298.75
584.981	276.75
585.191	269.75
585.401	285.75
585.611	276.75
585.821	277.75
586.032	290.75
586.242	293.75
586.452	282.75
586.662	280.75
586.872	277.75
587.082	269.75
587.292	287.75
587.502	271.75
587.713	283.75
587.923	265.75
588.133	280.75
588.343	260.75
588.553	268.75
588.762	284.75
588.972	272.75
589.182	276.75
589.392	295.75
589.602	280.75
589.812	288.75
590.022	280.75
590.232	266.75
590.441	276.75
590.651	263.75
590.861	269.75
591.071	276.75
591.281	258.75
591.49	271.75
591.7	268.75
591.91	263.75
592.119	276.75
592.329	278.75
592.539	277.75
592.748	279.75
592.958	296.75
593.167	270.75
593.377	279.75
593.587	297.75
593.796	294.75
594.006	294.75
594.215	273.75
594.424	270.75
594.634	264.75
594.843	269.75
595.053	278.75
595.262	264.75
595.472	268.75
595.681	269.75
595.89	264.75
596.1	260.75
596.309	273.75
596.518	262.75
596.727	250.75
596.937	264.75
597.146	258.75
597.355	247.75
597.564	270.75
597.774	252.75
597.983	244.75
598.192	238.75
598.401	244.75
598.61	244.75
598.819	260.75
599.028	265.75
599.237	267.75
599.446	251.75
599.655	261.75
599.864	258.75
600.073	232.75
600.282	254.75
600.491	253.75
600.7	243.75
600.909	225.75
601.118	243.75
601.327	235.75
601.536	237.75
601.745	243.75
601.953	236.75
602.162	232.75
602.371	251.75
602.58	229.75
602.789	232.75
602.997	248.75
603.206	251.75
603.415	250.75
603.623	241.75
603.832	239.75
604.041	238.75
604.249	234.75
604.458	232.75
604.666	223.75
604.875	217.75
605.084	235.75
605.292	223.75
605.501	227.75
605.709	238.75
605.918	242.75
606.126	244.75
606.334	238.75
606.543	229.75
606.751	223.75
606.96	227.75
607.168	231.75
607.376	230.75
607.585	231.75
607.793	232.75
608.001	237.75
608.21	228.75
608.418	235.75
608.626	222.75
608.834	237.75
609.043	215.75
609.251	247.75
609.459	222.75
609.667	245.75
609.875	216.75
610.083	230.75
610.291	246.75
610.499	224.75
610.707	230.75
610.916	223.75
611.124	222.75
611.332	228.75
611.54	234.75
611.748	236.75
611.955	232.75
612.163	231.75
612.371	230.75
612.579	218.75
612.787	222.75
612.995	221.75
613.203	226.75
613.411	223.75
613.618	237.75
613.826	239.75
614.034	216.75
614.242	212.75
614.449	227.75
614.657	220.75
614.865	217.75
615.072	224.75
615.28	237.75
615.488	214.75
615.695	206.75
615.903	214.75
616.111	226.75
616.318	229.75
616.526	230.75
616.733	195.75
616.941	203.75
617.148	226.75
617.356	208.75
617.563	232.75
617.771	205.75
617.978	238.75
618.185	200.75
618.393	214.75
618.6	242.75
618.807	210.75
619.015	237.75
619.222	225.75
619.429	209.75
619.637	215.75
619.844	227.75
620.051	218.75
620.258	214.75
620.466	223.75
620.673	223.75
620.88	202.75
621.087	202.75
621.294	215.75
621.501	200.75
621.708	210.75
621.915	207.75
622.122	212.75
622.329	207.75
622.536	207.75
622.743	215.75
622.95	215.75
623.157	211.75
623.364	192.75
623.571	217.75
623.778	211.75
623.985	211.75
624.192	186.75
624.399	192.75
624.606	206.75
624.812	209.75
625.019	204.75
625.226	190.75
625.433	215.75
625.639	190.75
625.846	192.75
626.053	194.75
626.259	191.75
626.466	188.75
626.673	199.75
626.879	187.75
627.086	199.75
627.293	210.75
627.499	196.75
627.706	196.75
627.912	195.75
628.119	197.75
628.325	195.75
628.532	190.75
628.738	205.75
628.945	194.75
629.151	190.75
629.357	194.75
629.564	193.75
629.77	181.75
629.976	185.75
630.183	204.75
630.389	185.75
630.595	178.75
630.802	207.75
631.008	196.75
631.214	194.75
631.42	181.75
631.627	190.75
631.833	187.75
632.039	191.75
632.245	182.75
632.451	179.75
632.657	178.75
632.863	192.75
633.069	174.75
633.275	183.75
633.481	182.75
633.688	184.75
633.893	187.75
634.099	185.75
634.305	189.75
634.511	173.75
634.717	180.75
634.923	173.75
635.129	172.75
635.335	190.75
635.541	190.75
635.747	189.75
635.952	165.75
636.158	178.75
636.364	192.75
636.57	203.75
636.775	198.75
636.981	165.75
637.187	165.75
637.392	181.75
637.598	188.75
637.804	177.75
638.009	180.75
638.215	160.75
638.421	187.75
638.626	169.75
638.832	185.75
639.037	162.75
639.243	173.75
639.448	185.75
639.654	167.75
639.859	155.75
640.065	182.75
640.27	173.75
640.475	174.75
640.681	148.75
640.886	169.75
641.091	158.75
641.297	167.75
641.502	162.75
641.707	165.75
641.913	170.75
642.118	158.75
642.323	175.75
642.528	163.75
642.733	173.75
642.939	175.75
643.144	166.75
643.349	146.75
643.554	155.75
643.759	153.75
643.964	156.75
644.169	167.75
644.374	160.75
644.579	165.75
644.784	169.75
644.989	170.75
645.194	167.75
645.399	148.75
645.604	156.75
645.809	166.75
646.014	159.75
646.219	156.75
646.423	152.75
646.628	162.75
646.833	180.75
647.038	165.75
647.243	164.75
647.447	143.75
647.652	143.75
647.857	156.75
648.062	155.75
648.266	160.75
648.471	174.75
648.676	172.75
648.88	167.75
649.085	163.75
649.289	176.75
649.494	161.75
649.698	180.75
649.903	191.75
650.107	185.75
650.312	148.75
650.516	159.75
650.721	148.75
650.925	151.75
651.13	141.75
651.334	140.75
651.539	143.75
651.743	148.75
651.947	136.75
652.152	158.75
652.356	147.75
652.56	146.75
652.764	129.75
652.969	138.75
653.173	127.75
653.377	150.75
653.581	145.75
653.785	136.75
653.99	140.75
654.194	163.75
654.398	128.75
654.602	140.75
654.806	141.75
655.01	127.75
655.214	153.75
655.418	119.75
655.622	124.75
655.826	130.75
656.03	123.75
656.234	124.75
656.438	122.75
656.642	126.75
656.846	126.75
657.049	127.75
657.253	126.75
657.457	122.75
657.661	116.75
657.865	116.75
658.068	114.75
658.272	123.75
658.476	98.75
658.68	107.75
658.883	106.75
659.087	108.75
659.291	95.75
659.494	87.75
659.698	98.75
659.901	92.75
660.105	97.75
660.309	93.75
660.512	100.75
660.716	92.75
660.919	100.75
661.123	110.75
661.326	95.75
661.53	88.75
661.733	86.75
661.936	94.75
662.14	85.75
662.343	88.75
662.546	97.75
662.75	88.75
662.953	109.75
663.156	90.75
663.36	85.75
663.563	87.75
663.766	82.75
663.969	86.75
664.173	85.75
664.376	93.75
664.579	89.75
664.782	86.75
664.985	85.75
665.188	77.75
665.391	83.75
665.594	84.75
665.797	72.75
666	90.75
666.203	79.75
666.406	69.75
666.609	83.75
666.812	80.75
667.015	79.75
667.218	94.75
667.421	91.75
667.624	96.75
667.827	83.75
668.03	87.75
668.232	84.75
668.435	87.75
668.638	79.75
668.841	95.75
669.043	73.75
669.246	92.75
669.449	88.75
669.651	72.75
669.854	76.75
670.057	81.75
670.259	86.75
670.462	95.75
670.665	97.75
670.867	78.75
671.07	80.75
671.272	79.75
671.475	91.75
671.677	82.75
671.88	74.75
672.082	87.75
672.284	79.75
672.487	98.75
672.689	84.75
672.892	92.75
