Data from 1986.PennyLincolnUp.Lamp.En5.5.200Scan.071819.P1_HRD10591_17-08-35-973.txt Node
Date: Thu Jul 18 17:08:35 EDT 2019
User: cochatt
Spectrometer: HR+D1059
Trigger mode: 1
Integration Time (sec): 1.000000E-1
Scans to average: 1
Electric dark correction enabled: true
Nonlinearity correction enabled: false
Boxcar width: 0
XAxis mode: Wavelengths
Number of Pixels in Spectrum: 2048
>>>>>Begin Spectral Data<<<<<
223.165	-12.94
223.4	-12.94
223.635	-12.94
223.869	-19.94
224.104	-23.94
224.338	-13.94
224.573	-7.94
224.808	-22.94
225.042	-3.94
225.277	0.06
225.511	-1.94
225.746	14.06
225.98	-2.94
226.215	5.06
226.449	18.06
226.683	16.06
226.918	22.06
227.152	35.06
227.387	46.06
227.621	29.06
227.856	46.06
228.09	41.06
228.324	55.06
228.559	48.06
228.793	69.06
229.027	77.06
229.262	86.06
229.496	102.06
229.73	107.06
229.964	109.06
230.199	112.06
230.433	90.06
230.667	102.06
230.901	103.06
231.136	104.06
231.37	103.06
231.604	107.06
231.838	99.06
232.072	102.06
232.306	115.06
232.541	102.06
232.775	102.06
233.009	99.06
233.243	95.06
233.477	101.06
233.711	123.06
233.945	105.06
234.179	101.06
234.413	107.06
234.647	91.06
234.881	99.06
235.115	94.06
235.349	100.06
235.583	108.06
235.817	109.06
236.051	104.06
236.285	116.06
236.519	110.06
236.753	111.06
236.987	109.06
237.221	133.06
237.455	182.06
237.689	145.06
237.922	121.06
238.156	118.06
238.39	110.06
238.624	103.06
238.858	117.06
239.091	105.06
239.325	104.06
239.559	114.06
239.793	111.06
240.027	109.06
240.26	126.06
240.494	130.06
240.728	111.06
240.961	117.06
241.195	130.06
241.429	115.06
241.662	121.06
241.896	111.06
242.13	106.06
242.363	115.06
242.597	106.06
242.83	123.06
243.064	126.06
243.298	121.06
243.531	123.06
243.765	125.06
243.998	121.06
244.232	102.06
244.465	116.06
244.699	124.06
244.932	123.06
245.166	142.06
245.399	136.06
245.633	143.06
245.866	142.06
246.099	126.06
246.333	135.06
246.566	128.06
246.8	120.06
247.033	143.06
247.266	129.06
247.5	133.06
247.733	139.06
247.966	146.06
248.2	149.06
248.433	137.06
248.666	140.06
248.899	151.06
249.133	160.06
249.366	143.06
249.599	154.06
249.832	138.06
250.066	137.06
250.299	153.06
250.532	146.06
250.765	165.06
250.998	175.06
251.231	170.06
251.465	171.06
251.698	176.06
251.931	169.06
252.164	164.06
252.397	155.06
252.63	150.06
252.863	165.06
253.096	193.06
253.329	179.06
253.562	174.06
253.795	167.06
254.028	169.06
254.261	180.06
254.494	182.06
254.727	195.06
254.96	202.06
255.193	200.06
255.426	195.06
255.659	178.06
255.892	182.06
256.124	177.06
256.357	172.06
256.59	180.06
256.823	172.06
257.056	168.06
257.289	166.06
257.521	176.06
257.754	162.06
257.987	165.06
258.22	172.06
258.452	157.06
258.685	172.06
258.918	163.06
259.151	162.06
259.383	177.06
259.616	183.06
259.849	179.06
260.081	182.06
260.314	187.06
260.547	203.06
260.779	190.06
261.012	180.06
261.244	189.06
261.477	164.06
261.71	180.06
261.942	187.06
262.175	188.06
262.407	161.06
262.64	174.06
262.872	166.06
263.105	166.06
263.337	182.06
263.57	190.06
263.802	185.06
264.035	181.06
264.267	169.06
264.499	169.06
264.732	186.06
264.964	176.06
265.197	190.06
265.429	181.06
265.661	166.06
265.894	175.06
266.126	174.06
266.358	184.06
266.591	174.06
266.823	182.06
267.055	174.06
267.287	204.06
267.52	179.06
267.752	195.06
267.984	185.06
268.216	185.06
268.448	201.06
268.681	198.06
268.913	200.06
269.145	200.06
269.377	203.06
269.609	214.06
269.841	231.06
270.073	198.06
270.306	232.06
270.538	236.06
270.77	239.06
271.002	227.06
271.234	233.06
271.466	211.06
271.698	242.06
271.93	242.06
272.162	247.06
272.394	208.06
272.626	222.06
272.858	215.06
273.09	216.06
273.322	208.06
273.553	208.06
273.785	202.06
274.017	208.06
274.249	202.06
274.481	203.06
274.713	187.06
274.945	218.06
275.176	205.06
275.408	216.06
275.64	216.06
275.872	211.06
276.104	205.06
276.335	227.06
276.567	220.06
276.799	227.06
277.031	249.06
277.262	228.06
277.494	242.06
277.726	236.06
277.957	250.06
278.189	223.06
278.421	219.06
278.652	216.06
278.884	226.06
279.115	235.06
279.347	222.06
279.579	206.06
279.81	211.06
280.042	227.06
280.273	211.06
280.505	219.06
280.736	218.06
280.968	225.06
281.199	212.06
281.431	195.06
281.662	203.06
281.894	220.06
282.125	203.06
282.356	235.06
282.588	224.06
282.819	239.06
283.051	228.06
283.282	216.06
283.513	227.06
283.745	221.06
283.976	224.06
284.207	232.06
284.439	229.06
284.67	236.06
284.901	226.06
285.132	232.06
285.364	227.06
285.595	226.06
285.826	225.06
286.057	227.06
286.288	225.06
286.52	228.06
286.751	219.06
286.982	242.06
287.213	244.06
287.444	223.06
287.675	229.06
287.906	226.06
288.138	243.06
288.369	244.06
288.6	246.06
288.831	249.06
289.062	246.06
289.293	235.06
289.524	231.06
289.755	226.06
289.986	225.06
290.217	242.06
290.448	236.06
290.679	222.06
290.91	233.06
291.141	232.06
291.371	238.06
291.602	251.06
291.833	217.06
292.064	244.06
292.295	240.06
292.526	252.06
292.757	218.06
292.987	238.06
293.218	249.06
293.449	234.06
293.68	242.06
293.91	235.06
294.141	242.06
294.372	225.06
294.603	256.06
294.833	244.06
295.064	226.06
295.295	234.06
295.525	232.06
295.756	245.06
295.987	265.06
296.217	258.06
296.448	260.06
296.679	231.06
296.909	257.06
297.14	245.06
297.37	255.06
297.601	248.06
297.831	253.06
298.062	242.06
298.292	240.06
298.523	260.06
298.753	242.06
298.984	253.06
299.214	274.06
299.445	266.06
299.675	234.06
299.905	254.06
300.136	251.06
300.366	271.06
300.597	259.06
300.827	266.06
301.057	294.06
301.288	271.06
301.518	274.06
301.748	262.06
301.979	271.06
302.209	268.06
302.439	266.06
302.669	246.06
302.9	262.06
303.13	267.06
303.36	260.06
303.59	276.06
303.82	290.06
304.051	272.06
304.281	273.06
304.511	275.06
304.741	264.06
304.971	245.06
305.201	256.06
305.431	255.06
305.661	279.06
305.891	267.06
306.121	279.06
306.352	261.06
306.582	253.06
306.812	277.06
307.042	274.06
307.272	269.06
307.502	264.06
307.731	290.06
307.961	254.06
308.191	282.06
308.421	280.06
308.651	301.06
308.881	295.06
309.111	292.06
309.341	269.06
309.571	274.06
309.8	292.06
310.03	302.06
310.26	299.06
310.49	303.06
310.72	311.06
310.949	306.06
311.179	319.06
311.409	297.06
311.639	292.06
311.868	303.06
312.098	299.06
312.328	298.06
312.557	324.06
312.787	306.06
313.017	330.06
313.246	312.06
313.476	292.06
313.706	293.06
313.935	309.06
314.165	311.06
314.394	310.06
314.624	328.06
314.853	306.06
315.083	296.06
315.312	318.06
315.542	288.06
315.771	280.06
316.001	293.06
316.23	293.06
316.46	298.06
316.689	287.06
316.919	293.06
317.148	316.06
317.377	317.06
317.607	313.06
317.836	299.06
318.065	291.06
318.295	320.06
318.524	300.06
318.753	315.06
318.983	315.06
319.212	303.06
319.441	319.06
319.67	316.06
319.9	316.06
320.129	298.06
320.358	312.06
320.587	306.06
320.816	312.06
321.046	300.06
321.275	318.06
321.504	314.06
321.733	325.06
321.962	335.06
322.191	335.06
322.42	319.06
322.649	342.06
322.878	330.06
323.108	334.06
323.337	366.06
323.566	374.06
323.795	393.06
324.024	406.06
324.253	505.06
324.482	663.06
324.71	1017.06
324.939	1348.06
325.168	1153.06
325.397	605.06
325.626	445.06
325.855	413.06
326.084	391.06
326.313	365.06
326.542	396.06
326.77	398.06
326.999	467.06
327.228	624.06
327.457	879.06
327.686	1035.06
327.914	709.06
328.143	488.06
328.372	455.06
328.6	441.06
328.829	427.06
329.058	443.06
329.287	430.06
329.515	413.06
329.744	415.06
329.972	392.06
330.201	413.06
330.43	434.06
330.658	450.06
330.887	434.06
331.115	427.06
331.344	412.06
331.572	386.06
331.801	380.06
332.03	383.06
332.258	373.06
332.486	387.06
332.715	355.06
332.943	363.06
333.172	355.06
333.4	367.06
333.629	379.06
333.857	396.06
334.085	395.06
334.314	423.06
334.542	465.06
334.771	459.06
334.999	416.06
335.227	394.06
335.455	374.06
335.684	360.06
335.912	372.06
336.14	358.06
336.369	360.06
336.597	367.06
336.825	369.06
337.053	354.06
337.281	350.06
337.51	344.06
337.738	342.06
337.966	345.06
338.194	354.06
338.422	341.06
338.65	352.06
338.878	364.06
339.106	347.06
339.334	329.06
339.562	355.06
339.79	336.06
340.018	343.06
340.246	336.06
340.474	358.06
340.702	335.06
340.93	320.06
341.158	349.06
341.386	343.06
341.614	340.06
341.842	356.06
342.07	328.06
342.298	325.06
342.526	320.06
342.754	318.06
342.981	342.06
343.209	338.06
343.437	343.06
343.665	337.06
343.893	343.06
344.12	358.06
344.348	358.06
344.576	358.06
344.804	349.06
345.031	341.06
345.259	338.06
345.487	339.06
345.714	336.06
345.942	344.06
346.17	339.06
346.397	323.06
346.625	349.06
346.853	330.06
347.08	323.06
347.308	321.06
347.535	346.06
347.763	320.06
347.99	341.06
348.218	337.06
348.445	323.06
348.673	344.06
348.9	344.06
349.128	325.06
349.355	294.06
349.583	319.06
349.81	319.06
350.037	306.06
350.265	306.06
350.492	328.06
350.72	307.06
350.947	319.06
351.174	340.06
351.402	357.06
351.629	327.06
351.856	314.06
352.083	343.06
352.311	329.06
352.538	332.06
352.765	343.06
352.992	338.06
353.22	326.06
353.447	330.06
353.674	308.06
353.901	297.06
354.128	310.06
354.355	297.06
354.583	332.06
354.81	315.06
355.037	312.06
355.264	300.06
355.491	310.06
355.718	318.06
355.945	315.06
356.172	301.06
356.399	315.06
356.626	316.06
356.853	313.06
357.08	303.06
357.307	312.06
357.534	324.06
357.761	316.06
357.988	302.06
358.215	285.06
358.441	328.06
358.668	299.06
358.895	299.06
359.122	315.06
359.349	326.06
359.576	334.06
359.802	329.06
360.029	350.06
360.256	339.06
360.483	340.06
360.709	329.06
360.936	316.06
361.163	335.06
361.39	319.06
361.616	320.06
361.843	316.06
362.07	328.06
362.296	318.06
362.523	324.06
362.749	324.06
362.976	306.06
363.203	325.06
363.429	316.06
363.656	321.06
363.882	332.06
364.109	325.06
364.335	313.06
364.562	300.06
364.788	333.06
365.015	311.06
365.241	314.06
365.468	318.06
365.694	308.06
365.92	322.06
366.147	326.06
366.373	315.06
366.599	322.06
366.826	296.06
367.052	307.06
367.278	312.06
367.505	317.06
367.731	298.06
367.957	313.06
368.184	308.06
368.41	334.06
368.636	329.06
368.862	308.06
369.089	335.06
369.315	311.06
369.541	332.06
369.767	331.06
369.993	322.06
370.219	300.06
370.445	313.06
370.672	325.06
370.898	326.06
371.124	306.06
371.35	303.06
371.576	327.06
371.802	326.06
372.028	317.06
372.254	315.06
372.48	320.06
372.706	322.06
372.932	308.06
373.158	313.06
373.384	315.06
373.61	310.06
373.835	327.06
374.061	314.06
374.287	323.06
374.513	329.06
374.739	323.06
374.965	322.06
375.191	317.06
375.416	325.06
375.642	320.06
375.868	292.06
376.094	285.06
376.319	322.06
376.545	309.06
376.771	318.06
376.997	316.06
377.222	310.06
377.448	327.06
377.674	303.06
377.899	312.06
378.125	317.06
378.35	304.06
378.576	298.06
378.802	302.06
379.027	324.06
379.253	294.06
379.478	283.06
379.704	316.06
379.929	316.06
380.155	312.06
380.38	295.06
380.606	316.06
380.831	327.06
381.057	314.06
381.282	315.06
381.507	309.06
381.733	312.06
381.958	327.06
382.184	328.06
382.409	314.06
382.634	331.06
382.86	323.06
383.085	322.06
383.31	330.06
383.535	337.06
383.761	326.06
383.986	341.06
384.211	321.06
384.436	319.06
384.662	334.06
384.887	322.06
385.112	316.06
385.337	322.06
385.562	334.06
385.787	355.06
386.013	327.06
386.238	355.06
386.463	326.06
386.688	334.06
386.913	339.06
387.138	335.06
387.363	337.06
387.588	335.06
387.813	357.06
388.038	348.06
388.263	348.06
388.488	331.06
388.713	350.06
388.938	335.06
389.163	335.06
389.387	345.06
389.612	339.06
389.837	340.06
390.062	337.06
390.287	335.06
390.512	328.06
390.736	338.06
390.961	352.06
391.186	337.06
391.411	346.06
391.636	348.06
391.86	363.06
392.085	362.06
392.31	348.06
392.534	340.06
392.759	343.06
392.984	351.06
393.208	356.06
393.433	344.06
393.658	374.06
393.882	346.06
394.107	341.06
394.331	353.06
394.556	356.06
394.78	332.06
395.005	349.06
395.229	352.06
395.454	354.06
395.678	360.06
395.903	380.06
396.127	372.06
396.352	357.06
396.576	358.06
396.801	356.06
397.025	350.06
397.249	379.06
397.474	365.06
397.698	367.06
397.922	379.06
398.147	379.06
398.371	398.06
398.595	385.06
398.82	408.06
399.044	400.06
399.268	423.06
399.492	455.06
399.717	486.06
399.941	484.06
400.165	503.06
400.389	471.06
400.613	436.06
400.837	430.06
401.062	402.06
401.286	418.06
401.51	378.06
401.734	381.06
401.958	399.06
402.182	389.06
402.406	380.06
402.63	404.06
402.854	403.06
403.078	407.06
403.302	424.06
403.526	415.06
403.75	413.06
403.974	418.06
404.198	440.06
404.422	412.06
404.645	426.06
404.869	438.06
405.093	448.06
405.317	452.06
405.541	462.06
405.765	434.06
405.988	445.06
406.212	452.06
406.436	453.06
406.66	492.06
406.883	458.06
407.107	468.06
407.331	488.06
407.555	542.06
407.778	521.06
408.002	500.06
408.226	478.06
408.449	454.06
408.673	459.06
408.896	459.06
409.12	485.06
409.344	460.06
409.567	438.06
409.791	422.06
410.014	421.06
410.238	421.06
410.461	430.06
410.685	427.06
410.908	422.06
411.132	450.06
411.355	463.06
411.578	446.06
411.802	439.06
412.025	422.06
412.249	420.06
412.472	429.06
412.695	413.06
412.919	433.06
413.142	435.06
413.365	410.06
413.589	424.06
413.812	414.06
414.035	410.06
414.258	390.06
414.482	402.06
414.705	392.06
414.928	392.06
415.151	408.06
415.374	420.06
415.597	420.06
415.821	393.06
416.044	404.06
416.267	408.06
416.49	417.06
416.713	401.06
416.936	409.06
417.159	388.06
417.382	414.06
417.605	425.06
417.828	419.06
418.051	419.06
418.274	421.06
418.497	389.06
418.72	407.06
418.943	384.06
419.166	416.06
419.389	443.06
419.611	455.06
419.834	420.06
420.057	427.06
420.28	431.06
420.503	432.06
420.726	423.06
420.948	432.06
421.171	447.06
421.394	474.06
421.617	429.06
421.839	411.06
422.062	428.06
422.285	436.06
422.507	456.06
422.73	514.06
422.953	478.06
423.175	458.06
423.398	448.06
423.621	439.06
423.843	460.06
424.066	450.06
424.288	439.06
424.511	460.06
424.733	495.06
424.956	536.06
425.178	506.06
425.401	506.06
425.623	524.06
425.846	480.06
426.068	440.06
426.291	440.06
426.513	431.06
426.735	444.06
426.958	484.06
427.18	511.06
427.402	569.06
427.625	639.06
427.847	563.06
428.069	480.06
428.292	468.06
428.514	422.06
428.736	423.06
428.958	406.06
429.181	400.06
429.403	412.06
429.625	419.06
429.847	444.06
430.069	469.06
430.292	454.06
430.514	423.06
430.736	404.06
430.958	392.06
431.18	404.06
431.402	418.06
431.624	398.06
431.846	394.06
432.068	387.06
432.29	396.06
432.512	390.06
432.734	403.06
432.956	386.06
433.178	394.06
433.4	432.06
433.622	396.06
433.844	394.06
434.066	395.06
434.287	385.06
434.509	407.06
434.731	380.06
434.953	406.06
435.175	422.06
435.397	438.06
435.618	443.06
435.84	482.06
436.062	528.06
436.284	539.06
436.505	464.06
436.727	459.06
436.949	428.06
437.17	411.06
437.392	407.06
437.614	418.06
437.835	429.06
438.057	497.06
438.278	557.06
438.5	535.06
438.721	577.06
438.943	566.06
439.165	461.06
439.386	433.06
439.608	424.06
439.829	445.06
440.05	461.06
440.272	469.06
440.493	438.06
440.715	415.06
440.936	406.06
441.158	404.06
441.379	423.06
441.6	442.06
441.822	444.06
442.043	471.06
442.264	518.06
442.486	518.06
442.707	445.06
442.928	456.06
443.149	444.06
443.371	469.06
443.592	488.06
443.813	543.06
444.034	563.06
444.255	498.06
444.476	474.06
444.698	455.06
444.919	448.06
445.14	544.06
445.361	505.06
445.582	470.06
445.803	510.06
446.024	548.06
446.245	574.06
446.466	512.06
446.687	446.06
446.908	435.06
447.129	415.06
447.35	398.06
447.571	394.06
447.792	379.06
448.013	416.06
448.234	410.06
448.455	455.06
448.675	516.06
448.896	555.06
449.117	493.06
449.338	475.06
449.559	533.06
449.779	591.06
450	487.06
450.221	413.06
450.442	397.06
450.662	397.06
450.883	406.06
451.104	402.06
451.324	376.06
451.545	393.06
451.766	376.06
451.986	377.06
452.207	382.06
452.428	343.06
452.648	376.06
452.869	378.06
453.089	386.06
453.31	399.06
453.53	380.06
453.751	363.06
453.971	371.06
454.192	380.06
454.412	372.06
454.633	363.06
454.853	370.06
455.073	368.06
455.294	382.06
455.514	440.06
455.734	413.06
455.955	392.06
456.175	360.06
456.395	367.06
456.616	350.06
456.836	348.06
457.056	335.06
457.276	335.06
457.497	365.06
457.717	334.06
457.937	351.06
458.157	333.06
458.377	356.06
458.598	385.06
458.818	422.06
459.038	449.06
459.258	455.06
459.478	412.06
459.698	418.06
459.918	395.06
460.138	407.06
460.358	388.06
460.578	413.06
460.798	402.06
461.018	421.06
461.238	408.06
461.458	386.06
461.678	415.06
461.898	417.06
462.118	420.06
462.338	422.06
462.558	421.06
462.777	435.06
462.997	435.06
463.217	454.06
463.437	458.06
463.657	445.06
463.876	441.06
464.096	446.06
464.316	435.06
464.536	445.06
464.755	438.06
464.975	428.06
465.195	471.06
465.414	491.06
465.634	434.06
465.854	421.06
466.073	404.06
466.293	424.06
466.512	381.06
466.732	372.06
466.951	378.06
467.171	385.06
467.391	391.06
467.61	410.06
467.829	413.06
468.049	413.06
468.268	417.06
468.488	390.06
468.707	372.06
468.927	384.06
469.146	386.06
469.365	377.06
469.585	363.06
469.804	390.06
470.023	392.06
470.243	392.06
470.462	403.06
470.681	423.06
470.901	402.06
471.12	382.06
471.339	397.06
471.558	389.06
471.777	385.06
471.997	394.06
472.216	400.06
472.435	458.06
472.654	422.06
472.873	390.06
473.092	390.06
473.311	398.06
473.53	374.06
473.749	382.06
473.968	386.06
474.187	469.06
474.406	463.06
474.625	427.06
474.844	408.06
475.063	383.06
475.282	389.06
475.501	386.06
475.72	408.06
475.939	410.06
476.158	394.06
476.377	399.06
476.596	393.06
476.814	400.06
477.033	400.06
477.252	403.06
477.471	408.06
477.69	409.06
477.908	401.06
478.127	421.06
478.346	432.06
478.564	437.06
478.783	438.06
479.002	451.06
479.22	438.06
479.439	442.06
479.658	460.06
479.876	458.06
480.095	469.06
480.313	484.06
480.532	478.06
480.751	483.06
480.969	482.06
481.188	556.06
481.406	620.06
481.624	500.06
481.843	468.06
482.061	461.06
482.28	458.06
482.498	445.06
482.717	446.06
482.935	443.06
483.153	448.06
483.372	462.06
483.59	450.06
483.808	435.06
484.027	443.06
484.245	449.06
484.463	444.06
484.681	464.06
484.9	470.06
485.118	447.06
485.336	458.06
485.554	455.06
485.772	457.06
485.99	485.06
486.209	472.06
486.427	450.06
486.645	461.06
486.863	492.06
487.081	494.06
487.299	470.06
487.517	482.06
487.735	473.06
487.953	453.06
488.171	478.06
488.389	481.06
488.607	461.06
488.825	486.06
489.043	458.06
489.261	468.06
489.479	488.06
489.696	481.06
489.914	482.06
490.132	497.06
490.35	489.06
490.568	496.06
490.786	489.06
491.003	494.06
491.221	523.06
491.439	506.06
491.657	538.06
491.874	553.06
492.092	548.06
492.31	523.06
492.527	518.06
492.745	528.06
492.963	543.06
493.18	554.06
493.398	566.06
493.615	546.06
493.833	553.06
494.05	551.06
494.268	553.06
494.485	527.06
494.703	533.06
494.92	542.06
495.138	554.06
495.355	550.06
495.573	568.06
495.79	537.06
496.008	567.06
496.225	534.06
496.442	546.06
496.66	558.06
496.877	539.06
497.094	534.06
497.312	544.06
497.529	568.06
497.746	577.06
497.963	558.06
498.181	605.06
498.398	610.06
498.615	640.06
498.832	635.06
499.049	634.06
499.267	669.06
499.484	697.06
499.701	718.06
499.918	746.06
500.135	824.06
500.352	837.06
500.569	845.06
500.786	854.06
501.003	808.06
501.22	786.06
501.437	772.06
501.654	714.06
501.871	720.06
502.088	676.06
502.305	628.06
502.522	655.06
502.739	635.06
502.956	608.06
503.172	602.06
503.389	581.06
503.606	568.06
503.823	586.06
504.04	582.06
504.256	574.06
504.473	557.06
504.69	570.06
504.907	564.06
505.123	548.06
505.34	539.06
505.557	552.06
505.773	555.06
505.99	521.06
506.207	528.06
506.423	534.06
506.64	503.06
506.856	499.06
507.073	509.06
507.289	520.06
507.506	505.06
507.722	500.06
507.939	518.06
508.155	504.06
508.372	498.06
508.588	490.06
508.805	483.06
509.021	497.06
509.238	487.06
509.454	493.06
509.67	476.06
509.887	483.06
510.103	480.06
510.319	490.06
510.536	575.06
510.752	956.06
510.968	746.06
511.184	496.06
511.401	471.06
511.617	468.06
511.833	471.06
512.049	469.06
512.265	457.06
512.481	477.06
512.698	455.06
512.914	477.06
513.13	455.06
513.346	454.06
513.562	439.06
513.778	463.06
513.994	455.06
514.21	459.06
514.426	501.06
514.642	502.06
514.858	523.06
515.074	578.06
515.29	646.06
515.506	937.06
515.721	799.06
515.937	542.06
516.153	518.06
516.369	512.06
516.585	478.06
516.801	502.06
517.016	513.06
517.232	474.06
517.448	489.06
517.664	498.06
517.879	488.06
518.095	489.06
518.311	477.06
518.527	480.06
518.742	496.06
518.958	459.06
519.173	464.06
519.389	469.06
519.605	451.06
519.82	470.06
520.036	484.06
520.251	476.06
520.467	483.06
520.682	482.06
520.898	481.06
521.113	507.06
521.329	534.06
521.544	580.06
521.76	734.06
521.975	1207.06
522.19	1219.06
522.406	663.06
522.621	496.06
522.836	466.06
523.052	448.06
523.267	447.06
523.482	427.06
523.698	434.06
523.913	447.06
524.128	445.06
524.343	427.06
524.559	425.06
524.774	406.06
524.989	419.06
525.204	415.06
525.419	400.06
525.634	405.06
525.849	411.06
526.064	396.06
526.28	381.06
526.495	403.06
526.71	383.06
526.925	390.06
527.14	370.06
527.355	418.06
527.57	403.06
527.785	401.06
527.999	387.06
528.214	374.06
528.429	405.06
528.644	410.06
528.859	386.06
529.074	384.06
529.289	408.06
529.503	442.06
529.718	448.06
529.933	430.06
530.148	402.06
530.363	375.06
530.577	400.06
530.792	379.06
531.007	387.06
531.221	391.06
531.436	385.06
531.651	383.06
531.865	371.06
532.08	376.06
532.295	378.06
532.509	376.06
532.724	362.06
532.938	376.06
533.153	376.06
533.367	381.06
533.582	379.06
533.796	377.06
534.011	360.06
534.225	375.06
534.44	364.06
534.654	378.06
534.868	362.06
535.083	378.06
535.297	370.06
535.511	359.06
535.726	401.06
535.94	375.06
536.154	371.06
536.369	373.06
536.583	360.06
536.797	377.06
537.011	363.06
537.225	362.06
537.44	350.06
537.654	341.06
537.868	356.06
538.082	348.06
538.296	354.06
538.51	370.06
538.724	362.06
538.938	368.06
539.153	367.06
539.367	379.06
539.581	366.06
539.795	362.06
540.009	359.06
540.222	359.06
540.436	350.06
540.65	361.06
540.864	366.06
541.078	366.06
541.292	363.06
541.506	370.06
541.72	383.06
541.934	374.06
542.147	363.06
542.361	366.06
542.575	378.06
542.789	369.06
543.002	376.06
543.216	351.06
543.43	356.06
543.644	357.06
543.857	342.06
544.071	383.06
544.285	356.06
544.498	357.06
544.712	356.06
544.925	356.06
545.139	347.06
545.352	350.06
545.566	364.06
545.779	346.06
545.993	367.06
546.206	371.06
546.42	351.06
546.633	346.06
546.847	350.06
547.06	364.06
547.274	354.06
547.487	365.06
547.7	338.06
547.914	365.06
548.127	360.06
548.34	356.06
548.554	371.06
548.767	348.06
548.98	351.06
549.193	355.06
549.407	362.06
549.62	368.06
549.833	360.06
550.046	340.06
550.259	333.06
550.473	357.06
550.686	359.06
550.899	327.06
551.112	347.06
551.325	326.06
551.538	347.06
551.751	336.06
551.964	344.06
552.177	340.06
552.39	355.06
552.603	364.06
552.816	351.06
553.029	352.06
553.242	348.06
553.455	356.06
553.667	360.06
553.88	356.06
554.093	352.06
554.306	347.06
554.519	350.06
554.732	335.06
554.944	335.06
555.157	344.06
555.37	343.06
555.583	349.06
555.795	340.06
556.008	328.06
556.221	325.06
556.433	334.06
556.646	316.06
556.859	329.06
557.071	307.06
557.284	306.06
557.496	308.06
557.709	316.06
557.921	303.06
558.134	311.06
558.346	307.06
558.559	307.06
558.771	307.06
558.984	293.06
559.196	319.06
559.409	315.06
559.621	297.06
559.833	302.06
560.046	303.06
560.258	302.06
560.47	298.06
560.683	300.06
560.895	324.06
561.107	312.06
561.32	306.06
561.532	306.06
561.744	317.06
561.956	305.06
562.168	303.06
562.381	316.06
562.593	310.06
562.805	319.06
563.017	322.06
563.229	308.06
563.441	299.06
563.653	314.06
563.865	319.06
564.077	319.06
564.289	328.06
564.501	298.06
564.713	314.06
564.925	325.06
565.137	327.06
565.349	326.06
565.561	333.06
565.773	353.06
565.985	351.06
566.197	337.06
566.408	351.06
566.62	376.06
566.832	390.06
567.044	394.06
567.255	389.06
567.467	397.06
567.679	401.06
567.891	416.06
568.102	418.06
568.314	384.06
568.526	381.06
568.737	384.06
568.949	367.06
569.161	345.06
569.372	328.06
569.584	333.06
569.795	311.06
570.007	308.06
570.218	342.06
570.43	333.06
570.641	298.06
570.853	290.06
571.064	299.06
571.276	296.06
571.487	297.06
571.698	282.06
571.91	281.06
572.121	288.06
572.333	276.06
572.544	278.06
572.755	273.06
572.966	285.06
573.178	269.06
573.389	263.06
573.6	264.06
573.811	259.06
574.023	260.06
574.234	259.06
574.445	262.06
574.656	264.06
574.867	249.06
575.078	264.06
575.289	270.06
575.501	239.06
575.712	262.06
575.923	247.06
576.134	272.06
576.345	247.06
576.556	267.06
576.767	254.06
576.978	265.06
577.188	280.06
577.399	284.06
577.61	265.06
577.821	249.06
578.032	272.06
578.243	291.06
578.454	448.06
578.665	342.06
578.875	256.06
579.086	254.06
579.297	266.06
579.508	240.06
579.718	249.06
579.929	236.06
580.14	239.06
580.35	239.06
580.561	233.06
580.772	230.06
580.982	243.06
581.193	250.06
581.403	248.06
581.614	235.06
581.825	237.06
582.035	220.06
582.246	242.06
582.456	239.06
582.667	260.06
582.877	244.06
583.087	237.06
583.298	242.06
583.508	235.06
583.719	237.06
583.929	237.06
584.139	239.06
584.35	223.06
584.56	230.06
584.77	231.06
584.981	248.06
585.191	247.06
585.401	227.06
585.611	235.06
585.821	249.06
586.032	258.06
586.242	256.06
586.452	239.06
586.662	254.06
586.872	220.06
587.082	234.06
587.292	252.06
587.502	238.06
587.713	235.06
587.923	242.06
588.133	228.06
588.343	235.06
588.553	252.06
588.762	231.06
588.972	236.06
589.182	269.06
589.392	266.06
589.602	250.06
589.812	255.06
590.022	252.06
590.232	238.06
590.441	227.06
590.651	257.06
590.861	250.06
591.071	238.06
591.281	234.06
591.49	220.06
591.7	231.06
591.91	246.06
592.119	238.06
592.329	234.06
592.539	240.06
592.748	236.06
592.958	259.06
593.167	262.06
593.377	245.06
593.587	261.06
593.796	254.06
594.006	262.06
594.215	254.06
594.424	248.06
594.634	250.06
594.843	240.06
595.053	227.06
595.262	223.06
595.472	237.06
595.681	248.06
595.89	232.06
596.1	222.06
596.309	226.06
596.518	236.06
596.727	237.06
596.937	212.06
597.146	208.06
597.355	212.06
597.564	207.06
597.774	221.06
597.983	204.06
598.192	218.06
598.401	199.06
598.61	200.06
598.819	204.06
599.028	210.06
599.237	211.06
599.446	217.06
599.655	210.06
599.864	226.06
600.073	195.06
600.282	212.06
600.491	198.06
600.7	210.06
600.909	194.06
601.118	207.06
601.327	212.06
601.536	212.06
601.745	210.06
601.953	189.06
602.162	190.06
602.371	194.06
602.58	211.06
602.789	208.06
602.997	192.06
603.206	219.06
603.415	189.06
603.623	217.06
603.832	206.06
604.041	208.06
604.249	205.06
604.458	188.06
604.666	197.06
604.875	204.06
605.084	211.06
605.292	200.06
605.501	198.06
605.709	198.06
605.918	196.06
606.126	208.06
606.334	214.06
606.543	214.06
606.751	192.06
606.96	203.06
607.168	186.06
607.376	208.06
607.585	197.06
607.793	195.06
608.001	184.06
608.21	175.06
608.418	191.06
608.626	180.06
608.834	203.06
609.043	186.06
609.251	197.06
609.459	191.06
609.667	195.06
609.875	212.06
610.083	200.06
610.291	182.06
610.499	187.06
610.707	198.06
610.916	210.06
611.124	204.06
611.332	221.06
611.54	207.06
611.748	183.06
611.955	198.06
612.163	193.06
612.371	194.06
612.579	175.06
612.787	182.06
612.995	202.06
613.203	189.06
613.411	190.06
613.618	185.06
613.826	189.06
614.034	188.06
614.242	197.06
614.449	180.06
614.657	186.06
614.865	192.06
615.072	172.06
615.28	199.06
615.488	201.06
615.695	199.06
615.903	205.06
616.111	197.06
616.318	194.06
616.526	187.06
616.733	200.06
616.941	179.06
617.148	193.06
617.356	194.06
617.563	191.06
617.771	193.06
617.978	202.06
618.185	172.06
618.393	197.06
618.6	182.06
618.807	174.06
619.015	175.06
619.222	180.06
619.429	194.06
619.637	186.06
619.844	174.06
620.051	182.06
620.258	171.06
620.466	172.06
620.673	175.06
620.88	183.06
621.087	175.06
621.294	188.06
621.501	175.06
621.708	181.06
621.915	187.06
622.122	180.06
622.329	188.06
622.536	175.06
622.743	171.06
622.95	170.06
623.157	171.06
623.364	175.06
623.571	178.06
623.778	191.06
623.985	190.06
624.192	170.06
624.399	164.06
624.606	163.06
624.812	150.06
625.019	161.06
625.226	176.06
625.433	172.06
625.639	167.06
625.846	173.06
626.053	168.06
626.259	176.06
626.466	174.06
626.673	168.06
626.879	168.06
627.086	159.06
627.293	160.06
627.499	166.06
627.706	175.06
627.912	157.06
628.119	169.06
628.325	166.06
628.532	171.06
628.738	170.06
628.945	182.06
629.151	178.06
629.357	172.06
629.564	184.06
629.77	169.06
629.976	158.06
630.183	167.06
630.389	152.06
630.595	164.06
630.802	164.06
631.008	153.06
631.214	175.06
631.42	159.06
631.627	159.06
631.833	147.06
632.039	163.06
632.245	151.06
632.451	152.06
632.657	182.06
632.863	162.06
633.069	162.06
633.275	165.06
633.481	158.06
633.688	154.06
633.893	149.06
634.099	169.06
634.305	148.06
634.511	152.06
634.717	163.06
634.923	144.06
635.129	151.06
635.335	148.06
635.541	158.06
635.747	149.06
635.952	152.06
636.158	163.06
636.364	161.06
636.57	186.06
636.775	148.06
636.981	150.06
637.187	157.06
637.392	157.06
637.598	141.06
637.804	152.06
638.009	149.06
638.215	162.06
638.421	147.06
638.626	162.06
638.832	148.06
639.037	158.06
639.243	134.06
639.448	141.06
639.654	154.06
639.859	147.06
640.065	153.06
640.27	164.06
640.475	157.06
640.681	137.06
640.886	156.06
641.091	152.06
641.297	159.06
641.502	144.06
641.707	139.06
641.913	141.06
642.118	150.06
642.323	146.06
642.528	144.06
642.733	146.06
642.939	159.06
643.144	150.06
643.349	150.06
643.554	140.06
643.759	156.06
643.964	127.06
644.169	154.06
644.374	150.06
644.579	134.06
644.784	131.06
644.989	149.06
645.194	139.06
645.399	126.06
645.604	143.06
645.809	145.06
646.014	130.06
646.219	146.06
646.423	138.06
646.628	148.06
646.833	152.06
647.038	149.06
647.243	155.06
647.447	141.06
647.652	134.06
647.857	135.06
648.062	136.06
648.266	129.06
648.471	136.06
648.676	140.06
648.88	140.06
649.085	135.06
649.289	137.06
649.494	139.06
649.698	158.06
649.903	166.06
650.107	153.06
650.312	150.06
650.516	126.06
650.721	145.06
650.925	130.06
651.13	131.06
651.334	149.06
651.539	142.06
651.743	146.06
651.947	134.06
652.152	136.06
652.356	140.06
652.56	125.06
652.764	118.06
652.969	140.06
653.173	139.06
653.377	122.06
653.581	125.06
653.785	129.06
653.99	136.06
654.194	125.06
654.398	132.06
654.602	120.06
654.806	131.06
655.01	114.06
655.214	122.06
655.418	123.06
655.622	124.06
655.826	122.06
656.03	127.06
656.234	123.06
656.438	132.06
656.642	130.06
656.846	130.06
657.049	128.06
657.253	132.06
657.457	107.06
657.661	113.06
657.865	101.06
658.068	99.06
658.272	100.06
658.476	92.06
658.68	93.06
658.883	102.06
659.087	102.06
659.291	100.06
659.494	101.06
659.698	103.06
659.901	105.06
660.105	81.06
660.309	98.06
660.512	93.06
660.716	83.06
660.919	107.06
661.123	95.06
661.326	90.06
661.53	82.06
661.733	86.06
661.936	103.06
662.14	75.06
662.343	82.06
662.546	91.06
662.75	84.06
662.953	82.06
663.156	95.06
663.36	77.06
663.563	75.06
663.766	86.06
663.969	87.06
664.173	87.06
664.376	86.06
664.579	79.06
664.782	82.06
664.985	70.06
665.188	91.06
665.391	66.06
665.594	74.06
665.797	96.06
666	88.06
666.203	72.06
666.406	71.06
666.609	82.06
666.812	75.06
667.015	92.06
667.218	87.06
667.421	84.06
667.624	83.06
667.827	80.06
668.03	80.06
668.232	89.06
668.435	95.06
668.638	87.06
668.841	99.06
669.043	87.06
669.246	93.06
669.449	96.06
669.651	76.06
669.854	78.06
670.057	85.06
670.259	79.06
670.462	72.06
670.665	82.06
670.867	91.06
671.07	77.06
671.272	92.06
671.475	86.06
671.677	85.06
671.88	91.06
672.082	86.06
672.284	92.06
672.487	78.06
672.689	92.06
672.892	74.06
