Data from 1986.PennyLincolnUp.Lamp.En5.5.200Scan.071819.P2_HRD10591_17-12-46-973.txt Node
Date: Thu Jul 18 17:12:46 EDT 2019
User: cochatt
Spectrometer: HR+D1059
Trigger mode: 1
Integration Time (sec): 1.000000E-1
Scans to average: 1
Electric dark correction enabled: true
Nonlinearity correction enabled: false
Boxcar width: 0
XAxis mode: Wavelengths
Number of Pixels in Spectrum: 2048
>>>>>Begin Spectral Data<<<<<
223.165	-14.62
223.4	-14.62
223.635	-14.62
223.869	-13.62
224.104	-13.62
224.338	-3.62
224.573	-5.62
224.808	-15.62
225.042	-1.62
225.277	-15.62
225.511	-5.62
225.746	6.38
225.98	-0.62
226.215	-8.62
226.449	26.38
226.683	21.38
226.918	19.38
227.152	25.38
227.387	37.38
227.621	34.38
227.856	51.38
228.09	41.38
228.324	52.38
228.559	41.38
228.793	54.38
229.027	106.38
229.262	86.38
229.496	104.38
229.73	135.38
229.964	154.38
230.199	139.38
230.433	115.38
230.667	106.38
230.901	122.38
231.136	121.38
231.37	108.38
231.604	112.38
231.838	116.38
232.072	107.38
232.306	113.38
232.541	99.38
232.775	109.38
233.009	114.38
233.243	107.38
233.477	103.38
233.711	111.38
233.945	125.38
234.179	125.38
234.413	136.38
234.647	111.38
234.881	114.38
235.115	115.38
235.349	115.38
235.583	120.38
235.817	126.38
236.051	132.38
236.285	131.38
236.519	133.38
236.753	134.38
236.987	129.38
237.221	171.38
237.455	229.38
237.689	200.38
237.922	152.38
238.156	141.38
238.39	133.38
238.624	129.38
238.858	129.38
239.091	132.38
239.325	136.38
239.559	118.38
239.793	133.38
240.027	145.38
240.26	146.38
240.494	165.38
240.728	155.38
240.961	132.38
241.195	149.38
241.429	140.38
241.662	140.38
241.896	139.38
242.13	128.38
242.363	145.38
242.597	142.38
242.83	143.38
243.064	144.38
243.298	148.38
243.531	162.38
243.765	144.38
243.998	144.38
244.232	146.38
244.465	151.38
244.699	142.38
244.932	134.38
245.166	139.38
245.399	152.38
245.633	151.38
245.866	164.38
246.099	138.38
246.333	156.38
246.566	152.38
246.8	153.38
247.033	167.38
247.266	166.38
247.5	172.38
247.733	170.38
247.966	167.38
248.2	178.38
248.433	184.38
248.666	182.38
248.899	190.38
249.133	184.38
249.366	222.38
249.599	219.38
249.832	203.38
250.066	213.38
250.299	231.38
250.532	255.38
250.765	277.38
250.998	277.38
251.231	271.38
251.465	264.38
251.698	248.38
251.931	242.38
252.164	218.38
252.397	231.38
252.63	235.38
252.863	223.38
253.096	240.38
253.329	251.38
253.562	225.38
253.795	242.38
254.028	259.38
254.261	254.38
254.494	255.38
254.727	269.38
254.96	297.38
255.193	313.38
255.426	282.38
255.659	289.38
255.892	322.38
256.124	369.38
256.357	391.38
256.59	357.38
256.823	335.38
257.056	303.38
257.289	268.38
257.521	270.38
257.754	242.38
257.987	242.38
258.22	263.38
258.452	238.38
258.685	248.38
258.918	228.38
259.151	250.38
259.383	246.38
259.616	243.38
259.849	243.38
260.081	271.38
260.314	282.38
260.547	288.38
260.779	269.38
261.012	249.38
261.244	270.38
261.477	258.38
261.71	246.38
261.942	245.38
262.175	246.38
262.407	244.38
262.64	239.38
262.872	219.38
263.105	235.38
263.337	231.38
263.57	226.38
263.802	224.38
264.035	231.38
264.267	209.38
264.499	224.38
264.732	227.38
264.964	235.38
265.197	240.38
265.429	232.38
265.661	223.38
265.894	232.38
266.126	230.38
266.358	216.38
266.591	224.38
266.823	218.38
267.055	240.38
267.287	232.38
267.52	228.38
267.752	247.38
267.984	232.38
268.216	243.38
268.448	255.38
268.681	260.38
268.913	276.38
269.145	275.38
269.377	303.38
269.609	278.38
269.841	297.38
270.073	285.38
270.306	312.38
270.538	336.38
270.77	320.38
271.002	312.38
271.234	313.38
271.466	313.38
271.698	327.38
271.93	332.38
272.162	316.38
272.394	325.38
272.626	330.38
272.858	320.38
273.09	299.38
273.322	285.38
273.553	290.38
273.785	279.38
274.017	280.38
274.249	280.38
274.481	290.38
274.713	285.38
274.945	278.38
275.176	284.38
275.408	289.38
275.64	282.38
275.872	284.38
276.104	286.38
276.335	287.38
276.567	290.38
276.799	321.38
277.031	334.38
277.262	334.38
277.494	364.38
277.726	339.38
277.957	312.38
278.189	298.38
278.421	301.38
278.652	300.38
278.884	278.38
279.115	284.38
279.347	284.38
279.579	293.38
279.81	295.38
280.042	290.38
280.273	295.38
280.505	300.38
280.736	299.38
280.968	286.38
281.199	291.38
281.431	304.38
281.662	289.38
281.894	274.38
282.125	277.38
282.356	312.38
282.588	329.38
282.819	328.38
283.051	299.38
283.282	298.38
283.513	308.38
283.745	300.38
283.976	306.38
284.207	294.38
284.439	283.38
284.67	301.38
284.901	295.38
285.132	295.38
285.364	292.38
285.595	289.38
285.826	286.38
286.057	274.38
286.288	288.38
286.52	285.38
286.751	289.38
286.982	282.38
287.213	295.38
287.444	286.38
287.675	292.38
287.906	313.38
288.138	314.38
288.369	318.38
288.6	309.38
288.831	303.38
289.062	286.38
289.293	308.38
289.524	308.38
289.755	302.38
289.986	289.38
290.217	278.38
290.448	303.38
290.679	285.38
290.91	290.38
291.141	278.38
291.371	288.38
291.602	293.38
291.833	288.38
292.064	302.38
292.295	293.38
292.526	312.38
292.757	291.38
292.987	285.38
293.218	284.38
293.449	285.38
293.68	277.38
293.91	292.38
294.141	283.38
294.372	308.38
294.603	289.38
294.833	281.38
295.064	311.38
295.295	268.38
295.525	296.38
295.756	294.38
295.987	303.38
296.217	342.38
296.448	343.38
296.679	320.38
296.909	288.38
297.14	305.38
297.37	297.38
297.601	298.38
297.831	303.38
298.062	294.38
298.292	300.38
298.523	310.38
298.753	321.38
298.984	306.38
299.214	301.38
299.445	308.38
299.675	302.38
299.905	304.38
300.136	326.38
300.366	302.38
300.597	307.38
300.827	322.38
301.057	321.38
301.288	303.38
301.518	326.38
301.748	328.38
301.979	316.38
302.209	337.38
302.439	336.38
302.669	337.38
302.9	339.38
303.13	330.38
303.36	337.38
303.59	351.38
303.82	346.38
304.051	352.38
304.281	325.38
304.511	334.38
304.741	327.38
304.971	317.38
305.201	324.38
305.431	325.38
305.661	332.38
305.891	332.38
306.121	331.38
306.352	327.38
306.582	339.38
306.812	350.38
307.042	343.38
307.272	340.38
307.502	358.38
307.731	340.38
307.961	346.38
308.191	337.38
308.421	344.38
308.651	358.38
308.881	337.38
309.111	358.38
309.341	343.38
309.571	350.38
309.8	380.38
310.03	392.38
310.26	411.38
310.49	372.38
310.72	384.38
310.949	412.38
311.179	394.38
311.409	400.38
311.639	390.38
311.868	382.38
312.098	401.38
312.328	405.38
312.557	422.38
312.787	404.38
313.017	412.38
313.246	410.38
313.476	370.38
313.706	379.38
313.935	416.38
314.165	400.38
314.394	411.38
314.624	408.38
314.853	404.38
315.083	379.38
315.312	376.38
315.542	377.38
315.771	393.38
316.001	379.38
316.23	395.38
316.46	369.38
316.689	402.38
316.919	400.38
317.148	411.38
317.377	398.38
317.607	394.38
317.836	407.38
318.065	398.38
318.295	385.38
318.524	372.38
318.753	402.38
318.983	402.38
319.212	372.38
319.441	407.38
319.67	391.38
319.9	400.38
320.129	386.38
320.358	388.38
320.587	381.38
320.816	412.38
321.046	409.38
321.275	413.38
321.504	427.38
321.733	433.38
321.962	424.38
322.191	447.38
322.42	468.38
322.649	485.38
322.878	503.38
323.108	490.38
323.337	522.38
323.566	534.38
323.795	572.38
324.024	638.38
324.253	764.38
324.482	1127.38
324.71	1656.38
324.939	2408.38
325.168	2123.38
325.397	1114.38
325.626	749.38
325.855	642.38
326.084	597.38
326.313	550.38
326.542	577.38
326.77	638.38
326.999	726.38
327.228	999.38
327.457	1514.38
327.686	1830.38
327.914	1333.38
328.143	890.38
328.372	846.38
328.6	784.38
328.829	708.38
329.058	710.38
329.287	721.38
329.515	677.38
329.744	683.38
329.972	761.38
330.201	848.38
330.43	1036.38
330.658	949.38
330.887	827.38
331.115	755.38
331.344	653.38
331.572	600.38
331.801	580.38
332.03	568.38
332.258	549.38
332.486	529.38
332.715	532.38
332.943	542.38
333.172	530.38
333.4	561.38
333.629	594.38
333.857	652.38
334.085	723.38
334.314	843.38
334.542	1063.38
334.771	1143.38
334.999	850.38
335.227	647.38
335.455	565.38
335.684	540.38
335.912	536.38
336.14	514.38
336.369	525.38
336.597	491.38
336.825	477.38
337.053	457.38
337.281	466.38
337.51	466.38
337.738	460.38
337.966	461.38
338.194	462.38
338.422	455.38
338.65	447.38
338.878	428.38
339.106	426.38
339.334	431.38
339.562	446.38
339.79	427.38
340.018	446.38
340.246	441.38
340.474	446.38
340.702	419.38
340.93	408.38
341.158	442.38
341.386	433.38
341.614	449.38
341.842	423.38
342.07	416.38
342.298	426.38
342.526	399.38
342.754	414.38
342.981	394.38
343.209	406.38
343.437	400.38
343.665	402.38
343.893	438.38
344.12	431.38
344.348	412.38
344.576	412.38
344.804	430.38
345.031	438.38
345.259	432.38
345.487	418.38
345.714	444.38
345.942	420.38
346.17	418.38
346.397	411.38
346.625	403.38
346.853	389.38
347.08	400.38
347.308	405.38
347.535	437.38
347.763	434.38
347.99	436.38
348.218	436.38
348.445	435.38
348.673	426.38
348.9	424.38
349.128	414.38
349.355	393.38
349.583	390.38
349.81	408.38
350.037	392.38
350.265	397.38
350.492	404.38
350.72	405.38
350.947	413.38
351.174	430.38
351.402	409.38
351.629	420.38
351.856	410.38
352.083	430.38
352.311	434.38
352.538	445.38
352.765	441.38
352.992	419.38
353.22	438.38
353.447	394.38
353.674	392.38
353.901	378.38
354.128	393.38
354.355	400.38
354.583	401.38
354.81	389.38
355.037	386.38
355.264	377.38
355.491	381.38
355.718	367.38
355.945	366.38
356.172	377.38
356.399	386.38
356.626	384.38
356.853	376.38
357.08	371.38
357.307	375.38
357.534	364.38
357.761	372.38
357.988	368.38
358.215	389.38
358.441	378.38
358.668	386.38
358.895	378.38
359.122	381.38
359.349	383.38
359.576	410.38
359.802	439.38
360.029	460.38
360.256	465.38
360.483	465.38
360.709	431.38
360.936	399.38
361.163	396.38
361.39	407.38
361.616	422.38
361.843	392.38
362.07	417.38
362.296	417.38
362.523	408.38
362.749	421.38
362.976	390.38
363.203	393.38
363.429	397.38
363.656	394.38
363.882	376.38
364.109	393.38
364.335	395.38
364.562	388.38
364.788	387.38
365.015	366.38
365.241	379.38
365.468	393.38
365.694	388.38
365.92	403.38
366.147	382.38
366.373	381.38
366.599	403.38
366.826	395.38
367.052	384.38
367.278	382.38
367.505	378.38
367.731	376.38
367.957	382.38
368.184	388.38
368.41	388.38
368.636	392.38
368.862	410.38
369.089	404.38
369.315	392.38
369.541	374.38
369.767	383.38
369.993	380.38
370.219	393.38
370.445	379.38
370.672	359.38
370.898	375.38
371.124	352.38
371.35	379.38
371.576	359.38
371.802	378.38
372.028	376.38
372.254	362.38
372.48	363.38
372.706	344.38
372.932	388.38
373.158	357.38
373.384	373.38
373.61	377.38
373.835	358.38
374.061	372.38
374.287	376.38
374.513	377.38
374.739	372.38
374.965	358.38
375.191	372.38
375.416	366.38
375.642	362.38
375.868	386.38
376.094	373.38
376.319	371.38
376.545	368.38
376.771	367.38
376.997	406.38
377.222	374.38
377.448	368.38
377.674	367.38
377.899	353.38
378.125	345.38
378.35	351.38
378.576	362.38
378.802	368.38
379.027	376.38
379.253	372.38
379.478	356.38
379.704	386.38
379.929	380.38
380.155	356.38
380.38	364.38
380.606	374.38
380.831	384.38
381.057	386.38
381.282	368.38
381.507	368.38
381.733	383.38
381.958	367.38
382.184	369.38
382.409	362.38
382.634	380.38
382.86	361.38
383.085	389.38
383.31	374.38
383.535	376.38
383.761	369.38
383.986	383.38
384.211	378.38
384.436	378.38
384.662	370.38
384.887	389.38
385.112	374.38
385.337	387.38
385.562	376.38
385.787	393.38
386.013	378.38
386.238	397.38
386.463	383.38
386.688	376.38
386.913	386.38
387.138	404.38
387.363	398.38
387.588	388.38
387.813	381.38
388.038	386.38
388.263	370.38
388.488	375.38
388.713	378.38
388.938	391.38
389.163	388.38
389.387	394.38
389.612	383.38
389.837	387.38
390.062	371.38
390.287	378.38
390.512	377.38
390.736	376.38
390.961	390.38
391.186	389.38
391.411	366.38
391.636	368.38
391.86	390.38
392.085	397.38
392.31	410.38
392.534	390.38
392.759	383.38
392.984	392.38
393.208	379.38
393.433	394.38
393.658	379.38
393.882	393.38
394.107	384.38
394.331	391.38
394.556	384.38
394.78	392.38
395.005	372.38
395.229	390.38
395.454	385.38
395.678	399.38
395.903	404.38
396.127	418.38
396.352	446.38
396.576	376.38
396.801	398.38
397.025	404.38
397.249	416.38
397.474	400.38
397.698	417.38
397.922	418.38
398.147	436.38
398.371	439.38
398.595	430.38
398.82	423.38
399.044	449.38
399.268	425.38
399.492	452.38
399.717	474.38
399.941	492.38
400.165	501.38
400.389	546.38
400.613	475.38
400.837	467.38
401.062	475.38
401.286	444.38
401.51	411.38
401.734	430.38
401.958	442.38
402.182	450.38
402.406	453.38
402.63	440.38
402.854	448.38
403.078	457.38
403.302	452.38
403.526	443.38
403.75	450.38
403.974	468.38
404.198	460.38
404.422	470.38
404.645	492.38
404.869	522.38
405.093	554.38
405.317	624.38
405.541	647.38
405.765	585.38
405.988	558.38
406.212	540.38
406.436	542.38
406.66	539.38
406.883	535.38
407.107	540.38
407.331	550.38
407.555	603.38
407.778	596.38
408.002	533.38
408.226	538.38
408.449	494.38
408.673	507.38
408.896	550.38
409.12	566.38
409.344	542.38
409.567	477.38
409.791	466.38
410.014	468.38
410.238	470.38
410.461	438.38
410.685	480.38
410.908	467.38
411.132	507.38
411.355	543.38
411.578	536.38
411.802	487.38
412.025	504.38
412.249	540.38
412.472	556.38
412.695	644.38
412.919	615.38
413.142	578.38
413.365	525.38
413.589	515.38
413.812	487.38
414.035	469.38
414.258	479.38
414.482	454.38
414.705	465.38
414.928	444.38
415.151	458.38
415.374	423.38
415.597	450.38
415.821	407.38
416.044	439.38
416.267	452.38
416.49	440.38
416.713	442.38
416.936	446.38
417.159	447.38
417.382	433.38
417.605	482.38
417.828	467.38
418.051	488.38
418.274	458.38
418.497	464.38
418.72	469.38
418.943	446.38
419.166	456.38
419.389	462.38
419.611	486.38
419.834	489.38
420.057	500.38
420.28	528.38
420.503	562.38
420.726	497.38
420.948	540.38
421.171	543.38
421.394	586.38
421.617	522.38
421.839	496.38
422.062	481.38
422.285	497.38
422.507	539.38
422.73	630.38
422.953	593.38
423.175	508.38
423.398	489.38
423.621	473.38
423.843	521.38
424.066	508.38
424.288	489.38
424.511	535.38
424.733	582.38
424.956	650.38
425.178	640.38
425.401	612.38
425.623	633.38
425.846	562.38
426.068	532.38
426.291	501.38
426.513	508.38
426.735	532.38
426.958	538.38
427.18	620.38
427.402	758.38
427.625	865.38
427.847	783.38
428.069	705.38
428.292	638.38
428.514	579.38
428.736	528.38
428.958	490.38
429.181	480.38
429.403	488.38
429.625	482.38
429.847	509.38
430.069	577.38
430.292	580.38
430.514	504.38
430.736	496.38
430.958	476.38
431.18	453.38
431.402	431.38
431.624	427.38
431.846	440.38
432.068	418.38
432.29	425.38
432.512	416.38
432.734	433.38
432.956	436.38
433.178	455.38
433.4	440.38
433.622	448.38
433.844	443.38
434.066	445.38
434.287	436.38
434.509	437.38
434.731	407.38
434.953	447.38
435.175	465.38
435.397	496.38
435.618	504.38
435.84	546.38
436.062	656.38
436.284	712.38
436.505	592.38
436.727	544.38
436.949	489.38
437.17	461.38
437.392	467.38
437.614	497.38
437.835	542.38
438.057	618.38
438.278	703.38
438.5	716.38
438.721	768.38
438.943	730.38
439.165	580.38
439.386	542.38
439.608	514.38
439.829	516.38
440.05	540.38
440.272	582.38
440.493	562.38
440.715	516.38
440.936	480.38
441.158	479.38
441.379	475.38
441.6	467.38
441.822	508.38
442.043	555.38
442.264	616.38
442.486	652.38
442.707	539.38
442.928	519.38
443.149	542.38
443.371	547.38
443.592	608.38
443.813	663.38
444.034	704.38
444.255	594.38
444.476	538.38
444.698	502.38
444.919	499.38
445.14	607.38
445.361	548.38
445.582	562.38
445.803	632.38
446.024	728.38
446.245	735.38
446.466	693.38
446.687	542.38
446.908	511.38
447.129	479.38
447.35	481.38
447.571	464.38
447.792	476.38
448.013	469.38
448.234	510.38
448.455	532.38
448.675	659.38
448.896	750.38
449.117	661.38
449.338	631.38
449.559	697.38
449.779	780.38
450	666.38
450.221	543.38
450.442	501.38
450.662	470.38
450.883	485.38
451.104	479.38
451.324	490.38
451.545	439.38
451.766	440.38
451.986	420.38
452.207	415.38
452.428	404.38
452.648	409.38
452.869	414.38
453.089	439.38
453.31	427.38
453.53	423.38
453.751	424.38
453.971	452.38
454.192	458.38
454.412	439.38
454.633	446.38
454.853	429.38
455.073	431.38
455.294	453.38
455.514	523.38
455.734	505.38
455.955	448.38
456.175	414.38
456.395	382.38
456.616	405.38
456.836	384.38
457.056	409.38
457.276	381.38
457.497	384.38
457.717	404.38
457.937	393.38
458.157	425.38
458.377	416.38
458.598	403.38
458.818	511.38
459.038	564.38
459.258	579.38
459.478	483.38
459.698	464.38
459.918	444.38
460.138	439.38
460.358	438.38
460.578	434.38
460.798	435.38
461.018	433.38
461.238	433.38
461.458	443.38
461.678	416.38
461.898	418.38
462.118	411.38
462.338	435.38
462.558	440.38
462.777	439.38
462.997	437.38
463.217	451.38
463.437	459.38
463.657	447.38
463.876	442.38
464.096	443.38
464.316	440.38
464.536	438.38
464.755	468.38
464.975	463.38
465.195	530.38
465.414	581.38
465.634	529.38
465.854	479.38
466.073	480.38
466.293	429.38
466.512	418.38
466.732	424.38
466.951	428.38
467.171	428.38
467.391	430.38
467.61	464.38
467.829	474.38
468.049	487.38
468.268	542.38
468.488	492.38
468.707	474.38
468.927	452.38
469.146	439.38
469.365	434.38
469.585	422.38
469.804	442.38
470.023	450.38
470.243	446.38
470.462	449.38
470.681	467.38
470.901	463.38
471.12	448.38
471.339	453.38
471.558	472.38
471.777	475.38
471.997	477.38
472.216	560.38
472.435	816.38
472.654	730.38
472.873	588.38
473.092	512.38
473.311	491.38
473.53	499.38
473.749	515.38
473.968	528.38
474.187	630.38
474.406	635.38
474.625	528.38
474.844	468.38
475.063	472.38
475.282	473.38
475.501	445.38
475.72	457.38
475.939	489.38
476.158	469.38
476.377	475.38
476.596	477.38
476.814	477.38
477.033	460.38
477.252	481.38
477.471	478.38
477.69	472.38
477.908	494.38
478.127	476.38
478.346	504.38
478.564	464.38
478.783	495.38
479.002	506.38
479.22	499.38
479.439	517.38
479.658	549.38
479.876	534.38
480.095	570.38
480.313	597.38
480.532	563.38
480.751	603.38
480.969	673.38
481.188	1060.38
481.406	1301.38
481.624	892.38
481.843	748.38
482.061	692.38
482.28	648.38
482.498	598.38
482.717	617.38
482.935	591.38
483.153	588.38
483.372	571.38
483.59	554.38
483.808	583.38
484.027	548.38
484.245	565.38
484.463	554.38
484.681	557.38
484.9	546.38
485.118	564.38
485.336	556.38
485.554	563.38
485.772	563.38
485.99	550.38
486.209	583.38
486.427	574.38
486.645	588.38
486.863	610.38
487.081	609.38
487.299	597.38
487.517	594.38
487.735	615.38
487.953	608.38
488.171	579.38
488.389	588.38
488.607	611.38
488.825	610.38
489.043	604.38
489.261	616.38
489.479	603.38
489.696	619.38
489.914	611.38
490.132	628.38
490.35	631.38
490.568	652.38
490.786	658.38
491.003	666.38
491.221	704.38
491.439	704.38
491.657	693.38
491.874	699.38
492.092	699.38
492.31	736.38
492.527	737.38
492.745	747.38
492.963	767.38
493.18	758.38
493.398	744.38
493.615	758.38
493.833	755.38
494.05	740.38
494.268	740.38
494.485	721.38
494.703	726.38
494.92	737.38
495.138	752.38
495.355	724.38
495.573	746.38
495.79	735.38
496.008	745.38
496.225	712.38
496.442	713.38
496.66	730.38
496.877	719.38
497.094	702.38
497.312	713.38
497.529	719.38
497.746	737.38
497.963	732.38
498.181	756.38
498.398	721.38
498.615	745.38
498.832	746.38
499.049	730.38
499.267	719.38
499.484	771.38
499.701	779.38
499.918	802.38
500.135	820.38
500.352	817.38
500.569	838.38
500.786	849.38
501.003	872.38
501.22	863.38
501.437	827.38
501.654	826.38
501.871	828.38
502.088	788.38
502.305	761.38
502.522	733.38
502.739	731.38
502.956	702.38
503.172	721.38
503.389	698.38
503.606	711.38
503.823	680.38
504.04	706.38
504.256	700.38
504.473	657.38
504.69	658.38
504.907	649.38
505.123	666.38
505.34	664.38
505.557	650.38
505.773	686.38
505.99	653.38
506.207	650.38
506.423	653.38
506.64	647.38
506.856	656.38
507.073	642.38
507.289	638.38
507.506	626.38
507.722	644.38
507.939	694.38
508.155	654.38
508.372	634.38
508.588	642.38
508.805	633.38
509.021	616.38
509.238	628.38
509.454	646.38
509.67	648.38
509.887	618.38
510.103	635.38
510.319	666.38
510.536	742.38
510.752	1219.38
510.968	1018.38
511.184	682.38
511.401	629.38
511.617	660.38
511.833	634.38
512.049	657.38
512.265	664.38
512.481	649.38
512.698	624.38
512.914	624.38
513.13	602.38
513.346	597.38
513.562	594.38
513.778	626.38
513.994	608.38
514.21	598.38
514.426	662.38
514.642	710.38
514.858	735.38
515.074	750.38
515.29	894.38
515.506	1342.38
515.721	1099.38
515.937	740.38
516.153	683.38
516.369	630.38
516.585	622.38
516.801	633.38
517.016	601.38
517.232	604.38
517.448	598.38
517.664	600.38
517.879	619.38
518.095	580.38
518.311	574.38
518.527	591.38
518.742	556.38
518.958	570.38
519.173	598.38
519.389	595.38
519.605	584.38
519.82	599.38
520.036	609.38
520.251	620.38
520.467	690.38
520.682	665.38
520.898	644.38
521.113	705.38
521.329	730.38
521.544	842.38
521.76	1078.38
521.975	1751.38
522.19	1718.38
522.406	939.38
522.621	720.38
522.836	645.38
523.052	591.38
523.267	592.38
523.482	567.38
523.698	559.38
523.913	550.38
524.128	554.38
524.343	543.38
524.559	525.38
524.774	535.38
524.989	518.38
525.204	536.38
525.419	516.38
525.634	511.38
525.849	518.38
526.064	483.38
526.28	496.38
526.495	476.38
526.71	498.38
526.925	488.38
527.14	482.38
527.355	498.38
527.57	487.38
527.785	490.38
527.999	485.38
528.214	478.38
528.429	471.38
528.644	481.38
528.859	484.38
529.074	484.38
529.289	509.38
529.503	584.38
529.718	572.38
529.933	548.38
530.148	488.38
530.363	494.38
530.577	505.38
530.792	465.38
531.007	471.38
531.221	473.38
531.436	460.38
531.651	459.38
531.865	466.38
532.08	463.38
532.295	453.38
532.509	456.38
532.724	432.38
532.938	435.38
533.153	448.38
533.367	484.38
533.582	445.38
533.796	447.38
534.011	442.38
534.225	446.38
534.44	450.38
534.654	432.38
534.868	455.38
535.083	443.38
535.297	443.38
535.511	461.38
535.726	480.38
535.94	469.38
536.154	454.38
536.369	446.38
536.583	447.38
536.797	435.38
537.011	428.38
537.225	441.38
537.44	425.38
537.654	438.38
537.868	438.38
538.082	432.38
538.296	445.38
538.51	444.38
538.724	422.38
538.938	435.38
539.153	420.38
539.367	459.38
539.581	433.38
539.795	448.38
540.009	427.38
540.222	440.38
540.436	432.38
540.65	438.38
540.864	449.38
541.078	441.38
541.292	462.38
541.506	436.38
541.72	441.38
541.934	436.38
542.147	439.38
542.361	419.38
542.575	429.38
542.789	420.38
543.002	419.38
543.216	427.38
543.43	432.38
543.644	430.38
543.857	435.38
544.071	423.38
544.285	430.38
544.498	424.38
544.712	429.38
544.925	436.38
545.139	426.38
545.352	404.38
545.566	393.38
545.779	414.38
545.993	409.38
546.206	423.38
546.42	413.38
546.633	392.38
546.847	397.38
547.06	398.38
547.274	421.38
547.487	415.38
547.7	400.38
547.914	417.38
548.127	399.38
548.34	421.38
548.554	403.38
548.767	397.38
548.98	404.38
549.193	405.38
549.407	392.38
549.62	406.38
549.833	389.38
550.046	400.38
550.259	391.38
550.473	404.38
550.686	396.38
550.899	398.38
551.112	373.38
551.325	379.38
551.538	383.38
551.751	396.38
551.964	375.38
552.177	384.38
552.39	403.38
552.603	409.38
552.816	405.38
553.029	404.38
553.242	403.38
553.455	392.38
553.667	393.38
553.88	439.38
554.093	417.38
554.306	408.38
554.519	413.38
554.732	402.38
554.944	402.38
555.157	389.38
555.37	410.38
555.583	394.38
555.795	384.38
556.008	363.38
556.221	379.38
556.433	378.38
556.646	386.38
556.859	378.38
557.071	373.38
557.284	370.38
557.496	382.38
557.709	377.38
557.921	371.38
558.134	374.38
558.346	372.38
558.559	370.38
558.771	356.38
558.984	360.38
559.196	362.38
559.409	361.38
559.621	362.38
559.833	371.38
560.046	356.38
560.258	356.38
560.47	352.38
560.683	368.38
560.895	378.38
561.107	367.38
561.32	373.38
561.532	344.38
561.744	344.38
561.956	358.38
562.168	359.38
562.381	359.38
562.593	376.38
562.805	380.38
563.017	373.38
563.229	358.38
563.441	355.38
563.653	356.38
563.865	362.38
564.077	360.38
564.289	353.38
564.501	375.38
564.713	366.38
564.925	366.38
565.137	379.38
565.349	388.38
565.561	368.38
565.773	380.38
565.985	371.38
566.197	394.38
566.408	375.38
566.62	394.38
566.832	418.38
567.044	395.38
567.255	398.38
567.467	407.38
567.679	387.38
567.891	402.38
568.102	384.38
568.314	378.38
568.526	384.38
568.737	397.38
568.949	366.38
569.161	367.38
569.372	353.38
569.584	361.38
569.795	376.38
570.007	366.38
570.218	401.38
570.43	386.38
570.641	342.38
570.853	338.38
571.064	337.38
571.276	347.38
571.487	361.38
571.698	341.38
571.91	341.38
572.121	325.38
572.333	316.38
572.544	323.38
572.755	329.38
572.966	333.38
573.178	341.38
573.389	321.38
573.6	319.38
573.811	322.38
574.023	300.38
574.234	329.38
574.445	300.38
574.656	305.38
574.867	316.38
575.078	305.38
575.289	320.38
575.501	319.38
575.712	297.38
575.923	314.38
576.134	315.38
576.345	307.38
576.556	298.38
576.767	308.38
576.978	296.38
577.188	327.38
577.399	302.38
577.61	303.38
577.821	315.38
578.032	318.38
578.243	338.38
578.454	549.38
578.665	414.38
578.875	322.38
579.086	318.38
579.297	297.38
579.508	281.38
579.718	314.38
579.929	303.38
580.14	292.38
580.35	293.38
580.561	293.38
580.772	272.38
580.982	300.38
581.193	291.38
581.403	295.38
581.614	289.38
581.825	287.38
582.035	305.38
582.246	296.38
582.456	308.38
582.667	278.38
582.877	292.38
583.087	283.38
583.298	279.38
583.508	291.38
583.719	308.38
583.929	290.38
584.139	266.38
584.35	283.38
584.56	275.38
584.77	283.38
584.981	297.38
585.191	289.38
585.401	277.38
585.611	288.38
585.821	295.38
586.032	282.38
586.242	278.38
586.452	274.38
586.662	280.38
586.872	290.38
587.082	280.38
587.292	276.38
587.502	288.38
587.713	270.38
587.923	264.38
588.133	287.38
588.343	288.38
588.553	274.38
588.762	274.38
588.972	276.38
589.182	285.38
589.392	265.38
589.602	299.38
589.812	262.38
590.022	284.38
590.232	280.38
590.441	283.38
590.651	272.38
590.861	268.38
591.071	264.38
591.281	278.38
591.49	313.38
591.7	262.38
591.91	284.38
592.119	271.38
592.329	287.38
592.539	277.38
592.748	270.38
592.958	268.38
593.167	272.38
593.377	271.38
593.587	286.38
593.796	274.38
594.006	275.38
594.215	273.38
594.424	276.38
594.634	286.38
594.843	277.38
595.053	283.38
595.262	278.38
595.472	261.38
595.681	274.38
595.89	257.38
596.1	286.38
596.309	260.38
596.518	273.38
596.727	262.38
596.937	256.38
597.146	265.38
597.355	261.38
597.564	258.38
597.774	246.38
597.983	249.38
598.192	266.38
598.401	255.38
598.61	233.38
598.819	254.38
599.028	242.38
599.237	255.38
599.446	243.38
599.655	240.38
599.864	223.38
600.073	239.38
600.282	247.38
600.491	246.38
600.7	253.38
600.909	250.38
601.118	235.38
601.327	238.38
601.536	242.38
601.745	259.38
601.953	240.38
602.162	247.38
602.371	240.38
602.58	251.38
602.789	243.38
602.997	249.38
603.206	232.38
603.415	240.38
603.623	227.38
603.832	240.38
604.041	226.38
604.249	240.38
604.458	235.38
604.666	236.38
604.875	247.38
605.084	235.38
605.292	225.38
605.501	241.38
605.709	230.38
605.918	230.38
606.126	241.38
606.334	226.38
606.543	225.38
606.751	240.38
606.96	228.38
607.168	235.38
607.376	226.38
607.585	249.38
607.793	244.38
608.001	231.38
608.21	244.38
608.418	236.38
608.626	232.38
608.834	233.38
609.043	226.38
609.251	223.38
609.459	233.38
609.667	225.38
609.875	223.38
610.083	241.38
610.291	215.38
610.499	219.38
610.707	245.38
610.916	216.38
611.124	228.38
611.332	247.38
611.54	258.38
611.748	243.38
611.955	224.38
612.163	231.38
612.371	235.38
612.579	227.38
612.787	216.38
612.995	218.38
613.203	233.38
613.411	230.38
613.618	239.38
613.826	229.38
614.034	216.38
614.242	224.38
614.449	232.38
614.657	214.38
614.865	226.38
615.072	242.38
615.28	230.38
615.488	218.38
615.695	210.38
615.903	234.38
616.111	220.38
616.318	215.38
616.526	225.38
616.733	218.38
616.941	228.38
617.148	242.38
617.356	229.38
617.563	210.38
617.771	228.38
617.978	216.38
618.185	207.38
618.393	215.38
618.6	216.38
618.807	197.38
619.015	231.38
619.222	214.38
619.429	225.38
619.637	223.38
619.844	214.38
620.051	201.38
620.258	209.38
620.466	198.38
620.673	218.38
620.88	211.38
621.087	185.38
621.294	212.38
621.501	215.38
621.708	222.38
621.915	215.38
622.122	217.38
622.329	207.38
622.536	201.38
622.743	194.38
622.95	192.38
623.157	202.38
623.364	222.38
623.571	210.38
623.778	192.38
623.985	223.38
624.192	202.38
624.399	186.38
624.606	191.38
624.812	196.38
625.019	203.38
625.226	179.38
625.433	206.38
625.639	221.38
625.846	194.38
626.053	203.38
626.259	194.38
626.466	186.38
626.673	194.38
626.879	200.38
627.086	193.38
627.293	189.38
627.499	197.38
627.706	188.38
627.912	195.38
628.119	192.38
628.325	194.38
628.532	200.38
628.738	198.38
628.945	201.38
629.151	190.38
629.357	192.38
629.564	201.38
629.77	197.38
629.976	193.38
630.183	179.38
630.389	186.38
630.595	188.38
630.802	201.38
631.008	177.38
631.214	195.38
631.42	183.38
631.627	195.38
631.833	184.38
632.039	178.38
632.245	199.38
632.451	190.38
632.657	190.38
632.863	176.38
633.069	196.38
633.275	175.38
633.481	177.38
633.688	173.38
633.893	176.38
634.099	195.38
634.305	183.38
634.511	180.38
634.717	182.38
634.923	164.38
635.129	184.38
635.335	180.38
635.541	184.38
635.747	196.38
635.952	175.38
636.158	182.38
636.364	201.38
636.57	229.38
636.775	195.38
636.981	203.38
637.187	181.38
637.392	179.38
637.598	190.38
637.804	171.38
638.009	174.38
638.215	176.38
638.421	178.38
638.626	188.38
638.832	173.38
639.037	144.38
639.243	161.38
639.448	164.38
639.654	169.38
639.859	160.38
640.065	154.38
640.27	180.38
640.475	171.38
640.681	167.38
640.886	174.38
641.091	177.38
641.297	170.38
641.502	174.38
641.707	165.38
641.913	176.38
642.118	168.38
642.323	164.38
642.528	165.38
642.733	167.38
642.939	154.38
643.144	163.38
643.349	161.38
643.554	168.38
643.759	158.38
643.964	151.38
644.169	138.38
644.374	166.38
644.579	163.38
644.784	159.38
644.989	161.38
645.194	139.38
645.399	165.38
645.604	160.38
645.809	165.38
646.014	165.38
646.219	162.38
646.423	160.38
646.628	140.38
646.833	152.38
647.038	166.38
647.243	160.38
647.447	164.38
647.652	158.38
647.857	160.38
648.062	168.38
648.266	156.38
648.471	156.38
648.676	170.38
648.88	151.38
649.085	156.38
649.289	172.38
649.494	153.38
649.698	180.38
649.903	170.38
650.107	150.38
650.312	158.38
650.516	146.38
650.721	150.38
650.925	146.38
651.13	121.38
651.334	129.38
651.539	145.38
651.743	134.38
651.947	150.38
652.152	139.38
652.356	146.38
652.56	139.38
652.764	143.38
652.969	136.38
653.173	121.38
653.377	146.38
653.581	135.38
653.785	116.38
653.99	128.38
654.194	138.38
654.398	136.38
654.602	124.38
654.806	125.38
655.01	122.38
655.214	120.38
655.418	128.38
655.622	126.38
655.826	121.38
656.03	120.38
656.234	123.38
656.438	130.38
656.642	133.38
656.846	137.38
657.049	133.38
657.253	126.38
657.457	107.38
657.661	98.38
657.865	107.38
658.068	109.38
658.272	106.38
658.476	114.38
658.68	117.38
658.883	91.38
659.087	90.38
659.291	100.38
659.494	84.38
659.698	100.38
659.901	111.38
660.105	110.38
660.309	89.38
660.512	96.38
660.716	89.38
660.919	110.38
661.123	97.38
661.326	82.38
661.53	85.38
661.733	78.38
661.936	82.38
662.14	88.38
662.343	83.38
662.546	75.38
662.75	86.38
662.953	89.38
663.156	82.38
663.36	82.38
663.563	75.38
663.766	71.38
663.969	87.38
664.173	93.38
664.376	84.38
664.579	80.38
664.782	67.38
664.985	71.38
665.188	75.38
665.391	85.38
665.594	87.38
665.797	83.38
666	70.38
666.203	86.38
666.406	85.38
666.609	78.38
666.812	77.38
667.015	85.38
667.218	63.38
667.421	88.38
667.624	80.38
667.827	84.38
668.03	92.38
668.232	83.38
668.435	78.38
668.638	94.38
668.841	85.38
669.043	82.38
669.246	82.38
669.449	102.38
669.651	77.38
669.854	86.38
670.057	87.38
670.259	79.38
670.462	97.38
670.665	86.38
670.867	74.38
671.07	73.38
671.272	88.38
671.475	93.38
671.677	83.38
671.88	84.38
672.082	68.38
672.284	89.38
672.487	86.38
672.689	82.38
672.892	79.38
