Data from 1986.PennyLincolnUp.Lamp.En5.5.200Scan.071819.P2_HRD10591_17-10-08-986.txt Node
Date: Thu Jul 18 17:10:08 EDT 2019
User: cochatt
Spectrometer: HR+D1059
Trigger mode: 1
Integration Time (sec): 1.000000E-1
Scans to average: 1
Electric dark correction enabled: true
Nonlinearity correction enabled: false
Boxcar width: 0
XAxis mode: Wavelengths
Number of Pixels in Spectrum: 2048
>>>>>Begin Spectral Data<<<<<
223.165	-8.94
223.4	-8.94
223.635	-8.94
223.869	-17.94
224.104	-1.94
224.338	-13.94
224.573	-16.94
224.808	-4.94
225.042	-4.94
225.277	-10.94
225.511	-13.94
225.746	-7.94
225.98	3.06
226.215	12.06
226.449	10.06
226.683	13.06
226.918	24.06
227.152	40.06
227.387	37.06
227.621	47.06
227.856	32.06
228.09	39.06
228.324	50.06
228.559	55.06
228.793	64.06
229.027	102.06
229.262	111.06
229.496	127.06
229.73	140.06
229.964	136.06
230.199	138.06
230.433	121.06
230.667	114.06
230.901	116.06
231.136	122.06
231.37	111.06
231.604	118.06
231.838	102.06
232.072	100.06
232.306	106.06
232.541	111.06
232.775	101.06
233.009	112.06
233.243	99.06
233.477	114.06
233.711	124.06
233.945	106.06
234.179	106.06
234.413	117.06
234.647	97.06
234.881	118.06
235.115	114.06
235.349	114.06
235.583	124.06
235.817	120.06
236.051	118.06
236.285	126.06
236.519	122.06
236.753	131.06
236.987	139.06
237.221	164.06
237.455	221.06
237.689	181.06
237.922	151.06
238.156	135.06
238.39	121.06
238.624	123.06
238.858	126.06
239.091	115.06
239.325	132.06
239.559	129.06
239.793	147.06
240.027	133.06
240.26	148.06
240.494	153.06
240.728	162.06
240.961	141.06
241.195	133.06
241.429	126.06
241.662	139.06
241.896	127.06
242.13	132.06
242.363	130.06
242.597	126.06
242.83	133.06
243.064	155.06
243.298	150.06
243.531	144.06
243.765	146.06
243.998	139.06
244.232	136.06
244.465	133.06
244.699	128.06
244.932	146.06
245.166	142.06
245.399	150.06
245.633	152.06
245.866	146.06
246.099	134.06
246.333	130.06
246.566	156.06
246.8	154.06
247.033	149.06
247.266	159.06
247.5	174.06
247.733	168.06
247.966	170.06
248.2	167.06
248.433	154.06
248.666	176.06
248.899	189.06
249.133	197.06
249.366	214.06
249.599	215.06
249.832	187.06
250.066	203.06
250.299	181.06
250.532	194.06
250.765	189.06
250.998	230.06
251.231	222.06
251.465	239.06
251.698	228.06
251.931	194.06
252.164	211.06
252.397	194.06
252.63	198.06
252.863	211.06
253.096	224.06
253.329	224.06
253.562	225.06
253.795	234.06
254.028	226.06
254.261	207.06
254.494	235.06
254.727	255.06
254.96	280.06
255.193	283.06
255.426	233.06
255.659	229.06
255.892	219.06
256.124	230.06
256.357	234.06
256.59	206.06
256.823	208.06
257.056	207.06
257.289	218.06
257.521	202.06
257.754	210.06
257.987	209.06
258.22	199.06
258.452	200.06
258.685	218.06
258.918	214.06
259.151	216.06
259.383	199.06
259.616	219.06
259.849	226.06
260.081	224.06
260.314	258.06
260.547	264.06
260.779	248.06
261.012	244.06
261.244	242.06
261.477	222.06
261.71	224.06
261.942	230.06
262.175	234.06
262.407	242.06
262.64	206.06
262.872	209.06
263.105	218.06
263.337	210.06
263.57	202.06
263.802	217.06
264.035	220.06
264.267	194.06
264.499	199.06
264.732	213.06
264.964	208.06
265.197	212.06
265.429	208.06
265.661	218.06
265.894	213.06
266.126	214.06
266.358	209.06
266.591	194.06
266.823	196.06
267.055	216.06
267.287	227.06
267.52	231.06
267.752	209.06
267.984	217.06
268.216	219.06
268.448	224.06
268.681	229.06
268.913	216.06
269.145	259.06
269.377	276.06
269.609	284.06
269.841	277.06
270.073	271.06
270.306	278.06
270.538	316.06
270.77	304.06
271.002	293.06
271.234	295.06
271.466	284.06
271.698	314.06
271.93	323.06
272.162	327.06
272.394	298.06
272.626	310.06
272.858	288.06
273.09	275.06
273.322	258.06
273.553	266.06
273.785	246.06
274.017	239.06
274.249	235.06
274.481	251.06
274.713	260.06
274.945	251.06
275.176	256.06
275.408	245.06
275.64	248.06
275.872	249.06
276.104	250.06
276.335	263.06
276.567	250.06
276.799	284.06
277.031	306.06
277.262	302.06
277.494	301.06
277.726	298.06
277.957	276.06
278.189	273.06
278.421	261.06
278.652	252.06
278.884	258.06
279.115	256.06
279.347	258.06
279.579	239.06
279.81	251.06
280.042	239.06
280.273	260.06
280.505	243.06
280.736	240.06
280.968	250.06
281.199	240.06
281.431	274.06
281.662	245.06
281.894	243.06
282.125	243.06
282.356	272.06
282.588	289.06
282.819	306.06
283.051	261.06
283.282	247.06
283.513	261.06
283.745	266.06
283.976	251.06
284.207	253.06
284.439	254.06
284.67	263.06
284.901	243.06
285.132	260.06
285.364	258.06
285.595	239.06
285.826	245.06
286.057	248.06
286.288	252.06
286.52	262.06
286.751	235.06
286.982	250.06
287.213	243.06
287.444	248.06
287.675	275.06
287.906	269.06
288.138	268.06
288.369	278.06
288.6	284.06
288.831	276.06
289.062	279.06
289.293	277.06
289.524	256.06
289.755	272.06
289.986	249.06
290.217	259.06
290.448	234.06
290.679	242.06
290.91	264.06
291.141	240.06
291.371	265.06
291.602	271.06
291.833	253.06
292.064	259.06
292.295	249.06
292.526	278.06
292.757	251.06
292.987	256.06
293.218	262.06
293.449	265.06
293.68	282.06
293.91	259.06
294.141	245.06
294.372	255.06
294.603	246.06
294.833	270.06
295.064	263.06
295.295	263.06
295.525	277.06
295.756	284.06
295.987	288.06
296.217	317.06
296.448	312.06
296.679	288.06
296.909	285.06
297.14	270.06
297.37	255.06
297.601	283.06
297.831	263.06
298.062	269.06
298.292	280.06
298.523	276.06
298.753	270.06
298.984	265.06
299.214	278.06
299.445	264.06
299.675	285.06
299.905	288.06
300.136	290.06
300.366	264.06
300.597	257.06
300.827	279.06
301.057	283.06
301.288	279.06
301.518	295.06
301.748	270.06
301.979	280.06
302.209	307.06
302.439	305.06
302.669	288.06
302.9	295.06
303.13	287.06
303.36	293.06
303.59	299.06
303.82	322.06
304.051	308.06
304.281	299.06
304.511	300.06
304.741	291.06
304.971	289.06
305.201	290.06
305.431	295.06
305.661	291.06
305.891	289.06
306.121	300.06
306.352	300.06
306.582	299.06
306.812	293.06
307.042	314.06
307.272	302.06
307.502	298.06
307.731	283.06
307.961	296.06
308.191	308.06
308.421	313.06
308.651	316.06
308.881	308.06
309.111	313.06
309.341	311.06
309.571	314.06
309.8	353.06
310.03	334.06
310.26	350.06
310.49	327.06
310.72	343.06
310.949	369.06
311.179	371.06
311.409	362.06
311.639	358.06
311.868	343.06
312.098	346.06
312.328	348.06
312.557	356.06
312.787	378.06
313.017	394.06
313.246	368.06
313.476	363.06
313.706	350.06
313.935	359.06
314.165	375.06
314.394	374.06
314.624	363.06
314.853	352.06
315.083	329.06
315.312	352.06
315.542	332.06
315.771	331.06
316.001	347.06
316.23	343.06
316.46	330.06
316.689	336.06
316.919	340.06
317.148	360.06
317.377	350.06
317.607	354.06
317.836	359.06
318.065	348.06
318.295	341.06
318.524	344.06
318.753	350.06
318.983	337.06
319.212	343.06
319.441	356.06
319.67	366.06
319.9	360.06
320.129	342.06
320.358	344.06
320.587	359.06
320.816	358.06
321.046	361.06
321.275	379.06
321.504	378.06
321.733	372.06
321.962	410.06
322.191	406.06
322.42	412.06
322.649	425.06
322.878	434.06
323.108	462.06
323.337	463.06
323.566	498.06
323.795	527.06
324.024	586.06
324.253	702.06
324.482	1029.06
324.71	1561.06
324.939	2219.06
325.168	2027.06
325.397	1070.06
325.626	694.06
325.855	573.06
326.084	520.06
326.313	498.06
326.542	505.06
326.77	543.06
326.999	685.06
327.228	907.06
327.457	1385.06
327.686	1700.06
327.914	1186.06
328.143	766.06
328.372	622.06
328.6	611.06
328.829	572.06
329.058	572.06
329.287	604.06
329.515	555.06
329.744	500.06
329.972	470.06
330.201	487.06
330.43	509.06
330.658	526.06
330.887	611.06
331.115	616.06
331.344	522.06
331.572	482.06
331.801	465.06
332.03	459.06
332.258	430.06
332.486	421.06
332.715	420.06
332.943	380.06
333.172	414.06
333.4	396.06
333.629	411.06
333.857	422.06
334.085	425.06
334.314	428.06
334.542	421.06
334.771	428.06
334.999	420.06
335.227	409.06
335.455	398.06
335.684	402.06
335.912	406.06
336.14	397.06
336.369	388.06
336.597	404.06
336.825	384.06
337.053	382.06
337.281	386.06
337.51	368.06
337.738	384.06
337.966	397.06
338.194	389.06
338.422	399.06
338.65	406.06
338.878	390.06
339.106	378.06
339.334	370.06
339.562	375.06
339.79	380.06
340.018	372.06
340.246	381.06
340.474	395.06
340.702	383.06
340.93	381.06
341.158	380.06
341.386	372.06
341.614	403.06
341.842	389.06
342.07	395.06
342.298	363.06
342.526	368.06
342.754	358.06
342.981	370.06
343.209	356.06
343.437	342.06
343.665	354.06
343.893	381.06
344.12	390.06
344.348	377.06
344.576	380.06
344.804	361.06
345.031	388.06
345.259	417.06
345.487	398.06
345.714	403.06
345.942	367.06
346.17	370.06
346.397	366.06
346.625	372.06
346.853	366.06
347.08	386.06
347.308	370.06
347.535	390.06
347.763	407.06
347.99	392.06
348.218	390.06
348.445	389.06
348.673	399.06
348.9	378.06
349.128	370.06
349.355	367.06
349.583	371.06
349.81	358.06
350.037	365.06
350.265	374.06
350.492	372.06
350.72	359.06
350.947	370.06
351.174	386.06
351.402	378.06
351.629	389.06
351.856	385.06
352.083	385.06
352.311	415.06
352.538	407.06
352.765	388.06
352.992	390.06
353.22	377.06
353.447	386.06
353.674	368.06
353.901	365.06
354.128	345.06
354.355	357.06
354.583	340.06
354.81	368.06
355.037	350.06
355.264	332.06
355.491	345.06
355.718	327.06
355.945	351.06
356.172	350.06
356.399	339.06
356.626	336.06
356.853	346.06
357.08	326.06
357.307	338.06
357.534	348.06
357.761	343.06
357.988	339.06
358.215	339.06
358.441	343.06
358.668	344.06
358.895	337.06
359.122	346.06
359.349	357.06
359.576	365.06
359.802	383.06
360.029	420.06
360.256	433.06
360.483	415.06
360.709	384.06
360.936	384.06
361.163	372.06
361.39	386.06
361.616	369.06
361.843	381.06
362.07	386.06
362.296	382.06
362.523	384.06
362.749	393.06
362.976	355.06
363.203	359.06
363.429	374.06
363.656	358.06
363.882	336.06
364.109	356.06
364.335	358.06
364.562	363.06
364.788	350.06
365.015	342.06
365.241	370.06
365.468	353.06
365.694	370.06
365.92	354.06
366.147	382.06
366.373	342.06
366.599	348.06
366.826	331.06
367.052	354.06
367.278	341.06
367.505	334.06
367.731	356.06
367.957	369.06
368.184	358.06
368.41	344.06
368.636	362.06
368.862	360.06
369.089	352.06
369.315	339.06
369.541	354.06
369.767	344.06
369.993	347.06
370.219	333.06
370.445	326.06
370.672	328.06
370.898	333.06
371.124	334.06
371.35	338.06
371.576	354.06
371.802	336.06
372.028	330.06
372.254	349.06
372.48	342.06
372.706	349.06
372.932	365.06
373.158	322.06
373.384	359.06
373.61	342.06
373.835	338.06
374.061	339.06
374.287	333.06
374.513	340.06
374.739	351.06
374.965	334.06
375.191	336.06
375.416	344.06
375.642	350.06
375.868	342.06
376.094	341.06
376.319	333.06
376.545	332.06
376.771	340.06
376.997	341.06
377.222	343.06
377.448	335.06
377.674	344.06
377.899	331.06
378.125	333.06
378.35	326.06
378.576	343.06
378.802	324.06
379.027	328.06
379.253	338.06
379.478	340.06
379.704	344.06
379.929	320.06
380.155	334.06
380.38	351.06
380.606	323.06
380.831	359.06
381.057	342.06
381.282	324.06
381.507	335.06
381.733	345.06
381.958	349.06
382.184	344.06
382.409	336.06
382.634	340.06
382.86	333.06
383.085	356.06
383.31	353.06
383.535	357.06
383.761	368.06
383.986	329.06
384.211	348.06
384.436	356.06
384.662	374.06
384.887	342.06
385.112	340.06
385.337	352.06
385.562	362.06
385.787	345.06
386.013	354.06
386.238	355.06
386.463	365.06
386.688	349.06
386.913	335.06
387.138	349.06
387.363	370.06
387.588	363.06
387.813	363.06
388.038	355.06
388.263	348.06
388.488	355.06
388.713	343.06
388.938	351.06
389.163	366.06
389.387	353.06
389.612	370.06
389.837	340.06
390.062	336.06
390.287	345.06
390.512	354.06
390.736	362.06
390.961	335.06
391.186	350.06
391.411	335.06
391.636	362.06
391.86	357.06
392.085	359.06
392.31	351.06
392.534	374.06
392.759	357.06
392.984	360.06
393.208	337.06
393.433	340.06
393.658	366.06
393.882	356.06
394.107	362.06
394.331	376.06
394.556	348.06
394.78	350.06
395.005	359.06
395.229	340.06
395.454	352.06
395.678	377.06
395.903	367.06
396.127	406.06
396.352	374.06
396.576	356.06
396.801	352.06
397.025	365.06
397.249	392.06
397.474	370.06
397.698	390.06
397.922	396.06
398.147	416.06
398.371	403.06
398.595	375.06
398.82	391.06
399.044	416.06
399.268	400.06
399.492	399.06
399.717	434.06
399.941	445.06
400.165	492.06
400.389	489.06
400.613	453.06
400.837	423.06
401.062	427.06
401.286	421.06
401.51	410.06
401.734	390.06
401.958	392.06
402.182	401.06
402.406	406.06
402.63	432.06
402.854	393.06
403.078	404.06
403.302	407.06
403.526	409.06
403.75	426.06
403.974	419.06
404.198	398.06
404.422	412.06
404.645	403.06
404.869	415.06
405.093	440.06
405.317	471.06
405.541	475.06
405.765	465.06
405.988	435.06
406.212	429.06
406.436	480.06
406.66	484.06
406.883	455.06
407.107	478.06
407.331	498.06
407.555	567.06
407.778	583.06
408.002	517.06
408.226	488.06
408.449	448.06
408.673	450.06
408.896	491.06
409.12	501.06
409.344	499.06
409.567	450.06
409.791	411.06
410.014	422.06
410.238	420.06
410.461	438.06
410.685	413.06
410.908	446.06
411.132	466.06
411.355	525.06
411.578	458.06
411.802	438.06
412.025	411.06
412.249	409.06
412.472	412.06
412.695	439.06
412.919	446.06
413.142	408.06
413.365	410.06
413.589	394.06
413.812	374.06
414.035	408.06
414.258	396.06
414.482	383.06
414.705	394.06
414.928	393.06
415.151	379.06
415.374	398.06
415.597	381.06
415.821	381.06
416.044	398.06
416.267	392.06
416.49	379.06
416.713	401.06
416.936	390.06
417.159	385.06
417.382	388.06
417.605	404.06
417.828	407.06
418.051	445.06
418.274	414.06
418.497	411.06
418.72	411.06
418.943	385.06
419.166	388.06
419.389	398.06
419.611	410.06
419.834	417.06
420.057	413.06
420.28	403.06
420.503	408.06
420.726	417.06
420.948	444.06
421.171	476.06
421.394	490.06
421.617	461.06
421.839	413.06
422.062	441.06
422.285	437.06
422.507	480.06
422.73	562.06
422.953	545.06
423.175	446.06
423.398	457.06
423.621	453.06
423.843	468.06
424.066	483.06
424.288	460.06
424.511	478.06
424.733	519.06
424.956	602.06
425.178	593.06
425.401	571.06
425.623	596.06
425.846	494.06
426.068	479.06
426.291	470.06
426.513	474.06
426.735	473.06
426.958	512.06
427.18	578.06
427.402	681.06
427.625	811.06
427.847	715.06
428.069	578.06
428.292	526.06
428.514	488.06
428.736	456.06
428.958	456.06
429.181	420.06
429.403	417.06
429.625	450.06
429.847	471.06
430.069	523.06
430.292	537.06
430.514	460.06
430.736	442.06
430.958	440.06
431.18	411.06
431.402	401.06
431.624	411.06
431.846	406.06
432.068	394.06
432.29	405.06
432.512	405.06
432.734	430.06
432.956	426.06
433.178	408.06
433.4	420.06
433.622	420.06
433.844	407.06
434.066	398.06
434.287	414.06
434.509	419.06
434.731	415.06
434.953	422.06
435.175	430.06
435.397	480.06
435.618	514.06
435.84	505.06
436.062	599.06
436.284	658.06
436.505	543.06
436.727	488.06
436.949	464.06
437.17	437.06
437.392	439.06
437.614	444.06
437.835	507.06
438.057	579.06
438.278	700.06
438.5	674.06
438.721	728.06
438.943	687.06
439.165	557.06
439.386	513.06
439.608	484.06
439.829	497.06
440.05	503.06
440.272	545.06
440.493	501.06
440.715	480.06
440.936	463.06
441.158	440.06
441.379	459.06
441.6	452.06
441.822	467.06
442.043	511.06
442.264	570.06
442.486	631.06
442.707	550.06
442.928	500.06
443.149	495.06
443.371	519.06
443.592	554.06
443.813	614.06
444.034	697.06
444.255	571.06
444.476	517.06
444.698	487.06
444.919	464.06
445.14	542.06
445.361	516.06
445.582	522.06
445.803	606.06
446.024	656.06
446.245	685.06
446.466	611.06
446.687	528.06
446.908	494.06
447.129	461.06
447.35	448.06
447.571	450.06
447.792	431.06
448.013	426.06
448.234	472.06
448.455	515.06
448.675	608.06
448.896	721.06
449.117	614.06
449.338	578.06
449.559	667.06
449.779	719.06
450	615.06
450.221	514.06
450.442	461.06
450.662	460.06
450.883	456.06
451.104	491.06
451.324	470.06
451.545	425.06
451.766	408.06
451.986	401.06
452.207	416.06
452.428	405.06
452.648	405.06
452.869	392.06
453.089	412.06
453.31	447.06
453.53	413.06
453.751	402.06
453.971	384.06
454.192	449.06
454.412	412.06
454.633	402.06
454.853	392.06
455.073	388.06
455.294	404.06
455.514	469.06
455.734	467.06
455.955	407.06
456.175	381.06
456.395	388.06
456.616	384.06
456.836	364.06
457.056	364.06
457.276	344.06
457.497	387.06
457.717	346.06
457.937	398.06
458.157	367.06
458.377	374.06
458.598	403.06
458.818	465.06
459.038	543.06
459.258	567.06
459.478	452.06
459.698	421.06
459.918	414.06
460.138	387.06
460.358	407.06
460.578	394.06
460.798	392.06
461.018	406.06
461.238	395.06
461.458	406.06
461.678	368.06
461.898	396.06
462.118	379.06
462.338	403.06
462.558	394.06
462.777	407.06
462.997	406.06
463.217	405.06
463.437	407.06
463.657	396.06
463.876	420.06
464.096	399.06
464.316	392.06
464.536	407.06
464.755	439.06
464.975	438.06
465.195	496.06
465.414	568.06
465.634	507.06
465.854	459.06
466.073	420.06
466.293	387.06
466.512	403.06
466.732	382.06
466.951	415.06
467.171	389.06
467.391	407.06
467.61	412.06
467.829	426.06
468.049	396.06
468.268	393.06
468.488	407.06
468.707	379.06
468.927	368.06
469.146	367.06
469.365	372.06
469.585	370.06
469.804	383.06
470.023	400.06
470.243	399.06
470.462	386.06
470.681	424.06
470.901	435.06
471.12	392.06
471.339	412.06
471.558	388.06
471.777	394.06
471.997	393.06
472.216	385.06
472.435	391.06
472.654	391.06
472.873	396.06
473.092	375.06
473.311	409.06
473.53	406.06
473.749	394.06
473.968	471.06
474.187	554.06
474.406	600.06
474.625	457.06
474.844	425.06
475.063	425.06
475.282	420.06
475.501	408.06
475.72	412.06
475.939	401.06
476.158	428.06
476.377	406.06
476.596	428.06
476.814	420.06
477.033	426.06
477.252	442.06
477.471	424.06
477.69	418.06
477.908	442.06
478.127	419.06
478.346	420.06
478.564	449.06
478.783	444.06
479.002	441.06
479.22	455.06
479.439	441.06
479.658	447.06
479.876	463.06
480.095	487.06
480.313	482.06
480.532	492.06
480.751	488.06
480.969	482.06
481.188	502.06
481.406	505.06
481.624	492.06
481.843	454.06
482.061	472.06
482.28	475.06
482.498	475.06
482.717	467.06
482.935	444.06
483.153	438.06
483.372	480.06
483.59	462.06
483.808	446.06
484.027	456.06
484.245	459.06
484.463	475.06
484.681	483.06
484.9	472.06
485.118	482.06
485.336	489.06
485.554	476.06
485.772	468.06
485.99	459.06
486.209	494.06
486.427	479.06
486.645	493.06
486.863	496.06
487.081	523.06
487.299	519.06
487.517	520.06
487.735	506.06
487.953	514.06
488.171	528.06
488.389	521.06
488.607	510.06
488.825	535.06
489.043	509.06
489.261	512.06
489.479	515.06
489.696	522.06
489.914	508.06
490.132	529.06
490.35	523.06
490.568	527.06
490.786	543.06
491.003	545.06
491.221	570.06
491.439	566.06
491.657	549.06
491.874	567.06
492.092	587.06
492.31	596.06
492.527	572.06
492.745	591.06
492.963	584.06
493.18	603.06
493.398	594.06
493.615	596.06
493.833	583.06
494.05	610.06
494.268	629.06
494.485	598.06
494.703	630.06
494.92	620.06
495.138	637.06
495.355	615.06
495.573	601.06
495.79	602.06
496.008	613.06
496.225	617.06
496.442	619.06
496.66	613.06
496.877	594.06
497.094	604.06
497.312	602.06
497.529	629.06
497.746	643.06
497.963	642.06
498.181	638.06
498.398	652.06
498.615	650.06
498.832	670.06
499.049	643.06
499.267	668.06
499.484	696.06
499.701	684.06
499.918	710.06
500.135	718.06
500.352	744.06
500.569	738.06
500.786	747.06
501.003	746.06
501.22	740.06
501.437	730.06
501.654	740.06
501.871	738.06
502.088	695.06
502.305	701.06
502.522	664.06
502.739	651.06
502.956	644.06
503.172	662.06
503.389	645.06
503.606	666.06
503.823	651.06
504.04	636.06
504.256	626.06
504.473	625.06
504.69	606.06
504.907	607.06
505.123	589.06
505.34	615.06
505.557	582.06
505.773	589.06
505.99	601.06
506.207	585.06
506.423	601.06
506.64	584.06
506.856	589.06
507.073	592.06
507.289	569.06
507.506	599.06
507.722	611.06
507.939	638.06
508.155	626.06
508.372	590.06
508.588	564.06
508.805	558.06
509.021	573.06
509.238	592.06
509.454	580.06
509.67	592.06
509.887	566.06
510.103	583.06
510.319	615.06
510.536	711.06
510.752	1305.06
510.968	1022.06
511.184	617.06
511.401	599.06
511.617	558.06
511.833	563.06
512.049	554.06
512.265	551.06
512.481	562.06
512.698	530.06
512.914	567.06
513.13	550.06
513.346	539.06
513.562	541.06
513.778	548.06
513.994	570.06
514.21	580.06
514.426	624.06
514.642	658.06
514.858	710.06
515.074	749.06
515.29	903.06
515.506	1436.06
515.721	1176.06
515.937	732.06
516.153	657.06
516.369	610.06
516.585	592.06
516.801	578.06
517.016	559.06
517.232	550.06
517.448	555.06
517.664	580.06
517.879	561.06
518.095	553.06
518.311	553.06
518.527	553.06
518.742	551.06
518.958	550.06
519.173	553.06
519.389	540.06
519.605	554.06
519.82	555.06
520.036	571.06
520.251	600.06
520.467	620.06
520.682	627.06
520.898	645.06
521.113	668.06
521.329	752.06
521.544	813.06
521.76	1105.06
521.975	1948.06
522.19	1964.06
522.406	988.06
522.621	676.06
522.836	604.06
523.052	577.06
523.267	562.06
523.482	547.06
523.698	517.06
523.913	530.06
524.128	506.06
524.343	505.06
524.559	512.06
524.774	477.06
524.989	472.06
525.204	506.06
525.419	465.06
525.634	467.06
525.849	479.06
526.064	462.06
526.28	448.06
526.495	464.06
526.71	453.06
526.925	430.06
527.14	444.06
527.355	434.06
527.57	425.06
527.785	418.06
527.999	424.06
528.214	437.06
528.429	438.06
528.644	439.06
528.859	442.06
529.074	442.06
529.289	476.06
529.503	573.06
529.718	536.06
529.933	489.06
530.148	485.06
530.363	421.06
530.577	448.06
530.792	444.06
531.007	425.06
531.221	436.06
531.436	423.06
531.651	418.06
531.865	407.06
532.08	416.06
532.295	407.06
532.509	423.06
532.724	419.06
532.938	417.06
533.153	415.06
533.367	416.06
533.582	425.06
533.796	408.06
534.011	417.06
534.225	404.06
534.44	402.06
534.654	407.06
534.868	412.06
535.083	413.06
535.297	404.06
535.511	408.06
535.726	423.06
535.94	437.06
536.154	419.06
536.369	418.06
536.583	389.06
536.797	410.06
537.011	416.06
537.225	402.06
537.44	408.06
537.654	390.06
537.868	386.06
538.082	410.06
538.296	403.06
538.51	408.06
538.724	398.06
538.938	388.06
539.153	397.06
539.367	411.06
539.581	426.06
539.795	408.06
540.009	400.06
540.222	399.06
540.436	405.06
540.65	392.06
540.864	404.06
541.078	405.06
541.292	429.06
541.506	395.06
541.72	407.06
541.934	379.06
542.147	398.06
542.361	395.06
542.575	385.06
542.789	402.06
543.002	396.06
543.216	393.06
543.43	390.06
543.644	408.06
543.857	394.06
544.071	408.06
544.285	406.06
544.498	395.06
544.712	412.06
544.925	388.06
545.139	373.06
545.352	390.06
545.566	381.06
545.779	394.06
545.993	415.06
546.206	383.06
546.42	376.06
546.633	378.06
546.847	381.06
547.06	374.06
547.274	372.06
547.487	360.06
547.7	364.06
547.914	370.06
548.127	367.06
548.34	374.06
548.554	367.06
548.767	358.06
548.98	362.06
549.193	352.06
549.407	351.06
549.62	388.06
549.833	380.06
550.046	366.06
550.259	373.06
550.473	352.06
550.686	374.06
550.899	363.06
551.112	342.06
551.325	375.06
551.538	364.06
551.751	361.06
551.964	360.06
552.177	365.06
552.39	354.06
552.603	355.06
552.816	369.06
553.029	356.06
553.242	344.06
553.455	376.06
553.667	375.06
553.88	409.06
554.093	374.06
554.306	353.06
554.519	377.06
554.732	367.06
554.944	353.06
555.157	359.06
555.37	338.06
555.583	346.06
555.795	358.06
556.008	326.06
556.221	330.06
556.433	334.06
556.646	349.06
556.859	329.06
557.071	324.06
557.284	330.06
557.496	345.06
557.709	346.06
557.921	310.06
558.134	334.06
558.346	327.06
558.559	332.06
558.771	319.06
558.984	323.06
559.196	322.06
559.409	352.06
559.621	324.06
559.833	320.06
560.046	333.06
560.258	330.06
560.47	333.06
560.683	324.06
560.895	327.06
561.107	318.06
561.32	308.06
561.532	346.06
561.744	340.06
561.956	326.06
562.168	317.06
562.381	337.06
562.593	332.06
562.805	335.06
563.017	325.06
563.229	340.06
563.441	339.06
563.653	334.06
563.865	340.06
564.077	342.06
564.289	333.06
564.501	336.06
564.713	348.06
564.925	346.06
565.137	354.06
565.349	345.06
565.561	340.06
565.773	348.06
565.985	334.06
566.197	358.06
566.408	341.06
566.62	382.06
566.832	378.06
567.044	364.06
567.255	382.06
567.467	361.06
567.679	369.06
567.891	385.06
568.102	361.06
568.314	374.06
568.526	358.06
568.737	336.06
568.949	358.06
569.161	343.06
569.372	331.06
569.584	323.06
569.795	336.06
570.007	339.06
570.218	398.06
570.43	379.06
570.641	333.06
570.853	310.06
571.064	322.06
571.276	305.06
571.487	298.06
571.698	313.06
571.91	295.06
572.121	303.06
572.333	288.06
572.544	302.06
572.755	307.06
572.966	296.06
573.178	308.06
573.389	297.06
573.6	288.06
573.811	304.06
574.023	286.06
574.234	272.06
574.445	282.06
574.656	276.06
574.867	292.06
575.078	303.06
575.289	283.06
575.501	286.06
575.712	276.06
575.923	288.06
576.134	289.06
576.345	286.06
576.556	281.06
576.767	278.06
576.978	286.06
577.188	284.06
577.399	288.06
577.61	294.06
577.821	277.06
578.032	294.06
578.243	344.06
578.454	619.06
578.665	447.06
578.875	314.06
579.086	300.06
579.297	278.06
579.508	278.06
579.718	267.06
579.929	279.06
580.14	270.06
580.35	265.06
580.561	289.06
580.772	280.06
580.982	279.06
581.193	272.06
581.403	277.06
581.614	270.06
581.825	269.06
582.035	258.06
582.246	270.06
582.456	284.06
582.667	272.06
582.877	245.06
583.087	263.06
583.298	266.06
583.508	261.06
583.719	250.06
583.929	274.06
584.139	247.06
584.35	262.06
584.56	264.06
584.77	283.06
584.981	274.06
585.191	266.06
585.401	258.06
585.611	247.06
585.821	264.06
586.032	261.06
586.242	250.06
586.452	264.06
586.662	258.06
586.872	253.06
587.082	256.06
587.292	227.06
587.502	245.06
587.713	245.06
587.923	265.06
588.133	253.06
588.343	238.06
588.553	271.06
588.762	258.06
588.972	270.06
589.182	294.06
589.392	289.06
589.602	252.06
589.812	281.06
590.022	255.06
590.232	249.06
590.441	247.06
590.651	239.06
590.861	253.06
591.071	253.06
591.281	235.06
591.49	258.06
591.7	248.06
591.91	261.06
592.119	251.06
592.329	246.06
592.539	270.06
592.748	238.06
592.958	255.06
593.167	268.06
593.377	256.06
593.587	280.06
593.796	264.06
594.006	248.06
594.215	259.06
594.424	258.06
594.634	259.06
594.843	260.06
595.053	245.06
595.262	231.06
595.472	228.06
595.681	238.06
595.89	243.06
596.1	249.06
596.309	260.06
596.518	242.06
596.727	243.06
596.937	234.06
597.146	256.06
597.355	246.06
597.564	240.06
597.774	236.06
597.983	242.06
598.192	235.06
598.401	235.06
598.61	239.06
598.819	226.06
599.028	236.06
599.237	247.06
599.446	242.06
599.655	221.06
599.864	223.06
600.073	229.06
600.282	224.06
600.491	218.06
600.7	243.06
600.909	227.06
601.118	216.06
601.327	196.06
601.536	205.06
601.745	220.06
601.953	239.06
602.162	224.06
602.371	227.06
602.58	230.06
602.789	220.06
602.997	216.06
603.206	219.06
603.415	217.06
603.623	234.06
603.832	212.06
604.041	219.06
604.249	216.06
604.458	214.06
604.666	215.06
604.875	206.06
605.084	219.06
605.292	218.06
605.501	220.06
605.709	203.06
605.918	218.06
606.126	195.06
606.334	211.06
606.543	209.06
606.751	213.06
606.96	187.06
607.168	208.06
607.376	217.06
607.585	217.06
607.793	224.06
608.001	228.06
608.21	208.06
608.418	210.06
608.626	226.06
608.834	211.06
609.043	207.06
609.251	211.06
609.459	206.06
609.667	204.06
609.875	213.06
610.083	214.06
610.291	209.06
610.499	212.06
610.707	205.06
610.916	213.06
611.124	220.06
611.332	220.06
611.54	208.06
611.748	229.06
611.955	216.06
612.163	213.06
612.371	227.06
612.579	197.06
612.787	218.06
612.995	209.06
613.203	216.06
613.411	215.06
613.618	202.06
613.826	219.06
614.034	200.06
614.242	202.06
614.449	219.06
614.657	207.06
614.865	197.06
615.072	203.06
615.28	196.06
615.488	208.06
615.695	209.06
615.903	185.06
616.111	207.06
616.318	204.06
616.526	213.06
616.733	219.06
616.941	213.06
617.148	198.06
617.356	206.06
617.563	190.06
617.771	186.06
617.978	208.06
618.185	202.06
618.393	206.06
618.6	183.06
618.807	198.06
619.015	198.06
619.222	201.06
619.429	199.06
619.637	209.06
619.844	204.06
620.051	219.06
620.258	183.06
620.466	199.06
620.673	188.06
620.88	196.06
621.087	193.06
621.294	192.06
621.501	196.06
621.708	194.06
621.915	199.06
622.122	206.06
622.329	195.06
622.536	202.06
622.743	190.06
622.95	205.06
623.157	190.06
623.364	193.06
623.571	195.06
623.778	203.06
623.985	207.06
624.192	192.06
624.399	195.06
624.606	190.06
624.812	186.06
625.019	188.06
625.226	183.06
625.433	191.06
625.639	197.06
625.846	184.06
626.053	191.06
626.259	185.06
626.466	186.06
626.673	184.06
626.879	188.06
627.086	180.06
627.293	179.06
627.499	167.06
627.706	198.06
627.912	171.06
628.119	183.06
628.325	184.06
628.532	182.06
628.738	175.06
628.945	184.06
629.151	182.06
629.357	176.06
629.564	181.06
629.77	186.06
629.976	178.06
630.183	171.06
630.389	194.06
630.595	168.06
630.802	174.06
631.008	169.06
631.214	186.06
631.42	183.06
631.627	178.06
631.833	160.06
632.039	163.06
632.245	161.06
632.451	181.06
632.657	179.06
632.863	186.06
633.069	173.06
633.275	163.06
633.481	162.06
633.688	170.06
633.893	186.06
634.099	170.06
634.305	162.06
634.511	186.06
634.717	169.06
634.923	155.06
635.129	178.06
635.335	164.06
635.541	146.06
635.747	157.06
635.952	168.06
636.158	161.06
636.364	169.06
636.57	176.06
636.775	169.06
636.981	154.06
637.187	159.06
637.392	180.06
637.598	167.06
637.804	158.06
638.009	156.06
638.215	175.06
638.421	153.06
638.626	165.06
638.832	153.06
639.037	154.06
639.243	178.06
639.448	161.06
639.654	160.06
639.859	175.06
640.065	151.06
640.27	153.06
640.475	156.06
640.681	165.06
640.886	170.06
641.091	156.06
641.297	152.06
641.502	160.06
641.707	172.06
641.913	158.06
642.118	136.06
642.323	160.06
642.528	156.06
642.733	156.06
642.939	148.06
643.144	150.06
643.349	154.06
643.554	150.06
643.759	146.06
643.964	170.06
644.169	152.06
644.374	166.06
644.579	166.06
644.784	150.06
644.989	150.06
645.194	153.06
645.399	159.06
645.604	150.06
645.809	161.06
646.014	152.06
646.219	151.06
646.423	155.06
646.628	130.06
646.833	134.06
647.038	138.06
647.243	140.06
647.447	155.06
647.652	144.06
647.857	134.06
648.062	149.06
648.266	152.06
648.471	160.06
648.676	149.06
648.88	143.06
649.085	157.06
649.289	157.06
649.494	165.06
649.698	174.06
649.903	162.06
650.107	171.06
650.312	160.06
650.516	134.06
650.721	150.06
650.925	129.06
651.13	141.06
651.334	143.06
651.539	137.06
651.743	149.06
651.947	133.06
652.152	142.06
652.356	119.06
652.56	141.06
652.764	134.06
652.969	138.06
653.173	132.06
653.377	125.06
653.581	147.06
653.785	138.06
653.99	129.06
654.194	126.06
654.398	130.06
654.602	138.06
654.806	136.06
655.01	135.06
655.214	126.06
655.418	124.06
655.622	132.06
655.826	116.06
656.03	124.06
656.234	120.06
656.438	115.06
656.642	124.06
656.846	134.06
657.049	123.06
657.253	120.06
657.457	120.06
657.661	110.06
657.865	111.06
658.068	106.06
658.272	106.06
658.476	126.06
658.68	105.06
658.883	102.06
659.087	95.06
659.291	104.06
659.494	99.06
659.698	91.06
659.901	99.06
660.105	99.06
660.309	89.06
660.512	94.06
660.716	106.06
660.919	84.06
661.123	92.06
661.326	96.06
661.53	87.06
661.733	88.06
661.936	91.06
662.14	91.06
662.343	86.06
662.546	91.06
662.75	87.06
662.953	88.06
663.156	83.06
663.36	88.06
663.563	78.06
663.766	86.06
663.969	86.06
664.173	78.06
664.376	71.06
664.579	79.06
664.782	78.06
664.985	82.06
665.188	90.06
665.391	85.06
665.594	87.06
665.797	82.06
666	84.06
666.203	83.06
666.406	81.06
666.609	90.06
666.812	83.06
667.015	83.06
667.218	87.06
667.421	98.06
667.624	85.06
667.827	78.06
668.03	88.06
668.232	77.06
668.435	78.06
668.638	81.06
668.841	82.06
669.043	94.06
669.246	84.06
669.449	83.06
669.651	99.06
669.854	78.06
670.057	70.06
670.259	77.06
670.462	88.06
670.665	85.06
670.867	76.06
671.07	89.06
671.272	89.06
671.475	91.06
671.677	88.06
671.88	91.06
672.082	90.06
672.284	82.06
672.487	82.06
672.689	84.06
672.892	75.06
