Data from 1986.PennyLincolnUp.Lamp.En5.5.200Scan.071819.P2_HRD10591_17-09-48-974.txt Node
Date: Thu Jul 18 17:09:48 EDT 2019
User: cochatt
Spectrometer: HR+D1059
Trigger mode: 1
Integration Time (sec): 1.000000E-1
Scans to average: 1
Electric dark correction enabled: true
Nonlinearity correction enabled: false
Boxcar width: 0
XAxis mode: Wavelengths
Number of Pixels in Spectrum: 2048
>>>>>Begin Spectral Data<<<<<
223.165	-7.62
223.4	-7.62
223.635	-7.62
223.869	-12.62
224.104	-7.62
224.338	-23.62
224.573	-22.62
224.808	-22.62
225.042	-1.62
225.277	-7.62
225.511	9.38
225.746	6.38
225.98	-4.62
226.215	8.38
226.449	8.38
226.683	11.38
226.918	26.38
227.152	40.38
227.387	27.38
227.621	36.38
227.856	48.38
228.09	43.38
228.324	40.38
228.559	70.38
228.793	64.38
229.027	83.38
229.262	94.38
229.496	106.38
229.73	121.38
229.964	141.38
230.199	123.38
230.433	99.38
230.667	109.38
230.901	104.38
231.136	118.38
231.37	106.38
231.604	108.38
231.838	106.38
232.072	121.38
232.306	120.38
232.541	105.38
232.775	104.38
233.009	96.38
233.243	106.38
233.477	109.38
233.711	112.38
233.945	114.38
234.179	115.38
234.413	106.38
234.647	122.38
234.881	118.38
235.115	110.38
235.349	125.38
235.583	109.38
235.817	115.38
236.051	131.38
236.285	126.38
236.519	116.38
236.753	126.38
236.987	145.38
237.221	171.38
237.455	238.38
237.689	188.38
237.922	138.38
238.156	130.38
238.39	116.38
238.624	132.38
238.858	122.38
239.091	114.38
239.325	126.38
239.559	120.38
239.793	106.38
240.027	140.38
240.26	134.38
240.494	162.38
240.728	145.38
240.961	144.38
241.195	145.38
241.429	135.38
241.662	142.38
241.896	122.38
242.13	129.38
242.363	123.38
242.597	127.38
242.83	135.38
243.064	136.38
243.298	140.38
243.531	128.38
243.765	133.38
243.998	143.38
244.232	138.38
244.465	135.38
244.699	134.38
244.932	128.38
245.166	140.38
245.399	136.38
245.633	132.38
245.866	134.38
246.099	138.38
246.333	150.38
246.566	146.38
246.8	155.38
247.033	158.38
247.266	148.38
247.5	149.38
247.733	147.38
247.966	161.38
248.2	176.38
248.433	164.38
248.666	147.38
248.899	179.38
249.133	186.38
249.366	186.38
249.599	188.38
249.832	179.38
250.066	189.38
250.299	163.38
250.532	181.38
250.765	189.38
250.998	205.38
251.231	218.38
251.465	201.38
251.698	188.38
251.931	180.38
252.164	203.38
252.397	212.38
252.63	201.38
252.863	207.38
253.096	191.38
253.329	221.38
253.562	235.38
253.795	214.38
254.028	218.38
254.261	201.38
254.494	234.38
254.727	237.38
254.96	271.38
255.193	271.38
255.426	236.38
255.659	226.38
255.892	207.38
256.124	208.38
256.357	206.38
256.59	207.38
256.823	215.38
257.056	204.38
257.289	205.38
257.521	216.38
257.754	208.38
257.987	205.38
258.22	209.38
258.452	195.38
258.685	194.38
258.918	198.38
259.151	214.38
259.383	221.38
259.616	214.38
259.849	211.38
260.081	224.38
260.314	229.38
260.547	230.38
260.779	240.38
261.012	226.38
261.244	209.38
261.477	220.38
261.71	218.38
261.942	232.38
262.175	223.38
262.407	212.38
262.64	204.38
262.872	210.38
263.105	193.38
263.337	208.38
263.57	205.38
263.802	196.38
264.035	196.38
264.267	191.38
264.499	217.38
264.732	204.38
264.964	209.38
265.197	211.38
265.429	215.38
265.661	204.38
265.894	192.38
266.126	205.38
266.358	199.38
266.591	202.38
266.823	206.38
267.055	211.38
267.287	201.38
267.52	209.38
267.752	204.38
267.984	205.38
268.216	225.38
268.448	227.38
268.681	224.38
268.913	224.38
269.145	244.38
269.377	258.38
269.609	243.38
269.841	246.38
270.073	251.38
270.306	260.38
270.538	293.38
270.77	299.38
271.002	286.38
271.234	287.38
271.466	285.38
271.698	284.38
271.93	301.38
272.162	294.38
272.394	308.38
272.626	299.38
272.858	269.38
273.09	263.38
273.322	244.38
273.553	250.38
273.785	242.38
274.017	270.38
274.249	240.38
274.481	240.38
274.713	241.38
274.945	247.38
275.176	254.38
275.408	241.38
275.64	235.38
275.872	244.38
276.104	246.38
276.335	225.38
276.567	254.38
276.799	266.38
277.031	283.38
277.262	282.38
277.494	294.38
277.726	270.38
277.957	282.38
278.189	263.38
278.421	252.38
278.652	255.38
278.884	237.38
279.115	259.38
279.347	244.38
279.579	245.38
279.81	241.38
280.042	251.38
280.273	233.38
280.505	244.38
280.736	237.38
280.968	240.38
281.199	230.38
281.431	236.38
281.662	234.38
281.894	243.38
282.125	245.38
282.356	259.38
282.588	280.38
282.819	287.38
283.051	247.38
283.282	251.38
283.513	245.38
283.745	237.38
283.976	244.38
284.207	237.38
284.439	247.38
284.67	229.38
284.901	260.38
285.132	241.38
285.364	240.38
285.595	252.38
285.826	259.38
286.057	252.38
286.288	252.38
286.52	232.38
286.751	250.38
286.982	253.38
287.213	258.38
287.444	254.38
287.675	263.38
287.906	254.38
288.138	276.38
288.369	268.38
288.6	252.38
288.831	267.38
289.062	279.38
289.293	250.38
289.524	272.38
289.755	264.38
289.986	255.38
290.217	273.38
290.448	246.38
290.679	239.38
290.91	244.38
291.141	242.38
291.371	244.38
291.602	233.38
291.833	250.38
292.064	249.38
292.295	265.38
292.526	261.38
292.757	245.38
292.987	246.38
293.218	241.38
293.449	262.38
293.68	249.38
293.91	241.38
294.141	242.38
294.372	235.38
294.603	249.38
294.833	250.38
295.064	244.38
295.295	254.38
295.525	259.38
295.756	254.38
295.987	262.38
296.217	288.38
296.448	282.38
296.679	276.38
296.909	258.38
297.14	251.38
297.37	263.38
297.601	253.38
297.831	269.38
298.062	250.38
298.292	262.38
298.523	268.38
298.753	285.38
298.984	273.38
299.214	266.38
299.445	259.38
299.675	266.38
299.905	278.38
300.136	276.38
300.366	280.38
300.597	274.38
300.827	276.38
301.057	278.38
301.288	307.38
301.518	298.38
301.748	272.38
301.979	293.38
302.209	292.38
302.439	269.38
302.669	278.38
302.9	285.38
303.13	285.38
303.36	292.38
303.59	289.38
303.82	287.38
304.051	293.38
304.281	297.38
304.511	291.38
304.741	281.38
304.971	278.38
305.201	276.38
305.431	284.38
305.661	283.38
305.891	270.38
306.121	282.38
306.352	281.38
306.582	281.38
306.812	282.38
307.042	274.38
307.272	285.38
307.502	285.38
307.731	292.38
307.961	287.38
308.191	286.38
308.421	277.38
308.651	310.38
308.881	277.38
309.111	296.38
309.341	297.38
309.571	297.38
309.8	315.38
310.03	341.38
310.26	315.38
310.49	330.38
310.72	334.38
310.949	358.38
311.179	344.38
311.409	334.38
311.639	329.38
311.868	327.38
312.098	355.38
312.328	359.38
312.557	361.38
312.787	349.38
313.017	353.38
313.246	338.38
313.476	320.38
313.706	324.38
313.935	334.38
314.165	329.38
314.394	347.38
314.624	349.38
314.853	324.38
315.083	313.38
315.312	333.38
315.542	336.38
315.771	304.38
316.001	312.38
316.23	332.38
316.46	333.38
316.689	331.38
316.919	339.38
317.148	346.38
317.377	354.38
317.607	345.38
317.836	309.38
318.065	320.38
318.295	346.38
318.524	317.38
318.753	313.38
318.983	315.38
319.212	309.38
319.441	336.38
319.67	342.38
319.9	328.38
320.129	328.38
320.358	343.38
320.587	331.38
320.816	347.38
321.046	371.38
321.275	385.38
321.504	378.38
321.733	362.38
321.962	365.38
322.191	366.38
322.42	380.38
322.649	409.38
322.878	393.38
323.108	418.38
323.337	439.38
323.566	461.38
323.795	483.38
324.024	519.38
324.253	640.38
324.482	928.38
324.71	1405.38
324.939	2021.38
325.168	1812.38
325.397	952.38
325.626	618.38
325.855	524.38
326.084	484.38
326.313	461.38
326.542	443.38
326.77	524.38
326.999	590.38
327.228	800.38
327.457	1228.38
327.686	1486.38
327.914	1037.38
328.143	654.38
328.372	577.38
328.6	522.38
328.829	517.38
329.058	526.38
329.287	500.38
329.515	490.38
329.744	466.38
329.972	447.38
330.201	448.38
330.43	460.38
330.658	520.38
330.887	548.38
331.115	529.38
331.344	447.38
331.572	437.38
331.801	440.38
332.03	440.38
332.258	399.38
332.486	384.38
332.715	368.38
332.943	381.38
333.172	391.38
333.4	377.38
333.629	383.38
333.857	386.38
334.085	377.38
334.314	369.38
334.542	376.38
334.771	370.38
334.999	368.38
335.227	357.38
335.455	359.38
335.684	352.38
335.912	373.38
336.14	381.38
336.369	362.38
336.597	396.38
336.825	390.38
337.053	381.38
337.281	365.38
337.51	358.38
337.738	383.38
337.966	374.38
338.194	376.38
338.422	363.38
338.65	370.38
338.878	366.38
339.106	366.38
339.334	368.38
339.562	386.38
339.79	362.38
340.018	347.38
340.246	352.38
340.474	369.38
340.702	364.38
340.93	344.38
341.158	360.38
341.386	352.38
341.614	398.38
341.842	379.38
342.07	366.38
342.298	374.38
342.526	350.38
342.754	352.38
342.981	337.38
343.209	360.38
343.437	358.38
343.665	324.38
343.893	358.38
344.12	353.38
344.348	361.38
344.576	366.38
344.804	361.38
345.031	363.38
345.259	378.38
345.487	382.38
345.714	360.38
345.942	371.38
346.17	350.38
346.397	358.38
346.625	344.38
346.853	349.38
347.08	348.38
347.308	370.38
347.535	366.38
347.763	368.38
347.99	379.38
348.218	365.38
348.445	362.38
348.673	359.38
348.9	350.38
349.128	358.38
349.355	343.38
349.583	333.38
349.81	345.38
350.037	342.38
350.265	348.38
350.492	335.38
350.72	338.38
350.947	339.38
351.174	374.38
351.402	369.38
351.629	375.38
351.856	372.38
352.083	379.38
352.311	377.38
352.538	376.38
352.765	371.38
352.992	372.38
353.22	346.38
353.447	352.38
353.674	338.38
353.901	338.38
354.128	319.38
354.355	340.38
354.583	341.38
354.81	338.38
355.037	330.38
355.264	341.38
355.491	342.38
355.718	308.38
355.945	314.38
356.172	312.38
356.399	317.38
356.626	319.38
356.853	311.38
357.08	344.38
357.307	325.38
357.534	316.38
357.761	333.38
357.988	328.38
358.215	316.38
358.441	321.38
358.668	325.38
358.895	312.38
359.122	338.38
359.349	324.38
359.576	344.38
359.802	361.38
360.029	401.38
360.256	393.38
360.483	387.38
360.709	361.38
360.936	363.38
361.163	368.38
361.39	359.38
361.616	360.38
361.843	347.38
362.07	372.38
362.296	361.38
362.523	353.38
362.749	334.38
362.976	353.38
363.203	345.38
363.429	331.38
363.656	328.38
363.882	334.38
364.109	338.38
364.335	346.38
364.562	339.38
364.788	326.38
365.015	347.38
365.241	323.38
365.468	334.38
365.694	328.38
365.92	348.38
366.147	334.38
366.373	338.38
366.599	341.38
366.826	333.38
367.052	343.38
367.278	335.38
367.505	345.38
367.731	327.38
367.957	337.38
368.184	329.38
368.41	344.38
368.636	350.38
368.862	361.38
369.089	327.38
369.315	327.38
369.541	318.38
369.767	331.38
369.993	323.38
370.219	324.38
370.445	308.38
370.672	322.38
370.898	312.38
371.124	331.38
371.35	317.38
371.576	326.38
371.802	337.38
372.028	338.38
372.254	334.38
372.48	333.38
372.706	337.38
372.932	329.38
373.158	348.38
373.384	341.38
373.61	338.38
373.835	347.38
374.061	330.38
374.287	334.38
374.513	338.38
374.739	318.38
374.965	352.38
375.191	334.38
375.416	358.38
375.642	334.38
375.868	328.38
376.094	342.38
376.319	342.38
376.545	338.38
376.771	329.38
376.997	327.38
377.222	334.38
377.448	328.38
377.674	316.38
377.899	333.38
378.125	338.38
378.35	329.38
378.576	318.38
378.802	316.38
379.027	313.38
379.253	325.38
379.478	321.38
379.704	332.38
379.929	342.38
380.155	325.38
380.38	319.38
380.606	332.38
380.831	324.38
381.057	341.38
381.282	331.38
381.507	346.38
381.733	327.38
381.958	320.38
382.184	328.38
382.409	330.38
382.634	348.38
382.86	339.38
383.085	327.38
383.31	342.38
383.535	339.38
383.761	341.38
383.986	329.38
384.211	340.38
384.436	336.38
384.662	338.38
384.887	326.38
385.112	355.38
385.337	343.38
385.562	344.38
385.787	346.38
386.013	373.38
386.238	360.38
386.463	338.38
386.688	376.38
386.913	359.38
387.138	339.38
387.363	332.38
387.588	346.38
387.813	352.38
388.038	332.38
388.263	345.38
388.488	341.38
388.713	349.38
388.938	355.38
389.163	332.38
389.387	363.38
389.612	328.38
389.837	336.38
390.062	334.38
390.287	348.38
390.512	349.38
390.736	354.38
390.961	341.38
391.186	341.38
391.411	351.38
391.636	361.38
391.86	340.38
392.085	347.38
392.31	337.38
392.534	349.38
392.759	353.38
392.984	354.38
393.208	339.38
393.433	372.38
393.658	352.38
393.882	321.38
394.107	345.38
394.331	325.38
394.556	339.38
394.78	340.38
395.005	349.38
395.229	361.38
395.454	335.38
395.678	366.38
395.903	362.38
396.127	376.38
396.352	378.38
396.576	363.38
396.801	353.38
397.025	348.38
397.249	374.38
397.474	366.38
397.698	351.38
397.922	370.38
398.147	402.38
398.371	402.38
398.595	394.38
398.82	373.38
399.044	380.38
399.268	394.38
399.492	386.38
399.717	416.38
399.941	435.38
400.165	455.38
400.389	480.38
400.613	448.38
400.837	411.38
401.062	396.38
401.286	387.38
401.51	393.38
401.734	380.38
401.958	384.38
402.182	404.38
402.406	396.38
402.63	411.38
402.854	392.38
403.078	398.38
403.302	403.38
403.526	402.38
403.75	420.38
403.974	399.38
404.198	384.38
404.422	394.38
404.645	398.38
404.869	413.38
405.093	404.38
405.317	399.38
405.541	462.38
405.765	440.38
405.988	405.38
406.212	432.38
406.436	462.38
406.66	460.38
406.883	451.38
407.107	458.38
407.331	489.38
407.555	558.38
407.778	549.38
408.002	513.38
408.226	459.38
408.449	448.38
408.673	484.38
408.896	469.38
409.12	523.38
409.344	491.38
409.567	427.38
409.791	418.38
410.014	412.38
410.238	405.38
410.461	418.38
410.685	385.38
410.908	422.38
411.132	465.38
411.355	475.38
411.578	466.38
411.802	420.38
412.025	398.38
412.249	410.38
412.472	409.38
412.695	388.38
412.919	413.38
413.142	402.38
413.365	383.38
413.589	400.38
413.812	381.38
414.035	391.38
414.258	384.38
414.482	376.38
414.705	386.38
414.928	377.38
415.151	377.38
415.374	373.38
415.597	377.38
415.821	383.38
416.044	384.38
416.267	384.38
416.49	426.38
416.713	370.38
416.936	373.38
417.159	378.38
417.382	374.38
417.605	381.38
417.828	402.38
418.051	417.38
418.274	374.38
418.497	388.38
418.72	392.38
418.943	376.38
419.166	394.38
419.389	399.38
419.611	384.38
419.834	398.38
420.057	393.38
420.28	400.38
420.503	402.38
420.726	395.38
420.948	396.38
421.171	457.38
421.394	470.38
421.617	426.38
421.839	411.38
422.062	398.38
422.285	418.38
422.507	463.38
422.73	538.38
422.953	545.38
423.175	461.38
423.398	435.38
423.621	427.38
423.843	470.38
424.066	448.38
424.288	449.38
424.511	470.38
424.733	524.38
424.956	575.38
425.178	560.38
425.401	565.38
425.623	577.38
425.846	493.38
426.068	447.38
426.291	443.38
426.513	457.38
426.735	464.38
426.958	494.38
427.18	578.38
427.402	668.38
427.625	738.38
427.847	642.38
428.069	570.38
428.292	505.38
428.514	464.38
428.736	440.38
428.958	436.38
429.181	425.38
429.403	417.38
429.625	426.38
429.847	445.38
430.069	498.38
430.292	520.38
430.514	431.38
430.736	427.38
430.958	414.38
431.18	402.38
431.402	378.38
431.624	379.38
431.846	404.38
432.068	378.38
432.29	394.38
432.512	408.38
432.734	380.38
432.956	385.38
433.178	399.38
433.4	411.38
433.622	393.38
433.844	383.38
434.066	380.38
434.287	388.38
434.509	397.38
434.731	388.38
434.953	397.38
435.175	405.38
435.397	440.38
435.618	464.38
435.84	492.38
436.062	584.38
436.284	637.38
436.505	540.38
436.727	464.38
436.949	442.38
437.17	437.38
437.392	426.38
437.614	441.38
437.835	479.38
438.057	546.38
438.278	648.38
438.5	654.38
438.721	706.38
438.943	646.38
439.165	537.38
439.386	502.38
439.608	474.38
439.829	469.38
440.05	489.38
440.272	538.38
440.493	501.38
440.715	443.38
440.936	442.38
441.158	416.38
441.379	435.38
441.6	436.38
441.822	462.38
442.043	484.38
442.264	580.38
442.486	605.38
442.707	536.38
442.928	500.38
443.149	476.38
443.371	514.38
443.592	530.38
443.813	601.38
444.034	669.38
444.255	561.38
444.476	477.38
444.698	450.38
444.919	444.38
445.14	565.38
445.361	502.38
445.582	469.38
445.803	558.38
446.024	647.38
446.245	661.38
446.466	588.38
446.687	504.38
446.908	460.38
447.129	453.38
447.35	428.38
447.571	434.38
447.792	424.38
448.013	436.38
448.234	442.38
448.455	522.38
448.675	595.38
448.896	677.38
449.117	587.38
449.338	550.38
449.559	645.38
449.779	714.38
450	593.38
450.221	472.38
450.442	456.38
450.662	440.38
450.883	427.38
451.104	442.38
451.324	421.38
451.545	421.38
451.766	409.38
451.986	391.38
452.207	380.38
452.428	362.38
452.648	377.38
452.869	389.38
453.089	395.38
453.31	387.38
453.53	380.38
453.751	395.38
453.971	390.38
454.192	412.38
454.412	404.38
454.633	376.38
454.853	377.38
455.073	378.38
455.294	394.38
455.514	453.38
455.734	461.38
455.955	383.38
456.175	363.38
456.395	349.38
456.616	348.38
456.836	376.38
457.056	350.38
457.276	332.38
457.497	369.38
457.717	364.38
457.937	366.38
458.157	356.38
458.377	389.38
458.598	390.38
458.818	416.38
459.038	514.38
459.258	538.38
459.478	466.38
459.698	388.38
459.918	388.38
460.138	385.38
460.358	387.38
460.578	361.38
460.798	384.38
461.018	359.38
461.238	380.38
461.458	387.38
461.678	360.38
461.898	394.38
462.118	373.38
462.338	395.38
462.558	388.38
462.777	402.38
462.997	407.38
463.217	400.38
463.437	407.38
463.657	410.38
463.876	393.38
464.096	401.38
464.316	407.38
464.536	413.38
464.755	414.38
464.975	389.38
465.195	439.38
465.414	544.38
465.634	459.38
465.854	424.38
466.073	409.38
466.293	404.38
466.512	365.38
466.732	364.38
466.951	374.38
467.171	338.38
467.391	393.38
467.61	393.38
467.829	393.38
468.049	385.38
468.268	371.38
468.488	372.38
468.707	372.38
468.927	352.38
469.146	348.38
469.365	382.38
469.585	384.38
469.804	376.38
470.023	378.38
470.243	392.38
470.462	396.38
470.681	412.38
470.901	381.38
471.12	400.38
471.339	373.38
471.558	385.38
471.777	378.38
471.997	378.38
472.216	374.38
472.435	385.38
472.654	381.38
472.873	366.38
473.092	362.38
473.311	381.38
473.53	397.38
473.749	416.38
473.968	426.38
474.187	502.38
474.406	530.38
474.625	453.38
474.844	410.38
475.063	388.38
475.282	398.38
475.501	393.38
475.72	394.38
475.939	392.38
476.158	400.38
476.377	385.38
476.596	400.38
476.814	412.38
477.033	411.38
477.252	410.38
477.471	418.38
477.69	403.38
477.908	397.38
478.127	411.38
478.346	396.38
478.564	438.38
478.783	433.38
479.002	419.38
479.22	442.38
479.439	459.38
479.658	449.38
479.876	459.38
480.095	462.38
480.313	471.38
480.532	478.38
480.751	471.38
480.969	469.38
481.188	472.38
481.406	484.38
481.624	445.38
481.843	444.38
482.061	434.38
482.28	434.38
482.498	440.38
482.717	447.38
482.935	446.38
483.153	411.38
483.372	444.38
483.59	455.38
483.808	455.38
484.027	446.38
484.245	443.38
484.463	446.38
484.681	460.38
484.9	462.38
485.118	460.38
485.336	470.38
485.554	463.38
485.772	481.38
485.99	480.38
486.209	461.38
486.427	478.38
486.645	494.38
486.863	497.38
487.081	473.38
487.299	493.38
487.517	493.38
487.735	503.38
487.953	492.38
488.171	486.38
488.389	504.38
488.607	474.38
488.825	497.38
489.043	477.38
489.261	508.38
489.479	509.38
489.696	510.38
489.914	504.38
490.132	474.38
490.35	506.38
490.568	496.38
490.786	518.38
491.003	516.38
491.221	554.38
491.439	537.38
491.657	536.38
491.874	538.38
492.092	546.38
492.31	559.38
492.527	580.38
492.745	563.38
492.963	584.38
493.18	572.38
493.398	589.38
493.615	598.38
493.833	573.38
494.05	589.38
494.268	549.38
494.485	555.38
494.703	584.38
494.92	567.38
495.138	576.38
495.355	609.38
495.573	574.38
495.79	590.38
496.008	598.38
496.225	578.38
496.442	575.38
496.66	572.38
496.877	577.38
497.094	588.38
497.312	593.38
497.529	590.38
497.746	609.38
497.963	602.38
498.181	634.38
498.398	610.38
498.615	630.38
498.832	630.38
499.049	620.38
499.267	644.38
499.484	668.38
499.701	660.38
499.918	709.38
500.135	702.38
500.352	728.38
500.569	730.38
500.786	745.38
501.003	724.38
501.22	702.38
501.437	679.38
501.654	675.38
501.871	712.38
502.088	744.38
502.305	666.38
502.522	644.38
502.739	640.38
502.956	630.38
503.172	605.38
503.389	602.38
503.606	586.38
503.823	612.38
504.04	577.38
504.256	594.38
504.473	568.38
504.69	597.38
504.907	609.38
505.123	578.38
505.34	601.38
505.557	580.38
505.773	580.38
505.99	569.38
506.207	583.38
506.423	578.38
506.64	580.38
506.856	539.38
507.073	565.38
507.289	538.38
507.506	560.38
507.722	573.38
507.939	586.38
508.155	570.38
508.372	558.38
508.588	550.38
508.805	538.38
509.021	555.38
509.238	552.38
509.454	569.38
509.67	569.38
509.887	557.38
510.103	550.38
510.319	570.38
510.536	642.38
510.752	1140.38
510.968	922.38
511.184	580.38
511.401	548.38
511.617	543.38
511.833	512.38
512.049	511.38
512.265	522.38
512.481	537.38
512.698	500.38
512.914	530.38
513.13	530.38
513.346	520.38
513.562	528.38
513.778	522.38
513.994	516.38
514.21	533.38
514.426	565.38
514.642	604.38
514.858	632.38
515.074	674.38
515.29	817.38
515.506	1284.38
515.721	1035.38
515.937	677.38
516.153	578.38
516.369	553.38
516.585	545.38
516.801	518.38
517.016	544.38
517.232	523.38
517.448	510.38
517.664	524.38
517.879	526.38
518.095	541.38
518.311	529.38
518.527	508.38
518.742	531.38
518.958	521.38
519.173	507.38
519.389	528.38
519.605	523.38
519.82	506.38
520.036	517.38
520.251	553.38
520.467	614.38
520.682	585.38
520.898	603.38
521.113	614.38
521.329	662.38
521.544	770.38
521.76	1016.38
521.975	1718.38
522.19	1660.38
522.406	854.38
522.621	638.38
522.836	576.38
523.052	522.38
523.267	500.38
523.482	507.38
523.698	494.38
523.913	490.38
524.128	488.38
524.343	490.38
524.559	473.38
524.774	473.38
524.989	458.38
525.204	460.38
525.419	465.38
525.634	456.38
525.849	452.38
526.064	442.38
526.28	435.38
526.495	436.38
526.71	433.38
526.925	424.38
527.14	424.38
527.355	418.38
527.57	413.38
527.785	455.38
527.999	426.38
528.214	434.38
528.429	424.38
528.644	428.38
528.859	433.38
529.074	411.38
529.289	444.38
529.503	560.38
529.718	505.38
529.933	455.38
530.148	424.38
530.363	438.38
530.577	424.38
530.792	433.38
531.007	400.38
531.221	382.38
531.436	422.38
531.651	417.38
531.865	414.38
532.08	418.38
532.295	397.38
532.509	393.38
532.724	396.38
532.938	382.38
533.153	385.38
533.367	394.38
533.582	403.38
533.796	408.38
534.011	398.38
534.225	404.38
534.44	413.38
534.654	393.38
534.868	387.38
535.083	374.38
535.297	388.38
535.511	409.38
535.726	420.38
535.94	419.38
536.154	404.38
536.369	405.38
536.583	393.38
536.797	393.38
537.011	371.38
537.225	384.38
537.44	385.38
537.654	379.38
537.868	374.38
538.082	392.38
538.296	393.38
538.51	370.38
538.724	369.38
538.938	372.38
539.153	390.38
539.367	404.38
539.581	401.38
539.795	370.38
540.009	379.38
540.222	391.38
540.436	395.38
540.65	389.38
540.864	409.38
541.078	402.38
541.292	394.38
541.506	386.38
541.72	394.38
541.934	383.38
542.147	387.38
542.361	396.38
542.575	395.38
542.789	365.38
543.002	370.38
543.216	380.38
543.43	406.38
543.644	388.38
543.857	370.38
544.071	384.38
544.285	385.38
544.498	376.38
544.712	373.38
544.925	378.38
545.139	371.38
545.352	358.38
545.566	356.38
545.779	372.38
545.993	352.38
546.206	378.38
546.42	373.38
546.633	360.38
546.847	376.38
547.06	365.38
547.274	367.38
547.487	372.38
547.7	351.38
547.914	346.38
548.127	375.38
548.34	369.38
548.554	369.38
548.767	366.38
548.98	352.38
549.193	349.38
549.407	332.38
549.62	344.38
549.833	350.38
550.046	344.38
550.259	343.38
550.473	368.38
550.686	367.38
550.899	350.38
551.112	356.38
551.325	346.38
551.538	347.38
551.751	349.38
551.964	360.38
552.177	343.38
552.39	357.38
552.603	346.38
552.816	370.38
553.029	372.38
553.242	349.38
553.455	346.38
553.667	372.38
553.88	399.38
554.093	375.38
554.306	354.38
554.519	355.38
554.732	369.38
554.944	358.38
555.157	328.38
555.37	360.38
555.583	325.38
555.795	350.38
556.008	335.38
556.221	336.38
556.433	325.38
556.646	327.38
556.859	342.38
557.071	332.38
557.284	326.38
557.496	316.38
557.709	324.38
557.921	328.38
558.134	329.38
558.346	336.38
558.559	322.38
558.771	316.38
558.984	316.38
559.196	337.38
559.409	337.38
559.621	332.38
559.833	327.38
560.046	312.38
560.258	325.38
560.47	327.38
560.683	322.38
560.895	320.38
561.107	309.38
561.32	344.38
561.532	314.38
561.744	333.38
561.956	334.38
562.168	320.38
562.381	319.38
562.593	324.38
562.805	326.38
563.017	314.38
563.229	327.38
563.441	325.38
563.653	326.38
563.865	337.38
564.077	329.38
564.289	313.38
564.501	311.38
564.713	320.38
564.925	324.38
565.137	353.38
565.349	315.38
565.561	356.38
565.773	349.38
565.985	356.38
566.197	331.38
566.408	367.38
566.62	352.38
566.832	354.38
567.044	337.38
567.255	373.38
567.467	388.38
567.679	358.38
567.891	362.38
568.102	376.38
568.314	363.38
568.526	366.38
568.737	352.38
568.949	337.38
569.161	320.38
569.372	354.38
569.584	339.38
569.795	340.38
570.007	324.38
570.218	354.38
570.43	379.38
570.641	342.38
570.853	298.38
571.064	301.38
571.276	314.38
571.487	282.38
571.698	296.38
571.91	301.38
572.121	299.38
572.333	316.38
572.544	297.38
572.755	285.38
572.966	281.38
573.178	281.38
573.389	305.38
573.6	297.38
573.811	289.38
574.023	290.38
574.234	273.38
574.445	288.38
574.656	288.38
574.867	295.38
575.078	270.38
575.289	282.38
575.501	304.38
575.712	261.38
575.923	274.38
576.134	276.38
576.345	285.38
576.556	298.38
576.767	283.38
576.978	282.38
577.188	279.38
577.399	260.38
577.61	274.38
577.821	283.38
578.032	286.38
578.243	312.38
578.454	567.38
578.665	389.38
578.875	278.38
579.086	280.38
579.297	292.38
579.508	268.38
579.718	275.38
579.929	248.38
580.14	246.38
580.35	260.38
580.561	262.38
580.772	276.38
580.982	262.38
581.193	254.38
581.403	261.38
581.614	276.38
581.825	263.38
582.035	250.38
582.246	260.38
582.456	261.38
582.667	238.38
582.877	280.38
583.087	251.38
583.298	262.38
583.508	270.38
583.719	266.38
583.929	252.38
584.139	258.38
584.35	249.38
584.56	265.38
584.77	259.38
584.981	246.38
585.191	254.38
585.401	253.38
585.611	251.38
585.821	261.38
586.032	257.38
586.242	260.38
586.452	256.38
586.662	250.38
586.872	238.38
587.082	260.38
587.292	258.38
587.502	258.38
587.713	253.38
587.923	264.38
588.133	246.38
588.343	228.38
588.553	243.38
588.762	240.38
588.972	249.38
589.182	322.38
589.392	340.38
589.602	269.38
589.812	307.38
590.022	280.38
590.232	241.38
590.441	246.38
590.651	259.38
590.861	238.38
591.071	243.38
591.281	250.38
591.49	260.38
591.7	231.38
591.91	251.38
592.119	244.38
592.329	258.38
592.539	266.38
592.748	263.38
592.958	263.38
593.167	251.38
593.377	232.38
593.587	240.38
593.796	264.38
594.006	254.38
594.215	256.38
594.424	238.38
594.634	253.38
594.843	248.38
595.053	245.38
595.262	236.38
595.472	245.38
595.681	252.38
595.89	249.38
596.1	232.38
596.309	236.38
596.518	228.38
596.727	211.38
596.937	236.38
597.146	247.38
597.355	226.38
597.564	228.38
597.774	227.38
597.983	211.38
598.192	221.38
598.401	222.38
598.61	223.38
598.819	238.38
599.028	218.38
599.237	210.38
599.446	230.38
599.655	243.38
599.864	233.38
600.073	228.38
600.282	219.38
600.491	229.38
600.7	220.38
600.909	228.38
601.118	216.38
601.327	217.38
601.536	219.38
601.745	231.38
601.953	224.38
602.162	221.38
602.371	208.38
602.58	220.38
602.789	212.38
602.997	216.38
603.206	236.38
603.415	212.38
603.623	221.38
603.832	206.38
604.041	199.38
604.249	218.38
604.458	189.38
604.666	219.38
604.875	221.38
605.084	218.38
605.292	214.38
605.501	237.38
605.709	212.38
605.918	210.38
606.126	207.38
606.334	214.38
606.543	188.38
606.751	206.38
606.96	223.38
607.168	190.38
607.376	207.38
607.585	215.38
607.793	224.38
608.001	210.38
608.21	196.38
608.418	214.38
608.626	213.38
608.834	210.38
609.043	226.38
609.251	211.38
609.459	199.38
609.667	192.38
609.875	204.38
610.083	212.38
610.291	209.38
610.499	220.38
610.707	198.38
610.916	203.38
611.124	214.38
611.332	202.38
611.54	202.38
611.748	228.38
611.955	227.38
612.163	205.38
612.371	200.38
612.579	206.38
612.787	212.38
612.995	198.38
613.203	208.38
613.411	201.38
613.618	226.38
613.826	213.38
614.034	202.38
614.242	206.38
614.449	217.38
614.657	210.38
614.865	199.38
615.072	219.38
615.28	198.38
615.488	200.38
615.695	214.38
615.903	195.38
616.111	215.38
616.318	207.38
616.526	210.38
616.733	219.38
616.941	204.38
617.148	204.38
617.356	195.38
617.563	200.38
617.771	192.38
617.978	204.38
618.185	205.38
618.393	208.38
618.6	202.38
618.807	213.38
619.015	198.38
619.222	194.38
619.429	211.38
619.637	206.38
619.844	200.38
620.051	199.38
620.258	196.38
620.466	188.38
620.673	179.38
620.88	178.38
621.087	180.38
621.294	195.38
621.501	198.38
621.708	182.38
621.915	201.38
622.122	197.38
622.329	198.38
622.536	205.38
622.743	192.38
622.95	173.38
623.157	167.38
623.364	192.38
623.571	193.38
623.778	182.38
623.985	197.38
624.192	194.38
624.399	200.38
624.606	188.38
624.812	185.38
625.019	191.38
625.226	182.38
625.433	196.38
625.639	183.38
625.846	184.38
626.053	187.38
626.259	190.38
626.466	186.38
626.673	182.38
626.879	188.38
627.086	168.38
627.293	186.38
627.499	184.38
627.706	186.38
627.912	173.38
628.119	165.38
628.325	184.38
628.532	162.38
628.738	158.38
628.945	189.38
629.151	195.38
629.357	168.38
629.564	189.38
629.77	191.38
629.976	189.38
630.183	181.38
630.389	162.38
630.595	183.38
630.802	180.38
631.008	196.38
631.214	191.38
631.42	183.38
631.627	166.38
631.833	178.38
632.039	169.38
632.245	170.38
632.451	172.38
632.657	158.38
632.863	174.38
633.069	177.38
633.275	180.38
633.481	171.38
633.688	187.38
633.893	170.38
634.099	168.38
634.305	170.38
634.511	170.38
634.717	169.38
634.923	161.38
635.129	148.38
635.335	160.38
635.541	159.38
635.747	164.38
635.952	163.38
636.158	153.38
636.364	165.38
636.57	165.38
636.775	158.38
636.981	151.38
637.187	164.38
637.392	170.38
637.598	172.38
637.804	159.38
638.009	167.38
638.215	164.38
638.421	162.38
638.626	158.38
638.832	146.38
639.037	144.38
639.243	158.38
639.448	147.38
639.654	159.38
639.859	157.38
640.065	150.38
640.27	163.38
640.475	154.38
640.681	167.38
640.886	161.38
641.091	152.38
641.297	157.38
641.502	142.38
641.707	150.38
641.913	160.38
642.118	155.38
642.323	158.38
642.528	152.38
642.733	154.38
642.939	157.38
643.144	149.38
643.349	133.38
643.554	159.38
643.759	148.38
643.964	138.38
644.169	137.38
644.374	142.38
644.579	143.38
644.784	149.38
644.989	158.38
645.194	155.38
645.399	147.38
645.604	137.38
645.809	165.38
646.014	153.38
646.219	152.38
646.423	161.38
646.628	146.38
646.833	150.38
647.038	157.38
647.243	158.38
647.447	143.38
647.652	140.38
647.857	134.38
648.062	149.38
648.266	152.38
648.471	156.38
648.676	153.38
648.88	158.38
649.085	154.38
649.289	158.38
649.494	153.38
649.698	176.38
649.903	172.38
650.107	154.38
650.312	157.38
650.516	146.38
650.721	156.38
650.925	126.38
651.13	154.38
651.334	131.38
651.539	138.38
651.743	126.38
651.947	142.38
652.152	156.38
652.356	135.38
652.56	137.38
652.764	146.38
652.969	125.38
653.173	134.38
653.377	126.38
653.581	139.38
653.785	132.38
653.99	128.38
654.194	126.38
654.398	142.38
654.602	113.38
654.806	133.38
655.01	133.38
655.214	136.38
655.418	137.38
655.622	128.38
655.826	123.38
656.03	141.38
656.234	130.38
656.438	124.38
656.642	117.38
656.846	117.38
657.049	122.38
657.253	112.38
657.457	110.38
657.661	116.38
657.865	99.38
658.068	101.38
658.272	84.38
658.476	107.38
658.68	96.38
658.883	89.38
659.087	101.38
659.291	90.38
659.494	105.38
659.698	85.38
659.901	90.38
660.105	89.38
660.309	105.38
660.512	89.38
660.716	90.38
660.919	80.38
661.123	92.38
661.326	87.38
661.53	88.38
661.733	98.38
661.936	91.38
662.14	99.38
662.343	89.38
662.546	92.38
662.75	93.38
662.953	84.38
663.156	72.38
663.36	78.38
663.563	78.38
663.766	77.38
663.969	85.38
664.173	81.38
664.376	81.38
664.579	65.38
664.782	94.38
664.985	77.38
665.188	68.38
665.391	73.38
665.594	80.38
665.797	71.38
666	84.38
666.203	72.38
666.406	98.38
666.609	77.38
666.812	75.38
667.015	86.38
667.218	95.38
667.421	84.38
667.624	85.38
667.827	84.38
668.03	82.38
668.232	78.38
668.435	84.38
668.638	90.38
668.841	90.38
669.043	90.38
669.246	68.38
669.449	79.38
669.651	90.38
669.854	78.38
670.057	82.38
670.259	84.38
670.462	77.38
670.665	88.38
670.867	84.38
671.07	78.38
671.272	87.38
671.475	75.38
671.677	78.38
671.88	93.38
672.082	91.38
672.284	78.38
672.487	85.38
672.689	86.38
672.892	81.38
