Data from 1986.PennyLincolnUp.Lamp.En5.5.200Scan.071819.P2_HRD10591_17-10-24-973.txt Node
Date: Thu Jul 18 17:10:24 EDT 2019
User: cochatt
Spectrometer: HR+D1059
Trigger mode: 1
Integration Time (sec): 1.000000E-1
Scans to average: 1
Electric dark correction enabled: true
Nonlinearity correction enabled: false
Boxcar width: 0
XAxis mode: Wavelengths
Number of Pixels in Spectrum: 2048
>>>>>Begin Spectral Data<<<<<
223.165	-9.62
223.4	-9.62
223.635	-9.62
223.869	-9.62
224.104	-22.62
224.338	-15.62
224.573	-17.62
224.808	-4.62
225.042	-3.62
225.277	-17.62
225.511	7.38
225.746	7.38
225.98	7.38
226.215	5.38
226.449	-5.62
226.683	16.38
226.918	23.38
227.152	39.38
227.387	27.38
227.621	41.38
227.856	43.38
228.09	44.38
228.324	49.38
228.559	63.38
228.793	75.38
229.027	79.38
229.262	114.38
229.496	117.38
229.73	145.38
229.964	160.38
230.199	132.38
230.433	120.38
230.667	127.38
230.901	115.38
231.136	109.38
231.37	122.38
231.604	118.38
231.838	115.38
232.072	102.38
232.306	111.38
232.541	100.38
232.775	120.38
233.009	115.38
233.243	116.38
233.477	111.38
233.711	106.38
233.945	124.38
234.179	123.38
234.413	111.38
234.647	122.38
234.881	110.38
235.115	123.38
235.349	121.38
235.583	117.38
235.817	117.38
236.051	123.38
236.285	138.38
236.519	123.38
236.753	136.38
236.987	157.38
237.221	191.38
237.455	243.38
237.689	190.38
237.922	144.38
238.156	122.38
238.39	127.38
238.624	128.38
238.858	126.38
239.091	123.38
239.325	120.38
239.559	122.38
239.793	131.38
240.027	134.38
240.26	136.38
240.494	167.38
240.728	155.38
240.961	147.38
241.195	154.38
241.429	141.38
241.662	133.38
241.896	141.38
242.13	136.38
242.363	126.38
242.597	134.38
242.83	139.38
243.064	150.38
243.298	128.38
243.531	141.38
243.765	123.38
243.998	139.38
244.232	150.38
244.465	136.38
244.699	143.38
244.932	130.38
245.166	126.38
245.399	150.38
245.633	156.38
245.866	164.38
246.099	139.38
246.333	144.38
246.566	157.38
246.8	155.38
247.033	157.38
247.266	155.38
247.5	160.38
247.733	176.38
247.966	172.38
248.2	171.38
248.433	163.38
248.666	178.38
248.899	198.38
249.133	192.38
249.366	207.38
249.599	205.38
249.832	186.38
250.066	170.38
250.299	188.38
250.532	175.38
250.765	204.38
250.998	229.38
251.231	227.38
251.465	234.38
251.698	232.38
251.931	199.38
252.164	203.38
252.397	216.38
252.63	193.38
252.863	211.38
253.096	235.38
253.329	237.38
253.562	232.38
253.795	220.38
254.028	222.38
254.261	207.38
254.494	234.38
254.727	242.38
254.96	296.38
255.193	269.38
255.426	271.38
255.659	262.38
255.892	254.38
256.124	227.38
256.357	254.38
256.59	235.38
256.823	238.38
257.056	212.38
257.289	223.38
257.521	224.38
257.754	212.38
257.987	216.38
258.22	212.38
258.452	226.38
258.685	224.38
258.918	210.38
259.151	220.38
259.383	222.38
259.616	222.38
259.849	215.38
260.081	233.38
260.314	264.38
260.547	258.38
260.779	261.38
261.012	230.38
261.244	221.38
261.477	227.38
261.71	240.38
261.942	239.38
262.175	234.38
262.407	231.38
262.64	218.38
262.872	224.38
263.105	215.38
263.337	222.38
263.57	218.38
263.802	215.38
264.035	212.38
264.267	203.38
264.499	204.38
264.732	204.38
264.964	203.38
265.197	212.38
265.429	202.38
265.661	199.38
265.894	208.38
266.126	209.38
266.358	205.38
266.591	196.38
266.823	218.38
267.055	201.38
267.287	220.38
267.52	238.38
267.752	219.38
267.984	215.38
268.216	208.38
268.448	226.38
268.681	227.38
268.913	248.38
269.145	239.38
269.377	264.38
269.609	268.38
269.841	278.38
270.073	271.38
270.306	291.38
270.538	300.38
270.77	325.38
271.002	314.38
271.234	299.38
271.466	311.38
271.698	328.38
271.93	333.38
272.162	306.38
272.394	319.38
272.626	290.38
272.858	288.38
273.09	279.38
273.322	270.38
273.553	276.38
273.785	267.38
274.017	263.38
274.249	248.38
274.481	254.38
274.713	267.38
274.945	260.38
275.176	262.38
275.408	269.38
275.64	276.38
275.872	256.38
276.104	255.38
276.335	249.38
276.567	278.38
276.799	284.38
277.031	292.38
277.262	310.38
277.494	306.38
277.726	313.38
277.957	309.38
278.189	269.38
278.421	267.38
278.652	255.38
278.884	262.38
279.115	252.38
279.347	250.38
279.579	248.38
279.81	256.38
280.042	266.38
280.273	254.38
280.505	240.38
280.736	267.38
280.968	250.38
281.199	224.38
281.431	243.38
281.662	249.38
281.894	247.38
282.125	259.38
282.356	270.38
282.588	278.38
282.819	297.38
283.051	278.38
283.282	246.38
283.513	258.38
283.745	242.38
283.976	248.38
284.207	269.38
284.439	251.38
284.67	276.38
284.901	274.38
285.132	261.38
285.364	262.38
285.595	264.38
285.826	256.38
286.057	269.38
286.288	272.38
286.52	248.38
286.751	260.38
286.982	278.38
287.213	252.38
287.444	261.38
287.675	271.38
287.906	271.38
288.138	283.38
288.369	267.38
288.6	284.38
288.831	274.38
289.062	295.38
289.293	264.38
289.524	262.38
289.755	265.38
289.986	263.38
290.217	282.38
290.448	269.38
290.679	260.38
290.91	267.38
291.141	274.38
291.371	263.38
291.602	270.38
291.833	258.38
292.064	279.38
292.295	280.38
292.526	279.38
292.757	266.38
292.987	255.38
293.218	249.38
293.449	278.38
293.68	271.38
293.91	276.38
294.141	260.38
294.372	252.38
294.603	250.38
294.833	276.38
295.064	270.38
295.295	270.38
295.525	276.38
295.756	277.38
295.987	267.38
296.217	321.38
296.448	306.38
296.679	300.38
296.909	272.38
297.14	259.38
297.37	276.38
297.601	266.38
297.831	277.38
298.062	277.38
298.292	286.38
298.523	302.38
298.753	273.38
298.984	270.38
299.214	275.38
299.445	292.38
299.675	279.38
299.905	284.38
300.136	279.38
300.366	271.38
300.597	267.38
300.827	278.38
301.057	297.38
301.288	310.38
301.518	324.38
301.748	300.38
301.979	285.38
302.209	303.38
302.439	299.38
302.669	298.38
302.9	291.38
303.13	296.38
303.36	295.38
303.59	297.38
303.82	300.38
304.051	311.38
304.281	310.38
304.511	288.38
304.741	306.38
304.971	292.38
305.201	288.38
305.431	295.38
305.661	317.38
305.891	291.38
306.121	284.38
306.352	309.38
306.582	302.38
306.812	313.38
307.042	316.38
307.272	310.38
307.502	301.38
307.731	302.38
307.961	302.38
308.191	301.38
308.421	304.38
308.651	333.38
308.881	310.38
309.111	318.38
309.341	324.38
309.571	324.38
309.8	336.38
310.03	340.38
310.26	359.38
310.49	332.38
310.72	373.38
310.949	363.38
311.179	382.38
311.409	360.38
311.639	354.38
311.868	371.38
312.098	350.38
312.328	364.38
312.557	384.38
312.787	392.38
313.017	409.38
313.246	363.38
313.476	345.38
313.706	370.38
313.935	359.38
314.165	373.38
314.394	392.38
314.624	363.38
314.853	362.38
315.083	357.38
315.312	350.38
315.542	329.38
315.771	340.38
316.001	348.38
316.23	338.38
316.46	361.38
316.689	356.38
316.919	355.38
317.148	368.38
317.377	389.38
317.607	365.38
317.836	335.38
318.065	336.38
318.295	346.38
318.524	344.38
318.753	325.38
318.983	352.38
319.212	360.38
319.441	360.38
319.67	365.38
319.9	344.38
320.129	344.38
320.358	365.38
320.587	367.38
320.816	388.38
321.046	374.38
321.275	373.38
321.504	362.38
321.733	375.38
321.962	399.38
322.191	393.38
322.42	405.38
322.649	418.38
322.878	452.38
323.108	446.38
323.337	504.38
323.566	516.38
323.795	553.38
324.024	587.38
324.253	755.38
324.482	1054.38
324.71	1567.38
324.939	2239.38
325.168	1992.38
325.397	1057.38
325.626	688.38
325.855	555.38
326.084	542.38
326.313	520.38
326.542	506.38
326.77	542.38
326.999	666.38
327.228	920.38
327.457	1390.38
327.686	1690.38
327.914	1208.38
328.143	767.38
328.372	661.38
328.6	598.38
328.829	590.38
329.058	584.38
329.287	610.38
329.515	572.38
329.744	518.38
329.972	508.38
330.201	507.38
330.43	551.38
330.658	586.38
330.887	641.38
331.115	615.38
331.344	514.38
331.572	473.38
331.801	480.38
332.03	479.38
332.258	466.38
332.486	422.38
332.715	422.38
332.943	399.38
333.172	428.38
333.4	419.38
333.629	392.38
333.857	436.38
334.085	453.38
334.314	426.38
334.542	460.38
334.771	461.38
334.999	445.38
335.227	414.38
335.455	396.38
335.684	407.38
335.912	399.38
336.14	388.38
336.369	416.38
336.597	401.38
336.825	418.38
337.053	420.38
337.281	394.38
337.51	399.38
337.738	395.38
337.966	393.38
338.194	391.38
338.422	380.38
338.65	415.38
338.878	409.38
339.106	397.38
339.334	397.38
339.562	389.38
339.79	378.38
340.018	376.38
340.246	407.38
340.474	396.38
340.702	412.38
340.93	379.38
341.158	382.38
341.386	363.38
341.614	388.38
341.842	392.38
342.07	407.38
342.298	390.38
342.526	362.38
342.754	382.38
342.981	367.38
343.209	370.38
343.437	379.38
343.665	389.38
343.893	371.38
344.12	388.38
344.348	382.38
344.576	398.38
344.804	387.38
345.031	415.38
345.259	419.38
345.487	396.38
345.714	400.38
345.942	383.38
346.17	380.38
346.397	373.38
346.625	376.38
346.853	380.38
347.08	380.38
347.308	379.38
347.535	399.38
347.763	395.38
347.99	403.38
348.218	406.38
348.445	413.38
348.673	381.38
348.9	392.38
349.128	372.38
349.355	372.38
349.583	376.38
349.81	355.38
350.037	349.38
350.265	355.38
350.492	370.38
350.72	366.38
350.947	372.38
351.174	370.38
351.402	392.38
351.629	409.38
351.856	386.38
352.083	397.38
352.311	399.38
352.538	389.38
352.765	422.38
352.992	394.38
353.22	382.38
353.447	374.38
353.674	364.38
353.901	358.38
354.128	360.38
354.355	346.38
354.583	363.38
354.81	336.38
355.037	336.38
355.264	350.38
355.491	309.38
355.718	349.38
355.945	344.38
356.172	347.38
356.399	335.38
356.626	339.38
356.853	327.38
357.08	344.38
357.307	356.38
357.534	343.38
357.761	327.38
357.988	358.38
358.215	349.38
358.441	335.38
358.668	343.38
358.895	348.38
359.122	351.38
359.349	356.38
359.576	365.38
359.802	406.38
360.029	429.38
360.256	440.38
360.483	418.38
360.709	387.38
360.936	385.38
361.163	370.38
361.39	390.38
361.616	368.38
361.843	374.38
362.07	376.38
362.296	362.38
362.523	373.38
362.749	378.38
362.976	372.38
363.203	371.38
363.429	358.38
363.656	351.38
363.882	366.38
364.109	346.38
364.335	375.38
364.562	359.38
364.788	356.38
365.015	371.38
365.241	350.38
365.468	370.38
365.694	370.38
365.92	380.38
366.147	375.38
366.373	352.38
366.599	348.38
366.826	331.38
367.052	362.38
367.278	353.38
367.505	349.38
367.731	371.38
367.957	353.38
368.184	345.38
368.41	377.38
368.636	377.38
368.862	382.38
369.089	390.38
369.315	347.38
369.541	358.38
369.767	364.38
369.993	358.38
370.219	342.38
370.445	359.38
370.672	350.38
370.898	366.38
371.124	348.38
371.35	343.38
371.576	339.38
371.802	358.38
372.028	331.38
372.254	331.38
372.48	340.38
372.706	355.38
372.932	350.38
373.158	329.38
373.384	339.38
373.61	369.38
373.835	340.38
374.061	339.38
374.287	358.38
374.513	362.38
374.739	350.38
374.965	338.38
375.191	356.38
375.416	346.38
375.642	338.38
375.868	350.38
376.094	349.38
376.319	347.38
376.545	350.38
376.771	337.38
376.997	351.38
377.222	325.38
377.448	348.38
377.674	351.38
377.899	341.38
378.125	333.38
378.35	354.38
378.576	328.38
378.802	343.38
379.027	349.38
379.253	331.38
379.478	342.38
379.704	350.38
379.929	365.38
380.155	371.38
380.38	320.38
380.606	363.38
380.831	363.38
381.057	333.38
381.282	345.38
381.507	361.38
381.733	345.38
381.958	342.38
382.184	344.38
382.409	349.38
382.634	348.38
382.86	349.38
383.085	342.38
383.31	354.38
383.535	363.38
383.761	349.38
383.986	354.38
384.211	344.38
384.436	353.38
384.662	357.38
384.887	342.38
385.112	341.38
385.337	356.38
385.562	365.38
385.787	357.38
386.013	376.38
386.238	358.38
386.463	392.38
386.688	380.38
386.913	356.38
387.138	363.38
387.363	348.38
387.588	341.38
387.813	345.38
388.038	355.38
388.263	366.38
388.488	365.38
388.713	362.38
388.938	358.38
389.163	374.38
389.387	366.38
389.612	360.38
389.837	362.38
390.062	365.38
390.287	349.38
390.512	355.38
390.736	350.38
390.961	353.38
391.186	342.38
391.411	353.38
391.636	354.38
391.86	370.38
392.085	374.38
392.31	380.38
392.534	372.38
392.759	364.38
392.984	348.38
393.208	357.38
393.433	344.38
393.658	370.38
393.882	358.38
394.107	338.38
394.331	353.38
394.556	332.38
394.78	358.38
395.005	354.38
395.229	372.38
395.454	362.38
395.678	372.38
395.903	378.38
396.127	379.38
396.352	409.38
396.576	387.38
396.801	373.38
397.025	363.38
397.249	376.38
397.474	374.38
397.698	366.38
397.922	384.38
398.147	396.38
398.371	405.38
398.595	395.38
398.82	384.38
399.044	380.38
399.268	407.38
399.492	409.38
399.717	439.38
399.941	474.38
400.165	474.38
400.389	495.38
400.613	451.38
400.837	426.38
401.062	428.38
401.286	422.38
401.51	417.38
401.734	404.38
401.958	395.38
402.182	394.38
402.406	414.38
402.63	426.38
402.854	411.38
403.078	404.38
403.302	413.38
403.526	404.38
403.75	418.38
403.974	422.38
404.198	407.38
404.422	395.38
404.645	421.38
404.869	427.38
405.093	454.38
405.317	480.38
405.541	485.38
405.765	442.38
405.988	459.38
406.212	452.38
406.436	470.38
406.66	499.38
406.883	466.38
407.107	468.38
407.331	520.38
407.555	573.38
407.778	571.38
408.002	535.38
408.226	469.38
408.449	477.38
408.673	457.38
408.896	518.38
409.12	540.38
409.344	486.38
409.567	441.38
409.791	424.38
410.014	419.38
410.238	410.38
410.461	434.38
410.685	410.38
410.908	430.38
411.132	475.38
411.355	524.38
411.578	492.38
411.802	428.38
412.025	432.38
412.249	404.38
412.472	436.38
412.695	448.38
412.919	436.38
413.142	408.38
413.365	418.38
413.589	416.38
413.812	386.38
414.035	397.38
414.258	381.38
414.482	398.38
414.705	398.38
414.928	398.38
415.151	393.38
415.374	414.38
415.597	392.38
415.821	387.38
416.044	391.38
416.267	385.38
416.49	393.38
416.713	394.38
416.936	393.38
417.159	396.38
417.382	392.38
417.605	405.38
417.828	421.38
418.051	405.38
418.274	421.38
418.497	395.38
418.72	428.38
418.943	391.38
419.166	414.38
419.389	429.38
419.611	406.38
419.834	407.38
420.057	409.38
420.28	420.38
420.503	419.38
420.726	425.38
420.948	414.38
421.171	467.38
421.394	500.38
421.617	446.38
421.839	424.38
422.062	407.38
422.285	456.38
422.507	492.38
422.73	547.38
422.953	528.38
423.175	481.38
423.398	450.38
423.621	460.38
423.843	471.38
424.066	468.38
424.288	457.38
424.511	466.38
424.733	546.38
424.956	620.38
425.178	606.38
425.401	576.38
425.623	594.38
425.846	523.38
426.068	501.38
426.291	464.38
426.513	464.38
426.735	484.38
426.958	516.38
427.18	596.38
427.402	715.38
427.625	799.38
427.847	728.38
428.069	572.38
428.292	559.38
428.514	477.38
428.736	452.38
428.958	459.38
429.181	430.38
429.403	435.38
429.625	458.38
429.847	480.38
430.069	540.38
430.292	554.38
430.514	491.38
430.736	443.38
430.958	435.38
431.18	419.38
431.402	403.38
431.624	387.38
431.846	401.38
432.068	399.38
432.29	398.38
432.512	407.38
432.734	415.38
432.956	426.38
433.178	416.38
433.4	443.38
433.622	407.38
433.844	405.38
434.066	400.38
434.287	424.38
434.509	421.38
434.731	423.38
434.953	414.38
435.175	424.38
435.397	462.38
435.618	480.38
435.84	505.38
436.062	602.38
436.284	651.38
436.505	563.38
436.727	496.38
436.949	458.38
437.17	426.38
437.392	430.38
437.614	473.38
437.835	487.38
438.057	611.38
438.278	689.38
438.5	670.38
438.721	730.38
438.943	690.38
439.165	578.38
439.386	534.38
439.608	505.38
439.829	496.38
440.05	521.38
440.272	573.38
440.493	534.38
440.715	482.38
440.936	452.38
441.158	445.38
441.379	453.38
441.6	453.38
441.822	469.38
442.043	516.38
442.264	616.38
442.486	619.38
442.707	524.38
442.928	511.38
443.149	517.38
443.371	516.38
443.592	564.38
443.813	648.38
444.034	692.38
444.255	573.38
444.476	492.38
444.698	460.38
444.919	475.38
445.14	551.38
445.361	551.38
445.582	535.38
445.803	567.38
446.024	667.38
446.245	662.38
446.466	592.38
446.687	525.38
446.908	498.38
447.129	464.38
447.35	448.38
447.571	447.38
447.792	436.38
448.013	457.38
448.234	493.38
448.455	516.38
448.675	618.38
448.896	704.38
449.117	629.38
449.338	600.38
449.559	662.38
449.779	730.38
450	627.38
450.221	513.38
450.442	480.38
450.662	454.38
450.883	442.38
451.104	486.38
451.324	460.38
451.545	423.38
451.766	418.38
451.986	414.38
452.207	394.38
452.428	405.38
452.648	391.38
452.869	405.38
453.089	421.38
453.31	413.38
453.53	413.38
453.751	412.38
453.971	408.38
454.192	442.38
454.412	408.38
454.633	400.38
454.853	413.38
455.073	383.38
455.294	397.38
455.514	476.38
455.734	456.38
455.955	406.38
456.175	413.38
456.395	377.38
456.616	372.38
456.836	401.38
457.056	366.38
457.276	357.38
457.497	372.38
457.717	372.38
457.937	379.38
458.157	359.38
458.377	388.38
458.598	412.38
458.818	477.38
459.038	560.38
459.258	589.38
459.478	463.38
459.698	408.38
459.918	404.38
460.138	398.38
460.358	397.38
460.578	377.38
460.798	410.38
461.018	408.38
461.238	384.38
461.458	401.38
461.678	385.38
461.898	387.38
462.118	387.38
462.338	411.38
462.558	422.38
462.777	398.38
462.997	418.38
463.217	419.38
463.437	429.38
463.657	398.38
463.876	419.38
464.096	399.38
464.316	421.38
464.536	432.38
464.755	427.38
464.975	429.38
465.195	484.38
465.414	583.38
465.634	502.38
465.854	451.38
466.073	416.38
466.293	423.38
466.512	399.38
466.732	379.38
466.951	378.38
467.171	381.38
467.391	406.38
467.61	425.38
467.829	407.38
468.049	421.38
468.268	412.38
468.488	386.38
468.707	382.38
468.927	383.38
469.146	366.38
469.365	382.38
469.585	388.38
469.804	384.38
470.023	419.38
470.243	412.38
470.462	406.38
470.681	448.38
470.901	445.38
471.12	422.38
471.339	408.38
471.558	411.38
471.777	411.38
471.997	391.38
472.216	390.38
472.435	429.38
472.654	413.38
472.873	403.38
473.092	390.38
473.311	427.38
473.53	408.38
473.749	439.38
473.968	453.38
474.187	565.38
474.406	591.38
474.625	481.38
474.844	424.38
475.063	406.38
475.282	400.38
475.501	422.38
475.72	426.38
475.939	412.38
476.158	410.38
476.377	417.38
476.596	417.38
476.814	424.38
477.033	441.38
477.252	420.38
477.471	407.38
477.69	430.38
477.908	420.38
478.127	418.38
478.346	445.38
478.564	443.38
478.783	431.38
479.002	461.38
479.22	444.38
479.439	470.38
479.658	476.38
479.876	490.38
480.095	488.38
480.313	523.38
480.532	502.38
480.751	503.38
480.969	488.38
481.188	543.38
481.406	562.38
481.624	510.38
481.843	479.38
482.061	484.38
482.28	483.38
482.498	487.38
482.717	464.38
482.935	486.38
483.153	478.38
483.372	471.38
483.59	468.38
483.808	457.38
484.027	458.38
484.245	481.38
484.463	467.38
484.681	463.38
484.9	506.38
485.118	498.38
485.336	493.38
485.554	477.38
485.772	485.38
485.99	466.38
486.209	494.38
486.427	510.38
486.645	500.38
486.863	504.38
487.081	503.38
487.299	498.38
487.517	515.38
487.735	534.38
487.953	514.38
488.171	525.38
488.389	507.38
488.607	511.38
488.825	513.38
489.043	548.38
489.261	512.38
489.479	519.38
489.696	533.38
489.914	527.38
490.132	532.38
490.35	551.38
490.568	543.38
490.786	555.38
491.003	555.38
491.221	575.38
491.439	565.38
491.657	579.38
491.874	596.38
492.092	612.38
492.31	592.38
492.527	591.38
492.745	586.38
492.963	622.38
493.18	622.38
493.398	611.38
493.615	610.38
493.833	625.38
494.05	632.38
494.268	616.38
494.485	612.38
494.703	615.38
494.92	617.38
495.138	614.38
495.355	620.38
495.573	601.38
495.79	622.38
496.008	644.38
496.225	637.38
496.442	621.38
496.66	606.38
496.877	639.38
497.094	620.38
497.312	634.38
497.529	638.38
497.746	631.38
497.963	642.38
498.181	648.38
498.398	668.38
498.615	662.38
498.832	686.38
499.049	667.38
499.267	707.38
499.484	675.38
499.701	715.38
499.918	712.38
500.135	726.38
500.352	761.38
500.569	750.38
500.786	760.38
501.003	752.38
501.22	744.38
501.437	750.38
501.654	722.38
501.871	735.38
502.088	718.38
502.305	704.38
502.522	695.38
502.739	672.38
502.956	672.38
503.172	660.38
503.389	652.38
503.606	655.38
503.823	635.38
504.04	619.38
504.256	620.38
504.473	620.38
504.69	590.38
504.907	624.38
505.123	612.38
505.34	648.38
505.557	601.38
505.773	594.38
505.99	599.38
506.207	628.38
506.423	600.38
506.64	587.38
506.856	591.38
507.073	580.38
507.289	615.38
507.506	583.38
507.722	607.38
507.939	626.38
508.155	597.38
508.372	579.38
508.588	579.38
508.805	585.38
509.021	586.38
509.238	603.38
509.454	636.38
509.67	615.38
509.887	608.38
510.103	616.38
510.319	596.38
510.536	724.38
510.752	1266.38
510.968	1039.38
511.184	622.38
511.401	591.38
511.617	590.38
511.833	571.38
512.049	567.38
512.265	571.38
512.481	572.38
512.698	536.38
512.914	556.38
513.13	550.38
513.346	574.38
513.562	543.38
513.778	590.38
513.994	575.38
514.21	573.38
514.426	620.38
514.642	662.38
514.858	685.38
515.074	779.38
515.29	920.38
515.506	1450.38
515.721	1178.38
515.937	718.38
516.153	660.38
516.369	617.38
516.585	570.38
516.801	595.38
517.016	558.38
517.232	564.38
517.448	555.38
517.664	536.38
517.879	562.38
518.095	537.38
518.311	555.38
518.527	553.38
518.742	580.38
518.958	565.38
519.173	550.38
519.389	538.38
519.605	540.38
519.82	563.38
520.036	539.38
520.251	616.38
520.467	633.38
520.682	638.38
520.898	646.38
521.113	690.38
521.329	739.38
521.544	831.38
521.76	1137.38
521.975	1936.38
522.19	1920.38
522.406	995.38
522.621	735.38
522.836	606.38
523.052	581.38
523.267	550.38
523.482	536.38
523.698	522.38
523.913	538.38
524.128	539.38
524.343	493.38
524.559	506.38
524.774	505.38
524.989	518.38
525.204	498.38
525.419	495.38
525.634	490.38
525.849	457.38
526.064	468.38
526.28	448.38
526.495	459.38
526.71	454.38
526.925	455.38
527.14	444.38
527.355	456.38
527.57	459.38
527.785	428.38
527.999	442.38
528.214	426.38
528.429	440.38
528.644	447.38
528.859	449.38
529.074	446.38
529.289	477.38
529.503	575.38
529.718	560.38
529.933	498.38
530.148	456.38
530.363	469.38
530.577	428.38
530.792	426.38
531.007	430.38
531.221	425.38
531.436	430.38
531.651	442.38
531.865	426.38
532.08	425.38
532.295	409.38
532.509	440.38
532.724	412.38
532.938	407.38
533.153	430.38
533.367	396.38
533.582	414.38
533.796	424.38
534.011	431.38
534.225	422.38
534.44	415.38
534.654	406.38
534.868	421.38
535.083	404.38
535.297	436.38
535.511	417.38
535.726	430.38
535.94	452.38
536.154	438.38
536.369	423.38
536.583	401.38
536.797	418.38
537.011	422.38
537.225	408.38
537.44	418.38
537.654	419.38
537.868	397.38
538.082	405.38
538.296	406.38
538.51	401.38
538.724	414.38
538.938	396.38
539.153	411.38
539.367	418.38
539.581	406.38
539.795	405.38
540.009	415.38
540.222	415.38
540.436	400.38
540.65	407.38
540.864	400.38
541.078	415.38
541.292	439.38
541.506	405.38
541.72	399.38
541.934	396.38
542.147	387.38
542.361	409.38
542.575	400.38
542.789	412.38
543.002	405.38
543.216	407.38
543.43	412.38
543.644	400.38
543.857	397.38
544.071	399.38
544.285	405.38
544.498	397.38
544.712	399.38
544.925	392.38
545.139	392.38
545.352	388.38
545.566	407.38
545.779	395.38
545.993	390.38
546.206	390.38
546.42	379.38
546.633	382.38
546.847	382.38
547.06	380.38
547.274	375.38
547.487	393.38
547.7	378.38
547.914	357.38
548.127	344.38
548.34	374.38
548.554	362.38
548.767	383.38
548.98	381.38
549.193	358.38
549.407	378.38
549.62	375.38
549.833	378.38
550.046	367.38
550.259	368.38
550.473	364.38
550.686	383.38
550.899	370.38
551.112	367.38
551.325	355.38
551.538	349.38
551.751	374.38
551.964	358.38
552.177	354.38
552.39	364.38
552.603	354.38
552.816	370.38
553.029	370.38
553.242	377.38
553.455	368.38
553.667	359.38
553.88	395.38
554.093	376.38
554.306	366.38
554.519	356.38
554.732	345.38
554.944	342.38
555.157	349.38
555.37	363.38
555.583	358.38
555.795	357.38
556.008	347.38
556.221	359.38
556.433	343.38
556.646	346.38
556.859	343.38
557.071	346.38
557.284	354.38
557.496	357.38
557.709	362.38
557.921	327.38
558.134	328.38
558.346	346.38
558.559	346.38
558.771	340.38
558.984	354.38
559.196	352.38
559.409	330.38
559.621	333.38
559.833	326.38
560.046	339.38
560.258	322.38
560.47	342.38
560.683	348.38
560.895	327.38
561.107	339.38
561.32	332.38
561.532	337.38
561.744	320.38
561.956	334.38
562.168	340.38
562.381	320.38
562.593	336.38
562.805	322.38
563.017	347.38
563.229	333.38
563.441	331.38
563.653	341.38
563.865	333.38
564.077	341.38
564.289	327.38
564.501	337.38
564.713	339.38
564.925	339.38
565.137	360.38
565.349	340.38
565.561	357.38
565.773	354.38
565.985	359.38
566.197	334.38
566.408	334.38
566.62	361.38
566.832	368.38
567.044	372.38
567.255	378.38
567.467	382.38
567.679	371.38
567.891	370.38
568.102	371.38
568.314	354.38
568.526	368.38
568.737	350.38
568.949	350.38
569.161	373.38
569.372	345.38
569.584	321.38
569.795	321.38
570.007	335.38
570.218	393.38
570.43	382.38
570.641	330.38
570.853	311.38
571.064	331.38
571.276	325.38
571.487	306.38
571.698	289.38
571.91	334.38
572.121	324.38
572.333	318.38
572.544	304.38
572.755	290.38
572.966	298.38
573.178	294.38
573.389	307.38
573.6	295.38
573.811	282.38
574.023	298.38
574.234	277.38
574.445	299.38
574.656	287.38
574.867	293.38
575.078	292.38
575.289	279.38
575.501	297.38
575.712	286.38
575.923	304.38
576.134	287.38
576.345	277.38
576.556	270.38
576.767	282.38
576.978	283.38
577.188	290.38
577.399	282.38
577.61	297.38
577.821	291.38
578.032	304.38
578.243	342.38
578.454	623.38
578.665	435.38
578.875	318.38
579.086	287.38
579.297	285.38
579.508	269.38
579.718	273.38
579.929	277.38
580.14	278.38
580.35	271.38
580.561	284.38
580.772	256.38
580.982	271.38
581.193	275.38
581.403	276.38
581.614	258.38
581.825	255.38
582.035	285.38
582.246	268.38
582.456	270.38
582.667	267.38
582.877	258.38
583.087	249.38
583.298	263.38
583.508	266.38
583.719	264.38
583.929	262.38
584.139	243.38
584.35	262.38
584.56	272.38
584.77	252.38
584.981	265.38
585.191	258.38
585.401	260.38
585.611	264.38
585.821	253.38
586.032	255.38
586.242	254.38
586.452	265.38
586.662	266.38
586.872	264.38
587.082	247.38
587.292	266.38
587.502	258.38
587.713	257.38
587.923	281.38
588.133	239.38
588.343	265.38
588.553	254.38
588.762	273.38
588.972	260.38
589.182	297.38
589.392	291.38
589.602	287.38
589.812	270.38
590.022	279.38
590.232	268.38
590.441	250.38
590.651	262.38
590.861	256.38
591.071	241.38
591.281	239.38
591.49	244.38
591.7	238.38
591.91	246.38
592.119	249.38
592.329	251.38
592.539	258.38
592.748	276.38
592.958	242.38
593.167	268.38
593.377	275.38
593.587	253.38
593.796	255.38
594.006	250.38
594.215	255.38
594.424	263.38
594.634	250.38
594.843	256.38
595.053	267.38
595.262	242.38
595.472	262.38
595.681	245.38
595.89	236.38
596.1	239.38
596.309	255.38
596.518	239.38
596.727	238.38
596.937	244.38
597.146	244.38
597.355	248.38
597.564	230.38
597.774	242.38
597.983	244.38
598.192	231.38
598.401	244.38
598.61	256.38
598.819	246.38
599.028	226.38
599.237	214.38
599.446	231.38
599.655	220.38
599.864	228.38
600.073	242.38
600.282	242.38
600.491	233.38
600.7	218.38
600.909	231.38
601.118	236.38
601.327	220.38
601.536	233.38
601.745	213.38
601.953	220.38
602.162	225.38
602.371	234.38
602.58	214.38
602.789	219.38
602.997	209.38
603.206	220.38
603.415	226.38
603.623	218.38
603.832	211.38
604.041	222.38
604.249	228.38
604.458	224.38
604.666	221.38
604.875	214.38
605.084	218.38
605.292	204.38
605.501	211.38
605.709	204.38
605.918	215.38
606.126	214.38
606.334	207.38
606.543	214.38
606.751	205.38
606.96	215.38
607.168	213.38
607.376	214.38
607.585	226.38
607.793	195.38
608.001	199.38
608.21	208.38
608.418	212.38
608.626	219.38
608.834	211.38
609.043	218.38
609.251	224.38
609.459	224.38
609.667	223.38
609.875	210.38
610.083	229.38
610.291	219.38
610.499	224.38
610.707	211.38
610.916	224.38
611.124	230.38
611.332	213.38
611.54	217.38
611.748	218.38
611.955	213.38
612.163	215.38
612.371	219.38
612.579	208.38
612.787	212.38
612.995	213.38
613.203	218.38
613.411	208.38
613.618	204.38
613.826	198.38
614.034	208.38
614.242	210.38
614.449	202.38
614.657	203.38
614.865	209.38
615.072	213.38
615.28	212.38
615.488	201.38
615.695	197.38
615.903	196.38
616.111	225.38
616.318	219.38
616.526	219.38
616.733	227.38
616.941	216.38
617.148	209.38
617.356	202.38
617.563	204.38
617.771	200.38
617.978	190.38
618.185	198.38
618.393	199.38
618.6	198.38
618.807	215.38
619.015	210.38
619.222	203.38
619.429	194.38
619.637	227.38
619.844	203.38
620.051	186.38
620.258	211.38
620.466	179.38
620.673	191.38
620.88	210.38
621.087	166.38
621.294	199.38
621.501	183.38
621.708	193.38
621.915	192.38
622.122	209.38
622.329	201.38
622.536	205.38
622.743	205.38
622.95	213.38
623.157	194.38
623.364	203.38
623.571	182.38
623.778	186.38
623.985	198.38
624.192	195.38
624.399	194.38
624.606	190.38
624.812	199.38
625.019	203.38
625.226	196.38
625.433	189.38
625.639	189.38
625.846	187.38
626.053	184.38
626.259	176.38
626.466	178.38
626.673	184.38
626.879	173.38
627.086	187.38
627.293	189.38
627.499	200.38
627.706	195.38
627.912	183.38
628.119	185.38
628.325	182.38
628.532	178.38
628.738	189.38
628.945	171.38
629.151	184.38
629.357	188.38
629.564	184.38
629.77	195.38
629.976	180.38
630.183	182.38
630.389	179.38
630.595	189.38
630.802	169.38
631.008	178.38
631.214	188.38
631.42	171.38
631.627	175.38
631.833	173.38
632.039	172.38
632.245	176.38
632.451	183.38
632.657	178.38
632.863	164.38
633.069	171.38
633.275	172.38
633.481	182.38
633.688	171.38
633.893	182.38
634.099	174.38
634.305	174.38
634.511	179.38
634.717	169.38
634.923	163.38
635.129	175.38
635.335	180.38
635.541	164.38
635.747	165.38
635.952	163.38
636.158	176.38
636.364	171.38
636.57	162.38
636.775	167.38
636.981	165.38
637.187	165.38
637.392	155.38
637.598	158.38
637.804	171.38
638.009	178.38
638.215	168.38
638.421	166.38
638.626	164.38
638.832	162.38
639.037	170.38
639.243	157.38
639.448	173.38
639.654	161.38
639.859	155.38
640.065	150.38
640.27	170.38
640.475	154.38
640.681	146.38
640.886	164.38
641.091	166.38
641.297	166.38
641.502	167.38
641.707	165.38
641.913	154.38
642.118	139.38
642.323	141.38
642.528	141.38
642.733	163.38
642.939	149.38
643.144	155.38
643.349	150.38
643.554	159.38
643.759	140.38
643.964	169.38
644.169	154.38
644.374	155.38
644.579	166.38
644.784	162.38
644.989	140.38
645.194	152.38
645.399	147.38
645.604	154.38
645.809	158.38
646.014	145.38
646.219	154.38
646.423	161.38
646.628	127.38
646.833	155.38
647.038	149.38
647.243	152.38
647.447	145.38
647.652	171.38
647.857	148.38
648.062	149.38
648.266	163.38
648.471	163.38
648.676	152.38
648.88	143.38
649.085	152.38
649.289	150.38
649.494	168.38
649.698	171.38
649.903	165.38
650.107	173.38
650.312	176.38
650.516	155.38
650.721	157.38
650.925	145.38
651.13	147.38
651.334	130.38
651.539	134.38
651.743	144.38
651.947	130.38
652.152	137.38
652.356	133.38
652.56	146.38
652.764	150.38
652.969	132.38
653.173	134.38
653.377	132.38
653.581	133.38
653.785	128.38
653.99	145.38
654.194	146.38
654.398	124.38
654.602	124.38
654.806	144.38
655.01	138.38
655.214	127.38
655.418	127.38
655.622	123.38
655.826	139.38
656.03	115.38
656.234	127.38
656.438	126.38
656.642	117.38
656.846	128.38
657.049	112.38
657.253	124.38
657.457	127.38
657.661	120.38
657.865	116.38
658.068	109.38
658.272	92.38
658.476	108.38
658.68	106.38
658.883	91.38
659.087	97.38
659.291	95.38
659.494	111.38
659.698	106.38
659.901	104.38
660.105	99.38
660.309	96.38
660.512	76.38
660.716	87.38
660.919	96.38
661.123	96.38
661.326	95.38
661.53	86.38
661.733	89.38
661.936	100.38
662.14	98.38
662.343	78.38
662.546	92.38
662.75	82.38
662.953	89.38
663.156	86.38
663.36	75.38
663.563	95.38
663.766	97.38
663.969	91.38
664.173	89.38
664.376	84.38
664.579	84.38
664.782	86.38
664.985	103.38
665.188	84.38
665.391	78.38
665.594	100.38
665.797	83.38
666	80.38
666.203	76.38
666.406	88.38
666.609	91.38
666.812	95.38
667.015	86.38
667.218	83.38
667.421	76.38
667.624	84.38
667.827	86.38
668.03	91.38
668.232	68.38
668.435	75.38
668.638	81.38
668.841	86.38
669.043	81.38
669.246	84.38
669.449	92.38
669.651	74.38
669.854	76.38
670.057	86.38
670.259	80.38
670.462	84.38
670.665	71.38
670.867	98.38
671.07	90.38
671.272	83.38
671.475	90.38
671.677	73.38
671.88	78.38
672.082	90.38
672.284	76.38
672.487	96.38
672.689	88.38
672.892	88.38
