Data from 1986.PennyLincolnUp.Lamp.En5.5.200Scan.071819.P2_HRD10591_17-11-26-973.txt Node
Date: Thu Jul 18 17:11:26 EDT 2019
User: cochatt
Spectrometer: HR+D1059
Trigger mode: 1
Integration Time (sec): 1.000000E-1
Scans to average: 1
Electric dark correction enabled: true
Nonlinearity correction enabled: false
Boxcar width: 0
XAxis mode: Wavelengths
Number of Pixels in Spectrum: 2048
>>>>>Begin Spectral Data<<<<<
223.165	-2.62
223.4	-2.62
223.635	-2.62
223.869	-14.62
224.104	-21.62
224.338	-23.62
224.573	-20.62
224.808	-12.62
225.042	-6.62
225.277	0.38
225.511	-6.62
225.746	4.38
225.98	-0.62
226.215	5.38
226.449	6.38
226.683	14.38
226.918	18.38
227.152	60.38
227.387	28.38
227.621	30.38
227.856	40.38
228.09	44.38
228.324	51.38
228.559	63.38
228.793	83.38
229.027	91.38
229.262	110.38
229.496	112.38
229.73	148.38
229.964	158.38
230.199	142.38
230.433	135.38
230.667	112.38
230.901	119.38
231.136	118.38
231.37	120.38
231.604	119.38
231.838	132.38
232.072	131.38
232.306	103.38
232.541	116.38
232.775	110.38
233.009	104.38
233.243	118.38
233.477	126.38
233.711	97.38
233.945	118.38
234.179	127.38
234.413	106.38
234.647	125.38
234.881	120.38
235.115	125.38
235.349	106.38
235.583	124.38
235.817	121.38
236.051	125.38
236.285	132.38
236.519	126.38
236.753	142.38
236.987	137.38
237.221	195.38
237.455	261.38
237.689	197.38
237.922	157.38
238.156	144.38
238.39	155.38
238.624	144.38
238.858	131.38
239.091	126.38
239.325	122.38
239.559	140.38
239.793	126.38
240.027	140.38
240.26	130.38
240.494	163.38
240.728	167.38
240.961	167.38
241.195	153.38
241.429	134.38
241.662	140.38
241.896	132.38
242.13	133.38
242.363	135.38
242.597	159.38
242.83	143.38
243.064	139.38
243.298	143.38
243.531	143.38
243.765	144.38
243.998	150.38
244.232	151.38
244.465	157.38
244.699	145.38
244.932	163.38
245.166	163.38
245.399	143.38
245.633	155.38
245.866	138.38
246.099	145.38
246.333	167.38
246.566	152.38
246.8	177.38
247.033	169.38
247.266	157.38
247.5	167.38
247.733	173.38
247.966	203.38
248.2	180.38
248.433	189.38
248.666	182.38
248.899	213.38
249.133	205.38
249.366	221.38
249.599	213.38
249.832	219.38
250.066	194.38
250.299	212.38
250.532	205.38
250.765	216.38
250.998	251.38
251.231	265.38
251.465	243.38
251.698	219.38
251.931	231.38
252.164	202.38
252.397	207.38
252.63	221.38
252.863	220.38
253.096	248.38
253.329	255.38
253.562	247.38
253.795	240.38
254.028	241.38
254.261	227.38
254.494	255.38
254.727	280.38
254.96	310.38
255.193	299.38
255.426	288.38
255.659	259.38
255.892	286.38
256.124	301.38
256.357	293.38
256.59	276.38
256.823	265.38
257.056	231.38
257.289	243.38
257.521	247.38
257.754	227.38
257.987	240.38
258.22	233.38
258.452	229.38
258.685	235.38
258.918	217.38
259.151	217.38
259.383	252.38
259.616	237.38
259.849	241.38
260.081	276.38
260.314	273.38
260.547	268.38
260.779	271.38
261.012	260.38
261.244	240.38
261.477	227.38
261.71	228.38
261.942	240.38
262.175	251.38
262.407	256.38
262.64	219.38
262.872	229.38
263.105	245.38
263.337	234.38
263.57	227.38
263.802	224.38
264.035	224.38
264.267	211.38
264.499	215.38
264.732	231.38
264.964	231.38
265.197	224.38
265.429	231.38
265.661	223.38
265.894	228.38
266.126	211.38
266.358	221.38
266.591	236.38
266.823	239.38
267.055	246.38
267.287	249.38
267.52	224.38
267.752	235.38
267.984	227.38
268.216	224.38
268.448	245.38
268.681	246.38
268.913	246.38
269.145	270.38
269.377	309.38
269.609	287.38
269.841	284.38
270.073	291.38
270.306	289.38
270.538	340.38
270.77	340.38
271.002	324.38
271.234	312.38
271.466	320.38
271.698	329.38
271.93	331.38
272.162	335.38
272.394	326.38
272.626	319.38
272.858	317.38
273.09	300.38
273.322	299.38
273.553	281.38
273.785	257.38
274.017	264.38
274.249	271.38
274.481	255.38
274.713	288.38
274.945	255.38
275.176	284.38
275.408	283.38
275.64	272.38
275.872	270.38
276.104	279.38
276.335	262.38
276.567	273.38
276.799	293.38
277.031	308.38
277.262	350.38
277.494	325.38
277.726	337.38
277.957	304.38
278.189	292.38
278.421	280.38
278.652	292.38
278.884	288.38
279.115	278.38
279.347	265.38
279.579	274.38
279.81	260.38
280.042	269.38
280.273	261.38
280.505	288.38
280.736	277.38
280.968	250.38
281.199	294.38
281.431	263.38
281.662	271.38
281.894	280.38
282.125	278.38
282.356	282.38
282.588	308.38
282.819	319.38
283.051	279.38
283.282	269.38
283.513	273.38
283.745	277.38
283.976	292.38
284.207	289.38
284.439	287.38
284.67	266.38
284.901	285.38
285.132	273.38
285.364	292.38
285.595	279.38
285.826	263.38
286.057	287.38
286.288	277.38
286.52	264.38
286.751	287.38
286.982	277.38
287.213	271.38
287.444	289.38
287.675	299.38
287.906	289.38
288.138	304.38
288.369	293.38
288.6	313.38
288.831	293.38
289.062	296.38
289.293	296.38
289.524	299.38
289.755	288.38
289.986	291.38
290.217	279.38
290.448	277.38
290.679	301.38
290.91	290.38
291.141	285.38
291.371	286.38
291.602	282.38
291.833	280.38
292.064	270.38
292.295	268.38
292.526	277.38
292.757	286.38
292.987	270.38
293.218	287.38
293.449	286.38
293.68	280.38
293.91	301.38
294.141	280.38
294.372	299.38
294.603	293.38
294.833	289.38
295.064	293.38
295.295	296.38
295.525	268.38
295.756	298.38
295.987	307.38
296.217	336.38
296.448	345.38
296.679	308.38
296.909	279.38
297.14	277.38
297.37	286.38
297.601	286.38
297.831	286.38
298.062	295.38
298.292	301.38
298.523	291.38
298.753	307.38
298.984	308.38
299.214	297.38
299.445	287.38
299.675	303.38
299.905	310.38
300.136	301.38
300.366	289.38
300.597	300.38
300.827	310.38
301.057	315.38
301.288	316.38
301.518	325.38
301.748	324.38
301.979	331.38
302.209	328.38
302.439	327.38
302.669	296.38
302.9	311.38
303.13	315.38
303.36	320.38
303.59	334.38
303.82	351.38
304.051	341.38
304.281	324.38
304.511	315.38
304.741	308.38
304.971	316.38
305.201	329.38
305.431	301.38
305.661	318.38
305.891	323.38
306.121	316.38
306.352	322.38
306.582	332.38
306.812	325.38
307.042	318.38
307.272	331.38
307.502	327.38
307.731	340.38
307.961	325.38
308.191	343.38
308.421	311.38
308.651	343.38
308.881	346.38
309.111	345.38
309.341	347.38
309.571	337.38
309.8	374.38
310.03	361.38
310.26	389.38
310.49	371.38
310.72	397.38
310.949	404.38
311.179	398.38
311.409	383.38
311.639	381.38
311.868	392.38
312.098	399.38
312.328	395.38
312.557	391.38
312.787	414.38
313.017	393.38
313.246	402.38
313.476	357.38
313.706	375.38
313.935	398.38
314.165	380.38
314.394	413.38
314.624	412.38
314.853	401.38
315.083	388.38
315.312	371.38
315.542	364.38
315.771	362.38
316.001	368.38
316.23	372.38
316.46	377.38
316.689	375.38
316.919	379.38
317.148	379.38
317.377	369.38
317.607	366.38
317.836	380.38
318.065	395.38
318.295	382.38
318.524	373.38
318.753	362.38
318.983	375.38
319.212	379.38
319.441	380.38
319.67	389.38
319.9	373.38
320.129	366.38
320.358	379.38
320.587	375.38
320.816	400.38
321.046	422.38
321.275	407.38
321.504	399.38
321.733	415.38
321.962	407.38
322.191	460.38
322.42	459.38
322.649	458.38
322.878	469.38
323.108	500.38
323.337	527.38
323.566	556.38
323.795	591.38
324.024	648.38
324.253	793.38
324.482	1132.38
324.71	1735.38
324.939	2439.38
325.168	2155.38
325.397	1145.38
325.626	747.38
325.855	649.38
326.084	577.38
326.313	565.38
326.542	557.38
326.77	601.38
326.999	697.38
327.228	997.38
327.457	1489.38
327.686	1869.38
327.914	1304.38
328.143	839.38
328.372	734.38
328.6	681.38
328.829	648.38
329.058	646.38
329.287	675.38
329.515	621.38
329.744	597.38
329.972	609.38
330.201	634.38
330.43	733.38
330.658	692.38
330.887	703.38
331.115	692.38
331.344	586.38
331.572	530.38
331.801	548.38
332.03	513.38
332.258	525.38
332.486	471.38
332.715	447.38
332.943	464.38
333.172	477.38
333.4	482.38
333.629	499.38
333.857	509.38
334.085	528.38
334.314	616.38
334.542	732.38
334.771	720.38
334.999	614.38
335.227	528.38
335.455	467.38
335.684	458.38
335.912	446.38
336.14	455.38
336.369	447.38
336.597	461.38
336.825	454.38
337.053	448.38
337.281	438.38
337.51	438.38
337.738	452.38
337.966	430.38
338.194	451.38
338.422	437.38
338.65	428.38
338.878	418.38
339.106	407.38
339.334	438.38
339.562	416.38
339.79	425.38
340.018	411.38
340.246	416.38
340.474	434.38
340.702	417.38
340.93	429.38
341.158	409.38
341.386	438.38
341.614	415.38
341.842	430.38
342.07	431.38
342.298	413.38
342.526	406.38
342.754	377.38
342.981	387.38
343.209	397.38
343.437	410.38
343.665	393.38
343.893	401.38
344.12	410.38
344.348	436.38
344.576	405.38
344.804	429.38
345.031	433.38
345.259	454.38
345.487	426.38
345.714	429.38
345.942	430.38
346.17	428.38
346.397	421.38
346.625	415.38
346.853	422.38
347.08	402.38
347.308	414.38
347.535	439.38
347.763	442.38
347.99	409.38
348.218	430.38
348.445	424.38
348.673	412.38
348.9	408.38
349.128	401.38
349.355	400.38
349.583	397.38
349.81	382.38
350.037	395.38
350.265	399.38
350.492	395.38
350.72	394.38
350.947	397.38
351.174	416.38
351.402	419.38
351.629	426.38
351.856	403.38
352.083	412.38
352.311	428.38
352.538	422.38
352.765	444.38
352.992	404.38
353.22	421.38
353.447	409.38
353.674	408.38
353.901	373.38
354.128	387.38
354.355	364.38
354.583	357.38
354.81	376.38
355.037	356.38
355.264	372.38
355.491	349.38
355.718	363.38
355.945	371.38
356.172	351.38
356.399	351.38
356.626	362.38
356.853	362.38
357.08	375.38
357.307	365.38
357.534	371.38
357.761	366.38
357.988	357.38
358.215	351.38
358.441	366.38
358.668	357.38
358.895	378.38
359.122	371.38
359.349	379.38
359.576	398.38
359.802	434.38
360.029	479.38
360.256	479.38
360.483	459.38
360.709	422.38
360.936	382.38
361.163	397.38
361.39	404.38
361.616	428.38
361.843	397.38
362.07	405.38
362.296	400.38
362.523	397.38
362.749	395.38
362.976	396.38
363.203	391.38
363.429	369.38
363.656	381.38
363.882	387.38
364.109	389.38
364.335	392.38
364.562	388.38
364.788	374.38
365.015	362.38
365.241	357.38
365.468	383.38
365.694	387.38
365.92	411.38
366.147	382.38
366.373	392.38
366.599	363.38
366.826	377.38
367.052	387.38
367.278	355.38
367.505	363.38
367.731	381.38
367.957	395.38
368.184	391.38
368.41	355.38
368.636	397.38
368.862	377.38
369.089	382.38
369.315	367.38
369.541	391.38
369.767	372.38
369.993	375.38
370.219	381.38
370.445	366.38
370.672	379.38
370.898	358.38
371.124	351.38
371.35	351.38
371.576	352.38
371.802	346.38
372.028	343.38
372.254	378.38
372.48	352.38
372.706	353.38
372.932	376.38
373.158	355.38
373.384	373.38
373.61	373.38
373.835	377.38
374.061	370.38
374.287	358.38
374.513	389.38
374.739	360.38
374.965	359.38
375.191	379.38
375.416	381.38
375.642	367.38
375.868	370.38
376.094	340.38
376.319	367.38
376.545	361.38
376.771	356.38
376.997	376.38
377.222	385.38
377.448	377.38
377.674	368.38
377.899	357.38
378.125	350.38
378.35	343.38
378.576	342.38
378.802	358.38
379.027	366.38
379.253	361.38
379.478	357.38
379.704	365.38
379.929	365.38
380.155	344.38
380.38	346.38
380.606	351.38
380.831	355.38
381.057	361.38
381.282	366.38
381.507	374.38
381.733	369.38
381.958	375.38
382.184	363.38
382.409	369.38
382.634	357.38
382.86	360.38
383.085	357.38
383.31	367.38
383.535	367.38
383.761	371.38
383.986	374.38
384.211	379.38
384.436	375.38
384.662	375.38
384.887	365.38
385.112	366.38
385.337	375.38
385.562	373.38
385.787	400.38
386.013	403.38
386.238	403.38
386.463	377.38
386.688	385.38
386.913	375.38
387.138	375.38
387.363	392.38
387.588	387.38
387.813	371.38
388.038	372.38
388.263	380.38
388.488	400.38
388.713	381.38
388.938	391.38
389.163	392.38
389.387	398.38
389.612	387.38
389.837	374.38
390.062	397.38
390.287	393.38
390.512	365.38
390.736	366.38
390.961	386.38
391.186	379.38
391.411	364.38
391.636	373.38
391.86	372.38
392.085	393.38
392.31	380.38
392.534	380.38
392.759	375.38
392.984	379.38
393.208	380.38
393.433	381.38
393.658	384.38
393.882	382.38
394.107	406.38
394.331	373.38
394.556	384.38
394.78	376.38
395.005	374.38
395.229	396.38
395.454	392.38
395.678	376.38
395.903	407.38
396.127	421.38
396.352	421.38
396.576	401.38
396.801	401.38
397.025	384.38
397.249	385.38
397.474	384.38
397.698	406.38
397.922	411.38
398.147	439.38
398.371	427.38
398.595	438.38
398.82	420.38
399.044	427.38
399.268	414.38
399.492	443.38
399.717	463.38
399.941	487.38
400.165	514.38
400.389	508.38
400.613	479.38
400.837	433.38
401.062	461.38
401.286	425.38
401.51	431.38
401.734	444.38
401.958	427.38
402.182	429.38
402.406	457.38
402.63	436.38
402.854	442.38
403.078	466.38
403.302	450.38
403.526	472.38
403.75	454.38
403.974	458.38
404.198	430.38
404.422	473.38
404.645	467.38
404.869	469.38
405.093	534.38
405.317	553.38
405.541	576.38
405.765	550.38
405.988	496.38
406.212	495.38
406.436	532.38
406.66	509.38
406.883	501.38
407.107	496.38
407.331	547.38
407.555	606.38
407.778	613.38
408.002	552.38
408.226	516.38
408.449	504.38
408.673	472.38
408.896	527.38
409.12	575.38
409.344	529.38
409.567	480.38
409.791	447.38
410.014	457.38
410.238	439.38
410.461	447.38
410.685	462.38
410.908	473.38
411.132	518.38
411.355	551.38
411.578	547.38
411.802	462.38
412.025	471.38
412.249	463.38
412.472	525.38
412.695	568.38
412.919	577.38
413.142	511.38
413.365	455.38
413.589	456.38
413.812	462.38
414.035	435.38
414.258	449.38
414.482	445.38
414.705	436.38
414.928	424.38
415.151	416.38
415.374	416.38
415.597	414.38
415.821	405.38
416.044	436.38
416.267	417.38
416.49	433.38
416.713	435.38
416.936	412.38
417.159	421.38
417.382	437.38
417.605	420.38
417.828	454.38
418.051	461.38
418.274	465.38
418.497	440.38
418.72	452.38
418.943	444.38
419.166	400.38
419.389	447.38
419.611	457.38
419.834	489.38
420.057	457.38
420.28	479.38
420.503	491.38
420.726	474.38
420.948	480.38
421.171	540.38
421.394	541.38
421.617	479.38
421.839	453.38
422.062	457.38
422.285	463.38
422.507	528.38
422.73	598.38
422.953	599.38
423.175	518.38
423.398	470.38
423.621	492.38
423.843	501.38
424.066	511.38
424.288	479.38
424.511	506.38
424.733	560.38
424.956	643.38
425.178	637.38
425.401	615.38
425.623	637.38
425.846	575.38
426.068	543.38
426.291	502.38
426.513	508.38
426.735	505.38
426.958	563.38
427.18	636.38
427.402	766.38
427.625	843.38
427.847	775.38
428.069	701.38
428.292	594.38
428.514	548.38
428.736	510.38
428.958	487.38
429.181	475.38
429.403	464.38
429.625	476.38
429.847	509.38
430.069	576.38
430.292	569.38
430.514	530.38
430.736	461.38
430.958	487.38
431.18	420.38
431.402	447.38
431.624	435.38
431.846	445.38
432.068	421.38
432.29	443.38
432.512	421.38
432.734	430.38
432.956	440.38
433.178	438.38
433.4	459.38
433.622	455.38
433.844	431.38
434.066	435.38
434.287	416.38
434.509	446.38
434.731	419.38
434.953	455.38
435.175	448.38
435.397	479.38
435.618	504.38
435.84	543.38
436.062	645.38
436.284	713.38
436.505	574.38
436.727	551.38
436.949	493.38
437.17	481.38
437.392	470.38
437.614	517.38
437.835	545.38
438.057	617.38
438.278	728.38
438.5	707.38
438.721	812.38
438.943	759.38
439.165	619.38
439.386	544.38
439.608	538.38
439.829	528.38
440.05	572.38
440.272	614.38
440.493	563.38
440.715	506.38
440.936	497.38
441.158	475.38
441.379	452.38
441.6	481.38
441.822	502.38
442.043	536.38
442.264	620.38
442.486	651.38
442.707	564.38
442.928	531.38
443.149	541.38
443.371	565.38
443.592	601.38
443.813	687.38
444.034	693.38
444.255	595.38
444.476	536.38
444.698	494.38
444.919	505.38
445.14	588.38
445.361	561.38
445.582	570.38
445.803	619.38
446.024	725.38
446.245	743.38
446.466	666.38
446.687	554.38
446.908	502.38
447.129	477.38
447.35	476.38
447.571	477.38
447.792	477.38
448.013	479.38
448.234	511.38
448.455	552.38
448.675	679.38
448.896	737.38
449.117	668.38
449.338	633.38
449.559	729.38
449.779	788.38
450	666.38
450.221	556.38
450.442	515.38
450.662	486.38
450.883	484.38
451.104	503.38
451.324	501.38
451.545	470.38
451.766	417.38
451.986	430.38
452.207	416.38
452.428	421.38
452.648	425.38
452.869	433.38
453.089	409.38
453.31	432.38
453.53	428.38
453.751	425.38
453.971	415.38
454.192	440.38
454.412	447.38
454.633	409.38
454.853	440.38
455.073	419.38
455.294	435.38
455.514	532.38
455.734	475.38
455.955	429.38
456.175	409.38
456.395	398.38
456.616	396.38
456.836	396.38
457.056	388.38
457.276	385.38
457.497	395.38
457.717	392.38
457.937	395.38
458.157	405.38
458.377	401.38
458.598	440.38
458.818	527.38
459.038	589.38
459.258	615.38
459.478	505.38
459.698	450.38
459.918	441.38
460.138	438.38
460.358	420.38
460.578	416.38
460.798	429.38
461.018	430.38
461.238	428.38
461.458	430.38
461.678	405.38
461.898	413.38
462.118	421.38
462.338	421.38
462.558	434.38
462.777	423.38
462.997	445.38
463.217	445.38
463.437	429.38
463.657	446.38
463.876	439.38
464.096	451.38
464.316	448.38
464.536	470.38
464.755	447.38
464.975	479.38
465.195	521.38
465.414	628.38
465.634	513.38
465.854	467.38
466.073	451.38
466.293	461.38
466.512	425.38
466.732	443.38
466.951	441.38
467.171	417.38
467.391	428.38
467.61	444.38
467.829	459.38
468.049	477.38
468.268	464.38
468.488	439.38
468.707	432.38
468.927	419.38
469.146	407.38
469.365	422.38
469.585	429.38
469.804	405.38
470.023	430.38
470.243	442.38
470.462	446.38
470.681	472.38
470.901	464.38
471.12	409.38
471.339	421.38
471.558	429.38
471.777	443.38
471.997	459.38
472.216	456.38
472.435	563.38
472.654	553.38
472.873	464.38
473.092	441.38
473.311	430.38
473.53	430.38
473.749	465.38
473.968	511.38
474.187	617.38
474.406	622.38
474.625	508.38
474.844	467.38
475.063	447.38
475.282	448.38
475.501	446.38
475.72	444.38
475.939	458.38
476.158	461.38
476.377	456.38
476.596	448.38
476.814	466.38
477.033	469.38
477.252	455.38
477.471	460.38
477.69	453.38
477.908	463.38
478.127	468.38
478.346	446.38
478.564	462.38
478.783	477.38
479.002	477.38
479.22	493.38
479.439	505.38
479.658	521.38
479.876	543.38
480.095	543.38
480.313	532.38
480.532	535.38
480.751	543.38
480.969	572.38
481.188	717.38
481.406	864.38
481.624	660.38
481.843	597.38
482.061	575.38
482.28	535.38
482.498	547.38
482.717	532.38
482.935	533.38
483.153	505.38
483.372	507.38
483.59	543.38
483.808	526.38
484.027	503.38
484.245	527.38
484.463	503.38
484.681	531.38
484.9	528.38
485.118	523.38
485.336	527.38
485.554	524.38
485.772	526.38
485.99	517.38
486.209	510.38
486.427	557.38
486.645	557.38
486.863	564.38
487.081	563.38
487.299	556.38
487.517	571.38
487.735	549.38
487.953	561.38
488.171	559.38
488.389	553.38
488.607	569.38
488.825	575.38
489.043	544.38
489.261	565.38
489.479	563.38
489.696	579.38
489.914	569.38
490.132	592.38
490.35	609.38
490.568	606.38
490.786	612.38
491.003	617.38
491.221	637.38
491.439	635.38
491.657	640.38
491.874	673.38
492.092	656.38
492.31	677.38
492.527	680.38
492.745	672.38
492.963	685.38
493.18	667.38
493.398	695.38
493.615	673.38
493.833	700.38
494.05	674.38
494.268	686.38
494.485	699.38
494.703	654.38
494.92	686.38
495.138	672.38
495.355	676.38
495.573	701.38
495.79	677.38
496.008	697.38
496.225	657.38
496.442	651.38
496.66	664.38
496.877	660.38
497.094	676.38
497.312	685.38
497.529	710.38
497.746	715.38
497.963	708.38
498.181	715.38
498.398	701.38
498.615	725.38
498.832	727.38
499.049	716.38
499.267	764.38
499.484	750.38
499.701	751.38
499.918	750.38
500.135	751.38
500.352	797.38
500.569	793.38
500.786	812.38
501.003	834.38
501.22	784.38
501.437	788.38
501.654	799.38
501.871	791.38
502.088	784.38
502.305	733.38
502.522	714.38
502.739	723.38
502.956	701.38
503.172	696.38
503.389	697.38
503.606	671.38
503.823	689.38
504.04	668.38
504.256	672.38
504.473	651.38
504.69	653.38
504.907	652.38
505.123	658.38
505.34	641.38
505.557	645.38
505.773	653.38
505.99	648.38
506.207	667.38
506.423	661.38
506.64	640.38
506.856	625.38
507.073	622.38
507.289	643.38
507.506	629.38
507.722	630.38
507.939	680.38
508.155	665.38
508.372	654.38
508.588	625.38
508.805	611.38
509.021	615.38
509.238	648.38
509.454	640.38
509.67	635.38
509.887	624.38
510.103	646.38
510.319	648.38
510.536	782.38
510.752	1318.38
510.968	1067.38
511.184	685.38
511.401	611.38
511.617	604.38
511.833	629.38
512.049	628.38
512.265	611.38
512.481	602.38
512.698	615.38
512.914	603.38
513.13	587.38
513.346	594.38
513.562	611.38
513.778	625.38
513.994	608.38
514.21	630.38
514.426	645.38
514.642	712.38
514.858	744.38
515.074	779.38
515.29	963.38
515.506	1467.38
515.721	1191.38
515.937	772.38
516.153	701.38
516.369	649.38
516.585	629.38
516.801	592.38
517.016	613.38
517.232	603.38
517.448	581.38
517.664	585.38
517.879	591.38
518.095	582.38
518.311	576.38
518.527	589.38
518.742	597.38
518.958	588.38
519.173	599.38
519.389	589.38
519.605	597.38
519.82	591.38
520.036	625.38
520.251	640.38
520.467	703.38
520.682	663.38
520.898	668.38
521.113	709.38
521.329	776.38
521.544	866.38
521.76	1126.38
521.975	1963.38
522.19	1911.38
522.406	1018.38
522.621	719.38
522.836	659.38
523.052	620.38
523.267	581.38
523.482	544.38
523.698	563.38
523.913	565.38
524.128	548.38
524.343	545.38
524.559	525.38
524.774	516.38
524.989	513.38
525.204	526.38
525.419	538.38
525.634	500.38
525.849	492.38
526.064	505.38
526.28	486.38
526.495	481.38
526.71	474.38
526.925	461.38
527.14	483.38
527.355	477.38
527.57	467.38
527.785	485.38
527.999	470.38
528.214	465.38
528.429	472.38
528.644	476.38
528.859	465.38
529.074	471.38
529.289	521.38
529.503	582.38
529.718	600.38
529.933	537.38
530.148	489.38
530.363	483.38
530.577	480.38
530.792	446.38
531.007	458.38
531.221	457.38
531.436	461.38
531.651	491.38
531.865	452.38
532.08	452.38
532.295	427.38
532.509	455.38
532.724	453.38
532.938	471.38
533.153	441.38
533.367	445.38
533.582	452.38
533.796	439.38
534.011	439.38
534.225	425.38
534.44	447.38
534.654	431.38
534.868	432.38
535.083	428.38
535.297	447.38
535.511	436.38
535.726	463.38
535.94	466.38
536.154	451.38
536.369	449.38
536.583	458.38
536.797	433.38
537.011	438.38
537.225	420.38
537.44	420.38
537.654	428.38
537.868	427.38
538.082	412.38
538.296	429.38
538.51	428.38
538.724	424.38
538.938	433.38
539.153	419.38
539.367	435.38
539.581	437.38
539.795	430.38
540.009	431.38
540.222	427.38
540.436	433.38
540.65	441.38
540.864	437.38
541.078	438.38
541.292	443.38
541.506	439.38
541.72	414.38
541.934	435.38
542.147	421.38
542.361	433.38
542.575	410.38
542.789	402.38
543.002	383.38
543.216	412.38
543.43	438.38
543.644	427.38
543.857	430.38
544.071	412.38
544.285	420.38
544.498	404.38
544.712	435.38
544.925	410.38
545.139	427.38
545.352	385.38
545.566	406.38
545.779	391.38
545.993	419.38
546.206	423.38
546.42	401.38
546.633	402.38
546.847	395.38
547.06	375.38
547.274	396.38
547.487	387.38
547.7	396.38
547.914	398.38
548.127	379.38
548.34	391.38
548.554	408.38
548.767	389.38
548.98	380.38
549.193	396.38
549.407	388.38
549.62	378.38
549.833	377.38
550.046	393.38
550.259	397.38
550.473	372.38
550.686	395.38
550.899	383.38
551.112	390.38
551.325	397.38
551.538	380.38
551.751	379.38
551.964	383.38
552.177	384.38
552.39	394.38
552.603	387.38
552.816	367.38
553.029	373.38
553.242	381.38
553.455	397.38
553.667	398.38
553.88	410.38
554.093	405.38
554.306	385.38
554.519	394.38
554.732	378.38
554.944	377.38
555.157	404.38
555.37	379.38
555.583	381.38
555.795	375.38
556.008	349.38
556.221	378.38
556.433	366.38
556.646	379.38
556.859	369.38
557.071	384.38
557.284	360.38
557.496	367.38
557.709	367.38
557.921	345.38
558.134	344.38
558.346	351.38
558.559	369.38
558.771	351.38
558.984	342.38
559.196	343.38
559.409	344.38
559.621	339.38
559.833	361.38
560.046	356.38
560.258	335.38
560.47	355.38
560.683	361.38
560.895	357.38
561.107	369.38
561.32	354.38
561.532	360.38
561.744	349.38
561.956	332.38
562.168	356.38
562.381	356.38
562.593	350.38
562.805	372.38
563.017	338.38
563.229	347.38
563.441	350.38
563.653	356.38
563.865	349.38
564.077	340.38
564.289	359.38
564.501	357.38
564.713	362.38
564.925	363.38
565.137	373.38
565.349	387.38
565.561	363.38
565.773	373.38
565.985	360.38
566.197	364.38
566.408	379.38
566.62	389.38
566.832	378.38
567.044	383.38
567.255	393.38
567.467	400.38
567.679	385.38
567.891	395.38
568.102	396.38
568.314	381.38
568.526	393.38
568.737	376.38
568.949	387.38
569.161	350.38
569.372	357.38
569.584	352.38
569.795	365.38
570.007	383.38
570.218	421.38
570.43	377.38
570.641	323.38
570.853	336.38
571.064	362.38
571.276	327.38
571.487	329.38
571.698	330.38
571.91	308.38
572.121	331.38
572.333	315.38
572.544	326.38
572.755	328.38
572.966	306.38
573.178	328.38
573.389	320.38
573.6	297.38
573.811	310.38
574.023	296.38
574.234	319.38
574.445	307.38
574.656	309.38
574.867	309.38
575.078	293.38
575.289	301.38
575.501	312.38
575.712	312.38
575.923	303.38
576.134	297.38
576.345	301.38
576.556	288.38
576.767	320.38
576.978	295.38
577.188	309.38
577.399	288.38
577.61	273.38
577.821	308.38
578.032	315.38
578.243	359.38
578.454	616.38
578.665	441.38
578.875	310.38
579.086	292.38
579.297	267.38
579.508	277.38
579.718	274.38
579.929	298.38
580.14	287.38
580.35	315.38
580.561	294.38
580.772	287.38
580.982	284.38
581.193	285.38
581.403	290.38
581.614	296.38
581.825	289.38
582.035	298.38
582.246	270.38
582.456	271.38
582.667	262.38
582.877	275.38
583.087	279.38
583.298	287.38
583.508	270.38
583.719	270.38
583.929	273.38
584.139	285.38
584.35	270.38
584.56	280.38
584.77	277.38
584.981	271.38
585.191	279.38
585.401	264.38
585.611	278.38
585.821	285.38
586.032	282.38
586.242	286.38
586.452	257.38
586.662	271.38
586.872	281.38
587.082	258.38
587.292	262.38
587.502	285.38
587.713	293.38
587.923	271.38
588.133	285.38
588.343	279.38
588.553	271.38
588.762	282.38
588.972	271.38
589.182	268.38
589.392	256.38
589.602	274.38
589.812	280.38
590.022	284.38
590.232	265.38
590.441	269.38
590.651	271.38
590.861	280.38
591.071	283.38
591.281	271.38
591.49	278.38
591.7	269.38
591.91	265.38
592.119	251.38
592.329	273.38
592.539	278.38
592.748	274.38
592.958	274.38
593.167	266.38
593.377	277.38
593.587	286.38
593.796	265.38
594.006	269.38
594.215	277.38
594.424	264.38
594.634	266.38
594.843	258.38
595.053	268.38
595.262	266.38
595.472	264.38
595.681	251.38
595.89	244.38
596.1	253.38
596.309	259.38
596.518	271.38
596.727	271.38
596.937	238.38
597.146	240.38
597.355	263.38
597.564	235.38
597.774	254.38
597.983	258.38
598.192	247.38
598.401	252.38
598.61	251.38
598.819	245.38
599.028	252.38
599.237	248.38
599.446	241.38
599.655	249.38
599.864	240.38
600.073	233.38
600.282	237.38
600.491	230.38
600.7	243.38
600.909	239.38
601.118	248.38
601.327	221.38
601.536	239.38
601.745	247.38
601.953	226.38
602.162	243.38
602.371	247.38
602.58	208.38
602.789	231.38
602.997	229.38
603.206	239.38
603.415	227.38
603.623	245.38
603.832	237.38
604.041	244.38
604.249	245.38
604.458	243.38
604.666	249.38
604.875	222.38
605.084	237.38
605.292	222.38
605.501	215.38
605.709	231.38
605.918	238.38
606.126	219.38
606.334	237.38
606.543	238.38
606.751	224.38
606.96	229.38
607.168	227.38
607.376	236.38
607.585	228.38
607.793	245.38
608.001	225.38
608.21	238.38
608.418	227.38
608.626	227.38
608.834	230.38
609.043	230.38
609.251	225.38
609.459	236.38
609.667	233.38
609.875	235.38
610.083	228.38
610.291	208.38
610.499	219.38
610.707	241.38
610.916	236.38
611.124	235.38
611.332	224.38
611.54	224.38
611.748	227.38
611.955	223.38
612.163	229.38
612.371	221.38
612.579	233.38
612.787	224.38
612.995	224.38
613.203	239.38
613.411	213.38
613.618	222.38
613.826	221.38
614.034	204.38
614.242	224.38
614.449	205.38
614.657	228.38
614.865	235.38
615.072	230.38
615.28	217.38
615.488	218.38
615.695	224.38
615.903	218.38
616.111	217.38
616.318	233.38
616.526	218.38
616.733	225.38
616.941	213.38
617.148	232.38
617.356	225.38
617.563	229.38
617.771	240.38
617.978	223.38
618.185	210.38
618.393	206.38
618.6	222.38
618.807	211.38
619.015	203.38
619.222	208.38
619.429	226.38
619.637	229.38
619.844	225.38
620.051	208.38
620.258	208.38
620.466	216.38
620.673	201.38
620.88	204.38
621.087	190.38
621.294	208.38
621.501	202.38
621.708	209.38
621.915	216.38
622.122	219.38
622.329	203.38
622.536	214.38
622.743	209.38
622.95	187.38
623.157	223.38
623.364	215.38
623.571	205.38
623.778	206.38
623.985	196.38
624.192	202.38
624.399	193.38
624.606	213.38
624.812	180.38
625.019	206.38
625.226	195.38
625.433	199.38
625.639	188.38
625.846	201.38
626.053	201.38
626.259	199.38
626.466	196.38
626.673	192.38
626.879	201.38
627.086	187.38
627.293	191.38
627.499	182.38
627.706	197.38
627.912	195.38
628.119	175.38
628.325	196.38
628.532	190.38
628.738	191.38
628.945	192.38
629.151	186.38
629.357	183.38
629.564	207.38
629.77	191.38
629.976	192.38
630.183	179.38
630.389	179.38
630.595	185.38
630.802	189.38
631.008	189.38
631.214	182.38
631.42	185.38
631.627	188.38
631.833	177.38
632.039	174.38
632.245	184.38
632.451	173.38
632.657	176.38
632.863	191.38
633.069	187.38
633.275	179.38
633.481	179.38
633.688	174.38
633.893	191.38
634.099	183.38
634.305	162.38
634.511	160.38
634.717	160.38
634.923	172.38
635.129	178.38
635.335	196.38
635.541	175.38
635.747	171.38
635.952	166.38
636.158	180.38
636.364	196.38
636.57	186.38
636.775	174.38
636.981	178.38
637.187	185.38
637.392	172.38
637.598	167.38
637.804	162.38
638.009	167.38
638.215	175.38
638.421	162.38
638.626	169.38
638.832	181.38
639.037	158.38
639.243	173.38
639.448	175.38
639.654	201.38
639.859	167.38
640.065	173.38
640.27	163.38
640.475	180.38
640.681	163.38
640.886	163.38
641.091	167.38
641.297	176.38
641.502	161.38
641.707	164.38
641.913	174.38
642.118	176.38
642.323	151.38
642.528	167.38
642.733	151.38
642.939	151.38
643.144	160.38
643.349	158.38
643.554	146.38
643.759	180.38
643.964	157.38
644.169	153.38
644.374	145.38
644.579	154.38
644.784	162.38
644.989	158.38
645.194	161.38
645.399	148.38
645.604	164.38
645.809	160.38
646.014	166.38
646.219	172.38
646.423	158.38
646.628	165.38
646.833	156.38
647.038	156.38
647.243	163.38
647.447	145.38
647.652	173.38
647.857	160.38
648.062	173.38
648.266	162.38
648.471	160.38
648.676	141.38
648.88	142.38
649.085	163.38
649.289	163.38
649.494	167.38
649.698	188.38
649.903	185.38
650.107	163.38
650.312	169.38
650.516	158.38
650.721	153.38
650.925	155.38
651.13	135.38
651.334	136.38
651.539	150.38
651.743	159.38
651.947	151.38
652.152	132.38
652.356	139.38
652.56	138.38
652.764	145.38
652.969	147.38
653.173	134.38
653.377	128.38
653.581	132.38
653.785	139.38
653.99	133.38
654.194	145.38
654.398	151.38
654.602	130.38
654.806	130.38
655.01	132.38
655.214	133.38
655.418	113.38
655.622	123.38
655.826	125.38
656.03	122.38
656.234	130.38
656.438	119.38
656.642	134.38
656.846	129.38
657.049	125.38
657.253	134.38
657.457	125.38
657.661	121.38
657.865	108.38
658.068	112.38
658.272	100.38
658.476	107.38
658.68	100.38
658.883	98.38
659.087	107.38
659.291	109.38
659.494	100.38
659.698	112.38
659.901	106.38
660.105	99.38
660.309	101.38
660.512	94.38
660.716	100.38
660.919	91.38
661.123	86.38
661.326	79.38
661.53	80.38
661.733	91.38
661.936	101.38
662.14	88.38
662.343	91.38
662.546	83.38
662.75	94.38
662.953	89.38
663.156	99.38
663.36	92.38
663.563	85.38
663.766	89.38
663.969	80.38
664.173	72.38
664.376	81.38
664.579	84.38
664.782	103.38
664.985	100.38
665.188	81.38
665.391	83.38
665.594	77.38
665.797	80.38
666	71.38
666.203	97.38
666.406	86.38
666.609	84.38
666.812	95.38
667.015	83.38
667.218	89.38
667.421	93.38
667.624	79.38
667.827	91.38
668.03	83.38
668.232	76.38
668.435	93.38
668.638	83.38
668.841	75.38
669.043	86.38
669.246	91.38
669.449	90.38
669.651	100.38
669.854	78.38
670.057	94.38
670.259	92.38
670.462	83.38
670.665	82.38
670.867	88.38
671.07	88.38
671.272	67.38
671.475	91.38
671.677	85.38
671.88	87.38
672.082	92.38
672.284	77.38
672.487	99.38
672.689	92.38
672.892	87.38
