Data from 1986.PennyLincolnUp.Lamp.En5.5.200Scan.071819.P2_HRD10591_17-10-51-974.txt Node
Date: Thu Jul 18 17:10:51 EDT 2019
User: cochatt
Spectrometer: HR+D1059
Trigger mode: 1
Integration Time (sec): 1.000000E-1
Scans to average: 1
Electric dark correction enabled: true
Nonlinearity correction enabled: false
Boxcar width: 0
XAxis mode: Wavelengths
Number of Pixels in Spectrum: 2048
>>>>>Begin Spectral Data<<<<<
223.165	-24.31
223.4	-24.31
223.635	-24.31
223.869	-8.31
224.104	-21.31
224.338	-27.31
224.573	-19.31
224.808	-20.31
225.042	-17.31
225.277	2.69
225.511	9.69
225.746	0.69
225.98	2.69
226.215	11.69
226.449	8.69
226.683	16.69
226.918	37.69
227.152	47.69
227.387	25.69
227.621	36.69
227.856	43.69
228.09	45.69
228.324	59.69
228.559	45.69
228.793	73.69
229.027	94.69
229.262	92.69
229.496	119.69
229.73	134.69
229.964	159.69
230.199	135.69
230.433	123.69
230.667	110.69
230.901	111.69
231.136	118.69
231.37	113.69
231.604	108.69
231.838	109.69
232.072	123.69
232.306	104.69
232.541	110.69
232.775	108.69
233.009	99.69
233.243	111.69
233.477	107.69
233.711	120.69
233.945	120.69
234.179	127.69
234.413	125.69
234.647	115.69
234.881	129.69
235.115	135.69
235.349	118.69
235.583	115.69
235.817	123.69
236.051	132.69
236.285	130.69
236.519	124.69
236.753	117.69
236.987	131.69
237.221	203.69
237.455	244.69
237.689	192.69
237.922	132.69
238.156	136.69
238.39	122.69
238.624	120.69
238.858	142.69
239.091	134.69
239.325	106.69
239.559	113.69
239.793	126.69
240.027	140.69
240.26	159.69
240.494	174.69
240.728	159.69
240.961	150.69
241.195	152.69
241.429	141.69
241.662	134.69
241.896	135.69
242.13	134.69
242.363	129.69
242.597	124.69
242.83	151.69
243.064	132.69
243.298	136.69
243.531	133.69
243.765	145.69
243.998	138.69
244.232	136.69
244.465	140.69
244.699	150.69
244.932	152.69
245.166	147.69
245.399	154.69
245.633	150.69
245.866	145.69
246.099	152.69
246.333	159.69
246.566	156.69
246.8	155.69
247.033	180.69
247.266	151.69
247.5	164.69
247.733	172.69
247.966	168.69
248.2	173.69
248.433	172.69
248.666	181.69
248.899	192.69
249.133	196.69
249.366	216.69
249.599	210.69
249.832	190.69
250.066	190.69
250.299	184.69
250.532	204.69
250.765	214.69
250.998	230.69
251.231	247.69
251.465	239.69
251.698	215.69
251.931	223.69
252.164	204.69
252.397	203.69
252.63	203.69
252.863	218.69
253.096	253.69
253.329	244.69
253.562	234.69
253.795	231.69
254.028	217.69
254.261	236.69
254.494	235.69
254.727	264.69
254.96	296.69
255.193	296.69
255.426	267.69
255.659	246.69
255.892	262.69
256.124	251.69
256.357	273.69
256.59	255.69
256.823	228.69
257.056	233.69
257.289	229.69
257.521	226.69
257.754	214.69
257.987	209.69
258.22	221.69
258.452	230.69
258.685	201.69
258.918	203.69
259.151	230.69
259.383	223.69
259.616	230.69
259.849	231.69
260.081	234.69
260.314	268.69
260.547	272.69
260.779	250.69
261.012	236.69
261.244	228.69
261.477	229.69
261.71	228.69
261.942	233.69
262.175	258.69
262.407	241.69
262.64	228.69
262.872	221.69
263.105	224.69
263.337	217.69
263.57	206.69
263.802	225.69
264.035	198.69
264.267	196.69
264.499	213.69
264.732	221.69
264.964	195.69
265.197	221.69
265.429	192.69
265.661	216.69
265.894	203.69
266.126	215.69
266.358	223.69
266.591	215.69
266.823	211.69
267.055	237.69
267.287	232.69
267.52	216.69
267.752	221.69
267.984	220.69
268.216	225.69
268.448	234.69
268.681	242.69
268.913	249.69
269.145	278.69
269.377	265.69
269.609	298.69
269.841	271.69
270.073	272.69
270.306	296.69
270.538	318.69
270.77	342.69
271.002	308.69
271.234	301.69
271.466	314.69
271.698	327.69
271.93	331.69
272.162	331.69
272.394	322.69
272.626	322.69
272.858	301.69
273.09	276.69
273.322	286.69
273.553	282.69
273.785	250.69
274.017	256.69
274.249	276.69
274.481	275.69
274.713	281.69
274.945	276.69
275.176	272.69
275.408	262.69
275.64	256.69
275.872	250.69
276.104	276.69
276.335	266.69
276.567	280.69
276.799	286.69
277.031	318.69
277.262	320.69
277.494	328.69
277.726	301.69
277.957	293.69
278.189	283.69
278.421	279.69
278.652	264.69
278.884	258.69
279.115	263.69
279.347	255.69
279.579	280.69
279.81	268.69
280.042	268.69
280.273	265.69
280.505	252.69
280.736	262.69
280.968	271.69
281.199	262.69
281.431	255.69
281.662	260.69
281.894	258.69
282.125	291.69
282.356	305.69
282.588	303.69
282.819	278.69
283.051	285.69
283.282	261.69
283.513	270.69
283.745	260.69
283.976	270.69
284.207	264.69
284.439	275.69
284.67	260.69
284.901	258.69
285.132	266.69
285.364	264.69
285.595	269.69
285.826	268.69
286.057	274.69
286.288	254.69
286.52	264.69
286.751	266.69
286.982	270.69
287.213	262.69
287.444	272.69
287.675	281.69
287.906	268.69
288.138	273.69
288.369	294.69
288.6	278.69
288.831	272.69
289.062	267.69
289.293	285.69
289.524	253.69
289.755	289.69
289.986	258.69
290.217	268.69
290.448	263.69
290.679	268.69
290.91	261.69
291.141	274.69
291.371	272.69
291.602	281.69
291.833	271.69
292.064	270.69
292.295	290.69
292.526	277.69
292.757	278.69
292.987	278.69
293.218	265.69
293.449	272.69
293.68	263.69
293.91	276.69
294.141	279.69
294.372	285.69
294.603	282.69
294.833	272.69
295.064	260.69
295.295	281.69
295.525	286.69
295.756	272.69
295.987	302.69
296.217	316.69
296.448	323.69
296.679	295.69
296.909	276.69
297.14	279.69
297.37	290.69
297.601	277.69
297.831	279.69
298.062	273.69
298.292	282.69
298.523	276.69
298.753	277.69
298.984	279.69
299.214	295.69
299.445	297.69
299.675	278.69
299.905	284.69
300.136	301.69
300.366	297.69
300.597	282.69
300.827	294.69
301.057	316.69
301.288	298.69
301.518	312.69
301.748	301.69
301.979	288.69
302.209	315.69
302.439	310.69
302.669	302.69
302.9	310.69
303.13	287.69
303.36	319.69
303.59	308.69
303.82	349.69
304.051	325.69
304.281	326.69
304.511	301.69
304.741	299.69
304.971	288.69
305.201	294.69
305.431	298.69
305.661	306.69
305.891	290.69
306.121	297.69
306.352	329.69
306.582	328.69
306.812	310.69
307.042	300.69
307.272	303.69
307.502	307.69
307.731	324.69
307.961	320.69
308.191	312.69
308.421	314.69
308.651	299.69
308.881	322.69
309.111	318.69
309.341	313.69
309.571	343.69
309.8	363.69
310.03	356.69
310.26	366.69
310.49	359.69
310.72	358.69
310.949	377.69
311.179	386.69
311.409	375.69
311.639	368.69
311.868	365.69
312.098	351.69
312.328	375.69
312.557	393.69
312.787	407.69
313.017	398.69
313.246	372.69
313.476	355.69
313.706	347.69
313.935	377.69
314.165	375.69
314.394	374.69
314.624	383.69
314.853	365.69
315.083	368.69
315.312	372.69
315.542	374.69
315.771	365.69
316.001	342.69
316.23	342.69
316.46	349.69
316.689	355.69
316.919	367.69
317.148	377.69
317.377	365.69
317.607	369.69
317.836	365.69
318.065	348.69
318.295	349.69
318.524	343.69
318.753	341.69
318.983	361.69
319.212	339.69
319.441	377.69
319.67	380.69
319.9	379.69
320.129	380.69
320.358	381.69
320.587	371.69
320.816	378.69
321.046	396.69
321.275	395.69
321.504	387.69
321.733	391.69
321.962	409.69
322.191	410.69
322.42	440.69
322.649	460.69
322.878	471.69
323.108	482.69
323.337	501.69
323.566	518.69
323.795	548.69
324.024	615.69
324.253	746.69
324.482	1064.69
324.71	1614.69
324.939	2336.69
325.168	2064.69
325.397	1101.69
325.626	706.69
325.855	586.69
326.084	525.69
326.313	512.69
326.542	533.69
326.77	554.69
326.999	711.69
327.228	943.69
327.457	1426.69
327.686	1751.69
327.914	1237.69
328.143	810.69
328.372	677.69
328.6	671.69
328.829	595.69
329.058	610.69
329.287	627.69
329.515	586.69
329.744	547.69
329.972	531.69
330.201	549.69
330.43	612.69
330.658	645.69
330.887	676.69
331.115	634.69
331.344	548.69
331.572	487.69
331.801	475.69
332.03	496.69
332.258	472.69
332.486	442.69
332.715	443.69
332.943	438.69
333.172	400.69
333.4	443.69
333.629	436.69
333.857	451.69
334.085	472.69
334.314	493.69
334.542	527.69
334.771	557.69
334.999	505.69
335.227	459.69
335.455	446.69
335.684	429.69
335.912	426.69
336.14	409.69
336.369	414.69
336.597	409.69
336.825	428.69
337.053	396.69
337.281	392.69
337.51	393.69
337.738	435.69
337.966	417.69
338.194	422.69
338.422	420.69
338.65	404.69
338.878	397.69
339.106	390.69
339.334	414.69
339.562	390.69
339.79	378.69
340.018	389.69
340.246	400.69
340.474	410.69
340.702	421.69
340.93	390.69
341.158	386.69
341.386	390.69
341.614	402.69
341.842	391.69
342.07	399.69
342.298	382.69
342.526	404.69
342.754	383.69
342.981	403.69
343.209	374.69
343.437	380.69
343.665	391.69
343.893	372.69
344.12	392.69
344.348	382.69
344.576	399.69
344.804	396.69
345.031	423.69
345.259	422.69
345.487	413.69
345.714	390.69
345.942	387.69
346.17	362.69
346.397	394.69
346.625	378.69
346.853	390.69
347.08	386.69
347.308	386.69
347.535	409.69
347.763	422.69
347.99	399.69
348.218	400.69
348.445	412.69
348.673	416.69
348.9	410.69
349.128	389.69
349.355	375.69
349.583	359.69
349.81	368.69
350.037	375.69
350.265	362.69
350.492	373.69
350.72	390.69
350.947	372.69
351.174	404.69
351.402	411.69
351.629	400.69
351.856	405.69
352.083	418.69
352.311	423.69
352.538	426.69
352.765	410.69
352.992	402.69
353.22	407.69
353.447	406.69
353.674	389.69
353.901	373.69
354.128	379.69
354.355	367.69
354.583	363.69
354.81	358.69
355.037	347.69
355.264	340.69
355.491	351.69
355.718	351.69
355.945	339.69
356.172	339.69
356.399	354.69
356.626	344.69
356.853	352.69
357.08	339.69
357.307	338.69
357.534	348.69
357.761	349.69
357.988	355.69
358.215	348.69
358.441	350.69
358.668	356.69
358.895	386.69
359.122	379.69
359.349	366.69
359.576	380.69
359.802	418.69
360.029	437.69
360.256	464.69
360.483	444.69
360.709	396.69
360.936	382.69
361.163	381.69
361.39	410.69
361.616	395.69
361.843	386.69
362.07	381.69
362.296	380.69
362.523	394.69
362.749	372.69
362.976	376.69
363.203	367.69
363.429	376.69
363.656	376.69
363.882	370.69
364.109	355.69
364.335	361.69
364.562	351.69
364.788	363.69
365.015	361.69
365.241	376.69
365.468	366.69
365.694	411.69
365.92	400.69
366.147	370.69
366.373	348.69
366.599	374.69
366.826	359.69
367.052	345.69
367.278	348.69
367.505	351.69
367.731	369.69
367.957	367.69
368.184	361.69
368.41	378.69
368.636	370.69
368.862	380.69
369.089	362.69
369.315	353.69
369.541	375.69
369.767	380.69
369.993	369.69
370.219	357.69
370.445	337.69
370.672	358.69
370.898	354.69
371.124	350.69
371.35	362.69
371.576	359.69
371.802	358.69
372.028	363.69
372.254	352.69
372.48	340.69
372.706	354.69
372.932	347.69
373.158	339.69
373.384	355.69
373.61	353.69
373.835	347.69
374.061	348.69
374.287	352.69
374.513	362.69
374.739	355.69
374.965	365.69
375.191	349.69
375.416	343.69
375.642	354.69
375.868	346.69
376.094	359.69
376.319	340.69
376.545	335.69
376.771	347.69
376.997	346.69
377.222	361.69
377.448	366.69
377.674	349.69
377.899	348.69
378.125	353.69
378.35	338.69
378.576	342.69
378.802	345.69
379.027	348.69
379.253	357.69
379.478	346.69
379.704	348.69
379.929	343.69
380.155	332.69
380.38	347.69
380.606	347.69
380.831	337.69
381.057	353.69
381.282	355.69
381.507	359.69
381.733	364.69
381.958	332.69
382.184	350.69
382.409	352.69
382.634	349.69
382.86	359.69
383.085	334.69
383.31	359.69
383.535	357.69
383.761	353.69
383.986	344.69
384.211	353.69
384.436	330.69
384.662	368.69
384.887	378.69
385.112	350.69
385.337	356.69
385.562	359.69
385.787	364.69
386.013	366.69
386.238	375.69
386.463	364.69
386.688	365.69
386.913	376.69
387.138	376.69
387.363	364.69
387.588	357.69
387.813	352.69
388.038	354.69
388.263	375.69
388.488	378.69
388.713	374.69
388.938	372.69
389.163	370.69
389.387	379.69
389.612	356.69
389.837	368.69
390.062	363.69
390.287	366.69
390.512	333.69
390.736	354.69
390.961	369.69
391.186	368.69
391.411	358.69
391.636	364.69
391.86	378.69
392.085	376.69
392.31	358.69
392.534	378.69
392.759	380.69
392.984	378.69
393.208	378.69
393.433	392.69
393.658	366.69
393.882	378.69
394.107	391.69
394.331	384.69
394.556	367.69
394.78	383.69
395.005	372.69
395.229	383.69
395.454	360.69
395.678	375.69
395.903	383.69
396.127	400.69
396.352	406.69
396.576	377.69
396.801	376.69
397.025	374.69
397.249	380.69
397.474	372.69
397.698	374.69
397.922	413.69
398.147	424.69
398.371	410.69
398.595	421.69
398.82	409.69
399.044	418.69
399.268	408.69
399.492	421.69
399.717	417.69
399.941	471.69
400.165	488.69
400.389	509.69
400.613	491.69
400.837	443.69
401.062	435.69
401.286	411.69
401.51	424.69
401.734	419.69
401.958	415.69
402.182	429.69
402.406	434.69
402.63	448.69
402.854	435.69
403.078	411.69
403.302	415.69
403.526	435.69
403.75	424.69
403.974	453.69
404.198	418.69
404.422	418.69
404.645	439.69
404.869	466.69
405.093	461.69
405.317	520.69
405.541	543.69
405.765	493.69
405.988	454.69
406.212	450.69
406.436	478.69
406.66	519.69
406.883	475.69
407.107	490.69
407.331	523.69
407.555	566.69
407.778	580.69
408.002	536.69
408.226	489.69
408.449	464.69
408.673	475.69
408.896	514.69
409.12	538.69
409.344	508.69
409.567	460.69
409.791	464.69
410.014	421.69
410.238	412.69
410.461	429.69
410.685	452.69
410.908	454.69
411.132	507.69
411.355	530.69
411.578	508.69
411.802	454.69
412.025	446.69
412.249	444.69
412.472	466.69
412.695	506.69
412.919	487.69
413.142	450.69
413.365	443.69
413.589	449.69
413.812	417.69
414.035	411.69
414.258	424.69
414.482	418.69
414.705	412.69
414.928	419.69
415.151	408.69
415.374	406.69
415.597	399.69
415.821	430.69
416.044	401.69
416.267	412.69
416.49	411.69
416.713	401.69
416.936	403.69
417.159	410.69
417.382	424.69
417.605	404.69
417.828	414.69
418.051	432.69
418.274	441.69
418.497	404.69
418.72	412.69
418.943	400.69
419.166	429.69
419.389	455.69
419.611	435.69
419.834	436.69
420.057	445.69
420.28	459.69
420.503	476.69
420.726	435.69
420.948	454.69
421.171	491.69
421.394	520.69
421.617	475.69
421.839	441.69
422.062	452.69
422.285	454.69
422.507	517.69
422.73	568.69
422.953	564.69
423.175	486.69
423.398	452.69
423.621	476.69
423.843	474.69
424.066	472.69
424.288	478.69
424.511	492.69
424.733	525.69
424.956	620.69
425.178	622.69
425.401	621.69
425.623	615.69
425.846	543.69
426.068	517.69
426.291	500.69
426.513	485.69
426.735	472.69
426.958	542.69
427.18	618.69
427.402	734.69
427.625	828.69
427.847	749.69
428.069	622.69
428.292	564.69
428.514	507.69
428.736	478.69
428.958	458.69
429.181	459.69
429.403	442.69
429.625	467.69
429.847	475.69
430.069	559.69
430.292	555.69
430.514	457.69
430.736	439.69
430.958	434.69
431.18	440.69
431.402	409.69
431.624	398.69
431.846	406.69
432.068	405.69
432.29	430.69
432.512	439.69
432.734	408.69
432.956	422.69
433.178	423.69
433.4	437.69
433.622	411.69
433.844	429.69
434.066	414.69
434.287	408.69
434.509	419.69
434.731	415.69
434.953	440.69
435.175	453.69
435.397	464.69
435.618	479.69
435.84	535.69
436.062	623.69
436.284	691.69
436.505	570.69
436.727	532.69
436.949	465.69
437.17	454.69
437.392	452.69
437.614	462.69
437.835	521.69
438.057	610.69
438.278	695.69
438.5	706.69
438.721	766.69
438.943	698.69
439.165	599.69
439.386	519.69
439.608	518.69
439.829	493.69
440.05	538.69
440.272	570.69
440.493	547.69
440.715	495.69
440.936	482.69
441.158	466.69
441.379	442.69
441.6	479.69
441.822	486.69
442.043	528.69
442.264	622.69
442.486	645.69
442.707	562.69
442.928	508.69
443.149	515.69
443.371	549.69
443.592	564.69
443.813	642.69
444.034	688.69
444.255	586.69
444.476	496.69
444.698	484.69
444.919	472.69
445.14	582.69
445.361	546.69
445.582	523.69
445.803	591.69
446.024	690.69
446.245	708.69
446.466	629.69
446.687	554.69
446.908	498.69
447.129	478.69
447.35	461.69
447.571	460.69
447.792	437.69
448.013	456.69
448.234	503.69
448.455	534.69
448.675	614.69
448.896	734.69
449.117	640.69
449.338	612.69
449.559	686.69
449.779	774.69
450	631.69
450.221	527.69
450.442	471.69
450.662	474.69
450.883	483.69
451.104	484.69
451.324	457.69
451.545	454.69
451.766	438.69
451.986	405.69
452.207	414.69
452.428	403.69
452.648	416.69
452.869	432.69
453.089	401.69
453.31	443.69
453.53	408.69
453.751	420.69
453.971	421.69
454.192	438.69
454.412	423.69
454.633	430.69
454.853	412.69
455.073	422.69
455.294	438.69
455.514	508.69
455.734	490.69
455.955	418.69
456.175	372.69
456.395	363.69
456.616	372.69
456.836	388.69
457.056	363.69
457.276	357.69
457.497	388.69
457.717	394.69
457.937	384.69
458.157	393.69
458.377	384.69
458.598	417.69
458.818	470.69
459.038	577.69
459.258	585.69
459.478	491.69
459.698	444.69
459.918	421.69
460.138	417.69
460.358	414.69
460.578	406.69
460.798	417.69
461.018	391.69
461.238	417.69
461.458	408.69
461.678	404.69
461.898	405.69
462.118	391.69
462.338	418.69
462.558	418.69
462.777	411.69
462.997	415.69
463.217	413.69
463.437	425.69
463.657	424.69
463.876	425.69
464.096	413.69
464.316	422.69
464.536	438.69
464.755	428.69
464.975	443.69
465.195	518.69
465.414	593.69
465.634	516.69
465.854	485.69
466.073	427.69
466.293	412.69
466.512	402.69
466.732	420.69
466.951	396.69
467.171	410.69
467.391	409.69
467.61	409.69
467.829	434.69
468.049	431.69
468.268	436.69
468.488	416.69
468.707	398.69
468.927	391.69
469.146	385.69
469.365	394.69
469.585	384.69
469.804	413.69
470.023	415.69
470.243	405.69
470.462	430.69
470.681	450.69
470.901	456.69
471.12	422.69
471.339	423.69
471.558	418.69
471.777	419.69
471.997	426.69
472.216	430.69
472.435	484.69
472.654	484.69
472.873	437.69
473.092	408.69
473.311	420.69
473.53	419.69
473.749	427.69
473.968	493.69
474.187	555.69
474.406	607.69
474.625	491.69
474.844	425.69
475.063	416.69
475.282	423.69
475.501	424.69
475.72	429.69
475.939	434.69
476.158	430.69
476.377	429.69
476.596	422.69
476.814	445.69
477.033	435.69
477.252	450.69
477.471	443.69
477.69	437.69
477.908	433.69
478.127	461.69
478.346	438.69
478.564	451.69
478.783	452.69
479.002	456.69
479.22	473.69
479.439	486.69
479.658	478.69
479.876	518.69
480.095	518.69
480.313	546.69
480.532	525.69
480.751	491.69
480.969	541.69
481.188	600.69
481.406	668.69
481.624	568.69
481.843	522.69
482.061	524.69
482.28	513.69
482.498	476.69
482.717	514.69
482.935	506.69
483.153	482.69
483.372	477.69
483.59	496.69
483.808	490.69
484.027	491.69
484.245	489.69
484.463	507.69
484.681	517.69
484.9	484.69
485.118	477.69
485.336	518.69
485.554	504.69
485.772	515.69
485.99	501.69
486.209	508.69
486.427	509.69
486.645	537.69
486.863	531.69
487.081	560.69
487.299	536.69
487.517	542.69
487.735	550.69
487.953	530.69
488.171	531.69
488.389	562.69
488.607	526.69
488.825	520.69
489.043	533.69
489.261	556.69
489.479	546.69
489.696	542.69
489.914	556.69
490.132	570.69
490.35	558.69
490.568	553.69
490.786	584.69
491.003	584.69
491.221	571.69
491.439	621.69
491.657	587.69
491.874	631.69
492.092	642.69
492.31	622.69
492.527	618.69
492.745	617.69
492.963	638.69
493.18	626.69
493.398	626.69
493.615	634.69
493.833	640.69
494.05	674.69
494.268	650.69
494.485	643.69
494.703	619.69
494.92	642.69
495.138	650.69
495.355	663.69
495.573	638.69
495.79	647.69
496.008	635.69
496.225	640.69
496.442	657.69
496.66	630.69
496.877	652.69
497.094	641.69
497.312	646.69
497.529	668.69
497.746	655.69
497.963	668.69
498.181	676.69
498.398	677.69
498.615	666.69
498.832	718.69
499.049	707.69
499.267	710.69
499.484	716.69
499.701	735.69
499.918	747.69
500.135	736.69
500.352	783.69
500.569	772.69
500.786	788.69
501.003	764.69
501.22	764.69
501.437	743.69
501.654	750.69
501.871	784.69
502.088	767.69
502.305	708.69
502.522	696.69
502.739	702.69
502.956	676.69
503.172	655.69
503.389	673.69
503.606	642.69
503.823	645.69
504.04	672.69
504.256	636.69
504.473	642.69
504.69	642.69
504.907	644.69
505.123	632.69
505.34	616.69
505.557	630.69
505.773	631.69
505.99	620.69
506.207	625.69
506.423	614.69
506.64	611.69
506.856	617.69
507.073	599.69
507.289	606.69
507.506	611.69
507.722	631.69
507.939	643.69
508.155	624.69
508.372	612.69
508.588	595.69
508.805	595.69
509.021	601.69
509.238	589.69
509.454	629.69
509.67	596.69
509.887	627.69
510.103	630.69
510.319	598.69
510.536	743.69
510.752	1295.69
510.968	1050.69
511.184	625.69
511.401	591.69
511.617	591.69
511.833	587.69
512.049	580.69
512.265	571.69
512.481	603.69
512.698	571.69
512.914	561.69
513.13	575.69
513.346	554.69
513.562	577.69
513.778	588.69
513.994	582.69
514.21	603.69
514.426	614.69
514.642	674.69
514.858	710.69
515.074	749.69
515.29	947.69
515.506	1440.69
515.721	1158.69
515.937	746.69
516.153	638.69
516.369	632.69
516.585	596.69
516.801	575.69
517.016	581.69
517.232	581.69
517.448	589.69
517.664	591.69
517.879	579.69
518.095	539.69
518.311	557.69
518.527	566.69
518.742	570.69
518.958	548.69
519.173	570.69
519.389	571.69
519.605	571.69
519.82	566.69
520.036	582.69
520.251	615.69
520.467	664.69
520.682	668.69
520.898	683.69
521.113	675.69
521.329	738.69
521.544	852.69
521.76	1139.69
521.975	1948.69
522.19	1883.69
522.406	980.69
522.621	724.69
522.836	632.69
523.052	602.69
523.267	574.69
523.482	535.69
523.698	522.69
523.913	527.69
524.128	531.69
524.343	520.69
524.559	505.69
524.774	485.69
524.989	491.69
525.204	495.69
525.419	494.69
525.634	496.69
525.849	479.69
526.064	480.69
526.28	473.69
526.495	459.69
526.71	478.69
526.925	490.69
527.14	456.69
527.355	471.69
527.57	441.69
527.785	471.69
527.999	462.69
528.214	455.69
528.429	440.69
528.644	442.69
528.859	450.69
529.074	439.69
529.289	479.69
529.503	573.69
529.718	546.69
529.933	499.69
530.148	478.69
530.363	482.69
530.577	468.69
530.792	447.69
531.007	420.69
531.221	443.69
531.436	446.69
531.651	446.69
531.865	445.69
532.08	422.69
532.295	403.69
532.509	433.69
532.724	414.69
532.938	425.69
533.153	404.69
533.367	406.69
533.582	431.69
533.796	428.69
534.011	430.69
534.225	414.69
534.44	416.69
534.654	416.69
534.868	440.69
535.083	439.69
535.297	407.69
535.511	435.69
535.726	424.69
535.94	425.69
536.154	423.69
536.369	428.69
536.583	417.69
536.797	398.69
537.011	412.69
537.225	401.69
537.44	401.69
537.654	435.69
537.868	414.69
538.082	425.69
538.296	406.69
538.51	438.69
538.724	410.69
538.938	411.69
539.153	414.69
539.367	416.69
539.581	435.69
539.795	412.69
540.009	406.69
540.222	393.69
540.436	441.69
540.65	397.69
540.864	427.69
541.078	426.69
541.292	429.69
541.506	423.69
541.72	426.69
541.934	393.69
542.147	404.69
542.361	406.69
542.575	403.69
542.789	409.69
543.002	402.69
543.216	407.69
543.43	419.69
543.644	413.69
543.857	410.69
544.071	422.69
544.285	406.69
544.498	398.69
544.712	404.69
544.925	396.69
545.139	386.69
545.352	387.69
545.566	379.69
545.779	382.69
545.993	400.69
546.206	382.69
546.42	381.69
546.633	390.69
546.847	388.69
547.06	372.69
547.274	381.69
547.487	410.69
547.7	407.69
547.914	390.69
548.127	387.69
548.34	374.69
548.554	391.69
548.767	401.69
548.98	378.69
549.193	378.69
549.407	374.69
549.62	409.69
549.833	375.69
550.046	359.69
550.259	382.69
550.473	382.69
550.686	354.69
550.899	369.69
551.112	372.69
551.325	373.69
551.538	378.69
551.751	364.69
551.964	363.69
552.177	366.69
552.39	350.69
552.603	390.69
552.816	380.69
553.029	370.69
553.242	377.69
553.455	381.69
553.667	405.69
553.88	408.69
554.093	392.69
554.306	377.69
554.519	379.69
554.732	360.69
554.944	361.69
555.157	391.69
555.37	366.69
555.583	347.69
555.795	377.69
556.008	358.69
556.221	355.69
556.433	365.69
556.646	348.69
556.859	360.69
557.071	340.69
557.284	340.69
557.496	353.69
557.709	329.69
557.921	358.69
558.134	372.69
558.346	356.69
558.559	359.69
558.771	336.69
558.984	335.69
559.196	327.69
559.409	352.69
559.621	334.69
559.833	348.69
560.046	346.69
560.258	335.69
560.47	332.69
560.683	318.69
560.895	352.69
561.107	313.69
561.32	328.69
561.532	337.69
561.744	341.69
561.956	334.69
562.168	329.69
562.381	342.69
562.593	356.69
562.805	332.69
563.017	346.69
563.229	351.69
563.441	352.69
563.653	340.69
563.865	355.69
564.077	356.69
564.289	327.69
564.501	329.69
564.713	342.69
564.925	357.69
565.137	351.69
565.349	370.69
565.561	346.69
565.773	335.69
565.985	354.69
566.197	368.69
566.408	362.69
566.62	379.69
566.832	373.69
567.044	383.69
567.255	395.69
567.467	381.69
567.679	401.69
567.891	390.69
568.102	358.69
568.314	380.69
568.526	385.69
568.737	376.69
568.949	353.69
569.161	356.69
569.372	347.69
569.584	339.69
569.795	327.69
570.007	333.69
570.218	406.69
570.43	379.69
570.641	335.69
570.853	322.69
571.064	330.69
571.276	323.69
571.487	310.69
571.698	320.69
571.91	307.69
572.121	296.69
572.333	310.69
572.544	307.69
572.755	301.69
572.966	294.69
573.178	334.69
573.389	322.69
573.6	295.69
573.811	277.69
574.023	286.69
574.234	299.69
574.445	300.69
574.656	310.69
574.867	307.69
575.078	300.69
575.289	298.69
575.501	301.69
575.712	289.69
575.923	285.69
576.134	311.69
576.345	290.69
576.556	299.69
576.767	302.69
576.978	277.69
577.188	290.69
577.399	284.69
577.61	280.69
577.821	314.69
578.032	294.69
578.243	347.69
578.454	606.69
578.665	431.69
578.875	315.69
579.086	304.69
579.297	299.69
579.508	288.69
579.718	296.69
579.929	282.69
580.14	276.69
580.35	259.69
580.561	286.69
580.772	281.69
580.982	259.69
581.193	275.69
581.403	266.69
581.614	277.69
581.825	276.69
582.035	265.69
582.246	272.69
582.456	273.69
582.667	260.69
582.877	270.69
583.087	259.69
583.298	268.69
583.508	259.69
583.719	286.69
583.929	264.69
584.139	272.69
584.35	282.69
584.56	281.69
584.77	267.69
584.981	258.69
585.191	260.69
585.401	264.69
585.611	283.69
585.821	260.69
586.032	270.69
586.242	270.69
586.452	258.69
586.662	271.69
586.872	257.69
587.082	276.69
587.292	276.69
587.502	266.69
587.713	235.69
587.923	260.69
588.133	254.69
588.343	259.69
588.553	270.69
588.762	261.69
588.972	272.69
589.182	286.69
589.392	278.69
589.602	250.69
589.812	269.69
590.022	260.69
590.232	269.69
590.441	266.69
590.651	271.69
590.861	256.69
591.071	264.69
591.281	271.69
591.49	270.69
591.7	244.69
591.91	258.69
592.119	262.69
592.329	259.69
592.539	289.69
592.748	285.69
592.958	275.69
593.167	254.69
593.377	260.69
593.587	279.69
593.796	250.69
594.006	241.69
594.215	262.69
594.424	274.69
594.634	256.69
594.843	261.69
595.053	245.69
595.262	254.69
595.472	263.69
595.681	262.69
595.89	242.69
596.1	264.69
596.309	241.69
596.518	246.69
596.727	255.69
596.937	248.69
597.146	262.69
597.355	261.69
597.564	251.69
597.774	238.69
597.983	232.69
598.192	251.69
598.401	250.69
598.61	237.69
598.819	227.69
599.028	235.69
599.237	242.69
599.446	232.69
599.655	242.69
599.864	218.69
600.073	242.69
600.282	242.69
600.491	233.69
600.7	215.69
600.909	224.69
601.118	215.69
601.327	227.69
601.536	232.69
601.745	240.69
601.953	239.69
602.162	225.69
602.371	228.69
602.58	229.69
602.789	228.69
602.997	228.69
603.206	234.69
603.415	230.69
603.623	218.69
603.832	220.69
604.041	242.69
604.249	232.69
604.458	222.69
604.666	219.69
604.875	222.69
605.084	220.69
605.292	215.69
605.501	224.69
605.709	224.69
605.918	219.69
606.126	222.69
606.334	207.69
606.543	216.69
606.751	237.69
606.96	229.69
607.168	204.69
607.376	245.69
607.585	221.69
607.793	236.69
608.001	217.69
608.21	213.69
608.418	223.69
608.626	222.69
608.834	221.69
609.043	227.69
609.251	217.69
609.459	217.69
609.667	213.69
609.875	217.69
610.083	227.69
610.291	245.69
610.499	215.69
610.707	245.69
610.916	231.69
611.124	222.69
611.332	214.69
611.54	214.69
611.748	232.69
611.955	222.69
612.163	214.69
612.371	222.69
612.579	230.69
612.787	209.69
612.995	227.69
613.203	221.69
613.411	228.69
613.618	214.69
613.826	207.69
614.034	217.69
614.242	216.69
614.449	215.69
614.657	222.69
614.865	219.69
615.072	225.69
615.28	231.69
615.488	199.69
615.695	220.69
615.903	229.69
616.111	228.69
616.318	229.69
616.526	206.69
616.733	222.69
616.941	213.69
617.148	218.69
617.356	213.69
617.563	216.69
617.771	213.69
617.978	218.69
618.185	204.69
618.393	223.69
618.6	215.69
618.807	202.69
619.015	208.69
619.222	201.69
619.429	206.69
619.637	195.69
619.844	203.69
620.051	208.69
620.258	201.69
620.466	200.69
620.673	221.69
620.88	209.69
621.087	194.69
621.294	207.69
621.501	207.69
621.708	207.69
621.915	212.69
622.122	194.69
622.329	204.69
622.536	202.69
622.743	202.69
622.95	185.69
623.157	203.69
623.364	197.69
623.571	201.69
623.778	182.69
623.985	207.69
624.192	209.69
624.399	203.69
624.606	207.69
624.812	195.69
625.019	204.69
625.226	191.69
625.433	212.69
625.639	207.69
625.846	187.69
626.053	186.69
626.259	202.69
626.466	198.69
626.673	187.69
626.879	194.69
627.086	188.69
627.293	192.69
627.499	186.69
627.706	187.69
627.912	192.69
628.119	186.69
628.325	195.69
628.532	181.69
628.738	170.69
628.945	170.69
629.151	191.69
629.357	182.69
629.564	175.69
629.77	183.69
629.976	188.69
630.183	183.69
630.389	187.69
630.595	176.69
630.802	182.69
631.008	178.69
631.214	172.69
631.42	198.69
631.627	170.69
631.833	192.69
632.039	164.69
632.245	159.69
632.451	167.69
632.657	189.69
632.863	178.69
633.069	178.69
633.275	175.69
633.481	174.69
633.688	170.69
633.893	168.69
634.099	172.69
634.305	171.69
634.511	180.69
634.717	160.69
634.923	156.69
635.129	169.69
635.335	175.69
635.541	175.69
635.747	169.69
635.952	162.69
636.158	161.69
636.364	186.69
636.57	180.69
636.775	182.69
636.981	179.69
637.187	166.69
637.392	160.69
637.598	170.69
637.804	184.69
638.009	172.69
638.215	156.69
638.421	153.69
638.626	154.69
638.832	162.69
639.037	163.69
639.243	144.69
639.448	159.69
639.654	168.69
639.859	168.69
640.065	146.69
640.27	182.69
640.475	174.69
640.681	170.69
640.886	161.69
641.091	172.69
641.297	162.69
641.502	159.69
641.707	156.69
641.913	145.69
642.118	156.69
642.323	155.69
642.528	160.69
642.733	162.69
642.939	155.69
643.144	151.69
643.349	162.69
643.554	158.69
643.759	149.69
643.964	150.69
644.169	152.69
644.374	156.69
644.579	166.69
644.784	166.69
644.989	156.69
645.194	150.69
645.399	160.69
645.604	147.69
645.809	150.69
646.014	156.69
646.219	158.69
646.423	143.69
646.628	161.69
646.833	144.69
647.038	144.69
647.243	150.69
647.447	171.69
647.652	154.69
647.857	163.69
648.062	145.69
648.266	146.69
648.471	158.69
648.676	171.69
648.88	158.69
649.085	167.69
649.289	155.69
649.494	165.69
649.698	188.69
649.903	173.69
650.107	149.69
650.312	152.69
650.516	156.69
650.721	162.69
650.925	153.69
651.13	143.69
651.334	142.69
651.539	158.69
651.743	130.69
651.947	132.69
652.152	134.69
652.356	141.69
652.56	137.69
652.764	127.69
652.969	145.69
653.173	143.69
653.377	138.69
653.581	130.69
653.785	130.69
653.99	128.69
654.194	128.69
654.398	128.69
654.602	120.69
654.806	141.69
655.01	145.69
655.214	126.69
655.418	130.69
655.622	125.69
655.826	130.69
656.03	127.69
656.234	125.69
656.438	120.69
656.642	135.69
656.846	139.69
657.049	126.69
657.253	129.69
657.457	115.69
657.661	123.69
657.865	114.69
658.068	103.69
658.272	106.69
658.476	101.69
658.68	123.69
658.883	110.69
659.087	100.69
659.291	104.69
659.494	97.69
659.698	108.69
659.901	100.69
660.105	103.69
660.309	88.69
660.512	91.69
660.716	101.69
660.919	92.69
661.123	97.69
661.326	77.69
661.53	87.69
661.733	82.69
661.936	104.69
662.14	87.69
662.343	75.69
662.546	85.69
662.75	76.69
662.953	94.69
663.156	85.69
663.36	95.69
663.563	95.69
663.766	78.69
663.969	91.69
664.173	76.69
664.376	89.69
664.579	88.69
664.782	79.69
664.985	94.69
665.188	87.69
665.391	74.69
665.594	90.69
665.797	73.69
666	98.69
666.203	79.69
666.406	83.69
666.609	92.69
666.812	95.69
667.015	93.69
667.218	94.69
667.421	81.69
667.624	80.69
667.827	68.69
668.03	93.69
668.232	85.69
668.435	79.69
668.638	77.69
668.841	91.69
669.043	90.69
669.246	88.69
669.449	79.69
669.651	88.69
669.854	81.69
670.057	92.69
670.259	76.69
670.462	79.69
670.665	77.69
670.867	92.69
671.07	97.69
671.272	79.69
671.475	83.69
671.677	92.69
671.88	85.69
672.082	87.69
672.284	85.69
672.487	75.69
672.689	102.69
672.892	88.69
