Data from 1986.PennyLincolnUp.Lamp.En5.5.200Scan.071819.P2_HRD10591_17-11-30-975.txt Node
Date: Thu Jul 18 17:11:30 EDT 2019
User: cochatt
Spectrometer: HR+D1059
Trigger mode: 1
Integration Time (sec): 1.000000E-1
Scans to average: 1
Electric dark correction enabled: true
Nonlinearity correction enabled: false
Boxcar width: 0
XAxis mode: Wavelengths
Number of Pixels in Spectrum: 2048
>>>>>Begin Spectral Data<<<<<
223.165	-11.12
223.4	-11.12
223.635	-11.12
223.869	-14.12
224.104	-31.12
224.338	-6.12
224.573	-23.12
224.808	-5.12
225.042	-5.12
225.277	-9.12
225.511	-10.12
225.746	-6.12
225.98	6.88
226.215	19.88
226.449	25.88
226.683	25.88
226.918	20.88
227.152	21.88
227.387	33.88
227.621	48.88
227.856	49.88
228.09	50.88
228.324	26.88
228.559	48.88
228.793	75.88
229.027	108.88
229.262	105.88
229.496	115.88
229.73	139.88
229.964	168.88
230.199	129.88
230.433	125.88
230.667	111.88
230.901	113.88
231.136	112.88
231.37	103.88
231.604	113.88
231.838	115.88
232.072	112.88
232.306	128.88
232.541	115.88
232.775	96.88
233.009	104.88
233.243	120.88
233.477	117.88
233.711	107.88
233.945	124.88
234.179	113.88
234.413	113.88
234.647	121.88
234.881	114.88
235.115	127.88
235.349	116.88
235.583	111.88
235.817	115.88
236.051	127.88
236.285	122.88
236.519	131.88
236.753	127.88
236.987	164.88
237.221	186.88
237.455	266.88
237.689	205.88
237.922	146.88
238.156	141.88
238.39	131.88
238.624	121.88
238.858	115.88
239.091	127.88
239.325	132.88
239.559	139.88
239.793	148.88
240.027	129.88
240.26	121.88
240.494	153.88
240.728	154.88
240.961	157.88
241.195	148.88
241.429	139.88
241.662	136.88
241.896	132.88
242.13	121.88
242.363	143.88
242.597	130.88
242.83	141.88
243.064	136.88
243.298	139.88
243.531	157.88
243.765	146.88
243.998	140.88
244.232	151.88
244.465	137.88
244.699	147.88
244.932	158.88
245.166	151.88
245.399	155.88
245.633	149.88
245.866	139.88
246.099	163.88
246.333	149.88
246.566	149.88
246.8	162.88
247.033	148.88
247.266	175.88
247.5	168.88
247.733	183.88
247.966	180.88
248.2	161.88
248.433	191.88
248.666	178.88
248.899	195.88
249.133	217.88
249.366	212.88
249.599	227.88
249.832	202.88
250.066	199.88
250.299	193.88
250.532	209.88
250.765	246.88
250.998	256.88
251.231	245.88
251.465	244.88
251.698	231.88
251.931	228.88
252.164	218.88
252.397	201.88
252.63	225.88
252.863	221.88
253.096	236.88
253.329	256.88
253.562	254.88
253.795	236.88
254.028	242.88
254.261	241.88
254.494	240.88
254.727	273.88
254.96	311.88
255.193	316.88
255.426	276.88
255.659	275.88
255.892	277.88
256.124	289.88
256.357	298.88
256.59	285.88
256.823	268.88
257.056	260.88
257.289	261.88
257.521	261.88
257.754	241.88
257.987	231.88
258.22	234.88
258.452	217.88
258.685	215.88
258.918	219.88
259.151	218.88
259.383	227.88
259.616	249.88
259.849	260.88
260.081	265.88
260.314	263.88
260.547	262.88
260.779	260.88
261.012	244.88
261.244	245.88
261.477	246.88
261.71	232.88
261.942	233.88
262.175	246.88
262.407	244.88
262.64	241.88
262.872	220.88
263.105	206.88
263.337	233.88
263.57	230.88
263.802	213.88
264.035	215.88
264.267	208.88
264.499	239.88
264.732	221.88
264.964	216.88
265.197	223.88
265.429	218.88
265.661	214.88
265.894	210.88
266.126	205.88
266.358	227.88
266.591	208.88
266.823	226.88
267.055	230.88
267.287	241.88
267.52	241.88
267.752	239.88
267.984	220.88
268.216	228.88
268.448	234.88
268.681	240.88
268.913	241.88
269.145	263.88
269.377	280.88
269.609	273.88
269.841	274.88
270.073	290.88
270.306	310.88
270.538	334.88
270.77	341.88
271.002	311.88
271.234	325.88
271.466	306.88
271.698	328.88
271.93	348.88
272.162	337.88
272.394	346.88
272.626	330.88
272.858	288.88
273.09	277.88
273.322	268.88
273.553	288.88
273.785	285.88
274.017	264.88
274.249	269.88
274.481	279.88
274.713	272.88
274.945	280.88
275.176	260.88
275.408	273.88
275.64	266.88
275.872	269.88
276.104	270.88
276.335	259.88
276.567	263.88
276.799	303.88
277.031	307.88
277.262	338.88
277.494	336.88
277.726	314.88
277.957	295.88
278.189	281.88
278.421	288.88
278.652	279.88
278.884	283.88
279.115	292.88
279.347	272.88
279.579	271.88
279.81	275.88
280.042	277.88
280.273	284.88
280.505	266.88
280.736	262.88
280.968	253.88
281.199	278.88
281.431	267.88
281.662	275.88
281.894	275.88
282.125	270.88
282.356	301.88
282.588	319.88
282.819	307.88
283.051	267.88
283.282	271.88
283.513	249.88
283.745	269.88
283.976	272.88
284.207	279.88
284.439	271.88
284.67	286.88
284.901	291.88
285.132	261.88
285.364	264.88
285.595	302.88
285.826	275.88
286.057	277.88
286.288	279.88
286.52	276.88
286.751	289.88
286.982	258.88
287.213	279.88
287.444	277.88
287.675	267.88
287.906	293.88
288.138	299.88
288.369	292.88
288.6	290.88
288.831	288.88
289.062	271.88
289.293	303.88
289.524	298.88
289.755	296.88
289.986	274.88
290.217	287.88
290.448	268.88
290.679	273.88
290.91	283.88
291.141	266.88
291.371	286.88
291.602	285.88
291.833	279.88
292.064	278.88
292.295	281.88
292.526	267.88
292.757	262.88
292.987	272.88
293.218	275.88
293.449	287.88
293.68	275.88
293.91	280.88
294.141	284.88
294.372	293.88
294.603	283.88
294.833	277.88
295.064	269.88
295.295	279.88
295.525	267.88
295.756	274.88
295.987	290.88
296.217	305.88
296.448	321.88
296.679	303.88
296.909	282.88
297.14	293.88
297.37	280.88
297.601	275.88
297.831	274.88
298.062	299.88
298.292	267.88
298.523	299.88
298.753	295.88
298.984	289.88
299.214	281.88
299.445	291.88
299.675	294.88
299.905	283.88
300.136	290.88
300.366	287.88
300.597	288.88
300.827	304.88
301.057	308.88
301.288	317.88
301.518	305.88
301.748	287.88
301.979	313.88
302.209	292.88
302.439	318.88
302.669	315.88
302.9	307.88
303.13	312.88
303.36	307.88
303.59	319.88
303.82	325.88
304.051	344.88
304.281	316.88
304.511	299.88
304.741	297.88
304.971	313.88
305.201	311.88
305.431	311.88
305.661	317.88
305.891	291.88
306.121	307.88
306.352	324.88
306.582	322.88
306.812	320.88
307.042	312.88
307.272	319.88
307.502	333.88
307.731	309.88
307.961	330.88
308.191	319.88
308.421	325.88
308.651	336.88
308.881	341.88
309.111	324.88
309.341	334.88
309.571	355.88
309.8	351.88
310.03	371.88
310.26	364.88
310.49	374.88
310.72	387.88
310.949	383.88
311.179	401.88
311.409	385.88
311.639	369.88
311.868	363.88
312.098	374.88
312.328	372.88
312.557	399.88
312.787	403.88
313.017	415.88
313.246	403.88
313.476	378.88
313.706	369.88
313.935	385.88
314.165	399.88
314.394	407.88
314.624	390.88
314.853	377.88
315.083	382.88
315.312	363.88
315.542	358.88
315.771	373.88
316.001	364.88
316.23	354.88
316.46	352.88
316.689	369.88
316.919	370.88
317.148	381.88
317.377	382.88
317.607	375.88
317.836	378.88
318.065	380.88
318.295	356.88
318.524	371.88
318.753	356.88
318.983	356.88
319.212	376.88
319.441	393.88
319.67	382.88
319.9	377.88
320.129	380.88
320.358	387.88
320.587	393.88
320.816	380.88
321.046	383.88
321.275	411.88
321.504	409.88
321.733	402.88
321.962	413.88
322.191	415.88
322.42	440.88
322.649	441.88
322.878	461.88
323.108	491.88
323.337	499.88
323.566	549.88
323.795	583.88
324.024	623.88
324.253	768.88
324.482	1107.88
324.71	1678.88
324.939	2381.88
325.168	2079.88
325.397	1113.88
325.626	757.88
325.855	585.88
326.084	572.88
326.313	544.88
326.542	526.88
326.77	604.88
326.999	708.88
327.228	956.88
327.457	1485.88
327.686	1826.88
327.914	1255.88
328.143	825.88
328.372	736.88
328.6	673.88
328.829	631.88
329.058	626.88
329.287	675.88
329.515	613.88
329.744	585.88
329.972	571.88
330.201	640.88
330.43	728.88
330.658	730.88
330.887	697.88
331.115	657.88
331.344	564.88
331.572	525.88
331.801	522.88
332.03	506.88
332.258	491.88
332.486	499.88
332.715	465.88
332.943	455.88
333.172	475.88
333.4	471.88
333.629	503.88
333.857	536.88
334.085	553.88
334.314	600.88
334.542	681.88
334.771	730.88
334.999	597.88
335.227	511.88
335.455	467.88
335.684	455.88
335.912	429.88
336.14	429.88
336.369	465.88
336.597	431.88
336.825	454.88
337.053	437.88
337.281	408.88
337.51	411.88
337.738	422.88
337.966	442.88
338.194	414.88
338.422	419.88
338.65	437.88
338.878	427.88
339.106	411.88
339.334	412.88
339.562	417.88
339.79	379.88
340.018	409.88
340.246	414.88
340.474	409.88
340.702	409.88
340.93	397.88
341.158	408.88
341.386	403.88
341.614	412.88
341.842	389.88
342.07	394.88
342.298	387.88
342.526	388.88
342.754	409.88
342.981	390.88
343.209	377.88
343.437	405.88
343.665	380.88
343.893	400.88
344.12	401.88
344.348	407.88
344.576	425.88
344.804	418.88
345.031	426.88
345.259	442.88
345.487	415.88
345.714	413.88
345.942	409.88
346.17	394.88
346.397	399.88
346.625	409.88
346.853	406.88
347.08	386.88
347.308	398.88
347.535	407.88
347.763	412.88
347.99	412.88
348.218	421.88
348.445	426.88
348.673	420.88
348.9	406.88
349.128	390.88
349.355	385.88
349.583	369.88
349.81	384.88
350.037	391.88
350.265	374.88
350.492	378.88
350.72	384.88
350.947	389.88
351.174	417.88
351.402	429.88
351.629	429.88
351.856	398.88
352.083	406.88
352.311	416.88
352.538	398.88
352.765	438.88
352.992	427.88
353.22	403.88
353.447	394.88
353.674	407.88
353.901	381.88
354.128	373.88
354.355	371.88
354.583	370.88
354.81	375.88
355.037	367.88
355.264	364.88
355.491	360.88
355.718	344.88
355.945	358.88
356.172	371.88
356.399	343.88
356.626	353.88
356.853	369.88
357.08	369.88
357.307	356.88
357.534	387.88
357.761	356.88
357.988	370.88
358.215	369.88
358.441	347.88
358.668	364.88
358.895	369.88
359.122	396.88
359.349	397.88
359.576	405.88
359.802	427.88
360.029	445.88
360.256	454.88
360.483	420.88
360.709	397.88
360.936	406.88
361.163	399.88
361.39	394.88
361.616	402.88
361.843	374.88
362.07	403.88
362.296	409.88
362.523	376.88
362.749	393.88
362.976	395.88
363.203	367.88
363.429	350.88
363.656	381.88
363.882	363.88
364.109	373.88
364.335	383.88
364.562	373.88
364.788	349.88
365.015	379.88
365.241	391.88
365.468	375.88
365.694	379.88
365.92	379.88
366.147	362.88
366.373	379.88
366.599	367.88
366.826	375.88
367.052	359.88
367.278	389.88
367.505	371.88
367.731	369.88
367.957	387.88
368.184	378.88
368.41	391.88
368.636	394.88
368.862	409.88
369.089	376.88
369.315	373.88
369.541	365.88
369.767	351.88
369.993	377.88
370.219	379.88
370.445	376.88
370.672	359.88
370.898	374.88
371.124	362.88
371.35	351.88
371.576	360.88
371.802	360.88
372.028	356.88
372.254	346.88
372.48	346.88
372.706	358.88
372.932	349.88
373.158	357.88
373.384	374.88
373.61	370.88
373.835	360.88
374.061	347.88
374.287	355.88
374.513	361.88
374.739	365.88
374.965	344.88
375.191	367.88
375.416	352.88
375.642	352.88
375.868	374.88
376.094	371.88
376.319	359.88
376.545	344.88
376.771	344.88
376.997	345.88
377.222	354.88
377.448	360.88
377.674	356.88
377.899	349.88
378.125	349.88
378.35	349.88
378.576	360.88
378.802	356.88
379.027	353.88
379.253	352.88
379.478	380.88
379.704	349.88
379.929	362.88
380.155	353.88
380.38	359.88
380.606	332.88
380.831	356.88
381.057	358.88
381.282	368.88
381.507	357.88
381.733	367.88
381.958	347.88
382.184	348.88
382.409	355.88
382.634	353.88
382.86	379.88
383.085	373.88
383.31	356.88
383.535	367.88
383.761	351.88
383.986	361.88
384.211	362.88
384.436	361.88
384.662	368.88
384.887	363.88
385.112	367.88
385.337	370.88
385.562	364.88
385.787	353.88
386.013	390.88
386.238	386.88
386.463	369.88
386.688	371.88
386.913	363.88
387.138	371.88
387.363	369.88
387.588	371.88
387.813	375.88
388.038	359.88
388.263	371.88
388.488	376.88
388.713	389.88
388.938	377.88
389.163	359.88
389.387	381.88
389.612	354.88
389.837	360.88
390.062	375.88
390.287	367.88
390.512	346.88
390.736	368.88
390.961	353.88
391.186	375.88
391.411	385.88
391.636	388.88
391.86	358.88
392.085	381.88
392.31	376.88
392.534	377.88
392.759	353.88
392.984	378.88
393.208	379.88
393.433	379.88
393.658	384.88
393.882	376.88
394.107	371.88
394.331	382.88
394.556	348.88
394.78	354.88
395.005	371.88
395.229	383.88
395.454	395.88
395.678	369.88
395.903	399.88
396.127	436.88
396.352	396.88
396.576	385.88
396.801	393.88
397.025	384.88
397.249	388.88
397.474	395.88
397.698	373.88
397.922	405.88
398.147	438.88
398.371	436.88
398.595	406.88
398.82	431.88
399.044	405.88
399.268	421.88
399.492	434.88
399.717	442.88
399.941	476.88
400.165	527.88
400.389	523.88
400.613	479.88
400.837	455.88
401.062	429.88
401.286	425.88
401.51	415.88
401.734	417.88
401.958	422.88
402.182	424.88
402.406	417.88
402.63	448.88
402.854	429.88
403.078	438.88
403.302	423.88
403.526	447.88
403.75	441.88
403.974	446.88
404.198	420.88
404.422	449.88
404.645	469.88
404.869	467.88
405.093	512.88
405.317	567.88
405.541	578.88
405.765	523.88
405.988	498.88
406.212	501.88
406.436	509.88
406.66	513.88
406.883	472.88
407.107	507.88
407.331	556.88
407.555	615.88
407.778	589.88
408.002	543.88
408.226	490.88
408.449	511.88
408.673	511.88
408.896	517.88
409.12	591.88
409.344	518.88
409.567	462.88
409.791	436.88
410.014	439.88
410.238	446.88
410.461	453.88
410.685	448.88
410.908	468.88
411.132	484.88
411.355	526.88
411.578	503.88
411.802	467.88
412.025	445.88
412.249	479.88
412.472	498.88
412.695	553.88
412.919	573.88
413.142	497.88
413.365	476.88
413.589	464.88
413.812	450.88
414.035	427.88
414.258	431.88
414.482	422.88
414.705	423.88
414.928	408.88
415.151	418.88
415.374	417.88
415.597	412.88
415.821	419.88
416.044	443.88
416.267	411.88
416.49	425.88
416.713	412.88
416.936	404.88
417.159	425.88
417.382	428.88
417.605	435.88
417.828	458.88
418.051	451.88
418.274	458.88
418.497	433.88
418.72	414.88
418.943	414.88
419.166	442.88
419.389	449.88
419.611	446.88
419.834	458.88
420.057	465.88
420.28	473.88
420.503	482.88
420.726	484.88
420.948	496.88
421.171	523.88
421.394	548.88
421.617	507.88
421.839	460.88
422.062	467.88
422.285	451.88
422.507	494.88
422.73	567.88
422.953	564.88
423.175	492.88
423.398	457.88
423.621	469.88
423.843	488.88
424.066	493.88
424.288	486.88
424.511	512.88
424.733	584.88
424.956	634.88
425.178	619.88
425.401	652.88
425.623	647.88
425.846	545.88
426.068	509.88
426.291	513.88
426.513	504.88
426.735	511.88
426.958	543.88
427.18	638.88
427.402	746.88
427.625	855.88
427.847	775.88
428.069	659.88
428.292	577.88
428.514	535.88
428.736	500.88
428.958	498.88
429.181	464.88
429.403	465.88
429.625	475.88
429.847	513.88
430.069	577.88
430.292	568.88
430.514	491.88
430.736	474.88
430.958	452.88
431.18	439.88
431.402	431.88
431.624	412.88
431.846	393.88
432.068	432.88
432.29	412.88
432.512	421.88
432.734	422.88
432.956	439.88
433.178	462.88
433.4	457.88
433.622	411.88
433.844	423.88
434.066	429.88
434.287	423.88
434.509	409.88
434.731	432.88
434.953	432.88
435.175	455.88
435.397	487.88
435.618	489.88
435.84	544.88
436.062	624.88
436.284	709.88
436.505	593.88
436.727	501.88
436.949	506.88
437.17	450.88
437.392	476.88
437.614	484.88
437.835	515.88
438.057	599.88
438.278	709.88
438.5	746.88
438.721	764.88
438.943	720.88
439.165	597.88
439.386	536.88
439.608	522.88
439.829	525.88
440.05	570.88
440.272	599.88
440.493	574.88
440.715	514.88
440.936	476.88
441.158	458.88
441.379	467.88
441.6	467.88
441.822	500.88
442.043	539.88
442.264	609.88
442.486	680.88
442.707	561.88
442.928	517.88
443.149	505.88
443.371	542.88
443.592	566.88
443.813	673.88
444.034	730.88
444.255	577.88
444.476	492.88
444.698	493.88
444.919	489.88
445.14	568.88
445.361	543.88
445.582	540.88
445.803	622.88
446.024	699.88
446.245	717.88
446.466	650.88
446.687	567.88
446.908	521.88
447.129	512.88
447.35	453.88
447.571	463.88
447.792	465.88
448.013	460.88
448.234	497.88
448.455	547.88
448.675	635.88
448.896	753.88
449.117	629.88
449.338	604.88
449.559	674.88
449.779	779.88
450	632.88
450.221	543.88
450.442	495.88
450.662	480.88
450.883	466.88
451.104	497.88
451.324	506.88
451.545	472.88
451.766	415.88
451.986	424.88
452.207	428.88
452.428	405.88
452.648	424.88
452.869	415.88
453.089	426.88
453.31	429.88
453.53	424.88
453.751	410.88
453.971	426.88
454.192	454.88
454.412	435.88
454.633	415.88
454.853	425.88
455.073	407.88
455.294	460.88
455.514	501.88
455.734	501.88
455.955	425.88
456.175	419.88
456.395	375.88
456.616	374.88
456.836	372.88
457.056	379.88
457.276	385.88
457.497	379.88
457.717	376.88
457.937	390.88
458.157	378.88
458.377	390.88
458.598	432.88
458.818	460.88
459.038	578.88
459.258	592.88
459.478	469.88
459.698	443.88
459.918	429.88
460.138	424.88
460.358	402.88
460.578	412.88
460.798	411.88
461.018	423.88
461.238	425.88
461.458	417.88
461.678	405.88
461.898	414.88
462.118	409.88
462.338	413.88
462.558	424.88
462.777	411.88
462.997	421.88
463.217	433.88
463.437	428.88
463.657	428.88
463.876	411.88
464.096	426.88
464.316	433.88
464.536	443.88
464.755	455.88
464.975	441.88
465.195	501.88
465.414	599.88
465.634	503.88
465.854	462.88
466.073	452.88
466.293	438.88
466.512	419.88
466.732	413.88
466.951	410.88
467.171	411.88
467.391	398.88
467.61	433.88
467.829	455.88
468.049	437.88
468.268	449.88
468.488	436.88
468.707	416.88
468.927	395.88
469.146	387.88
469.365	403.88
469.585	425.88
469.804	410.88
470.023	429.88
470.243	432.88
470.462	439.88
470.681	447.88
470.901	455.88
471.12	453.88
471.339	424.88
471.558	431.88
471.777	441.88
471.997	428.88
472.216	468.88
472.435	575.88
472.654	525.88
472.873	478.88
473.092	447.88
473.311	417.88
473.53	442.88
473.749	449.88
473.968	476.88
474.187	608.88
474.406	616.88
474.625	498.88
474.844	445.88
475.063	428.88
475.282	431.88
475.501	437.88
475.72	453.88
475.939	416.88
476.158	454.88
476.377	441.88
476.596	437.88
476.814	445.88
477.033	450.88
477.252	441.88
477.471	456.88
477.69	441.88
477.908	467.88
478.127	447.88
478.346	455.88
478.564	472.88
478.783	483.88
479.002	459.88
479.22	479.88
479.439	475.88
479.658	497.88
479.876	523.88
480.095	520.88
480.313	578.88
480.532	541.88
480.751	524.88
480.969	583.88
481.188	721.88
481.406	845.88
481.624	650.88
481.843	580.88
482.061	563.88
482.28	561.88
482.498	551.88
482.717	531.88
482.935	518.88
483.153	536.88
483.372	525.88
483.59	514.88
483.808	517.88
484.027	506.88
484.245	516.88
484.463	531.88
484.681	524.88
484.9	515.88
485.118	528.88
485.336	535.88
485.554	520.88
485.772	542.88
485.99	513.88
486.209	526.88
486.427	547.88
486.645	546.88
486.863	598.88
487.081	559.88
487.299	566.88
487.517	573.88
487.735	548.88
487.953	572.88
488.171	549.88
488.389	557.88
488.607	555.88
488.825	556.88
489.043	569.88
489.261	566.88
489.479	549.88
489.696	581.88
489.914	595.88
490.132	612.88
490.35	576.88
490.568	608.88
490.786	583.88
491.003	593.88
491.221	627.88
491.439	637.88
491.657	634.88
491.874	648.88
492.092	660.88
492.31	691.88
492.527	653.88
492.745	673.88
492.963	687.88
493.18	693.88
493.398	680.88
493.615	657.88
493.833	677.88
494.05	675.88
494.268	675.88
494.485	700.88
494.703	674.88
494.92	657.88
495.138	697.88
495.355	661.88
495.573	669.88
495.79	675.88
496.008	664.88
496.225	679.88
496.442	677.88
496.66	684.88
496.877	672.88
497.094	671.88
497.312	677.88
497.529	690.88
497.746	671.88
497.963	701.88
498.181	705.88
498.398	709.88
498.615	703.88
498.832	706.88
499.049	723.88
499.267	721.88
499.484	723.88
499.701	729.88
499.918	752.88
500.135	781.88
500.352	776.88
500.569	802.88
500.786	807.88
501.003	819.88
501.22	786.88
501.437	794.88
501.654	785.88
501.871	800.88
502.088	796.88
502.305	755.88
502.522	727.88
502.739	729.88
502.956	702.88
503.172	685.88
503.389	660.88
503.606	716.88
503.823	672.88
504.04	677.88
504.256	667.88
504.473	631.88
504.69	643.88
504.907	640.88
505.123	651.88
505.34	604.88
505.557	635.88
505.773	635.88
505.99	621.88
506.207	633.88
506.423	635.88
506.64	617.88
506.856	643.88
507.073	641.88
507.289	628.88
507.506	623.88
507.722	643.88
507.939	657.88
508.155	636.88
508.372	643.88
508.588	637.88
508.805	584.88
509.021	617.88
509.238	640.88
509.454	631.88
509.67	609.88
509.887	620.88
510.103	627.88
510.319	629.88
510.536	746.88
510.752	1293.88
510.968	1035.88
511.184	672.88
511.401	626.88
511.617	608.88
511.833	605.88
512.049	577.88
512.265	592.88
512.481	619.88
512.698	589.88
512.914	601.88
513.13	588.88
513.346	602.88
513.562	588.88
513.778	589.88
513.994	606.88
514.21	613.88
514.426	633.88
514.642	693.88
514.858	744.88
515.074	755.88
515.29	929.88
515.506	1417.88
515.721	1151.88
515.937	746.88
516.153	646.88
516.369	641.88
516.585	626.88
516.801	580.88
517.016	604.88
517.232	581.88
517.448	619.88
517.664	571.88
517.879	563.88
518.095	572.88
518.311	571.88
518.527	561.88
518.742	552.88
518.958	578.88
519.173	599.88
519.389	591.88
519.605	573.88
519.82	573.88
520.036	616.88
520.251	639.88
520.467	677.88
520.682	684.88
520.898	684.88
521.113	708.88
521.329	762.88
521.544	862.88
521.76	1130.88
521.975	1854.88
522.19	1855.88
522.406	971.88
522.621	736.88
522.836	631.88
523.052	631.88
523.267	565.88
523.482	523.88
523.698	545.88
523.913	567.88
524.128	546.88
524.343	522.88
524.559	514.88
524.774	528.88
524.989	511.88
525.204	500.88
525.419	519.88
525.634	514.88
525.849	521.88
526.064	511.88
526.28	489.88
526.495	476.88
526.71	499.88
526.925	466.88
527.14	468.88
527.355	467.88
527.57	458.88
527.785	457.88
527.999	461.88
528.214	457.88
528.429	470.88
528.644	475.88
528.859	474.88
529.074	450.88
529.289	490.88
529.503	584.88
529.718	575.88
529.933	496.88
530.148	488.88
530.363	491.88
530.577	480.88
530.792	461.88
531.007	435.88
531.221	470.88
531.436	444.88
531.651	475.88
531.865	459.88
532.08	441.88
532.295	446.88
532.509	435.88
532.724	455.88
532.938	445.88
533.153	445.88
533.367	437.88
533.582	434.88
533.796	425.88
534.011	433.88
534.225	431.88
534.44	419.88
534.654	436.88
534.868	430.88
535.083	443.88
535.297	437.88
535.511	455.88
535.726	455.88
535.94	451.88
536.154	433.88
536.369	438.88
536.583	428.88
536.797	451.88
537.011	430.88
537.225	420.88
537.44	418.88
537.654	435.88
537.868	439.88
538.082	410.88
538.296	421.88
538.51	401.88
538.724	437.88
538.938	421.88
539.153	434.88
539.367	457.88
539.581	460.88
539.795	441.88
540.009	436.88
540.222	437.88
540.436	419.88
540.65	427.88
540.864	450.88
541.078	426.88
541.292	433.88
541.506	425.88
541.72	400.88
541.934	401.88
542.147	402.88
542.361	426.88
542.575	425.88
542.789	429.88
543.002	420.88
543.216	424.88
543.43	418.88
543.644	427.88
543.857	424.88
544.071	418.88
544.285	409.88
544.498	431.88
544.712	425.88
544.925	389.88
545.139	412.88
545.352	410.88
545.566	415.88
545.779	405.88
545.993	404.88
546.206	395.88
546.42	386.88
546.633	410.88
546.847	403.88
547.06	389.88
547.274	404.88
547.487	386.88
547.7	392.88
547.914	398.88
548.127	387.88
548.34	395.88
548.554	390.88
548.767	410.88
548.98	389.88
549.193	380.88
549.407	381.88
549.62	395.88
549.833	398.88
550.046	381.88
550.259	385.88
550.473	374.88
550.686	395.88
550.899	396.88
551.112	381.88
551.325	376.88
551.538	372.88
551.751	379.88
551.964	372.88
552.177	379.88
552.39	376.88
552.603	383.88
552.816	395.88
553.029	361.88
553.242	384.88
553.455	387.88
553.667	393.88
553.88	429.88
554.093	412.88
554.306	395.88
554.519	393.88
554.732	385.88
554.944	388.88
555.157	375.88
555.37	360.88
555.583	383.88
555.795	372.88
556.008	373.88
556.221	353.88
556.433	373.88
556.646	357.88
556.859	348.88
557.071	358.88
557.284	370.88
557.496	367.88
557.709	346.88
557.921	339.88
558.134	344.88
558.346	355.88
558.559	352.88
558.771	357.88
558.984	343.88
559.196	348.88
559.409	335.88
559.621	338.88
559.833	348.88
560.046	334.88
560.258	333.88
560.47	346.88
560.683	334.88
560.895	338.88
561.107	354.88
561.32	342.88
561.532	352.88
561.744	335.88
561.956	347.88
562.168	344.88
562.381	353.88
562.593	346.88
562.805	327.88
563.017	346.88
563.229	347.88
563.441	350.88
563.653	363.88
563.865	368.88
564.077	348.88
564.289	359.88
564.501	368.88
564.713	369.88
564.925	328.88
565.137	355.88
565.349	348.88
565.561	381.88
565.773	351.88
565.985	348.88
566.197	369.88
566.408	345.88
566.62	368.88
566.832	379.88
567.044	377.88
567.255	376.88
567.467	380.88
567.679	392.88
567.891	374.88
568.102	376.88
568.314	381.88
568.526	381.88
568.737	372.88
568.949	358.88
569.161	375.88
569.372	352.88
569.584	355.88
569.795	335.88
570.007	345.88
570.218	401.88
570.43	389.88
570.641	337.88
570.853	316.88
571.064	333.88
571.276	335.88
571.487	333.88
571.698	333.88
571.91	322.88
572.121	324.88
572.333	326.88
572.544	304.88
572.755	320.88
572.966	312.88
573.178	305.88
573.389	307.88
573.6	313.88
573.811	299.88
574.023	296.88
574.234	289.88
574.445	313.88
574.656	311.88
574.867	295.88
575.078	318.88
575.289	312.88
575.501	285.88
575.712	305.88
575.923	315.88
576.134	318.88
576.345	293.88
576.556	293.88
576.767	311.88
576.978	295.88
577.188	310.88
577.399	282.88
577.61	296.88
577.821	299.88
578.032	298.88
578.243	342.88
578.454	604.88
578.665	463.88
578.875	305.88
579.086	297.88
579.297	283.88
579.508	276.88
579.718	268.88
579.929	272.88
580.14	285.88
580.35	286.88
580.561	276.88
580.772	281.88
580.982	284.88
581.193	277.88
581.403	269.88
581.614	292.88
581.825	271.88
582.035	254.88
582.246	255.88
582.456	279.88
582.667	296.88
582.877	263.88
583.087	276.88
583.298	268.88
583.508	276.88
583.719	270.88
583.929	263.88
584.139	263.88
584.35	257.88
584.56	256.88
584.77	291.88
584.981	273.88
585.191	288.88
585.401	288.88
585.611	273.88
585.821	273.88
586.032	264.88
586.242	269.88
586.452	282.88
586.662	257.88
586.872	262.88
587.082	262.88
587.292	263.88
587.502	246.88
587.713	264.88
587.923	261.88
588.133	259.88
588.343	262.88
588.553	248.88
588.762	262.88
588.972	277.88
589.182	274.88
589.392	259.88
589.602	267.88
589.812	277.88
590.022	269.88
590.232	264.88
590.441	273.88
590.651	272.88
590.861	264.88
591.071	271.88
591.281	267.88
591.49	263.88
591.7	264.88
591.91	263.88
592.119	255.88
592.329	268.88
592.539	271.88
592.748	270.88
592.958	275.88
593.167	261.88
593.377	273.88
593.587	272.88
593.796	278.88
594.006	266.88
594.215	267.88
594.424	256.88
594.634	263.88
594.843	263.88
595.053	265.88
595.262	258.88
595.472	242.88
595.681	260.88
595.89	258.88
596.1	255.88
596.309	264.88
596.518	247.88
596.727	256.88
596.937	255.88
597.146	246.88
597.355	255.88
597.564	236.88
597.774	239.88
597.983	241.88
598.192	245.88
598.401	242.88
598.61	224.88
598.819	235.88
599.028	241.88
599.237	236.88
599.446	237.88
599.655	255.88
599.864	243.88
600.073	224.88
600.282	245.88
600.491	235.88
600.7	233.88
600.909	228.88
601.118	235.88
601.327	248.88
601.536	231.88
601.745	240.88
601.953	241.88
602.162	248.88
602.371	219.88
602.58	237.88
602.789	232.88
602.997	232.88
603.206	244.88
603.415	232.88
603.623	226.88
603.832	231.88
604.041	247.88
604.249	230.88
604.458	227.88
604.666	221.88
604.875	223.88
605.084	240.88
605.292	216.88
605.501	216.88
605.709	226.88
605.918	220.88
606.126	217.88
606.334	234.88
606.543	219.88
606.751	227.88
606.96	233.88
607.168	221.88
607.376	211.88
607.585	228.88
607.793	211.88
608.001	223.88
608.21	223.88
608.418	231.88
608.626	217.88
608.834	219.88
609.043	224.88
609.251	215.88
609.459	222.88
609.667	207.88
609.875	204.88
610.083	230.88
610.291	225.88
610.499	239.88
610.707	215.88
610.916	211.88
611.124	226.88
611.332	212.88
611.54	230.88
611.748	242.88
611.955	215.88
612.163	212.88
612.371	215.88
612.579	235.88
612.787	217.88
612.995	228.88
613.203	217.88
613.411	221.88
613.618	210.88
613.826	211.88
614.034	221.88
614.242	211.88
614.449	215.88
614.657	212.88
614.865	211.88
615.072	203.88
615.28	219.88
615.488	191.88
615.695	205.88
615.903	229.88
616.111	234.88
616.318	229.88
616.526	212.88
616.733	208.88
616.941	205.88
617.148	213.88
617.356	214.88
617.563	221.88
617.771	224.88
617.978	212.88
618.185	206.88
618.393	228.88
618.6	187.88
618.807	215.88
619.015	209.88
619.222	204.88
619.429	197.88
619.637	207.88
619.844	213.88
620.051	225.88
620.258	200.88
620.466	197.88
620.673	183.88
620.88	205.88
621.087	209.88
621.294	224.88
621.501	199.88
621.708	185.88
621.915	203.88
622.122	197.88
622.329	201.88
622.536	209.88
622.743	210.88
622.95	205.88
623.157	203.88
623.364	195.88
623.571	194.88
623.778	210.88
623.985	202.88
624.192	191.88
624.399	207.88
624.606	186.88
624.812	191.88
625.019	188.88
625.226	190.88
625.433	194.88
625.639	187.88
625.846	191.88
626.053	192.88
626.259	192.88
626.466	201.88
626.673	198.88
626.879	186.88
627.086	204.88
627.293	175.88
627.499	185.88
627.706	170.88
627.912	175.88
628.119	197.88
628.325	178.88
628.532	195.88
628.738	185.88
628.945	198.88
629.151	211.88
629.357	178.88
629.564	185.88
629.77	180.88
629.976	175.88
630.183	181.88
630.389	181.88
630.595	192.88
630.802	175.88
631.008	178.88
631.214	178.88
631.42	169.88
631.627	188.88
631.833	180.88
632.039	185.88
632.245	182.88
632.451	169.88
632.657	168.88
632.863	175.88
633.069	168.88
633.275	163.88
633.481	171.88
633.688	154.88
633.893	192.88
634.099	170.88
634.305	180.88
634.511	157.88
634.717	168.88
634.923	179.88
635.129	160.88
635.335	163.88
635.541	171.88
635.747	164.88
635.952	175.88
636.158	175.88
636.364	182.88
636.57	179.88
636.775	190.88
636.981	166.88
637.187	163.88
637.392	159.88
637.598	167.88
637.804	180.88
638.009	169.88
638.215	175.88
638.421	161.88
638.626	147.88
638.832	173.88
639.037	162.88
639.243	161.88
639.448	152.88
639.654	160.88
639.859	156.88
640.065	161.88
640.27	177.88
640.475	166.88
640.681	148.88
640.886	167.88
641.091	177.88
641.297	168.88
641.502	161.88
641.707	149.88
641.913	164.88
642.118	172.88
642.323	146.88
642.528	157.88
642.733	132.88
642.939	154.88
643.144	172.88
643.349	137.88
643.554	158.88
643.759	153.88
643.964	143.88
644.169	136.88
644.374	153.88
644.579	148.88
644.784	155.88
644.989	156.88
645.194	145.88
645.399	151.88
645.604	150.88
645.809	156.88
646.014	156.88
646.219	156.88
646.423	142.88
646.628	149.88
646.833	158.88
647.038	150.88
647.243	155.88
647.447	163.88
647.652	156.88
647.857	155.88
648.062	151.88
648.266	163.88
648.471	143.88
648.676	166.88
648.88	131.88
649.085	155.88
649.289	149.88
649.494	165.88
649.698	196.88
649.903	175.88
650.107	156.88
650.312	158.88
650.516	148.88
650.721	149.88
650.925	141.88
651.13	143.88
651.334	153.88
651.539	137.88
651.743	137.88
651.947	148.88
652.152	136.88
652.356	131.88
652.56	139.88
652.764	136.88
652.969	135.88
653.173	131.88
653.377	126.88
653.581	133.88
653.785	127.88
653.99	139.88
654.194	140.88
654.398	124.88
654.602	118.88
654.806	129.88
655.01	131.88
655.214	136.88
655.418	133.88
655.622	124.88
655.826	121.88
656.03	108.88
656.234	125.88
656.438	117.88
656.642	132.88
656.846	125.88
657.049	138.88
657.253	117.88
657.457	115.88
657.661	108.88
657.865	84.88
658.068	117.88
658.272	106.88
658.476	102.88
658.68	92.88
658.883	107.88
659.087	88.88
659.291	98.88
659.494	102.88
659.698	89.88
659.901	93.88
660.105	112.88
660.309	85.88
660.512	87.88
660.716	94.88
660.919	109.88
661.123	84.88
661.326	94.88
661.53	88.88
661.733	80.88
661.936	95.88
662.14	98.88
662.343	77.88
662.546	95.88
662.75	84.88
662.953	82.88
663.156	81.88
663.36	91.88
663.563	82.88
663.766	94.88
663.969	80.88
664.173	74.88
664.376	84.88
664.579	70.88
664.782	94.88
664.985	77.88
665.188	84.88
665.391	79.88
665.594	74.88
665.797	90.88
666	83.88
666.203	74.88
666.406	68.88
666.609	83.88
666.812	83.88
667.015	80.88
667.218	84.88
667.421	81.88
667.624	70.88
667.827	81.88
668.03	96.88
668.232	70.88
668.435	79.88
668.638	75.88
668.841	83.88
669.043	80.88
669.246	81.88
669.449	76.88
669.651	91.88
669.854	90.88
670.057	89.88
670.259	86.88
670.462	83.88
670.665	85.88
670.867	82.88
671.07	96.88
671.272	77.88
671.475	71.88
671.677	87.88
671.88	76.88
672.082	90.88
672.284	96.88
672.487	88.88
672.689	76.88
672.892	77.88
