Data from 1986.PennyLincolnUp.Lamp.En5.5.200Scan.071819.P1_HRD10591_17-08-27-974.txt Node
Date: Thu Jul 18 17:08:27 EDT 2019
User: cochatt
Spectrometer: HR+D1059
Trigger mode: 1
Integration Time (sec): 1.000000E-1
Scans to average: 1
Electric dark correction enabled: true
Nonlinearity correction enabled: false
Boxcar width: 0
XAxis mode: Wavelengths
Number of Pixels in Spectrum: 2048
>>>>>Begin Spectral Data<<<<<
223.165	-17.94
223.4	-17.94
223.635	-17.94
223.869	-8.94
224.104	-19.94
224.338	-6.94
224.573	-10.94
224.808	-13.94
225.042	-4.94
225.277	-3.94
225.511	-6.94
225.746	3.06
225.98	1.06
226.215	-0.94
226.449	16.06
226.683	16.06
226.918	28.06
227.152	31.06
227.387	41.06
227.621	35.06
227.856	61.06
228.09	49.06
228.324	48.06
228.559	63.06
228.793	63.06
229.027	77.06
229.262	80.06
229.496	101.06
229.73	104.06
229.964	130.06
230.199	101.06
230.433	96.06
230.667	86.06
230.901	100.06
231.136	101.06
231.37	108.06
231.604	94.06
231.838	106.06
232.072	104.06
232.306	104.06
232.541	106.06
232.775	110.06
233.009	100.06
233.243	106.06
233.477	110.06
233.711	104.06
233.945	115.06
234.179	107.06
234.413	113.06
234.647	122.06
234.881	109.06
235.115	95.06
235.349	118.06
235.583	105.06
235.817	96.06
236.051	113.06
236.285	100.06
236.519	109.06
236.753	118.06
236.987	121.06
237.221	139.06
237.455	151.06
237.689	131.06
237.922	105.06
238.156	114.06
238.39	115.06
238.624	99.06
238.858	120.06
239.091	124.06
239.325	122.06
239.559	121.06
239.793	109.06
240.027	128.06
240.26	131.06
240.494	132.06
240.728	128.06
240.961	128.06
241.195	117.06
241.429	121.06
241.662	125.06
241.896	117.06
242.13	117.06
242.363	109.06
242.597	129.06
242.83	111.06
243.064	127.06
243.298	124.06
243.531	121.06
243.765	111.06
243.998	126.06
244.232	112.06
244.465	119.06
244.699	129.06
244.932	141.06
245.166	132.06
245.399	122.06
245.633	139.06
245.866	129.06
246.099	129.06
246.333	127.06
246.566	136.06
246.8	125.06
247.033	134.06
247.266	145.06
247.5	134.06
247.733	147.06
247.966	149.06
248.2	150.06
248.433	143.06
248.666	136.06
248.899	156.06
249.133	160.06
249.366	179.06
249.599	155.06
249.832	156.06
250.066	159.06
250.299	151.06
250.532	153.06
250.765	154.06
250.998	183.06
251.231	172.06
251.465	171.06
251.698	151.06
251.931	160.06
252.164	158.06
252.397	165.06
252.63	157.06
252.863	159.06
253.096	170.06
253.329	186.06
253.562	162.06
253.795	176.06
254.028	167.06
254.261	171.06
254.494	191.06
254.727	185.06
254.96	197.06
255.193	198.06
255.426	185.06
255.659	173.06
255.892	171.06
256.124	161.06
256.357	171.06
256.59	173.06
256.823	186.06
257.056	158.06
257.289	159.06
257.521	179.06
257.754	164.06
257.987	176.06
258.22	182.06
258.452	169.06
258.685	167.06
258.918	166.06
259.151	191.06
259.383	177.06
259.616	187.06
259.849	185.06
260.081	185.06
260.314	184.06
260.547	180.06
260.779	203.06
261.012	188.06
261.244	183.06
261.477	179.06
261.71	171.06
261.942	197.06
262.175	188.06
262.407	185.06
262.64	183.06
262.872	167.06
263.105	168.06
263.337	180.06
263.57	179.06
263.802	169.06
264.035	183.06
264.267	181.06
264.499	167.06
264.732	172.06
264.964	162.06
265.197	174.06
265.429	185.06
265.661	181.06
265.894	176.06
266.126	196.06
266.358	165.06
266.591	183.06
266.823	185.06
267.055	189.06
267.287	186.06
267.52	205.06
267.752	185.06
267.984	181.06
268.216	186.06
268.448	191.06
268.681	189.06
268.913	197.06
269.145	205.06
269.377	233.06
269.609	220.06
269.841	217.06
270.073	228.06
270.306	232.06
270.538	254.06
270.77	230.06
271.002	225.06
271.234	202.06
271.466	231.06
271.698	216.06
271.93	236.06
272.162	237.06
272.394	236.06
272.626	224.06
272.858	220.06
273.09	204.06
273.322	225.06
273.553	219.06
273.785	213.06
274.017	216.06
274.249	216.06
274.481	228.06
274.713	195.06
274.945	196.06
275.176	198.06
275.408	217.06
275.64	211.06
275.872	210.06
276.104	205.06
276.335	218.06
276.567	202.06
276.799	226.06
277.031	228.06
277.262	253.06
277.494	237.06
277.726	249.06
277.957	222.06
278.189	219.06
278.421	210.06
278.652	210.06
278.884	211.06
279.115	214.06
279.347	215.06
279.579	212.06
279.81	206.06
280.042	231.06
280.273	214.06
280.505	227.06
280.736	217.06
280.968	220.06
281.199	207.06
281.431	221.06
281.662	219.06
281.894	236.06
282.125	216.06
282.356	231.06
282.588	255.06
282.819	250.06
283.051	224.06
283.282	215.06
283.513	230.06
283.745	231.06
283.976	225.06
284.207	241.06
284.439	217.06
284.67	237.06
284.901	223.06
285.132	228.06
285.364	226.06
285.595	237.06
285.826	226.06
286.057	236.06
286.288	230.06
286.52	227.06
286.751	228.06
286.982	214.06
287.213	239.06
287.444	227.06
287.675	236.06
287.906	250.06
288.138	252.06
288.369	258.06
288.6	257.06
288.831	264.06
289.062	243.06
289.293	249.06
289.524	250.06
289.755	247.06
289.986	241.06
290.217	240.06
290.448	242.06
290.679	230.06
290.91	240.06
291.141	235.06
291.371	225.06
291.602	223.06
291.833	248.06
292.064	253.06
292.295	239.06
292.526	257.06
292.757	237.06
292.987	227.06
293.218	236.06
293.449	235.06
293.68	245.06
293.91	255.06
294.141	219.06
294.372	238.06
294.603	249.06
294.833	235.06
295.064	247.06
295.295	243.06
295.525	233.06
295.756	236.06
295.987	252.06
296.217	276.06
296.448	265.06
296.679	247.06
296.909	229.06
297.14	236.06
297.37	255.06
297.601	245.06
297.831	233.06
298.062	248.06
298.292	269.06
298.523	244.06
298.753	261.06
298.984	266.06
299.214	254.06
299.445	243.06
299.675	243.06
299.905	267.06
300.136	253.06
300.366	255.06
300.597	256.06
300.827	257.06
301.057	268.06
301.288	265.06
301.518	277.06
301.748	284.06
301.979	268.06
302.209	284.06
302.439	270.06
302.669	273.06
302.9	279.06
303.13	253.06
303.36	265.06
303.59	281.06
303.82	269.06
304.051	286.06
304.281	263.06
304.511	279.06
304.741	296.06
304.971	283.06
305.201	259.06
305.431	267.06
305.661	271.06
305.891	260.06
306.121	285.06
306.352	274.06
306.582	270.06
306.812	281.06
307.042	277.06
307.272	295.06
307.502	271.06
307.731	292.06
307.961	295.06
308.191	275.06
308.421	292.06
308.651	271.06
308.881	264.06
309.111	284.06
309.341	289.06
309.571	294.06
309.8	279.06
310.03	284.06
310.26	267.06
310.49	299.06
310.72	302.06
310.949	295.06
311.179	311.06
311.409	314.06
311.639	308.06
311.868	315.06
312.098	315.06
312.328	300.06
312.557	331.06
312.787	329.06
313.017	309.06
313.246	318.06
313.476	301.06
313.706	301.06
313.935	312.06
314.165	316.06
314.394	308.06
314.624	319.06
314.853	307.06
315.083	318.06
315.312	298.06
315.542	313.06
315.771	301.06
316.001	323.06
316.23	313.06
316.46	300.06
316.689	310.06
316.919	292.06
317.148	319.06
317.377	328.06
317.607	311.06
317.836	312.06
318.065	299.06
318.295	294.06
318.524	310.06
318.753	303.06
318.983	311.06
319.212	281.06
319.441	300.06
319.67	316.06
319.9	304.06
320.129	303.06
320.358	308.06
320.587	293.06
320.816	302.06
321.046	324.06
321.275	320.06
321.504	319.06
321.733	317.06
321.962	336.06
322.191	342.06
322.42	338.06
322.649	345.06
322.878	344.06
323.108	335.06
323.337	368.06
323.566	358.06
323.795	394.06
324.024	412.06
324.253	474.06
324.482	663.06
324.71	974.06
324.939	1335.06
325.168	1148.06
325.397	611.06
325.626	439.06
325.855	414.06
326.084	363.06
326.313	359.06
326.542	367.06
326.77	405.06
326.999	474.06
327.228	605.06
327.457	875.06
327.686	992.06
327.914	685.06
328.143	489.06
328.372	445.06
328.6	439.06
328.829	397.06
329.058	411.06
329.287	419.06
329.515	407.06
329.744	405.06
329.972	405.06
330.201	407.06
330.43	437.06
330.658	462.06
330.887	453.06
331.115	454.06
331.344	392.06
331.572	366.06
331.801	392.06
332.03	366.06
332.258	381.06
332.486	352.06
332.715	368.06
332.943	377.06
333.172	360.06
333.4	383.06
333.629	379.06
333.857	383.06
334.085	396.06
334.314	427.06
334.542	450.06
334.771	466.06
334.999	435.06
335.227	387.06
335.455	386.06
335.684	369.06
335.912	365.06
336.14	371.06
336.369	337.06
336.597	375.06
336.825	357.06
337.053	376.06
337.281	361.06
337.51	361.06
337.738	363.06
337.966	356.06
338.194	352.06
338.422	347.06
338.65	366.06
338.878	355.06
339.106	336.06
339.334	349.06
339.562	344.06
339.79	345.06
340.018	355.06
340.246	344.06
340.474	341.06
340.702	357.06
340.93	343.06
341.158	341.06
341.386	330.06
341.614	334.06
341.842	358.06
342.07	328.06
342.298	353.06
342.526	326.06
342.754	329.06
342.981	343.06
343.209	337.06
343.437	333.06
343.665	347.06
343.893	371.06
344.12	359.06
344.348	366.06
344.576	373.06
344.804	357.06
345.031	358.06
345.259	355.06
345.487	349.06
345.714	346.06
345.942	333.06
346.17	337.06
346.397	337.06
346.625	312.06
346.853	327.06
347.08	326.06
347.308	332.06
347.535	344.06
347.763	327.06
347.99	328.06
348.218	326.06
348.445	322.06
348.673	315.06
348.9	334.06
349.128	333.06
349.355	308.06
349.583	315.06
349.81	313.06
350.037	321.06
350.265	319.06
350.492	304.06
350.72	320.06
350.947	321.06
351.174	342.06
351.402	335.06
351.629	322.06
351.856	321.06
352.083	340.06
352.311	344.06
352.538	346.06
352.765	331.06
352.992	330.06
353.22	335.06
353.447	334.06
353.674	317.06
353.901	349.06
354.128	325.06
354.355	313.06
354.583	320.06
354.81	307.06
355.037	318.06
355.264	313.06
355.491	313.06
355.718	307.06
355.945	326.06
356.172	307.06
356.399	302.06
356.626	304.06
356.853	316.06
357.08	309.06
357.307	309.06
357.534	297.06
357.761	307.06
357.988	297.06
358.215	309.06
358.441	325.06
358.668	295.06
358.895	313.06
359.122	328.06
359.349	315.06
359.576	313.06
359.802	342.06
360.029	352.06
360.256	347.06
360.483	346.06
360.709	305.06
360.936	325.06
361.163	320.06
361.39	323.06
361.616	319.06
361.843	326.06
362.07	312.06
362.296	323.06
362.523	329.06
362.749	332.06
362.976	321.06
363.203	318.06
363.429	307.06
363.656	317.06
363.882	321.06
364.109	328.06
364.335	324.06
364.562	308.06
364.788	321.06
365.015	303.06
365.241	309.06
365.468	325.06
365.694	311.06
365.92	349.06
366.147	325.06
366.373	316.06
366.599	295.06
366.826	317.06
367.052	304.06
367.278	307.06
367.505	315.06
367.731	326.06
367.957	298.06
368.184	302.06
368.41	316.06
368.636	319.06
368.862	342.06
369.089	298.06
369.315	320.06
369.541	310.06
369.767	294.06
369.993	316.06
370.219	320.06
370.445	301.06
370.672	314.06
370.898	313.06
371.124	321.06
371.35	314.06
371.576	331.06
371.802	316.06
372.028	329.06
372.254	310.06
372.48	305.06
372.706	293.06
372.932	311.06
373.158	321.06
373.384	323.06
373.61	324.06
373.835	318.06
374.061	295.06
374.287	302.06
374.513	317.06
374.739	321.06
374.965	345.06
375.191	338.06
375.416	318.06
375.642	324.06
375.868	331.06
376.094	333.06
376.319	323.06
376.545	311.06
376.771	278.06
376.997	311.06
377.222	333.06
377.448	335.06
377.674	326.06
377.899	317.06
378.125	323.06
378.35	308.06
378.576	329.06
378.802	317.06
379.027	301.06
379.253	339.06
379.478	312.06
379.704	319.06
379.929	323.06
380.155	324.06
380.38	324.06
380.606	315.06
380.831	307.06
381.057	329.06
381.282	313.06
381.507	323.06
381.733	328.06
381.958	340.06
382.184	303.06
382.409	303.06
382.634	325.06
382.86	328.06
383.085	328.06
383.31	348.06
383.535	334.06
383.761	341.06
383.986	327.06
384.211	331.06
384.436	332.06
384.662	318.06
384.887	348.06
385.112	349.06
385.337	325.06
385.562	347.06
385.787	345.06
386.013	372.06
386.238	364.06
386.463	359.06
386.688	353.06
386.913	336.06
387.138	325.06
387.363	327.06
387.588	348.06
387.813	348.06
388.038	329.06
388.263	334.06
388.488	337.06
388.713	354.06
388.938	339.06
389.163	350.06
389.387	366.06
389.612	356.06
389.837	344.06
390.062	341.06
390.287	325.06
390.512	330.06
390.736	322.06
390.961	345.06
391.186	325.06
391.411	338.06
391.636	367.06
391.86	371.06
392.085	365.06
392.31	349.06
392.534	353.06
392.759	349.06
392.984	349.06
393.208	343.06
393.433	371.06
393.658	345.06
393.882	348.06
394.107	353.06
394.331	344.06
394.556	358.06
394.78	364.06
395.005	342.06
395.229	371.06
395.454	362.06
395.678	367.06
395.903	373.06
396.127	371.06
396.352	382.06
396.576	369.06
396.801	355.06
397.025	349.06
397.249	376.06
397.474	385.06
397.698	387.06
397.922	387.06
398.147	403.06
398.371	386.06
398.595	378.06
398.82	379.06
399.044	428.06
399.268	427.06
399.492	466.06
399.717	480.06
399.941	510.06
400.165	503.06
400.389	478.06
400.613	457.06
400.837	439.06
401.062	420.06
401.286	409.06
401.51	416.06
401.734	397.06
401.958	420.06
402.182	411.06
402.406	406.06
402.63	394.06
402.854	405.06
403.078	419.06
403.302	403.06
403.526	426.06
403.75	406.06
403.974	414.06
404.198	401.06
404.422	421.06
404.645	410.06
404.869	400.06
405.093	452.06
405.317	435.06
405.541	453.06
405.765	430.06
405.988	445.06
406.212	443.06
406.436	454.06
406.66	459.06
406.883	459.06
407.107	484.06
407.331	490.06
407.555	549.06
407.778	520.06
408.002	500.06
408.226	456.06
408.449	469.06
408.673	464.06
408.896	469.06
409.12	473.06
409.344	467.06
409.567	459.06
409.791	444.06
410.014	421.06
410.238	416.06
410.461	424.06
410.685	421.06
410.908	444.06
411.132	442.06
411.355	477.06
411.578	469.06
411.802	411.06
412.025	415.06
412.249	427.06
412.472	445.06
412.695	419.06
412.919	441.06
413.142	440.06
413.365	419.06
413.589	426.06
413.812	431.06
414.035	415.06
414.258	411.06
414.482	416.06
414.705	409.06
414.928	420.06
415.151	423.06
415.374	400.06
415.597	410.06
415.821	420.06
416.044	421.06
416.267	421.06
416.49	400.06
416.713	409.06
416.936	415.06
417.159	414.06
417.382	424.06
417.605	411.06
417.828	435.06
418.051	411.06
418.274	419.06
418.497	411.06
418.72	411.06
418.943	410.06
419.166	428.06
419.389	440.06
419.611	443.06
419.834	433.06
420.057	430.06
420.28	433.06
420.503	421.06
420.726	421.06
420.948	419.06
421.171	468.06
421.394	475.06
421.617	426.06
421.839	434.06
422.062	431.06
422.285	446.06
422.507	469.06
422.73	500.06
422.953	520.06
423.175	461.06
423.398	463.06
423.621	442.06
423.843	462.06
424.066	444.06
424.288	451.06
424.511	456.06
424.733	486.06
424.956	543.06
425.178	529.06
425.401	500.06
425.623	521.06
425.846	471.06
426.068	449.06
426.291	451.06
426.513	431.06
426.735	452.06
426.958	467.06
427.18	516.06
427.402	589.06
427.625	637.06
427.847	574.06
428.069	488.06
428.292	440.06
428.514	423.06
428.736	441.06
428.958	411.06
429.181	420.06
429.403	412.06
429.625	416.06
429.847	440.06
430.069	473.06
430.292	466.06
430.514	422.06
430.736	389.06
430.958	409.06
431.18	409.06
431.402	402.06
431.624	393.06
431.846	396.06
432.068	400.06
432.29	418.06
432.512	381.06
432.734	436.06
432.956	417.06
433.178	419.06
433.4	409.06
433.622	423.06
433.844	403.06
434.066	395.06
434.287	400.06
434.509	424.06
434.731	415.06
434.953	407.06
435.175	428.06
435.397	448.06
435.618	437.06
435.84	473.06
436.062	522.06
436.284	539.06
436.505	478.06
436.727	443.06
436.949	437.06
437.17	415.06
437.392	400.06
437.614	420.06
437.835	444.06
438.057	497.06
438.278	573.06
438.5	539.06
438.721	570.06
438.943	556.06
439.165	451.06
439.386	437.06
439.608	424.06
439.829	435.06
440.05	471.06
440.272	484.06
440.493	462.06
440.715	430.06
440.936	426.06
441.158	422.06
441.379	414.06
441.6	430.06
441.822	451.06
442.043	484.06
442.264	525.06
442.486	519.06
442.707	477.06
442.928	452.06
443.149	461.06
443.371	466.06
443.592	499.06
443.813	561.06
444.034	563.06
444.255	515.06
444.476	473.06
444.698	477.06
444.919	466.06
445.14	545.06
445.361	478.06
445.582	474.06
445.803	502.06
446.024	565.06
446.245	563.06
446.466	492.06
446.687	447.06
446.908	439.06
447.129	402.06
447.35	398.06
447.571	425.06
447.792	405.06
448.013	421.06
448.234	398.06
448.455	437.06
448.675	522.06
448.896	573.06
449.117	475.06
449.338	479.06
449.559	518.06
449.779	597.06
450	483.06
450.221	435.06
450.442	404.06
450.662	391.06
450.883	399.06
451.104	407.06
451.324	382.06
451.545	385.06
451.766	376.06
451.986	380.06
452.207	381.06
452.428	363.06
452.648	362.06
452.869	378.06
453.089	373.06
453.31	368.06
453.53	371.06
453.751	361.06
453.971	385.06
454.192	387.06
454.412	369.06
454.633	375.06
454.853	371.06
455.073	366.06
455.294	373.06
455.514	429.06
455.734	405.06
455.955	368.06
456.175	360.06
456.395	339.06
456.616	336.06
456.836	354.06
457.056	333.06
457.276	347.06
457.497	355.06
457.717	361.06
457.937	374.06
458.157	353.06
458.377	364.06
458.598	367.06
458.818	421.06
459.038	451.06
459.258	456.06
459.478	429.06
459.698	385.06
459.918	384.06
460.138	404.06
460.358	411.06
460.578	404.06
460.798	432.06
461.018	415.06
461.238	403.06
461.458	424.06
461.678	402.06
461.898	415.06
462.118	407.06
462.338	429.06
462.558	453.06
462.777	429.06
462.997	458.06
463.217	446.06
463.437	497.06
463.657	445.06
463.876	437.06
464.096	435.06
464.316	444.06
464.536	437.06
464.755	440.06
464.975	433.06
465.195	455.06
465.414	483.06
465.634	447.06
465.854	432.06
466.073	407.06
466.293	401.06
466.512	393.06
466.732	396.06
466.951	392.06
467.171	378.06
467.391	382.06
467.61	388.06
467.829	400.06
468.049	394.06
468.268	408.06
468.488	385.06
468.707	356.06
468.927	379.06
469.146	353.06
469.365	365.06
469.585	380.06
469.804	385.06
470.023	386.06
470.243	396.06
470.462	381.06
470.681	392.06
470.901	399.06
471.12	405.06
471.339	362.06
471.558	403.06
471.777	399.06
471.997	407.06
472.216	416.06
472.435	469.06
472.654	424.06
472.873	425.06
473.092	392.06
473.311	387.06
473.53	402.06
473.749	391.06
473.968	407.06
474.187	448.06
474.406	470.06
474.625	414.06
474.844	394.06
475.063	394.06
475.282	405.06
475.501	392.06
475.72	417.06
475.939	393.06
476.158	408.06
476.377	387.06
476.596	395.06
476.814	410.06
477.033	432.06
477.252	412.06
477.471	436.06
477.69	419.06
477.908	399.06
478.127	422.06
478.346	423.06
478.564	429.06
478.783	463.06
479.002	432.06
479.22	443.06
479.439	451.06
479.658	442.06
479.876	485.06
480.095	446.06
480.313	505.06
480.532	480.06
480.751	485.06
480.969	502.06
481.188	601.06
481.406	635.06
481.624	535.06
481.843	484.06
482.061	473.06
482.28	476.06
482.498	463.06
482.717	451.06
482.935	448.06
483.153	447.06
483.372	468.06
483.59	453.06
483.808	430.06
484.027	454.06
484.245	450.06
484.463	460.06
484.681	457.06
484.9	455.06
485.118	469.06
485.336	455.06
485.554	466.06
485.772	463.06
485.99	469.06
486.209	449.06
486.427	469.06
486.645	484.06
486.863	478.06
487.081	481.06
487.299	488.06
487.517	477.06
487.735	494.06
487.953	478.06
488.171	484.06
488.389	491.06
488.607	481.06
488.825	459.06
489.043	476.06
489.261	473.06
489.479	463.06
489.696	485.06
489.914	481.06
490.132	478.06
490.35	502.06
490.568	520.06
490.786	527.06
491.003	529.06
491.221	504.06
491.439	518.06
491.657	545.06
491.874	525.06
492.092	544.06
492.31	544.06
492.527	545.06
492.745	546.06
492.963	535.06
493.18	512.06
493.398	519.06
493.615	535.06
493.833	527.06
494.05	554.06
494.268	536.06
494.485	542.06
494.703	534.06
494.92	539.06
495.138	534.06
495.355	558.06
495.573	543.06
495.79	558.06
496.008	555.06
496.225	546.06
496.442	556.06
496.66	552.06
496.877	578.06
497.094	527.06
497.312	549.06
497.529	604.06
497.746	599.06
497.963	571.06
498.181	606.06
498.398	613.06
498.615	617.06
498.832	646.06
499.049	639.06
499.267	647.06
499.484	696.06
499.701	749.06
499.918	766.06
500.135	810.06
500.352	831.06
500.569	843.06
500.786	861.06
501.003	853.06
501.22	811.06
501.437	789.06
501.654	715.06
501.871	710.06
502.088	691.06
502.305	661.06
502.522	673.06
502.739	631.06
502.956	592.06
503.172	575.06
503.389	575.06
503.606	585.06
503.823	582.06
504.04	555.06
504.256	566.06
504.473	557.06
504.69	575.06
504.907	548.06
505.123	561.06
505.34	554.06
505.557	531.06
505.773	553.06
505.99	544.06
506.207	533.06
506.423	526.06
506.64	531.06
506.856	522.06
507.073	499.06
507.289	516.06
507.506	490.06
507.722	517.06
507.939	521.06
508.155	489.06
508.372	492.06
508.588	508.06
508.805	499.06
509.021	487.06
509.238	490.06
509.454	498.06
509.67	487.06
509.887	479.06
510.103	489.06
510.319	483.06
510.536	561.06
510.752	943.06
510.968	734.06
511.184	494.06
511.401	474.06
511.617	466.06
511.833	456.06
512.049	461.06
512.265	455.06
512.481	463.06
512.698	454.06
512.914	429.06
513.13	477.06
513.346	449.06
513.562	463.06
513.778	453.06
513.994	469.06
514.21	473.06
514.426	488.06
514.642	511.06
514.858	527.06
515.074	528.06
515.29	646.06
515.506	889.06
515.721	762.06
515.937	565.06
516.153	511.06
516.369	505.06
516.585	471.06
516.801	485.06
517.016	495.06
517.232	495.06
517.448	500.06
517.664	506.06
517.879	501.06
518.095	508.06
518.311	484.06
518.527	495.06
518.742	482.06
518.958	483.06
519.173	463.06
519.389	477.06
519.605	470.06
519.82	457.06
520.036	486.06
520.251	476.06
520.467	490.06
520.682	505.06
520.898	503.06
521.113	511.06
521.329	518.06
521.544	591.06
521.76	718.06
521.975	1165.06
522.19	1184.06
522.406	675.06
522.621	521.06
522.836	479.06
523.052	461.06
523.267	435.06
523.482	431.06
523.698	435.06
523.913	418.06
524.128	430.06
524.343	425.06
524.559	411.06
524.774	397.06
524.989	390.06
525.204	413.06
525.419	413.06
525.634	410.06
525.849	417.06
526.064	406.06
526.28	416.06
526.495	398.06
526.71	390.06
526.925	397.06
527.14	393.06
527.355	387.06
527.57	405.06
527.785	398.06
527.999	396.06
528.214	382.06
528.429	397.06
528.644	410.06
528.859	385.06
529.074	395.06
529.289	420.06
529.503	471.06
529.718	447.06
529.933	391.06
530.148	390.06
530.363	402.06
530.577	387.06
530.792	399.06
531.007	371.06
531.221	379.06
531.436	397.06
531.651	382.06
531.865	376.06
532.08	397.06
532.295	384.06
532.509	388.06
532.724	385.06
532.938	366.06
533.153	381.06
533.367	369.06
533.582	381.06
533.796	375.06
534.011	369.06
534.225	373.06
534.44	375.06
534.654	379.06
534.868	367.06
535.083	364.06
535.297	379.06
535.511	379.06
535.726	381.06
535.94	377.06
536.154	362.06
536.369	371.06
536.583	355.06
536.797	373.06
537.011	339.06
537.225	357.06
537.44	362.06
537.654	372.06
537.868	358.06
538.082	365.06
538.296	378.06
538.51	367.06
538.724	391.06
538.938	360.06
539.153	376.06
539.367	373.06
539.581	357.06
539.795	360.06
540.009	367.06
540.222	368.06
540.436	382.06
540.65	381.06
540.864	366.06
541.078	379.06
541.292	358.06
541.506	361.06
541.72	358.06
541.934	356.06
542.147	356.06
542.361	367.06
542.575	357.06
542.789	379.06
543.002	373.06
543.216	378.06
543.43	371.06
543.644	363.06
543.857	368.06
544.071	380.06
544.285	363.06
544.498	372.06
544.712	361.06
544.925	359.06
545.139	360.06
545.352	358.06
545.566	371.06
545.779	364.06
545.993	368.06
546.206	374.06
546.42	355.06
546.633	364.06
546.847	355.06
547.06	356.06
547.274	345.06
547.487	366.06
547.7	357.06
547.914	353.06
548.127	340.06
548.34	346.06
548.554	345.06
548.767	347.06
548.98	344.06
549.193	345.06
549.407	358.06
549.62	360.06
549.833	359.06
550.046	364.06
550.259	345.06
550.473	374.06
550.686	346.06
550.899	354.06
551.112	347.06
551.325	350.06
551.538	338.06
551.751	365.06
551.964	337.06
552.177	355.06
552.39	341.06
552.603	371.06
552.816	363.06
553.029	368.06
553.242	364.06
553.455	360.06
553.667	363.06
553.88	360.06
554.093	369.06
554.306	338.06
554.519	346.06
554.732	353.06
554.944	337.06
555.157	340.06
555.37	339.06
555.583	335.06
555.795	335.06
556.008	340.06
556.221	330.06
556.433	335.06
556.646	335.06
556.859	322.06
557.071	322.06
557.284	319.06
557.496	320.06
557.709	323.06
557.921	297.06
558.134	313.06
558.346	309.06
558.559	311.06
558.771	309.06
558.984	318.06
559.196	328.06
559.409	319.06
559.621	328.06
559.833	319.06
560.046	323.06
560.258	303.06
560.47	317.06
560.683	319.06
560.895	303.06
561.107	308.06
561.32	316.06
561.532	318.06
561.744	320.06
561.956	315.06
562.168	324.06
562.381	338.06
562.593	335.06
562.805	314.06
563.017	308.06
563.229	315.06
563.441	317.06
563.653	308.06
563.865	316.06
564.077	302.06
564.289	325.06
564.501	329.06
564.713	324.06
564.925	331.06
565.137	326.06
565.349	328.06
565.561	347.06
565.773	349.06
565.985	346.06
566.197	354.06
566.408	368.06
566.62	347.06
566.832	385.06
567.044	380.06
567.255	380.06
567.467	403.06
567.679	410.06
567.891	416.06
568.102	430.06
568.314	394.06
568.526	371.06
568.737	371.06
568.949	358.06
569.161	352.06
569.372	319.06
569.584	338.06
569.795	325.06
570.007	322.06
570.218	359.06
570.43	315.06
570.641	319.06
570.853	320.06
571.064	314.06
571.276	307.06
571.487	285.06
571.698	291.06
571.91	310.06
572.121	290.06
572.333	300.06
572.544	266.06
572.755	279.06
572.966	308.06
573.178	286.06
573.389	283.06
573.6	268.06
573.811	272.06
574.023	266.06
574.234	248.06
574.445	263.06
574.656	275.06
574.867	268.06
575.078	277.06
575.289	264.06
575.501	280.06
575.712	266.06
575.923	264.06
576.134	253.06
576.345	271.06
576.556	257.06
576.767	263.06
576.978	251.06
577.188	271.06
577.399	251.06
577.61	260.06
577.821	253.06
578.032	264.06
578.243	295.06
578.454	448.06
578.665	343.06
578.875	283.06
579.086	267.06
579.297	252.06
579.508	249.06
579.718	255.06
579.929	238.06
580.14	261.06
580.35	254.06
580.561	250.06
580.772	245.06
580.982	251.06
581.193	247.06
581.403	253.06
581.614	245.06
581.825	259.06
582.035	255.06
582.246	243.06
582.456	255.06
582.667	251.06
582.877	237.06
583.087	246.06
583.298	238.06
583.508	245.06
583.719	224.06
583.929	245.06
584.139	229.06
584.35	257.06
584.56	243.06
584.77	238.06
584.981	240.06
585.191	241.06
585.401	245.06
585.611	240.06
585.821	245.06
586.032	231.06
586.242	234.06
586.452	228.06
586.662	208.06
586.872	259.06
587.082	232.06
587.292	226.06
587.502	234.06
587.713	240.06
587.923	217.06
588.133	245.06
588.343	227.06
588.553	257.06
588.762	236.06
588.972	254.06
589.182	295.06
589.392	275.06
589.602	239.06
589.812	275.06
590.022	256.06
590.232	234.06
590.441	233.06
590.651	251.06
590.861	217.06
591.071	239.06
591.281	232.06
591.49	239.06
591.7	250.06
591.91	237.06
592.119	229.06
592.329	241.06
592.539	232.06
592.748	255.06
592.958	260.06
593.167	251.06
593.377	242.06
593.587	259.06
593.796	255.06
594.006	250.06
594.215	263.06
594.424	271.06
594.634	255.06
594.843	220.06
595.053	234.06
595.262	246.06
595.472	240.06
595.681	240.06
595.89	221.06
596.1	235.06
596.309	216.06
596.518	215.06
596.727	244.06
596.937	230.06
597.146	229.06
597.355	219.06
597.564	219.06
597.774	227.06
597.983	226.06
598.192	202.06
598.401	218.06
598.61	221.06
598.819	215.06
599.028	216.06
599.237	229.06
599.446	219.06
599.655	218.06
599.864	220.06
600.073	215.06
600.282	197.06
600.491	218.06
600.7	202.06
600.909	209.06
601.118	209.06
601.327	199.06
601.536	195.06
601.745	197.06
601.953	209.06
602.162	209.06
602.371	220.06
602.58	213.06
602.789	164.06
602.997	191.06
603.206	193.06
603.415	212.06
603.623	208.06
603.832	192.06
604.041	188.06
604.249	197.06
604.458	208.06
604.666	207.06
604.875	209.06
605.084	201.06
605.292	194.06
605.501	195.06
605.709	199.06
605.918	212.06
606.126	205.06
606.334	187.06
606.543	175.06
606.751	204.06
606.96	198.06
607.168	188.06
607.376	218.06
607.585	207.06
607.793	210.06
608.001	207.06
608.21	208.06
608.418	211.06
608.626	187.06
608.834	204.06
609.043	180.06
609.251	184.06
609.459	185.06
609.667	200.06
609.875	191.06
610.083	195.06
610.291	204.06
610.499	200.06
610.707	204.06
610.916	206.06
611.124	204.06
611.332	200.06
611.54	207.06
611.748	204.06
611.955	214.06
612.163	207.06
612.371	209.06
612.579	192.06
612.787	199.06
612.995	195.06
613.203	200.06
613.411	194.06
613.618	196.06
613.826	198.06
614.034	194.06
614.242	188.06
614.449	197.06
614.657	212.06
614.865	171.06
615.072	203.06
615.28	187.06
615.488	195.06
615.695	187.06
615.903	185.06
616.111	191.06
616.318	198.06
616.526	186.06
616.733	195.06
616.941	174.06
617.148	186.06
617.356	201.06
617.563	179.06
617.771	190.06
617.978	189.06
618.185	182.06
618.393	191.06
618.6	193.06
618.807	175.06
619.015	187.06
619.222	172.06
619.429	188.06
619.637	198.06
619.844	195.06
620.051	203.06
620.258	194.06
620.466	187.06
620.673	167.06
620.88	158.06
621.087	176.06
621.294	174.06
621.501	190.06
621.708	168.06
621.915	176.06
622.122	191.06
622.329	182.06
622.536	183.06
622.743	196.06
622.95	189.06
623.157	163.06
623.364	189.06
623.571	183.06
623.778	172.06
623.985	181.06
624.192	185.06
624.399	174.06
624.606	159.06
624.812	176.06
625.019	179.06
625.226	179.06
625.433	179.06
625.639	177.06
625.846	187.06
626.053	185.06
626.259	166.06
626.466	181.06
626.673	177.06
626.879	152.06
627.086	167.06
627.293	171.06
627.499	174.06
627.706	180.06
627.912	172.06
628.119	164.06
628.325	169.06
628.532	171.06
628.738	179.06
628.945	161.06
629.151	163.06
629.357	166.06
629.564	165.06
629.77	164.06
629.976	172.06
630.183	148.06
630.389	174.06
630.595	180.06
630.802	160.06
631.008	147.06
631.214	150.06
631.42	176.06
631.627	180.06
631.833	159.06
632.039	168.06
632.245	175.06
632.451	168.06
632.657	152.06
632.863	153.06
633.069	165.06
633.275	160.06
633.481	158.06
633.688	144.06
633.893	151.06
634.099	149.06
634.305	149.06
634.511	146.06
634.717	154.06
634.923	159.06
635.129	165.06
635.335	159.06
635.541	159.06
635.747	150.06
635.952	159.06
636.158	159.06
636.364	161.06
636.57	168.06
636.775	175.06
636.981	158.06
637.187	166.06
637.392	168.06
637.598	148.06
637.804	149.06
638.009	151.06
638.215	158.06
638.421	156.06
638.626	154.06
638.832	149.06
639.037	159.06
639.243	143.06
639.448	158.06
639.654	145.06
639.859	148.06
640.065	137.06
640.27	155.06
640.475	151.06
640.681	142.06
640.886	159.06
641.091	153.06
641.297	153.06
641.502	147.06
641.707	145.06
641.913	141.06
642.118	140.06
642.323	147.06
642.528	164.06
642.733	156.06
642.939	154.06
643.144	145.06
643.349	161.06
643.554	163.06
643.759	143.06
643.964	139.06
644.169	144.06
644.374	148.06
644.579	143.06
644.784	151.06
644.989	160.06
645.194	135.06
645.399	147.06
645.604	141.06
645.809	152.06
646.014	133.06
646.219	169.06
646.423	139.06
646.628	137.06
646.833	137.06
647.038	140.06
647.243	134.06
647.447	149.06
647.652	147.06
647.857	139.06
648.062	136.06
648.266	153.06
648.471	151.06
648.676	153.06
648.88	155.06
649.085	145.06
649.289	153.06
649.494	148.06
649.698	155.06
649.903	158.06
650.107	136.06
650.312	137.06
650.516	149.06
650.721	131.06
650.925	141.06
651.13	132.06
651.334	148.06
651.539	141.06
651.743	134.06
651.947	127.06
652.152	121.06
652.356	129.06
652.56	136.06
652.764	127.06
652.969	136.06
653.173	130.06
653.377	137.06
653.581	125.06
653.785	131.06
653.99	125.06
654.194	120.06
654.398	128.06
654.602	129.06
654.806	129.06
655.01	145.06
655.214	136.06
655.418	127.06
655.622	137.06
655.826	129.06
656.03	127.06
656.234	127.06
656.438	128.06
656.642	135.06
656.846	127.06
657.049	121.06
657.253	124.06
657.457	123.06
657.661	136.06
657.865	107.06
658.068	96.06
658.272	100.06
658.476	102.06
658.68	111.06
658.883	93.06
659.087	107.06
659.291	102.06
659.494	107.06
659.698	101.06
659.901	89.06
660.105	104.06
660.309	94.06
660.512	103.06
660.716	91.06
660.919	87.06
661.123	94.06
661.326	100.06
661.53	95.06
661.733	100.06
661.936	83.06
662.14	97.06
662.343	84.06
662.546	87.06
662.75	92.06
662.953	91.06
663.156	78.06
663.36	80.06
663.563	83.06
663.766	80.06
663.969	100.06
664.173	91.06
664.376	85.06
664.579	100.06
664.782	103.06
664.985	76.06
665.188	94.06
665.391	85.06
665.594	69.06
665.797	82.06
666	75.06
666.203	91.06
666.406	92.06
666.609	99.06
666.812	87.06
667.015	71.06
667.218	81.06
667.421	95.06
667.624	85.06
667.827	90.06
668.03	82.06
668.232	79.06
668.435	86.06
668.638	89.06
668.841	88.06
669.043	73.06
669.246	79.06
669.449	94.06
669.651	81.06
669.854	89.06
670.057	77.06
670.259	93.06
670.462	77.06
670.665	85.06
670.867	78.06
671.07	82.06
671.272	93.06
671.475	81.06
671.677	77.06
671.88	80.06
672.082	80.06
672.284	87.06
672.487	89.06
672.689	90.06
672.892	76.06
