Data from 1986.PennyLincolnUp.Lamp.En5.5.200Scan.071819.P2_HRD10591_17-11-11-973.txt Node
Date: Thu Jul 18 17:11:11 EDT 2019
User: cochatt
Spectrometer: HR+D1059
Trigger mode: 1
Integration Time (sec): 1.000000E-1
Scans to average: 1
Electric dark correction enabled: true
Nonlinearity correction enabled: false
Boxcar width: 0
XAxis mode: Wavelengths
Number of Pixels in Spectrum: 2048
>>>>>Begin Spectral Data<<<<<
223.165	-2.62
223.4	-2.62
223.635	-2.62
223.869	-15.62
224.104	1.38
224.338	-11.62
224.573	-23.62
224.808	-19.62
225.042	-27.62
225.277	-0.62
225.511	-6.62
225.746	17.38
225.98	13.38
226.215	4.38
226.449	4.38
226.683	15.38
226.918	27.38
227.152	24.38
227.387	51.38
227.621	32.38
227.856	53.38
228.09	47.38
228.324	55.38
228.559	52.38
228.793	73.38
229.027	109.38
229.262	112.38
229.496	123.38
229.73	140.38
229.964	164.38
230.199	145.38
230.433	126.38
230.667	115.38
230.901	119.38
231.136	107.38
231.37	109.38
231.604	111.38
231.838	95.38
232.072	125.38
232.306	121.38
232.541	120.38
232.775	114.38
233.009	105.38
233.243	118.38
233.477	127.38
233.711	108.38
233.945	109.38
234.179	118.38
234.413	120.38
234.647	116.38
234.881	118.38
235.115	118.38
235.349	119.38
235.583	120.38
235.817	115.38
236.051	129.38
236.285	109.38
236.519	147.38
236.753	143.38
236.987	152.38
237.221	189.38
237.455	248.38
237.689	207.38
237.922	147.38
238.156	123.38
238.39	133.38
238.624	136.38
238.858	125.38
239.091	131.38
239.325	135.38
239.559	123.38
239.793	126.38
240.027	129.38
240.26	136.38
240.494	160.38
240.728	153.38
240.961	164.38
241.195	140.38
241.429	137.38
241.662	127.38
241.896	138.38
242.13	128.38
242.363	136.38
242.597	128.38
242.83	134.38
243.064	152.38
243.298	133.38
243.531	131.38
243.765	137.38
243.998	128.38
244.232	140.38
244.465	153.38
244.699	160.38
244.932	149.38
245.166	132.38
245.399	151.38
245.633	147.38
245.866	150.38
246.099	151.38
246.333	149.38
246.566	156.38
246.8	167.38
247.033	141.38
247.266	147.38
247.5	151.38
247.733	172.38
247.966	187.38
248.2	177.38
248.433	177.38
248.666	184.38
248.899	191.38
249.133	213.38
249.366	228.38
249.599	213.38
249.832	207.38
250.066	190.38
250.299	186.38
250.532	209.38
250.765	224.38
250.998	255.38
251.231	251.38
251.465	243.38
251.698	228.38
251.931	216.38
252.164	208.38
252.397	209.38
252.63	213.38
252.863	213.38
253.096	241.38
253.329	242.38
253.562	250.38
253.795	232.38
254.028	225.38
254.261	255.38
254.494	230.38
254.727	281.38
254.96	295.38
255.193	313.38
255.426	290.38
255.659	247.38
255.892	265.38
256.124	277.38
256.357	287.38
256.59	291.38
256.823	228.38
257.056	237.38
257.289	234.38
257.521	224.38
257.754	229.38
257.987	221.38
258.22	234.38
258.452	214.38
258.685	228.38
258.918	221.38
259.151	213.38
259.383	241.38
259.616	224.38
259.849	225.38
260.081	242.38
260.314	256.38
260.547	265.38
260.779	284.38
261.012	257.38
261.244	229.38
261.477	230.38
261.71	224.38
261.942	230.38
262.175	254.38
262.407	266.38
262.64	226.38
262.872	219.38
263.105	225.38
263.337	227.38
263.57	221.38
263.802	216.38
264.035	207.38
264.267	213.38
264.499	209.38
264.732	208.38
264.964	204.38
265.197	207.38
265.429	219.38
265.661	201.38
265.894	207.38
266.126	223.38
266.358	228.38
266.591	204.38
266.823	235.38
267.055	214.38
267.287	220.38
267.52	235.38
267.752	216.38
267.984	199.38
268.216	229.38
268.448	227.38
268.681	230.38
268.913	260.38
269.145	257.38
269.377	276.38
269.609	283.38
269.841	284.38
270.073	288.38
270.306	317.38
270.538	325.38
270.77	327.38
271.002	327.38
271.234	289.38
271.466	320.38
271.698	319.38
271.93	345.38
272.162	342.38
272.394	322.38
272.626	295.38
272.858	287.38
273.09	269.38
273.322	265.38
273.553	270.38
273.785	268.38
274.017	278.38
274.249	269.38
274.481	275.38
274.713	267.38
274.945	279.38
275.176	283.38
275.408	274.38
275.64	259.38
275.872	265.38
276.104	279.38
276.335	260.38
276.567	276.38
276.799	296.38
277.031	297.38
277.262	323.38
277.494	326.38
277.726	292.38
277.957	300.38
278.189	308.38
278.421	300.38
278.652	277.38
278.884	280.38
279.115	265.38
279.347	280.38
279.579	282.38
279.81	255.38
280.042	262.38
280.273	260.38
280.505	250.38
280.736	269.38
280.968	265.38
281.199	257.38
281.431	268.38
281.662	260.38
281.894	253.38
282.125	279.38
282.356	310.38
282.588	297.38
282.819	311.38
283.051	282.38
283.282	263.38
283.513	260.38
283.745	273.38
283.976	273.38
284.207	265.38
284.439	251.38
284.67	267.38
284.901	269.38
285.132	272.38
285.364	256.38
285.595	283.38
285.826	273.38
286.057	270.38
286.288	283.38
286.52	261.38
286.751	255.38
286.982	286.38
287.213	270.38
287.444	276.38
287.675	282.38
287.906	278.38
288.138	279.38
288.369	280.38
288.6	287.38
288.831	262.38
289.062	261.38
289.293	275.38
289.524	271.38
289.755	295.38
289.986	257.38
290.217	288.38
290.448	268.38
290.679	267.38
290.91	276.38
291.141	258.38
291.371	289.38
291.602	265.38
291.833	274.38
292.064	295.38
292.295	275.38
292.526	300.38
292.757	283.38
292.987	279.38
293.218	270.38
293.449	257.38
293.68	279.38
293.91	286.38
294.141	269.38
294.372	263.38
294.603	278.38
294.833	259.38
295.064	260.38
295.295	288.38
295.525	277.38
295.756	287.38
295.987	300.38
296.217	317.38
296.448	344.38
296.679	292.38
296.909	281.38
297.14	284.38
297.37	285.38
297.601	276.38
297.831	282.38
298.062	312.38
298.292	287.38
298.523	289.38
298.753	296.38
298.984	292.38
299.214	277.38
299.445	287.38
299.675	291.38
299.905	289.38
300.136	291.38
300.366	296.38
300.597	275.38
300.827	311.38
301.057	307.38
301.288	296.38
301.518	318.38
301.748	320.38
301.979	297.38
302.209	326.38
302.439	293.38
302.669	299.38
302.9	308.38
303.13	303.38
303.36	303.38
303.59	321.38
303.82	333.38
304.051	318.38
304.281	299.38
304.511	307.38
304.741	317.38
304.971	295.38
305.201	303.38
305.431	313.38
305.661	311.38
305.891	309.38
306.121	304.38
306.352	297.38
306.582	335.38
306.812	327.38
307.042	320.38
307.272	315.38
307.502	326.38
307.731	318.38
307.961	316.38
308.191	331.38
308.421	311.38
308.651	341.38
308.881	310.38
309.111	315.38
309.341	320.38
309.571	330.38
309.8	339.38
310.03	376.38
310.26	371.38
310.49	377.38
310.72	381.38
310.949	401.38
311.179	380.38
311.409	377.38
311.639	352.38
311.868	379.38
312.098	370.38
312.328	364.38
312.557	389.38
312.787	417.38
313.017	411.38
313.246	379.38
313.476	361.38
313.706	375.38
313.935	368.38
314.165	367.38
314.394	410.38
314.624	397.38
314.853	380.38
315.083	388.38
315.312	349.38
315.542	363.38
315.771	361.38
316.001	352.38
316.23	348.38
316.46	344.38
316.689	349.38
316.919	373.38
317.148	393.38
317.377	387.38
317.607	386.38
317.836	364.38
318.065	359.38
318.295	366.38
318.524	351.38
318.753	367.38
318.983	367.38
319.212	374.38
319.441	371.38
319.67	388.38
319.9	368.38
320.129	382.38
320.358	395.38
320.587	371.38
320.816	392.38
321.046	395.38
321.275	411.38
321.504	389.38
321.733	387.38
321.962	395.38
322.191	404.38
322.42	428.38
322.649	460.38
322.878	477.38
323.108	489.38
323.337	499.38
323.566	529.38
323.795	589.38
324.024	633.38
324.253	768.38
324.482	1116.38
324.71	1729.38
324.939	2415.38
325.168	2136.38
325.397	1148.38
325.626	780.38
325.855	628.38
326.084	540.38
326.313	525.38
326.542	576.38
326.77	605.38
326.999	700.38
327.228	981.38
327.457	1445.38
327.686	1847.38
327.914	1249.38
328.143	855.38
328.372	729.38
328.6	661.38
328.829	630.38
329.058	659.38
329.287	667.38
329.515	598.38
329.744	557.38
329.972	559.38
330.201	626.38
330.43	676.38
330.658	696.38
330.887	689.38
331.115	641.38
331.344	559.38
331.572	525.38
331.801	512.38
332.03	511.38
332.258	489.38
332.486	454.38
332.715	454.38
332.943	455.38
333.172	469.38
333.4	452.38
333.629	463.38
333.857	498.38
334.085	511.38
334.314	551.38
334.542	617.38
334.771	648.38
334.999	549.38
335.227	491.38
335.455	445.38
335.684	445.38
335.912	418.38
336.14	421.38
336.369	458.38
336.597	423.38
336.825	424.38
337.053	409.38
337.281	414.38
337.51	405.38
337.738	418.38
337.966	424.38
338.194	429.38
338.422	436.38
338.65	419.38
338.878	405.38
339.106	413.38
339.334	400.38
339.562	399.38
339.79	391.38
340.018	399.38
340.246	412.38
340.474	415.38
340.702	433.38
340.93	405.38
341.158	407.38
341.386	414.38
341.614	407.38
341.842	413.38
342.07	392.38
342.298	397.38
342.526	412.38
342.754	392.38
342.981	375.38
343.209	357.38
343.437	377.38
343.665	403.38
343.893	395.38
344.12	401.38
344.348	391.38
344.576	396.38
344.804	439.38
345.031	433.38
345.259	421.38
345.487	437.38
345.714	377.38
345.942	393.38
346.17	401.38
346.397	410.38
346.625	379.38
346.853	378.38
347.08	397.38
347.308	411.38
347.535	415.38
347.763	405.38
347.99	402.38
348.218	407.38
348.445	415.38
348.673	418.38
348.9	406.38
349.128	386.38
349.355	385.38
349.583	395.38
349.81	389.38
350.037	377.38
350.265	394.38
350.492	373.38
350.72	373.38
350.947	376.38
351.174	415.38
351.402	418.38
351.629	423.38
351.856	405.38
352.083	414.38
352.311	411.38
352.538	411.38
352.765	425.38
352.992	411.38
353.22	393.38
353.447	409.38
353.674	402.38
353.901	372.38
354.128	346.38
354.355	367.38
354.583	374.38
354.81	364.38
355.037	372.38
355.264	363.38
355.491	359.38
355.718	372.38
355.945	333.38
356.172	359.38
356.399	356.38
356.626	363.38
356.853	344.38
357.08	339.38
357.307	352.38
357.534	354.38
357.761	350.38
357.988	355.38
358.215	345.38
358.441	383.38
358.668	363.38
358.895	356.38
359.122	369.38
359.349	390.38
359.576	407.38
359.802	393.38
360.029	464.38
360.256	461.38
360.483	433.38
360.709	390.38
360.936	399.38
361.163	388.38
361.39	397.38
361.616	405.38
361.843	387.38
362.07	378.38
362.296	395.38
362.523	393.38
362.749	401.38
362.976	385.38
363.203	363.38
363.429	368.38
363.656	383.38
363.882	368.38
364.109	372.38
364.335	378.38
364.562	380.38
364.788	363.38
365.015	375.38
365.241	360.38
365.468	358.38
365.694	371.38
365.92	391.38
366.147	364.38
366.373	375.38
366.599	378.38
366.826	376.38
367.052	346.38
367.278	364.38
367.505	375.38
367.731	359.38
367.957	334.38
368.184	375.38
368.41	369.38
368.636	385.38
368.862	383.38
369.089	380.38
369.315	351.38
369.541	371.38
369.767	363.38
369.993	377.38
370.219	384.38
370.445	369.38
370.672	373.38
370.898	373.38
371.124	355.38
371.35	355.38
371.576	361.38
371.802	350.38
372.028	355.38
372.254	358.38
372.48	356.38
372.706	362.38
372.932	361.38
373.158	367.38
373.384	354.38
373.61	356.38
373.835	349.38
374.061	379.38
374.287	349.38
374.513	353.38
374.739	364.38
374.965	345.38
375.191	345.38
375.416	372.38
375.642	376.38
375.868	355.38
376.094	355.38
376.319	348.38
376.545	356.38
376.771	339.38
376.997	349.38
377.222	342.38
377.448	362.38
377.674	359.38
377.899	351.38
378.125	350.38
378.35	349.38
378.576	357.38
378.802	344.38
379.027	345.38
379.253	350.38
379.478	353.38
379.704	355.38
379.929	367.38
380.155	357.38
380.38	369.38
380.606	339.38
380.831	337.38
381.057	341.38
381.282	351.38
381.507	375.38
381.733	354.38
381.958	339.38
382.184	357.38
382.409	353.38
382.634	359.38
382.86	325.38
383.085	347.38
383.31	368.38
383.535	362.38
383.761	337.38
383.986	355.38
384.211	354.38
384.436	351.38
384.662	360.38
384.887	360.38
385.112	345.38
385.337	361.38
385.562	359.38
385.787	367.38
386.013	364.38
386.238	380.38
386.463	374.38
386.688	364.38
386.913	373.38
387.138	375.38
387.363	354.38
387.588	357.38
387.813	368.38
388.038	361.38
388.263	342.38
388.488	348.38
388.713	379.38
388.938	358.38
389.163	351.38
389.387	367.38
389.612	360.38
389.837	363.38
390.062	358.38
390.287	351.38
390.512	376.38
390.736	353.38
390.961	361.38
391.186	376.38
391.411	364.38
391.636	359.38
391.86	367.38
392.085	367.38
392.31	358.38
392.534	372.38
392.759	356.38
392.984	365.38
393.208	370.38
393.433	364.38
393.658	370.38
393.882	375.38
394.107	367.38
394.331	361.38
394.556	379.38
394.78	362.38
395.005	351.38
395.229	356.38
395.454	387.38
395.678	382.38
395.903	396.38
396.127	420.38
396.352	407.38
396.576	391.38
396.801	371.38
397.025	362.38
397.249	376.38
397.474	385.38
397.698	394.38
397.922	408.38
398.147	425.38
398.371	417.38
398.595	405.38
398.82	399.38
399.044	381.38
399.268	432.38
399.492	423.38
399.717	431.38
399.941	467.38
400.165	506.38
400.389	533.38
400.613	487.38
400.837	438.38
401.062	435.38
401.286	447.38
401.51	391.38
401.734	411.38
401.958	413.38
402.182	417.38
402.406	424.38
402.63	433.38
402.854	425.38
403.078	412.38
403.302	442.38
403.526	436.38
403.75	440.38
403.974	444.38
404.198	421.38
404.422	443.38
404.645	454.38
404.869	455.38
405.093	491.38
405.317	524.38
405.541	564.38
405.765	511.38
405.988	469.38
406.212	470.38
406.436	515.38
406.66	521.38
406.883	488.38
407.107	478.38
407.331	515.38
407.555	579.38
407.778	593.38
408.002	537.38
408.226	516.38
408.449	482.38
408.673	482.38
408.896	503.38
409.12	537.38
409.344	516.38
409.567	464.38
409.791	455.38
410.014	429.38
410.238	433.38
410.461	431.38
410.685	416.38
410.908	448.38
411.132	498.38
411.355	520.38
411.578	520.38
411.802	480.38
412.025	465.38
412.249	448.38
412.472	475.38
412.695	532.38
412.919	535.38
413.142	461.38
413.365	459.38
413.589	437.38
413.812	427.38
414.035	444.38
414.258	412.38
414.482	416.38
414.705	402.38
414.928	411.38
415.151	403.38
415.374	396.38
415.597	409.38
415.821	411.38
416.044	426.38
416.267	437.38
416.49	423.38
416.713	417.38
416.936	401.38
417.159	394.38
417.382	404.38
417.605	442.38
417.828	447.38
418.051	426.38
418.274	439.38
418.497	421.38
418.72	407.38
418.943	410.38
419.166	426.38
419.389	450.38
419.611	458.38
419.834	428.38
420.057	450.38
420.28	457.38
420.503	445.38
420.726	453.38
420.948	469.38
421.171	508.38
421.394	532.38
421.617	465.38
421.839	456.38
422.062	462.38
422.285	464.38
422.507	519.38
422.73	577.38
422.953	575.38
423.175	495.38
423.398	459.38
423.621	459.38
423.843	484.38
424.066	502.38
424.288	503.38
424.511	501.38
424.733	555.38
424.956	639.38
425.178	606.38
425.401	585.38
425.623	621.38
425.846	531.38
426.068	503.38
426.291	474.38
426.513	491.38
426.735	523.38
426.958	541.38
427.18	597.38
427.402	736.38
427.625	802.38
427.847	764.38
428.069	679.38
428.292	583.38
428.514	508.38
428.736	494.38
428.958	471.38
429.181	468.38
429.403	458.38
429.625	463.38
429.847	501.38
430.069	571.38
430.292	559.38
430.514	475.38
430.736	476.38
430.958	426.38
431.18	449.38
431.402	412.38
431.624	415.38
431.846	405.38
432.068	387.38
432.29	423.38
432.512	425.38
432.734	433.38
432.956	432.38
433.178	441.38
433.4	441.38
433.622	412.38
433.844	409.38
434.066	418.38
434.287	410.38
434.509	424.38
434.731	431.38
434.953	439.38
435.175	454.38
435.397	489.38
435.618	488.38
435.84	542.38
436.062	625.38
436.284	678.38
436.505	588.38
436.727	522.38
436.949	491.38
437.17	452.38
437.392	469.38
437.614	464.38
437.835	523.38
438.057	629.38
438.278	726.38
438.5	703.38
438.721	753.38
438.943	734.38
439.165	593.38
439.386	530.38
439.608	537.38
439.829	514.38
440.05	529.38
440.272	584.38
440.493	555.38
440.715	529.38
440.936	468.38
441.158	473.38
441.379	468.38
441.6	474.38
441.822	508.38
442.043	529.38
442.264	599.38
442.486	639.38
442.707	568.38
442.928	523.38
443.149	517.38
443.371	547.38
443.592	588.38
443.813	657.38
444.034	710.38
444.255	581.38
444.476	515.38
444.698	487.38
444.919	473.38
445.14	592.38
445.361	532.38
445.582	542.38
445.803	594.38
446.024	715.38
446.245	735.38
446.466	650.38
446.687	551.38
446.908	520.38
447.129	488.38
447.35	479.38
447.571	460.38
447.792	460.38
448.013	474.38
448.234	475.38
448.455	551.38
448.675	634.38
448.896	729.38
449.117	632.38
449.338	575.38
449.559	728.38
449.779	783.38
450	623.38
450.221	524.38
450.442	474.38
450.662	451.38
450.883	465.38
451.104	488.38
451.324	481.38
451.545	447.38
451.766	429.38
451.986	419.38
452.207	413.38
452.428	401.38
452.648	414.38
452.869	411.38
453.089	431.38
453.31	443.38
453.53	416.38
453.751	413.38
453.971	393.38
454.192	441.38
454.412	439.38
454.633	411.38
454.853	413.38
455.073	407.38
455.294	427.38
455.514	489.38
455.734	487.38
455.955	408.38
456.175	390.38
456.395	386.38
456.616	364.38
456.836	395.38
457.056	386.38
457.276	379.38
457.497	379.38
457.717	381.38
457.937	404.38
458.157	391.38
458.377	405.38
458.598	422.38
458.818	471.38
459.038	588.38
459.258	594.38
459.478	496.38
459.698	445.38
459.918	418.38
460.138	414.38
460.358	403.38
460.578	405.38
460.798	420.38
461.018	418.38
461.238	413.38
461.458	410.38
461.678	390.38
461.898	399.38
462.118	406.38
462.338	402.38
462.558	415.38
462.777	411.38
462.997	421.38
463.217	417.38
463.437	428.38
463.657	415.38
463.876	422.38
464.096	427.38
464.316	423.38
464.536	426.38
464.755	452.38
464.975	438.38
465.195	520.38
465.414	602.38
465.634	525.38
465.854	473.38
466.073	428.38
466.293	409.38
466.512	405.38
466.732	415.38
466.951	437.38
467.171	401.38
467.391	402.38
467.61	425.38
467.829	431.38
468.049	429.38
468.268	443.38
468.488	439.38
468.707	416.38
468.927	416.38
469.146	382.38
469.365	398.38
469.585	405.38
469.804	401.38
470.023	413.38
470.243	400.38
470.462	405.38
470.681	434.38
470.901	447.38
471.12	400.38
471.339	419.38
471.558	410.38
471.777	433.38
471.997	405.38
472.216	450.38
472.435	555.38
472.654	505.38
472.873	462.38
473.092	447.38
473.311	433.38
473.53	414.38
473.749	423.38
473.968	487.38
474.187	597.38
474.406	624.38
474.625	519.38
474.844	443.38
475.063	410.38
475.282	431.38
475.501	436.38
475.72	433.38
475.939	437.38
476.158	442.38
476.377	443.38
476.596	435.38
476.814	428.38
477.033	434.38
477.252	449.38
477.471	454.38
477.69	469.38
477.908	441.38
478.127	444.38
478.346	462.38
478.564	456.38
478.783	457.38
479.002	466.38
479.22	482.38
479.439	494.38
479.658	498.38
479.876	492.38
480.095	523.38
480.313	560.38
480.532	527.38
480.751	540.38
480.969	531.38
481.188	680.38
481.406	760.38
481.624	611.38
481.843	549.38
482.061	536.38
482.28	535.38
482.498	522.38
482.717	527.38
482.935	515.38
483.153	507.38
483.372	488.38
483.59	485.38
483.808	499.38
484.027	487.38
484.245	505.38
484.463	498.38
484.681	496.38
484.9	509.38
485.118	516.38
485.336	512.38
485.554	519.38
485.772	501.38
485.99	525.38
486.209	511.38
486.427	535.38
486.645	533.38
486.863	568.38
487.081	556.38
487.299	539.38
487.517	513.38
487.735	529.38
487.953	541.38
488.171	555.38
488.389	569.38
488.607	554.38
488.825	561.38
489.043	523.38
489.261	554.38
489.479	541.38
489.696	564.38
489.914	561.38
490.132	577.38
490.35	555.38
490.568	601.38
490.786	608.38
491.003	602.38
491.221	607.38
491.439	608.38
491.657	630.38
491.874	633.38
492.092	637.38
492.31	644.38
492.527	645.38
492.745	673.38
492.963	664.38
493.18	663.38
493.398	657.38
493.615	663.38
493.833	660.38
494.05	667.38
494.268	643.38
494.485	651.38
494.703	659.38
494.92	663.38
495.138	654.38
495.355	687.38
495.573	646.38
495.79	666.38
496.008	680.38
496.225	668.38
496.442	637.38
496.66	660.38
496.877	634.38
497.094	665.38
497.312	665.38
497.529	668.38
497.746	672.38
497.963	687.38
498.181	715.38
498.398	709.38
498.615	693.38
498.832	724.38
499.049	696.38
499.267	688.38
499.484	721.38
499.701	730.38
499.918	755.38
500.135	756.38
500.352	784.38
500.569	769.38
500.786	771.38
501.003	772.38
501.22	751.38
501.437	794.38
501.654	761.38
501.871	795.38
502.088	755.38
502.305	707.38
502.522	713.38
502.739	691.38
502.956	685.38
503.172	654.38
503.389	673.38
503.606	696.38
503.823	674.38
504.04	703.38
504.256	639.38
504.473	642.38
504.69	634.38
504.907	657.38
505.123	625.38
505.34	621.38
505.557	619.38
505.773	632.38
505.99	622.38
506.207	635.38
506.423	631.38
506.64	639.38
506.856	615.38
507.073	626.38
507.289	619.38
507.506	596.38
507.722	634.38
507.939	645.38
508.155	648.38
508.372	610.38
508.588	605.38
508.805	593.38
509.021	608.38
509.238	649.38
509.454	645.38
509.67	618.38
509.887	619.38
510.103	608.38
510.319	624.38
510.536	715.38
510.752	1291.38
510.968	1029.38
511.184	664.38
511.401	618.38
511.617	606.38
511.833	595.38
512.049	593.38
512.265	618.38
512.481	607.38
512.698	590.38
512.914	591.38
513.13	582.38
513.346	575.38
513.562	590.38
513.778	580.38
513.994	603.38
514.21	624.38
514.426	631.38
514.642	694.38
514.858	712.38
515.074	758.38
515.29	948.38
515.506	1460.38
515.721	1211.38
515.937	757.38
516.153	664.38
516.369	632.38
516.585	614.38
516.801	609.38
517.016	586.38
517.232	583.38
517.448	572.38
517.664	602.38
517.879	574.38
518.095	550.38
518.311	559.38
518.527	563.38
518.742	595.38
518.958	596.38
519.173	563.38
519.389	563.38
519.605	569.38
519.82	583.38
520.036	587.38
520.251	621.38
520.467	657.38
520.682	675.38
520.898	675.38
521.113	712.38
521.329	766.38
521.544	873.38
521.76	1142.38
521.975	1959.38
522.19	1954.38
522.406	1012.38
522.621	726.38
522.836	647.38
523.052	603.38
523.267	580.38
523.482	541.38
523.698	560.38
523.913	535.38
524.128	551.38
524.343	538.38
524.559	523.38
524.774	504.38
524.989	507.38
525.204	505.38
525.419	519.38
525.634	510.38
525.849	494.38
526.064	483.38
526.28	481.38
526.495	452.38
526.71	477.38
526.925	465.38
527.14	451.38
527.355	460.38
527.57	458.38
527.785	451.38
527.999	440.38
528.214	453.38
528.429	475.38
528.644	466.38
528.859	465.38
529.074	453.38
529.289	521.38
529.503	583.38
529.718	576.38
529.933	522.38
530.148	486.38
530.363	459.38
530.577	455.38
530.792	425.38
531.007	439.38
531.221	427.38
531.436	453.38
531.651	439.38
531.865	440.38
532.08	439.38
532.295	438.38
532.509	426.38
532.724	428.38
532.938	452.38
533.153	421.38
533.367	416.38
533.582	421.38
533.796	400.38
534.011	431.38
534.225	451.38
534.44	421.38
534.654	436.38
534.868	419.38
535.083	417.38
535.297	420.38
535.511	448.38
535.726	428.38
535.94	447.38
536.154	420.38
536.369	435.38
536.583	415.38
536.797	426.38
537.011	414.38
537.225	419.38
537.44	421.38
537.654	397.38
537.868	410.38
538.082	410.38
538.296	428.38
538.51	438.38
538.724	442.38
538.938	421.38
539.153	441.38
539.367	434.38
539.581	449.38
539.795	409.38
540.009	412.38
540.222	387.38
540.436	409.38
540.65	427.38
540.864	402.38
541.078	434.38
541.292	432.38
541.506	408.38
541.72	419.38
541.934	403.38
542.147	385.38
542.361	400.38
542.575	410.38
542.789	397.38
543.002	393.38
543.216	410.38
543.43	413.38
543.644	408.38
543.857	387.38
544.071	404.38
544.285	413.38
544.498	414.38
544.712	418.38
544.925	414.38
545.139	416.38
545.352	409.38
545.566	425.38
545.779	397.38
545.993	389.38
546.206	389.38
546.42	382.38
546.633	383.38
546.847	406.38
547.06	391.38
547.274	394.38
547.487	392.38
547.7	382.38
547.914	392.38
548.127	387.38
548.34	379.38
548.554	390.38
548.767	397.38
548.98	391.38
549.193	400.38
549.407	379.38
549.62	387.38
549.833	371.38
550.046	383.38
550.259	396.38
550.473	367.38
550.686	364.38
550.899	375.38
551.112	362.38
551.325	359.38
551.538	384.38
551.751	372.38
551.964	387.38
552.177	372.38
552.39	380.38
552.603	379.38
552.816	362.38
553.029	393.38
553.242	377.38
553.455	387.38
553.667	396.38
553.88	389.38
554.093	389.38
554.306	377.38
554.519	385.38
554.732	394.38
554.944	360.38
555.157	368.38
555.37	381.38
555.583	361.38
555.795	355.38
556.008	360.38
556.221	368.38
556.433	363.38
556.646	367.38
556.859	372.38
557.071	356.38
557.284	343.38
557.496	356.38
557.709	345.38
557.921	356.38
558.134	333.38
558.346	344.38
558.559	348.38
558.771	336.38
558.984	317.38
559.196	346.38
559.409	356.38
559.621	342.38
559.833	328.38
560.046	344.38
560.258	346.38
560.47	333.38
560.683	341.38
560.895	335.38
561.107	331.38
561.32	330.38
561.532	351.38
561.744	347.38
561.956	335.38
562.168	344.38
562.381	334.38
562.593	350.38
562.805	345.38
563.017	356.38
563.229	345.38
563.441	343.38
563.653	344.38
563.865	358.38
564.077	346.38
564.289	371.38
564.501	341.38
564.713	349.38
564.925	357.38
565.137	346.38
565.349	355.38
565.561	369.38
565.773	368.38
565.985	376.38
566.197	357.38
566.408	370.38
566.62	360.38
566.832	374.38
567.044	384.38
567.255	380.38
567.467	368.38
567.679	362.38
567.891	391.38
568.102	387.38
568.314	387.38
568.526	367.38
568.737	371.38
568.949	357.38
569.161	348.38
569.372	339.38
569.584	328.38
569.795	342.38
570.007	330.38
570.218	381.38
570.43	412.38
570.641	336.38
570.853	340.38
571.064	320.38
571.276	320.38
571.487	315.38
571.698	297.38
571.91	307.38
572.121	320.38
572.333	303.38
572.544	290.38
572.755	300.38
572.966	304.38
573.178	296.38
573.389	291.38
573.6	311.38
573.811	317.38
574.023	294.38
574.234	301.38
574.445	266.38
574.656	292.38
574.867	295.38
575.078	295.38
575.289	291.38
575.501	268.38
575.712	283.38
575.923	284.38
576.134	314.38
576.345	283.38
576.556	312.38
576.767	307.38
576.978	290.38
577.188	303.38
577.399	299.38
577.61	288.38
577.821	298.38
578.032	316.38
578.243	330.38
578.454	612.38
578.665	452.38
578.875	305.38
579.086	274.38
579.297	276.38
579.508	289.38
579.718	289.38
579.929	284.38
580.14	270.38
580.35	290.38
580.561	293.38
580.772	279.38
580.982	269.38
581.193	280.38
581.403	272.38
581.614	274.38
581.825	287.38
582.035	258.38
582.246	263.38
582.456	260.38
582.667	282.38
582.877	265.38
583.087	271.38
583.298	267.38
583.508	277.38
583.719	270.38
583.929	282.38
584.139	270.38
584.35	255.38
584.56	265.38
584.77	278.38
584.981	270.38
585.191	263.38
585.401	263.38
585.611	267.38
585.821	246.38
586.032	261.38
586.242	258.38
586.452	244.38
586.662	269.38
586.872	283.38
587.082	266.38
587.292	275.38
587.502	253.38
587.713	265.38
587.923	261.38
588.133	282.38
588.343	259.38
588.553	268.38
588.762	266.38
588.972	275.38
589.182	260.38
589.392	281.38
589.602	270.38
589.812	265.38
590.022	268.38
590.232	272.38
590.441	267.38
590.651	274.38
590.861	244.38
591.071	243.38
591.281	261.38
591.49	247.38
591.7	253.38
591.91	264.38
592.119	251.38
592.329	243.38
592.539	261.38
592.748	265.38
592.958	265.38
593.167	259.38
593.377	262.38
593.587	255.38
593.796	252.38
594.006	257.38
594.215	246.38
594.424	265.38
594.634	242.38
594.843	260.38
595.053	277.38
595.262	267.38
595.472	248.38
595.681	247.38
595.89	259.38
596.1	247.38
596.309	227.38
596.518	241.38
596.727	264.38
596.937	252.38
597.146	261.38
597.355	265.38
597.564	246.38
597.774	247.38
597.983	249.38
598.192	224.38
598.401	229.38
598.61	223.38
598.819	239.38
599.028	243.38
599.237	228.38
599.446	255.38
599.655	238.38
599.864	224.38
600.073	230.38
600.282	234.38
600.491	225.38
600.7	262.38
600.909	243.38
601.118	234.38
601.327	205.38
601.536	230.38
601.745	227.38
601.953	219.38
602.162	233.38
602.371	231.38
602.58	220.38
602.789	226.38
602.997	223.38
603.206	225.38
603.415	217.38
603.623	221.38
603.832	213.38
604.041	240.38
604.249	228.38
604.458	216.38
604.666	226.38
604.875	220.38
605.084	218.38
605.292	236.38
605.501	221.38
605.709	234.38
605.918	222.38
606.126	221.38
606.334	207.38
606.543	231.38
606.751	200.38
606.96	227.38
607.168	221.38
607.376	228.38
607.585	229.38
607.793	208.38
608.001	221.38
608.21	222.38
608.418	232.38
608.626	220.38
608.834	234.38
609.043	223.38
609.251	215.38
609.459	225.38
609.667	217.38
609.875	220.38
610.083	214.38
610.291	223.38
610.499	212.38
610.707	198.38
610.916	209.38
611.124	242.38
611.332	220.38
611.54	219.38
611.748	215.38
611.955	204.38
612.163	212.38
612.371	217.38
612.579	210.38
612.787	193.38
612.995	221.38
613.203	208.38
613.411	212.38
613.618	217.38
613.826	193.38
614.034	217.38
614.242	215.38
614.449	216.38
614.657	227.38
614.865	212.38
615.072	207.38
615.28	209.38
615.488	223.38
615.695	206.38
615.903	212.38
616.111	209.38
616.318	204.38
616.526	212.38
616.733	226.38
616.941	195.38
617.148	225.38
617.356	205.38
617.563	214.38
617.771	210.38
617.978	188.38
618.185	222.38
618.393	203.38
618.6	212.38
618.807	205.38
619.015	210.38
619.222	205.38
619.429	204.38
619.637	204.38
619.844	221.38
620.051	204.38
620.258	201.38
620.466	195.38
620.673	195.38
620.88	201.38
621.087	204.38
621.294	197.38
621.501	211.38
621.708	209.38
621.915	218.38
622.122	214.38
622.329	203.38
622.536	195.38
622.743	200.38
622.95	179.38
623.157	207.38
623.364	203.38
623.571	191.38
623.778	200.38
623.985	202.38
624.192	209.38
624.399	218.38
624.606	196.38
624.812	193.38
625.019	212.38
625.226	205.38
625.433	182.38
625.639	178.38
625.846	178.38
626.053	197.38
626.259	196.38
626.466	193.38
626.673	195.38
626.879	186.38
627.086	187.38
627.293	185.38
627.499	193.38
627.706	191.38
627.912	187.38
628.119	171.38
628.325	181.38
628.532	168.38
628.738	192.38
628.945	189.38
629.151	160.38
629.357	182.38
629.564	181.38
629.77	185.38
629.976	193.38
630.183	164.38
630.389	172.38
630.595	190.38
630.802	181.38
631.008	175.38
631.214	176.38
631.42	175.38
631.627	188.38
631.833	175.38
632.039	187.38
632.245	169.38
632.451	180.38
632.657	175.38
632.863	173.38
633.069	174.38
633.275	174.38
633.481	170.38
633.688	168.38
633.893	182.38
634.099	163.38
634.305	165.38
634.511	171.38
634.717	156.38
634.923	162.38
635.129	168.38
635.335	161.38
635.541	164.38
635.747	172.38
635.952	173.38
636.158	171.38
636.364	183.38
636.57	193.38
636.775	170.38
636.981	176.38
637.187	177.38
637.392	169.38
637.598	158.38
637.804	169.38
638.009	156.38
638.215	182.38
638.421	169.38
638.626	168.38
638.832	154.38
639.037	159.38
639.243	165.38
639.448	161.38
639.654	182.38
639.859	156.38
640.065	145.38
640.27	163.38
640.475	169.38
640.681	163.38
640.886	147.38
641.091	155.38
641.297	146.38
641.502	142.38
641.707	148.38
641.913	169.38
642.118	169.38
642.323	150.38
642.528	168.38
642.733	166.38
642.939	170.38
643.144	162.38
643.349	137.38
643.554	171.38
643.759	155.38
643.964	157.38
644.169	159.38
644.374	176.38
644.579	168.38
644.784	138.38
644.989	163.38
645.194	137.38
645.399	151.38
645.604	151.38
645.809	144.38
646.014	149.38
646.219	166.38
646.423	167.38
646.628	162.38
646.833	157.38
647.038	158.38
647.243	153.38
647.447	134.38
647.652	163.38
647.857	150.38
648.062	148.38
648.266	153.38
648.471	155.38
648.676	158.38
648.88	154.38
649.085	164.38
649.289	156.38
649.494	160.38
649.698	171.38
649.903	165.38
650.107	151.38
650.312	147.38
650.516	133.38
650.721	152.38
650.925	147.38
651.13	142.38
651.334	144.38
651.539	142.38
651.743	136.38
651.947	136.38
652.152	166.38
652.356	131.38
652.56	149.38
652.764	135.38
652.969	139.38
653.173	131.38
653.377	127.38
653.581	124.38
653.785	140.38
653.99	132.38
654.194	142.38
654.398	123.38
654.602	126.38
654.806	127.38
655.01	141.38
655.214	139.38
655.418	128.38
655.622	124.38
655.826	116.38
656.03	126.38
656.234	119.38
656.438	116.38
656.642	123.38
656.846	122.38
657.049	118.38
657.253	112.38
657.457	125.38
657.661	112.38
657.865	105.38
658.068	116.38
658.272	117.38
658.476	123.38
658.68	110.38
658.883	96.38
659.087	102.38
659.291	103.38
659.494	107.38
659.698	104.38
659.901	89.38
660.105	100.38
660.309	93.38
660.512	105.38
660.716	96.38
660.919	93.38
661.123	87.38
661.326	93.38
661.53	89.38
661.733	89.38
661.936	90.38
662.14	72.38
662.343	99.38
662.546	90.38
662.75	79.38
662.953	84.38
663.156	87.38
663.36	74.38
663.563	83.38
663.766	81.38
663.969	89.38
664.173	87.38
664.376	86.38
664.579	86.38
664.782	90.38
664.985	91.38
665.188	75.38
665.391	81.38
665.594	83.38
665.797	103.38
666	84.38
666.203	68.38
666.406	80.38
666.609	91.38
666.812	87.38
667.015	80.38
667.218	85.38
667.421	88.38
667.624	81.38
667.827	82.38
668.03	84.38
668.232	91.38
668.435	85.38
668.638	85.38
668.841	85.38
669.043	84.38
669.246	95.38
669.449	65.38
669.651	76.38
669.854	68.38
670.057	80.38
670.259	89.38
670.462	83.38
670.665	86.38
670.867	102.38
671.07	78.38
671.272	87.38
671.475	88.38
671.677	89.38
671.88	76.38
672.082	75.38
672.284	89.38
672.487	84.38
672.689	87.38
672.892	83.38
