Data from 1986.PennyLincolnUp.Lamp.En5.5.200Scan.071819.P2_HRD10591_17-10-10-975.txt Node
Date: Thu Jul 18 17:10:10 EDT 2019
User: cochatt
Spectrometer: HR+D1059
Trigger mode: 1
Integration Time (sec): 1.000000E-1
Scans to average: 1
Electric dark correction enabled: true
Nonlinearity correction enabled: false
Boxcar width: 0
XAxis mode: Wavelengths
Number of Pixels in Spectrum: 2048
>>>>>Begin Spectral Data<<<<<
223.165	-12.62
223.4	-12.62
223.635	-12.62
223.869	-9.62
224.104	-20.62
224.338	-14.62
224.573	-13.62
224.808	-14.62
225.042	-9.62
225.277	-0.62
225.511	-11.62
225.746	-4.62
225.98	8.38
226.215	8.38
226.449	25.38
226.683	23.38
226.918	24.38
227.152	22.38
227.387	27.38
227.621	47.38
227.856	46.38
228.09	36.38
228.324	60.38
228.559	43.38
228.793	64.38
229.027	105.38
229.262	100.38
229.496	118.38
229.73	147.38
229.964	166.38
230.199	143.38
230.433	112.38
230.667	119.38
230.901	112.38
231.136	128.38
231.37	123.38
231.604	103.38
231.838	117.38
232.072	113.38
232.306	109.38
232.541	126.38
232.775	123.38
233.009	108.38
233.243	113.38
233.477	111.38
233.711	111.38
233.945	114.38
234.179	116.38
234.413	106.38
234.647	113.38
234.881	124.38
235.115	115.38
235.349	101.38
235.583	120.38
235.817	118.38
236.051	137.38
236.285	123.38
236.519	131.38
236.753	138.38
236.987	146.38
237.221	191.38
237.455	238.38
237.689	180.38
237.922	140.38
238.156	122.38
238.39	120.38
238.624	120.38
238.858	119.38
239.091	122.38
239.325	120.38
239.559	132.38
239.793	122.38
240.027	123.38
240.26	128.38
240.494	163.38
240.728	156.38
240.961	146.38
241.195	159.38
241.429	138.38
241.662	130.38
241.896	131.38
242.13	138.38
242.363	124.38
242.597	139.38
242.83	149.38
243.064	142.38
243.298	139.38
243.531	142.38
243.765	147.38
243.998	150.38
244.232	148.38
244.465	142.38
244.699	155.38
244.932	146.38
245.166	127.38
245.399	140.38
245.633	149.38
245.866	146.38
246.099	139.38
246.333	153.38
246.566	158.38
246.8	147.38
247.033	162.38
247.266	160.38
247.5	161.38
247.733	154.38
247.966	178.38
248.2	188.38
248.433	176.38
248.666	174.38
248.899	202.38
249.133	207.38
249.366	214.38
249.599	207.38
249.832	186.38
250.066	186.38
250.299	196.38
250.532	206.38
250.765	197.38
250.998	208.38
251.231	242.38
251.465	222.38
251.698	226.38
251.931	224.38
252.164	196.38
252.397	194.38
252.63	210.38
252.863	209.38
253.096	232.38
253.329	237.38
253.562	237.38
253.795	222.38
254.028	232.38
254.261	232.38
254.494	249.38
254.727	258.38
254.96	283.38
255.193	280.38
255.426	243.38
255.659	259.38
255.892	222.38
256.124	220.38
256.357	225.38
256.59	219.38
256.823	216.38
257.056	228.38
257.289	223.38
257.521	228.38
257.754	225.38
257.987	229.38
258.22	212.38
258.452	216.38
258.685	222.38
258.918	196.38
259.151	200.38
259.383	221.38
259.616	230.38
259.849	237.38
260.081	253.38
260.314	238.38
260.547	260.38
260.779	234.38
261.012	236.38
261.244	237.38
261.477	236.38
261.71	227.38
261.942	222.38
262.175	254.38
262.407	230.38
262.64	215.38
262.872	216.38
263.105	225.38
263.337	215.38
263.57	212.38
263.802	217.38
264.035	226.38
264.267	204.38
264.499	217.38
264.732	211.38
264.964	198.38
265.197	196.38
265.429	222.38
265.661	220.38
265.894	207.38
266.126	226.38
266.358	194.38
266.591	213.38
266.823	220.38
267.055	222.38
267.287	223.38
267.52	214.38
267.752	226.38
267.984	240.38
268.216	223.38
268.448	224.38
268.681	222.38
268.913	247.38
269.145	244.38
269.377	266.38
269.609	269.38
269.841	264.38
270.073	283.38
270.306	275.38
270.538	330.38
270.77	342.38
271.002	302.38
271.234	303.38
271.466	310.38
271.698	322.38
271.93	325.38
272.162	338.38
272.394	321.38
272.626	317.38
272.858	279.38
273.09	305.38
273.322	286.38
273.553	258.38
273.785	264.38
274.017	255.38
274.249	248.38
274.481	279.38
274.713	266.38
274.945	265.38
275.176	275.38
275.408	246.38
275.64	254.38
275.872	261.38
276.104	258.38
276.335	250.38
276.567	276.38
276.799	273.38
277.031	311.38
277.262	310.38
277.494	306.38
277.726	297.38
277.957	289.38
278.189	288.38
278.421	264.38
278.652	266.38
278.884	267.38
279.115	264.38
279.347	257.38
279.579	239.38
279.81	268.38
280.042	262.38
280.273	240.38
280.505	271.38
280.736	261.38
280.968	224.38
281.199	253.38
281.431	256.38
281.662	258.38
281.894	250.38
282.125	256.38
282.356	272.38
282.588	301.38
282.819	312.38
283.051	268.38
283.282	259.38
283.513	256.38
283.745	251.38
283.976	250.38
284.207	260.38
284.439	264.38
284.67	228.38
284.901	276.38
285.132	264.38
285.364	265.38
285.595	256.38
285.826	264.38
286.057	264.38
286.288	247.38
286.52	276.38
286.751	267.38
286.982	247.38
287.213	267.38
287.444	271.38
287.675	260.38
287.906	304.38
288.138	265.38
288.369	284.38
288.6	272.38
288.831	274.38
289.062	277.38
289.293	266.38
289.524	279.38
289.755	259.38
289.986	276.38
290.217	274.38
290.448	269.38
290.679	255.38
290.91	270.38
291.141	264.38
291.371	255.38
291.602	241.38
291.833	260.38
292.064	265.38
292.295	254.38
292.526	267.38
292.757	272.38
292.987	274.38
293.218	251.38
293.449	262.38
293.68	276.38
293.91	271.38
294.141	270.38
294.372	284.38
294.603	275.38
294.833	267.38
295.064	248.38
295.295	270.38
295.525	291.38
295.756	280.38
295.987	288.38
296.217	296.38
296.448	324.38
296.679	289.38
296.909	269.38
297.14	262.38
297.37	275.38
297.601	267.38
297.831	268.38
298.062	288.38
298.292	279.38
298.523	278.38
298.753	277.38
298.984	281.38
299.214	272.38
299.445	284.38
299.675	283.38
299.905	287.38
300.136	267.38
300.366	267.38
300.597	275.38
300.827	296.38
301.057	281.38
301.288	316.38
301.518	294.38
301.748	276.38
301.979	275.38
302.209	300.38
302.439	286.38
302.669	282.38
302.9	317.38
303.13	286.38
303.36	292.38
303.59	327.38
303.82	308.38
304.051	304.38
304.281	294.38
304.511	292.38
304.741	277.38
304.971	271.38
305.201	275.38
305.431	284.38
305.661	296.38
305.891	301.38
306.121	305.38
306.352	294.38
306.582	302.38
306.812	301.38
307.042	303.38
307.272	284.38
307.502	283.38
307.731	282.38
307.961	314.38
308.191	297.38
308.421	314.38
308.651	304.38
308.881	324.38
309.111	314.38
309.341	291.38
309.571	315.38
309.8	329.38
310.03	320.38
310.26	362.38
310.49	357.38
310.72	368.38
310.949	376.38
311.179	385.38
311.409	362.38
311.639	349.38
311.868	350.38
312.098	357.38
312.328	372.38
312.557	388.38
312.787	398.38
313.017	401.38
313.246	368.38
313.476	351.38
313.706	378.38
313.935	359.38
314.165	380.38
314.394	356.38
314.624	368.38
314.853	365.38
315.083	363.38
315.312	354.38
315.542	337.38
315.771	346.38
316.001	326.38
316.23	332.38
316.46	332.38
316.689	353.38
316.919	356.38
317.148	355.38
317.377	369.38
317.607	376.38
317.836	361.38
318.065	353.38
318.295	336.38
318.524	359.38
318.753	345.38
318.983	329.38
319.212	352.38
319.441	371.38
319.67	381.38
319.9	354.38
320.129	342.38
320.358	366.38
320.587	360.38
320.816	375.38
321.046	354.38
321.275	378.38
321.504	371.38
321.733	380.38
321.962	388.38
322.191	394.38
322.42	407.38
322.649	433.38
322.878	436.38
323.108	439.38
323.337	482.38
323.566	511.38
323.795	537.38
324.024	586.38
324.253	721.38
324.482	1057.38
324.71	1578.38
324.939	2220.38
325.168	1958.38
325.397	1041.38
325.626	729.38
325.855	572.38
326.084	512.38
326.313	506.38
326.542	497.38
326.77	558.38
326.999	664.38
327.228	890.38
327.457	1372.38
327.686	1664.38
327.914	1142.38
328.143	778.38
328.372	649.38
328.6	579.38
328.829	555.38
329.058	566.38
329.287	597.38
329.515	550.38
329.744	492.38
329.972	469.38
330.201	470.38
330.43	508.38
330.658	540.38
330.887	631.38
331.115	599.38
331.344	520.38
331.572	466.38
331.801	460.38
332.03	464.38
332.258	435.38
332.486	432.38
332.715	414.38
332.943	397.38
333.172	422.38
333.4	403.38
333.629	398.38
333.857	416.38
334.085	415.38
334.314	404.38
334.542	428.38
334.771	422.38
334.999	429.38
335.227	438.38
335.455	424.38
335.684	395.38
335.912	386.38
336.14	396.38
336.369	390.38
336.597	398.38
336.825	387.38
337.053	394.38
337.281	402.38
337.51	403.38
337.738	386.38
337.966	381.38
338.194	410.38
338.422	386.38
338.65	393.38
338.878	387.38
339.106	388.38
339.334	387.38
339.562	378.38
339.79	382.38
340.018	386.38
340.246	361.38
340.474	382.38
340.702	392.38
340.93	388.38
341.158	374.38
341.386	379.38
341.614	394.38
341.842	386.38
342.07	393.38
342.298	383.38
342.526	377.38
342.754	392.38
342.981	362.38
343.209	364.38
343.437	363.38
343.665	379.38
343.893	384.38
344.12	372.38
344.348	382.38
344.576	384.38
344.804	391.38
345.031	401.38
345.259	418.38
345.487	385.38
345.714	384.38
345.942	370.38
346.17	374.38
346.397	390.38
346.625	383.38
346.853	385.38
347.08	384.38
347.308	382.38
347.535	370.38
347.763	401.38
347.99	402.38
348.218	408.38
348.445	410.38
348.673	415.38
348.9	366.38
349.128	386.38
349.355	353.38
349.583	361.38
349.81	355.38
350.037	358.38
350.265	384.38
350.492	360.38
350.72	363.38
350.947	371.38
351.174	367.38
351.402	377.38
351.629	371.38
351.856	382.38
352.083	390.38
352.311	418.38
352.538	422.38
352.765	393.38
352.992	403.38
353.22	395.38
353.447	400.38
353.674	381.38
353.901	360.38
354.128	359.38
354.355	336.38
354.583	352.38
354.81	349.38
355.037	326.38
355.264	355.38
355.491	331.38
355.718	345.38
355.945	354.38
356.172	347.38
356.399	341.38
356.626	339.38
356.853	362.38
357.08	349.38
357.307	348.38
357.534	343.38
357.761	340.38
357.988	335.38
358.215	365.38
358.441	349.38
358.668	341.38
358.895	354.38
359.122	362.38
359.349	363.38
359.576	378.38
359.802	422.38
360.029	427.38
360.256	451.38
360.483	435.38
360.709	388.38
360.936	360.38
361.163	378.38
361.39	384.38
361.616	382.38
361.843	379.38
362.07	374.38
362.296	377.38
362.523	382.38
362.749	372.38
362.976	366.38
363.203	363.38
363.429	365.38
363.656	350.38
363.882	352.38
364.109	359.38
364.335	348.38
364.562	345.38
364.788	348.38
365.015	340.38
365.241	359.38
365.468	366.38
365.694	366.38
365.92	379.38
366.147	374.38
366.373	356.38
366.599	334.38
366.826	348.38
367.052	336.38
367.278	374.38
367.505	373.38
367.731	355.38
367.957	348.38
368.184	340.38
368.41	364.38
368.636	382.38
368.862	368.38
369.089	367.38
369.315	358.38
369.541	361.38
369.767	350.38
369.993	335.38
370.219	352.38
370.445	343.38
370.672	349.38
370.898	356.38
371.124	344.38
371.35	338.38
371.576	342.38
371.802	353.38
372.028	336.38
372.254	340.38
372.48	331.38
372.706	361.38
372.932	342.38
373.158	351.38
373.384	340.38
373.61	343.38
373.835	346.38
374.061	352.38
374.287	353.38
374.513	360.38
374.739	341.38
374.965	340.38
375.191	343.38
375.416	322.38
375.642	339.38
375.868	351.38
376.094	350.38
376.319	338.38
376.545	335.38
376.771	354.38
376.997	345.38
377.222	349.38
377.448	358.38
377.674	340.38
377.899	335.38
378.125	334.38
378.35	324.38
378.576	338.38
378.802	332.38
379.027	337.38
379.253	338.38
379.478	351.38
379.704	331.38
379.929	330.38
380.155	342.38
380.38	354.38
380.606	362.38
380.831	345.38
381.057	350.38
381.282	335.38
381.507	348.38
381.733	321.38
381.958	332.38
382.184	343.38
382.409	332.38
382.634	344.38
382.86	366.38
383.085	341.38
383.31	344.38
383.535	330.38
383.761	342.38
383.986	348.38
384.211	339.38
384.436	355.38
384.662	339.38
384.887	358.38
385.112	354.38
385.337	356.38
385.562	350.38
385.787	351.38
386.013	371.38
386.238	386.38
386.463	390.38
386.688	367.38
386.913	354.38
387.138	358.38
387.363	368.38
387.588	354.38
387.813	374.38
388.038	350.38
388.263	370.38
388.488	361.38
388.713	369.38
388.938	363.38
389.163	355.38
389.387	374.38
389.612	344.38
389.837	363.38
390.062	354.38
390.287	354.38
390.512	356.38
390.736	356.38
390.961	350.38
391.186	351.38
391.411	344.38
391.636	368.38
391.86	351.38
392.085	359.38
392.31	360.38
392.534	354.38
392.759	346.38
392.984	363.38
393.208	347.38
393.433	361.38
393.658	364.38
393.882	362.38
394.107	364.38
394.331	366.38
394.556	360.38
394.78	358.38
395.005	361.38
395.229	340.38
395.454	355.38
395.678	361.38
395.903	366.38
396.127	379.38
396.352	389.38
396.576	369.38
396.801	375.38
397.025	388.38
397.249	364.38
397.474	384.38
397.698	362.38
397.922	396.38
398.147	416.38
398.371	414.38
398.595	409.38
398.82	388.38
399.044	406.38
399.268	394.38
399.492	423.38
399.717	434.38
399.941	466.38
400.165	484.38
400.389	516.38
400.613	451.38
400.837	426.38
401.062	397.38
401.286	399.38
401.51	404.38
401.734	414.38
401.958	397.38
402.182	410.38
402.406	430.38
402.63	412.38
402.854	389.38
403.078	414.38
403.302	410.38
403.526	432.38
403.75	418.38
403.974	423.38
404.198	415.38
404.422	425.38
404.645	411.38
404.869	439.38
405.093	433.38
405.317	494.38
405.541	487.38
405.765	455.38
405.988	448.38
406.212	434.38
406.436	493.38
406.66	480.38
406.883	473.38
407.107	472.38
407.331	502.38
407.555	561.38
407.778	587.38
408.002	514.38
408.226	465.38
408.449	459.38
408.673	455.38
408.896	490.38
409.12	539.38
409.344	509.38
409.567	450.38
409.791	440.38
410.014	415.38
410.238	424.38
410.461	410.38
410.685	424.38
410.908	430.38
411.132	473.38
411.355	505.38
411.578	474.38
411.802	440.38
412.025	414.38
412.249	413.38
412.472	433.38
412.695	443.38
412.919	425.38
413.142	394.38
413.365	399.38
413.589	394.38
413.812	424.38
414.035	396.38
414.258	386.38
414.482	366.38
414.705	384.38
414.928	392.38
415.151	392.38
415.374	393.38
415.597	380.38
415.821	374.38
416.044	382.38
416.267	401.38
416.49	392.38
416.713	394.38
416.936	400.38
417.159	406.38
417.382	404.38
417.605	394.38
417.828	412.38
418.051	442.38
418.274	418.38
418.497	388.38
418.72	391.38
418.943	390.38
419.166	394.38
419.389	417.38
419.611	420.38
419.834	413.38
420.057	423.38
420.28	415.38
420.503	434.38
420.726	419.38
420.948	455.38
421.171	464.38
421.394	488.38
421.617	449.38
421.839	418.38
422.062	432.38
422.285	448.38
422.507	477.38
422.73	559.38
422.953	532.38
423.175	466.38
423.398	448.38
423.621	433.38
423.843	450.38
424.066	465.38
424.288	456.38
424.511	465.38
424.733	536.38
424.956	609.38
425.178	600.38
425.401	564.38
425.623	603.38
425.846	514.38
426.068	472.38
426.291	480.38
426.513	474.38
426.735	483.38
426.958	506.38
427.18	592.38
427.402	696.38
427.625	806.38
427.847	686.38
428.069	588.38
428.292	524.38
428.514	483.38
428.736	451.38
428.958	434.38
429.181	434.38
429.403	425.38
429.625	458.38
429.847	478.38
430.069	536.38
430.292	516.38
430.514	450.38
430.736	452.38
430.958	430.38
431.18	402.38
431.402	425.38
431.624	414.38
431.846	412.38
432.068	403.38
432.29	408.38
432.512	423.38
432.734	414.38
432.956	414.38
433.178	411.38
433.4	444.38
433.622	407.38
433.844	390.38
434.066	401.38
434.287	386.38
434.509	404.38
434.731	402.38
434.953	428.38
435.175	444.38
435.397	480.38
435.618	483.38
435.84	525.38
436.062	606.38
436.284	642.38
436.505	560.38
436.727	479.38
436.949	451.38
437.17	441.38
437.392	443.38
437.614	451.38
437.835	478.38
438.057	574.38
438.278	658.38
438.5	676.38
438.721	720.38
438.943	674.38
439.165	572.38
439.386	520.38
439.608	499.38
439.829	478.38
440.05	514.38
440.272	570.38
440.493	545.38
440.715	494.38
440.936	476.38
441.158	449.38
441.379	446.38
441.6	440.38
441.822	473.38
442.043	504.38
442.264	584.38
442.486	630.38
442.707	551.38
442.928	497.38
443.149	494.38
443.371	515.38
443.592	563.38
443.813	629.38
444.034	685.38
444.255	575.38
444.476	492.38
444.698	456.38
444.919	478.38
445.14	556.38
445.361	520.38
445.582	510.38
445.803	583.38
446.024	649.38
446.245	674.38
446.466	614.38
446.687	524.38
446.908	492.38
447.129	476.38
447.35	443.38
447.571	443.38
447.792	454.38
448.013	461.38
448.234	468.38
448.455	534.38
448.675	618.38
448.896	705.38
449.117	624.38
449.338	588.38
449.559	648.38
449.779	722.38
450	588.38
450.221	516.38
450.442	463.38
450.662	460.38
450.883	466.38
451.104	475.38
451.324	467.38
451.545	415.38
451.766	420.38
451.986	394.38
452.207	374.38
452.428	394.38
452.648	399.38
452.869	414.38
453.089	416.38
453.31	396.38
453.53	404.38
453.751	395.38
453.971	394.38
454.192	421.38
454.412	420.38
454.633	376.38
454.853	401.38
455.073	382.38
455.294	432.38
455.514	491.38
455.734	469.38
455.955	392.38
456.175	396.38
456.395	369.38
456.616	360.38
456.836	380.38
457.056	368.38
457.276	358.38
457.497	372.38
457.717	366.38
457.937	379.38
458.157	382.38
458.377	372.38
458.598	421.38
458.818	479.38
459.038	545.38
459.258	562.38
459.478	443.38
459.698	415.38
459.918	426.38
460.138	394.38
460.358	396.38
460.578	392.38
460.798	412.38
461.018	402.38
461.238	395.38
461.458	378.38
461.678	378.38
461.898	408.38
462.118	408.38
462.338	414.38
462.558	407.38
462.777	397.38
462.997	406.38
463.217	424.38
463.437	410.38
463.657	401.38
463.876	403.38
464.096	411.38
464.316	403.38
464.536	436.38
464.755	441.38
464.975	426.38
465.195	496.38
465.414	587.38
465.634	500.38
465.854	462.38
466.073	431.38
466.293	419.38
466.512	388.38
466.732	379.38
466.951	394.38
467.171	389.38
467.391	375.38
467.61	423.38
467.829	415.38
468.049	391.38
468.268	377.38
468.488	390.38
468.707	372.38
468.927	362.38
469.146	369.38
469.365	375.38
469.585	382.38
469.804	391.38
470.023	418.38
470.243	388.38
470.462	411.38
470.681	426.38
470.901	420.38
471.12	414.38
471.339	396.38
471.558	418.38
471.777	423.38
471.997	385.38
472.216	385.38
472.435	399.38
472.654	394.38
472.873	380.38
473.092	385.38
473.311	403.38
473.53	394.38
473.749	412.38
473.968	454.38
474.187	544.38
474.406	579.38
474.625	481.38
474.844	410.38
475.063	408.38
475.282	418.38
475.501	412.38
475.72	413.38
475.939	407.38
476.158	408.38
476.377	421.38
476.596	412.38
476.814	415.38
477.033	418.38
477.252	424.38
477.471	422.38
477.69	416.38
477.908	431.38
478.127	426.38
478.346	419.38
478.564	425.38
478.783	459.38
479.002	435.38
479.22	443.38
479.439	476.38
479.658	478.38
479.876	480.38
480.095	507.38
480.313	498.38
480.532	493.38
480.751	485.38
480.969	466.38
481.188	501.38
481.406	526.38
481.624	483.38
481.843	482.38
482.061	465.38
482.28	479.38
482.498	460.38
482.717	462.38
482.935	479.38
483.153	464.38
483.372	475.38
483.59	472.38
483.808	481.38
484.027	487.38
484.245	475.38
484.463	478.38
484.681	504.38
484.9	476.38
485.118	474.38
485.336	493.38
485.554	478.38
485.772	489.38
485.99	475.38
486.209	503.38
486.427	493.38
486.645	505.38
486.863	538.38
487.081	546.38
487.299	503.38
487.517	497.38
487.735	482.38
487.953	522.38
488.171	507.38
488.389	522.38
488.607	514.38
488.825	517.38
489.043	504.38
489.261	509.38
489.479	509.38
489.696	514.38
489.914	517.38
490.132	537.38
490.35	534.38
490.568	565.38
490.786	550.38
491.003	534.38
491.221	559.38
491.439	552.38
491.657	584.38
491.874	592.38
492.092	587.38
492.31	591.38
492.527	570.38
492.745	588.38
492.963	604.38
493.18	580.38
493.398	595.38
493.615	587.38
493.833	594.38
494.05	616.38
494.268	604.38
494.485	595.38
494.703	592.38
494.92	575.38
495.138	586.38
495.355	637.38
495.573	595.38
495.79	605.38
496.008	611.38
496.225	604.38
496.442	624.38
496.66	634.38
496.877	615.38
497.094	612.38
497.312	632.38
497.529	636.38
497.746	653.38
497.963	656.38
498.181	659.38
498.398	660.38
498.615	683.38
498.832	680.38
499.049	662.38
499.267	698.38
499.484	692.38
499.701	697.38
499.918	715.38
500.135	713.38
500.352	713.38
500.569	741.38
500.786	739.38
501.003	760.38
501.22	722.38
501.437	747.38
501.654	738.38
501.871	728.38
502.088	730.38
502.305	703.38
502.522	659.38
502.739	654.38
502.956	640.38
503.172	642.38
503.389	636.38
503.606	633.38
503.823	646.38
504.04	626.38
504.256	623.38
504.473	613.38
504.69	592.38
504.907	616.38
505.123	614.38
505.34	600.38
505.557	620.38
505.773	614.38
505.99	579.38
506.207	603.38
506.423	612.38
506.64	584.38
506.856	581.38
507.073	586.38
507.289	587.38
507.506	595.38
507.722	607.38
507.939	617.38
508.155	600.38
508.372	583.38
508.588	589.38
508.805	570.38
509.021	584.38
509.238	599.38
509.454	587.38
509.67	580.38
509.887	598.38
510.103	589.38
510.319	625.38
510.536	726.38
510.752	1245.38
510.968	1027.38
511.184	620.38
511.401	575.38
511.617	568.38
511.833	551.38
512.049	552.38
512.265	556.38
512.481	548.38
512.698	571.38
512.914	558.38
513.13	560.38
513.346	562.38
513.562	555.38
513.778	547.38
513.994	570.38
514.21	579.38
514.426	612.38
514.642	657.38
514.858	681.38
515.074	716.38
515.29	938.38
515.506	1436.38
515.721	1160.38
515.937	721.38
516.153	630.38
516.369	601.38
516.585	580.38
516.801	579.38
517.016	571.38
517.232	556.38
517.448	557.38
517.664	579.38
517.879	568.38
518.095	553.38
518.311	568.38
518.527	573.38
518.742	541.38
518.958	548.38
519.173	547.38
519.389	571.38
519.605	570.38
519.82	556.38
520.036	558.38
520.251	604.38
520.467	647.38
520.682	608.38
520.898	668.38
521.113	668.38
521.329	735.38
521.544	848.38
521.76	1082.38
521.975	1948.38
522.19	1899.38
522.406	963.38
522.621	700.38
522.836	622.38
523.052	552.38
523.267	551.38
523.482	558.38
523.698	535.38
523.913	519.38
524.128	506.38
524.343	501.38
524.559	488.38
524.774	470.38
524.989	490.38
525.204	483.38
525.419	470.38
525.634	484.38
525.849	490.38
526.064	486.38
526.28	443.38
526.495	470.38
526.71	431.38
526.925	464.38
527.14	453.38
527.355	438.38
527.57	440.38
527.785	435.38
527.999	451.38
528.214	429.38
528.429	449.38
528.644	454.38
528.859	459.38
529.074	450.38
529.289	485.38
529.503	554.38
529.718	560.38
529.933	475.38
530.148	465.38
530.363	443.38
530.577	447.38
530.792	434.38
531.007	440.38
531.221	438.38
531.436	434.38
531.651	425.38
531.865	418.38
532.08	428.38
532.295	399.38
532.509	414.38
532.724	428.38
532.938	402.38
533.153	415.38
533.367	388.38
533.582	420.38
533.796	415.38
534.011	394.38
534.225	411.38
534.44	396.38
534.654	420.38
534.868	424.38
535.083	412.38
535.297	416.38
535.511	418.38
535.726	408.38
535.94	427.38
536.154	415.38
536.369	405.38
536.583	405.38
536.797	422.38
537.011	412.38
537.225	406.38
537.44	415.38
537.654	384.38
537.868	405.38
538.082	385.38
538.296	389.38
538.51	406.38
538.724	396.38
538.938	392.38
539.153	400.38
539.367	415.38
539.581	404.38
539.795	394.38
540.009	416.38
540.222	408.38
540.436	382.38
540.65	398.38
540.864	407.38
541.078	421.38
541.292	422.38
541.506	416.38
541.72	405.38
541.934	419.38
542.147	398.38
542.361	409.38
542.575	382.38
542.789	398.38
543.002	387.38
543.216	395.38
543.43	417.38
543.644	426.38
543.857	402.38
544.071	396.38
544.285	399.38
544.498	384.38
544.712	402.38
544.925	408.38
545.139	386.38
545.352	378.38
545.566	371.38
545.779	373.38
545.993	382.38
546.206	384.38
546.42	374.38
546.633	387.38
546.847	382.38
547.06	372.38
547.274	378.38
547.487	370.38
547.7	380.38
547.914	383.38
548.127	378.38
548.34	392.38
548.554	366.38
548.767	390.38
548.98	367.38
549.193	364.38
549.407	374.38
549.62	377.38
549.833	388.38
550.046	374.38
550.259	381.38
550.473	380.38
550.686	357.38
550.899	366.38
551.112	367.38
551.325	364.38
551.538	390.38
551.751	369.38
551.964	373.38
552.177	348.38
552.39	368.38
552.603	381.38
552.816	366.38
553.029	367.38
553.242	370.38
553.455	362.38
553.667	393.38
553.88	378.38
554.093	383.38
554.306	371.38
554.519	376.38
554.732	386.38
554.944	355.38
555.157	361.38
555.37	351.38
555.583	359.38
555.795	362.38
556.008	332.38
556.221	343.38
556.433	352.38
556.646	342.38
556.859	345.38
557.071	355.38
557.284	323.38
557.496	337.38
557.709	359.38
557.921	329.38
558.134	325.38
558.346	333.38
558.559	336.38
558.771	348.38
558.984	328.38
559.196	317.38
559.409	332.38
559.621	317.38
559.833	335.38
560.046	323.38
560.258	358.38
560.47	342.38
560.683	343.38
560.895	318.38
561.107	351.38
561.32	333.38
561.532	346.38
561.744	332.38
561.956	314.38
562.168	314.38
562.381	322.38
562.593	339.38
562.805	334.38
563.017	339.38
563.229	328.38
563.441	338.38
563.653	326.38
563.865	322.38
564.077	339.38
564.289	328.38
564.501	330.38
564.713	343.38
564.925	335.38
565.137	347.38
565.349	362.38
565.561	353.38
565.773	349.38
565.985	358.38
566.197	356.38
566.408	361.38
566.62	353.38
566.832	366.38
567.044	354.38
567.255	358.38
567.467	367.38
567.679	375.38
567.891	381.38
568.102	381.38
568.314	379.38
568.526	378.38
568.737	361.38
568.949	347.38
569.161	323.38
569.372	338.38
569.584	324.38
569.795	326.38
570.007	344.38
570.218	392.38
570.43	390.38
570.641	330.38
570.853	320.38
571.064	329.38
571.276	313.38
571.487	300.38
571.698	317.38
571.91	322.38
572.121	328.38
572.333	305.38
572.544	317.38
572.755	299.38
572.966	320.38
573.178	314.38
573.389	314.38
573.6	314.38
573.811	291.38
574.023	308.38
574.234	305.38
574.445	290.38
574.656	294.38
574.867	303.38
575.078	282.38
575.289	294.38
575.501	295.38
575.712	299.38
575.923	295.38
576.134	292.38
576.345	300.38
576.556	299.38
576.767	289.38
576.978	283.38
577.188	279.38
577.399	283.38
577.61	292.38
577.821	296.38
578.032	306.38
578.243	334.38
578.454	630.38
578.665	426.38
578.875	298.38
579.086	270.38
579.297	285.38
579.508	280.38
579.718	262.38
579.929	262.38
580.14	278.38
580.35	270.38
580.561	274.38
580.772	269.38
580.982	276.38
581.193	252.38
581.403	264.38
581.614	270.38
581.825	255.38
582.035	265.38
582.246	262.38
582.456	270.38
582.667	283.38
582.877	250.38
583.087	273.38
583.298	267.38
583.508	271.38
583.719	265.38
583.929	273.38
584.139	276.38
584.35	273.38
584.56	273.38
584.77	280.38
584.981	261.38
585.191	270.38
585.401	250.38
585.611	265.38
585.821	264.38
586.032	264.38
586.242	274.38
586.452	256.38
586.662	270.38
586.872	254.38
587.082	270.38
587.292	255.38
587.502	274.38
587.713	263.38
587.923	274.38
588.133	269.38
588.343	246.38
588.553	252.38
588.762	253.38
588.972	258.38
589.182	300.38
589.392	286.38
589.602	248.38
589.812	302.38
590.022	282.38
590.232	251.38
590.441	255.38
590.651	236.38
590.861	248.38
591.071	240.38
591.281	251.38
591.49	245.38
591.7	256.38
591.91	251.38
592.119	243.38
592.329	266.38
592.539	259.38
592.748	273.38
592.958	268.38
593.167	268.38
593.377	253.38
593.587	270.38
593.796	255.38
594.006	257.38
594.215	264.38
594.424	245.38
594.634	274.38
594.843	256.38
595.053	248.38
595.262	231.38
595.472	253.38
595.681	257.38
595.89	253.38
596.1	258.38
596.309	230.38
596.518	231.38
596.727	243.38
596.937	248.38
597.146	235.38
597.355	241.38
597.564	254.38
597.774	241.38
597.983	245.38
598.192	219.38
598.401	224.38
598.61	253.38
598.819	248.38
599.028	225.38
599.237	218.38
599.446	230.38
599.655	226.38
599.864	216.38
600.073	222.38
600.282	229.38
600.491	221.38
600.7	235.38
600.909	230.38
601.118	218.38
601.327	223.38
601.536	223.38
601.745	226.38
601.953	222.38
602.162	211.38
602.371	235.38
602.58	215.38
602.789	227.38
602.997	235.38
603.206	228.38
603.415	205.38
603.623	218.38
603.832	231.38
604.041	215.38
604.249	225.38
604.458	218.38
604.666	227.38
604.875	221.38
605.084	229.38
605.292	220.38
605.501	227.38
605.709	210.38
605.918	214.38
606.126	234.38
606.334	210.38
606.543	218.38
606.751	211.38
606.96	206.38
607.168	206.38
607.376	208.38
607.585	228.38
607.793	218.38
608.001	219.38
608.21	215.38
608.418	204.38
608.626	222.38
608.834	214.38
609.043	211.38
609.251	212.38
609.459	241.38
609.667	235.38
609.875	217.38
610.083	215.38
610.291	214.38
610.499	225.38
610.707	233.38
610.916	232.38
611.124	220.38
611.332	230.38
611.54	226.38
611.748	212.38
611.955	225.38
612.163	213.38
612.371	218.38
612.579	219.38
612.787	221.38
612.995	219.38
613.203	213.38
613.411	202.38
613.618	220.38
613.826	223.38
614.034	202.38
614.242	209.38
614.449	216.38
614.657	213.38
614.865	207.38
615.072	219.38
615.28	205.38
615.488	208.38
615.695	207.38
615.903	217.38
616.111	218.38
616.318	212.38
616.526	198.38
616.733	203.38
616.941	202.38
617.148	205.38
617.356	217.38
617.563	219.38
617.771	209.38
617.978	206.38
618.185	212.38
618.393	210.38
618.6	206.38
618.807	184.38
619.015	218.38
619.222	194.38
619.429	190.38
619.637	202.38
619.844	214.38
620.051	205.38
620.258	194.38
620.466	202.38
620.673	202.38
620.88	195.38
621.087	207.38
621.294	206.38
621.501	192.38
621.708	206.38
621.915	208.38
622.122	191.38
622.329	212.38
622.536	202.38
622.743	197.38
622.95	207.38
623.157	202.38
623.364	190.38
623.571	194.38
623.778	193.38
623.985	178.38
624.192	204.38
624.399	211.38
624.606	203.38
624.812	193.38
625.019	182.38
625.226	190.38
625.433	195.38
625.639	199.38
625.846	206.38
626.053	192.38
626.259	203.38
626.466	176.38
626.673	189.38
626.879	195.38
627.086	182.38
627.293	194.38
627.499	200.38
627.706	187.38
627.912	195.38
628.119	207.38
628.325	178.38
628.532	188.38
628.738	197.38
628.945	199.38
629.151	192.38
629.357	180.38
629.564	159.38
629.77	182.38
629.976	176.38
630.183	171.38
630.389	182.38
630.595	173.38
630.802	178.38
631.008	165.38
631.214	178.38
631.42	177.38
631.627	185.38
631.833	170.38
632.039	172.38
632.245	180.38
632.451	168.38
632.657	176.38
632.863	187.38
633.069	182.38
633.275	171.38
633.481	179.38
633.688	166.38
633.893	169.38
634.099	189.38
634.305	176.38
634.511	169.38
634.717	184.38
634.923	154.38
635.129	170.38
635.335	168.38
635.541	175.38
635.747	166.38
635.952	152.38
636.158	172.38
636.364	169.38
636.57	177.38
636.775	160.38
636.981	169.38
637.187	179.38
637.392	165.38
637.598	166.38
637.804	166.38
638.009	163.38
638.215	161.38
638.421	168.38
638.626	174.38
638.832	174.38
639.037	146.38
639.243	153.38
639.448	167.38
639.654	152.38
639.859	154.38
640.065	172.38
640.27	170.38
640.475	168.38
640.681	155.38
640.886	174.38
641.091	160.38
641.297	156.38
641.502	159.38
641.707	171.38
641.913	162.38
642.118	159.38
642.323	179.38
642.528	167.38
642.733	159.38
642.939	164.38
643.144	164.38
643.349	155.38
643.554	161.38
643.759	147.38
643.964	152.38
644.169	156.38
644.374	143.38
644.579	154.38
644.784	158.38
644.989	166.38
645.194	158.38
645.399	164.38
645.604	158.38
645.809	156.38
646.014	152.38
646.219	139.38
646.423	162.38
646.628	168.38
646.833	153.38
647.038	161.38
647.243	145.38
647.447	156.38
647.652	150.38
647.857	142.38
648.062	134.38
648.266	170.38
648.471	148.38
648.676	157.38
648.88	165.38
649.085	144.38
649.289	154.38
649.494	155.38
649.698	176.38
649.903	172.38
650.107	143.38
650.312	162.38
650.516	161.38
650.721	145.38
650.925	160.38
651.13	146.38
651.334	158.38
651.539	138.38
651.743	137.38
651.947	129.38
652.152	142.38
652.356	144.38
652.56	146.38
652.764	141.38
652.969	155.38
653.173	145.38
653.377	134.38
653.581	124.38
653.785	122.38
653.99	130.38
654.194	144.38
654.398	122.38
654.602	136.38
654.806	130.38
655.01	149.38
655.214	138.38
655.418	124.38
655.622	139.38
655.826	120.38
656.03	103.38
656.234	127.38
656.438	132.38
656.642	122.38
656.846	134.38
657.049	124.38
657.253	134.38
657.457	119.38
657.661	111.38
657.865	98.38
658.068	127.38
658.272	118.38
658.476	104.38
658.68	105.38
658.883	112.38
659.087	101.38
659.291	91.38
659.494	107.38
659.698	102.38
659.901	103.38
660.105	107.38
660.309	111.38
660.512	104.38
660.716	91.38
660.919	100.38
661.123	98.38
661.326	90.38
661.53	104.38
661.733	88.38
661.936	103.38
662.14	98.38
662.343	101.38
662.546	88.38
662.75	104.38
662.953	105.38
663.156	87.38
663.36	104.38
663.563	96.38
663.766	93.38
663.969	81.38
664.173	92.38
664.376	96.38
664.579	89.38
664.782	90.38
664.985	89.38
665.188	89.38
665.391	93.38
665.594	90.38
665.797	91.38
666	89.38
666.203	71.38
666.406	86.38
666.609	92.38
666.812	102.38
667.015	95.38
667.218	90.38
667.421	89.38
667.624	88.38
667.827	80.38
668.03	85.38
668.232	78.38
668.435	82.38
668.638	85.38
668.841	88.38
669.043	83.38
669.246	80.38
669.449	93.38
669.651	84.38
669.854	84.38
670.057	100.38
670.259	87.38
670.462	89.38
670.665	89.38
670.867	95.38
671.07	88.38
671.272	100.38
671.475	84.38
671.677	90.38
671.88	86.38
672.082	93.38
672.284	87.38
672.487	78.38
672.689	88.38
672.892	75.38
