Data from 1986.PennyLincolnUp.Lamp.En5.5.200Scan.071819.P1_HRD10591_17-08-17-974.txt Node
Date: Thu Jul 18 17:08:17 EDT 2019
User: cochatt
Spectrometer: HR+D1059
Trigger mode: 1
Integration Time (sec): 1.000000E-1
Scans to average: 1
Electric dark correction enabled: true
Nonlinearity correction enabled: false
Boxcar width: 0
XAxis mode: Wavelengths
Number of Pixels in Spectrum: 2048
>>>>>Begin Spectral Data<<<<<
223.165	-14.12
223.4	-14.12
223.635	-14.12
223.869	-19.12
224.104	-3.12
224.338	-13.12
224.573	-3.12
224.808	-11.12
225.042	-23.12
225.277	-3.12
225.511	-10.12
225.746	4.88
225.98	-1.12
226.215	8.88
226.449	24.88
226.683	16.88
226.918	11.88
227.152	33.88
227.387	25.88
227.621	42.88
227.856	44.88
228.09	61.88
228.324	49.88
228.559	63.88
228.793	62.88
229.027	74.88
229.262	73.88
229.496	104.88
229.73	92.88
229.964	104.88
230.199	87.88
230.433	93.88
230.667	102.88
230.901	93.88
231.136	87.88
231.37	84.88
231.604	95.88
231.838	102.88
232.072	106.88
232.306	93.88
232.541	94.88
232.775	101.88
233.009	108.88
233.243	101.88
233.477	105.88
233.711	102.88
233.945	105.88
234.179	104.88
234.413	122.88
234.647	101.88
234.881	82.88
235.115	109.88
235.349	97.88
235.583	113.88
235.817	106.88
236.051	108.88
236.285	104.88
236.519	109.88
236.753	104.88
236.987	105.88
237.221	130.88
237.455	153.88
237.689	136.88
237.922	105.88
238.156	121.88
238.39	118.88
238.624	116.88
238.858	96.88
239.091	78.88
239.325	98.88
239.559	105.88
239.793	110.88
240.027	111.88
240.26	125.88
240.494	135.88
240.728	119.88
240.961	121.88
241.195	114.88
241.429	116.88
241.662	103.88
241.896	107.88
242.13	109.88
242.363	112.88
242.597	113.88
242.83	105.88
243.064	111.88
243.298	120.88
243.531	119.88
243.765	113.88
243.998	127.88
244.232	119.88
244.465	128.88
244.699	120.88
244.932	114.88
245.166	122.88
245.399	113.88
245.633	132.88
245.866	118.88
246.099	122.88
246.333	119.88
246.566	124.88
246.8	113.88
247.033	129.88
247.266	139.88
247.5	129.88
247.733	134.88
247.966	130.88
248.2	127.88
248.433	128.88
248.666	157.88
248.899	135.88
249.133	155.88
249.366	163.88
249.599	158.88
249.832	146.88
250.066	150.88
250.299	141.88
250.532	145.88
250.765	140.88
250.998	164.88
251.231	158.88
251.465	163.88
251.698	154.88
251.931	161.88
252.164	154.88
252.397	142.88
252.63	158.88
252.863	154.88
253.096	158.88
253.329	160.88
253.562	154.88
253.795	148.88
254.028	169.88
254.261	176.88
254.494	189.88
254.727	184.88
254.96	179.88
255.193	183.88
255.426	188.88
255.659	164.88
255.892	164.88
256.124	139.88
256.357	163.88
256.59	171.88
256.823	168.88
257.056	164.88
257.289	159.88
257.521	140.88
257.754	156.88
257.987	164.88
258.22	162.88
258.452	152.88
258.685	161.88
258.918	171.88
259.151	169.88
259.383	161.88
259.616	157.88
259.849	164.88
260.081	182.88
260.314	178.88
260.547	165.88
260.779	178.88
261.012	189.88
261.244	179.88
261.477	163.88
261.71	180.88
261.942	155.88
262.175	159.88
262.407	169.88
262.64	166.88
262.872	165.88
263.105	160.88
263.337	166.88
263.57	154.88
263.802	163.88
264.035	164.88
264.267	161.88
264.499	162.88
264.732	170.88
264.964	159.88
265.197	165.88
265.429	176.88
265.661	157.88
265.894	169.88
266.126	169.88
266.358	165.88
266.591	177.88
266.823	174.88
267.055	179.88
267.287	167.88
267.52	165.88
267.752	187.88
267.984	166.88
268.216	173.88
268.448	183.88
268.681	171.88
268.913	189.88
269.145	187.88
269.377	214.88
269.609	192.88
269.841	203.88
270.073	210.88
270.306	192.88
270.538	205.88
270.77	202.88
271.002	201.88
271.234	214.88
271.466	218.88
271.698	190.88
271.93	217.88
272.162	225.88
272.394	215.88
272.626	215.88
272.858	211.88
273.09	201.88
273.322	195.88
273.553	181.88
273.785	192.88
274.017	214.88
274.249	188.88
274.481	200.88
274.713	202.88
274.945	221.88
275.176	212.88
275.408	207.88
275.64	201.88
275.872	199.88
276.104	198.88
276.335	209.88
276.567	200.88
276.799	197.88
277.031	222.88
277.262	224.88
277.494	233.88
277.726	226.88
277.957	212.88
278.189	208.88
278.421	200.88
278.652	220.88
278.884	198.88
279.115	196.88
279.347	196.88
279.579	206.88
279.81	203.88
280.042	217.88
280.273	204.88
280.505	219.88
280.736	210.88
280.968	201.88
281.199	212.88
281.431	199.88
281.662	214.88
281.894	206.88
282.125	202.88
282.356	210.88
282.588	223.88
282.819	212.88
283.051	212.88
283.282	211.88
283.513	217.88
283.745	238.88
283.976	225.88
284.207	215.88
284.439	213.88
284.67	224.88
284.901	220.88
285.132	204.88
285.364	185.88
285.595	220.88
285.826	225.88
286.057	212.88
286.288	204.88
286.52	214.88
286.751	224.88
286.982	235.88
287.213	214.88
287.444	210.88
287.675	219.88
287.906	224.88
288.138	240.88
288.369	224.88
288.6	237.88
288.831	226.88
289.062	227.88
289.293	245.88
289.524	216.88
289.755	224.88
289.986	225.88
290.217	222.88
290.448	236.88
290.679	232.88
290.91	226.88
291.141	213.88
291.371	237.88
291.602	216.88
291.833	224.88
292.064	230.88
292.295	202.88
292.526	228.88
292.757	210.88
292.987	230.88
293.218	239.88
293.449	222.88
293.68	223.88
293.91	220.88
294.141	227.88
294.372	213.88
294.603	226.88
294.833	234.88
295.064	218.88
295.295	238.88
295.525	227.88
295.756	234.88
295.987	241.88
296.217	241.88
296.448	234.88
296.679	246.88
296.909	236.88
297.14	236.88
297.37	234.88
297.601	224.88
297.831	251.88
298.062	208.88
298.292	213.88
298.523	214.88
298.753	241.88
298.984	241.88
299.214	246.88
299.445	237.88
299.675	248.88
299.905	244.88
300.136	260.88
300.366	240.88
300.597	224.88
300.827	245.88
301.057	246.88
301.288	266.88
301.518	248.88
301.748	258.88
301.979	250.88
302.209	256.88
302.439	246.88
302.669	263.88
302.9	267.88
303.13	233.88
303.36	259.88
303.59	246.88
303.82	257.88
304.051	265.88
304.281	252.88
304.511	238.88
304.741	245.88
304.971	259.88
305.201	250.88
305.431	259.88
305.661	242.88
305.891	245.88
306.121	254.88
306.352	272.88
306.582	252.88
306.812	256.88
307.042	275.88
307.272	249.88
307.502	244.88
307.731	266.88
307.961	256.88
308.191	273.88
308.421	248.88
308.651	274.88
308.881	270.88
309.111	266.88
309.341	264.88
309.571	252.88
309.8	263.88
310.03	270.88
310.26	272.88
310.49	275.88
310.72	262.88
310.949	289.88
311.179	292.88
311.409	291.88
311.639	277.88
311.868	287.88
312.098	291.88
312.328	286.88
312.557	291.88
312.787	272.88
313.017	285.88
313.246	272.88
313.476	282.88
313.706	289.88
313.935	289.88
314.165	293.88
314.394	286.88
314.624	298.88
314.853	267.88
315.083	279.88
315.312	288.88
315.542	256.88
315.771	267.88
316.001	276.88
316.23	276.88
316.46	293.88
316.689	292.88
316.919	296.88
317.148	289.88
317.377	276.88
317.607	302.88
317.836	295.88
318.065	291.88
318.295	283.88
318.524	283.88
318.753	273.88
318.983	274.88
319.212	289.88
319.441	278.88
319.67	294.88
319.9	314.88
320.129	288.88
320.358	284.88
320.587	295.88
320.816	296.88
321.046	327.88
321.275	288.88
321.504	283.88
321.733	308.88
321.962	292.88
322.191	305.88
322.42	309.88
322.649	310.88
322.878	322.88
323.108	316.88
323.337	331.88
323.566	335.88
323.795	354.88
324.024	360.88
324.253	433.88
324.482	580.88
324.71	828.88
324.939	1146.88
325.168	959.88
325.397	529.88
325.626	406.88
325.855	356.88
326.084	351.88
326.313	341.88
326.542	361.88
326.77	374.88
326.999	416.88
327.228	533.88
327.457	739.88
327.686	862.88
327.914	628.88
328.143	471.88
328.372	418.88
328.6	399.88
328.829	373.88
329.058	395.88
329.287	397.88
329.515	374.88
329.744	380.88
329.972	380.88
330.201	396.88
330.43	427.88
330.658	417.88
330.887	415.88
331.115	393.88
331.344	355.88
331.572	349.88
331.801	349.88
332.03	349.88
332.258	337.88
332.486	353.88
332.715	326.88
332.943	337.88
333.172	364.88
333.4	371.88
333.629	376.88
333.857	376.88
334.085	384.88
334.314	436.88
334.542	454.88
334.771	490.88
334.999	414.88
335.227	369.88
335.455	344.88
335.684	349.88
335.912	347.88
336.14	338.88
336.369	339.88
336.597	355.88
336.825	333.88
337.053	341.88
337.281	345.88
337.51	338.88
337.738	334.88
337.966	321.88
338.194	360.88
338.422	317.88
338.65	338.88
338.878	322.88
339.106	333.88
339.334	328.88
339.562	321.88
339.79	331.88
340.018	317.88
340.246	309.88
340.474	311.88
340.702	324.88
340.93	308.88
341.158	308.88
341.386	326.88
341.614	305.88
341.842	321.88
342.07	320.88
342.298	325.88
342.526	314.88
342.754	292.88
342.981	297.88
343.209	312.88
343.437	340.88
343.665	329.88
343.893	342.88
344.12	325.88
344.348	325.88
344.576	345.88
344.804	321.88
345.031	345.88
345.259	339.88
345.487	316.88
345.714	321.88
345.942	317.88
346.17	318.88
346.397	317.88
346.625	322.88
346.853	314.88
347.08	320.88
347.308	325.88
347.535	285.88
347.763	298.88
347.99	329.88
348.218	299.88
348.445	316.88
348.673	301.88
348.9	303.88
349.128	327.88
349.355	308.88
349.583	298.88
349.81	310.88
350.037	310.88
350.265	306.88
350.492	284.88
350.72	298.88
350.947	292.88
351.174	311.88
351.402	320.88
351.629	311.88
351.856	300.88
352.083	299.88
352.311	314.88
352.538	323.88
352.765	318.88
352.992	319.88
353.22	319.88
353.447	289.88
353.674	314.88
353.901	308.88
354.128	304.88
354.355	304.88
354.583	315.88
354.81	297.88
355.037	315.88
355.264	298.88
355.491	294.88
355.718	293.88
355.945	282.88
356.172	297.88
356.399	302.88
356.626	276.88
356.853	304.88
357.08	296.88
357.307	288.88
357.534	301.88
357.761	301.88
357.988	284.88
358.215	284.88
358.441	292.88
358.668	289.88
358.895	285.88
359.122	311.88
359.349	295.88
359.576	310.88
359.802	317.88
360.029	312.88
360.256	323.88
360.483	318.88
360.709	305.88
360.936	300.88
361.163	306.88
361.39	294.88
361.616	311.88
361.843	311.88
362.07	298.88
362.296	324.88
362.523	282.88
362.749	329.88
362.976	317.88
363.203	305.88
363.429	282.88
363.656	310.88
363.882	308.88
364.109	292.88
364.335	304.88
364.562	285.88
364.788	288.88
365.015	296.88
365.241	272.88
365.468	300.88
365.694	312.88
365.92	285.88
366.147	292.88
366.373	304.88
366.599	290.88
366.826	309.88
367.052	293.88
367.278	292.88
367.505	297.88
367.731	297.88
367.957	313.88
368.184	306.88
368.41	306.88
368.636	311.88
368.862	292.88
369.089	298.88
369.315	293.88
369.541	295.88
369.767	298.88
369.993	295.88
370.219	321.88
370.445	288.88
370.672	302.88
370.898	289.88
371.124	300.88
371.35	305.88
371.576	316.88
371.802	289.88
372.028	288.88
372.254	307.88
372.48	299.88
372.706	310.88
372.932	288.88
373.158	299.88
373.384	321.88
373.61	307.88
373.835	299.88
374.061	301.88
374.287	321.88
374.513	294.88
374.739	307.88
374.965	316.88
375.191	305.88
375.416	308.88
375.642	282.88
375.868	290.88
376.094	306.88
376.319	308.88
376.545	314.88
376.771	298.88
376.997	289.88
377.222	301.88
377.448	312.88
377.674	312.88
377.899	292.88
378.125	301.88
378.35	302.88
378.576	292.88
378.802	296.88
379.027	301.88
379.253	304.88
379.478	306.88
379.704	297.88
379.929	286.88
380.155	304.88
380.38	305.88
380.606	305.88
380.831	298.88
381.057	322.88
381.282	308.88
381.507	298.88
381.733	304.88
381.958	308.88
382.184	300.88
382.409	307.88
382.634	288.88
382.86	319.88
383.085	305.88
383.31	312.88
383.535	326.88
383.761	325.88
383.986	320.88
384.211	320.88
384.436	317.88
384.662	308.88
384.887	331.88
385.112	330.88
385.337	329.88
385.562	321.88
385.787	330.88
386.013	324.88
386.238	322.88
386.463	340.88
386.688	327.88
386.913	326.88
387.138	349.88
387.363	318.88
387.588	335.88
387.813	342.88
388.038	341.88
388.263	350.88
388.488	339.88
388.713	316.88
388.938	329.88
389.163	332.88
389.387	333.88
389.612	307.88
389.837	320.88
390.062	341.88
390.287	322.88
390.512	341.88
390.736	341.88
390.961	338.88
391.186	337.88
391.411	341.88
391.636	333.88
391.86	327.88
392.085	352.88
392.31	360.88
392.534	333.88
392.759	357.88
392.984	342.88
393.208	329.88
393.433	344.88
393.658	340.88
393.882	340.88
394.107	325.88
394.331	307.88
394.556	328.88
394.78	336.88
395.005	345.88
395.229	338.88
395.454	341.88
395.678	360.88
395.903	363.88
396.127	368.88
396.352	352.88
396.576	328.88
396.801	353.88
397.025	354.88
397.249	370.88
397.474	340.88
397.698	354.88
397.922	379.88
398.147	370.88
398.371	375.88
398.595	376.88
398.82	358.88
399.044	377.88
399.268	404.88
399.492	430.88
399.717	467.88
399.941	454.88
400.165	466.88
400.389	452.88
400.613	408.88
400.837	388.88
401.062	397.88
401.286	402.88
401.51	373.88
401.734	365.88
401.958	381.88
402.182	400.88
402.406	393.88
402.63	382.88
402.854	398.88
403.078	391.88
403.302	385.88
403.526	394.88
403.75	404.88
403.974	396.88
404.198	389.88
404.422	432.88
404.645	407.88
404.869	400.88
405.093	420.88
405.317	427.88
405.541	436.88
405.765	424.88
405.988	407.88
406.212	433.88
406.436	412.88
406.66	439.88
406.883	423.88
407.107	451.88
407.331	455.88
407.555	526.88
407.778	501.88
408.002	457.88
408.226	434.88
408.449	458.88
408.673	426.88
408.896	445.88
409.12	458.88
409.344	436.88
409.567	396.88
409.791	403.88
410.014	438.88
410.238	393.88
410.461	389.88
410.685	395.88
410.908	418.88
411.132	421.88
411.355	451.88
411.578	414.88
411.802	406.88
412.025	392.88
412.249	412.88
412.472	410.88
412.695	424.88
412.919	412.88
413.142	399.88
413.365	386.88
413.589	402.88
413.812	400.88
414.035	404.88
414.258	400.88
414.482	387.88
414.705	385.88
414.928	397.88
415.151	388.88
415.374	409.88
415.597	388.88
415.821	393.88
416.044	394.88
416.267	386.88
416.49	380.88
416.713	375.88
416.936	396.88
417.159	417.88
417.382	398.88
417.605	376.88
417.828	378.88
418.051	405.88
418.274	399.88
418.497	392.88
418.72	398.88
418.943	390.88
419.166	402.88
419.389	421.88
419.611	427.88
419.834	410.88
420.057	434.88
420.28	403.88
420.503	390.88
420.726	384.88
420.948	404.88
421.171	439.88
421.394	448.88
421.617	411.88
421.839	396.88
422.062	404.88
422.285	397.88
422.507	440.88
422.73	481.88
422.953	457.88
423.175	432.88
423.398	406.88
423.621	422.88
423.843	394.88
424.066	427.88
424.288	417.88
424.511	436.88
424.733	475.88
424.956	483.88
425.178	472.88
425.401	504.88
425.623	501.88
425.846	420.88
426.068	424.88
426.291	434.88
426.513	425.88
426.735	417.88
426.958	431.88
427.18	475.88
427.402	537.88
427.625	599.88
427.847	516.88
428.069	463.88
428.292	420.88
428.514	398.88
428.736	401.88
428.958	392.88
429.181	401.88
429.403	382.88
429.625	399.88
429.847	418.88
430.069	442.88
430.292	424.88
430.514	398.88
430.736	394.88
430.958	378.88
431.18	388.88
431.402	378.88
431.624	370.88
431.846	361.88
432.068	350.88
432.29	386.88
432.512	382.88
432.734	371.88
432.956	364.88
433.178	394.88
433.4	379.88
433.622	384.88
433.844	375.88
434.066	372.88
434.287	378.88
434.509	384.88
434.731	380.88
434.953	386.88
435.175	410.88
435.397	408.88
435.618	420.88
435.84	452.88
436.062	470.88
436.284	513.88
436.505	456.88
436.727	408.88
436.949	412.88
437.17	372.88
437.392	387.88
437.614	382.88
437.835	394.88
438.057	467.88
438.278	530.88
438.5	480.88
438.721	536.88
438.943	508.88
439.165	442.88
439.386	432.88
439.608	412.88
439.829	417.88
440.05	412.88
440.272	424.88
440.493	429.88
440.715	389.88
440.936	381.88
441.158	382.88
441.379	380.88
441.6	402.88
441.822	419.88
442.043	436.88
442.264	472.88
442.486	486.88
442.707	423.88
442.928	429.88
443.149	423.88
443.371	441.88
443.592	444.88
443.813	507.88
444.034	528.88
444.255	459.88
444.476	443.88
444.698	429.88
444.919	421.88
445.14	562.88
445.361	510.88
445.582	448.88
445.803	488.88
446.024	512.88
446.245	509.88
446.466	464.88
446.687	415.88
446.908	420.88
447.129	402.88
447.35	379.88
447.571	374.88
447.792	387.88
448.013	388.88
448.234	391.88
448.455	399.88
448.675	465.88
448.896	530.88
449.117	445.88
449.338	456.88
449.559	505.88
449.779	558.88
450	444.88
450.221	399.88
450.442	398.88
450.662	380.88
450.883	360.88
451.104	380.88
451.324	362.88
451.545	371.88
451.766	356.88
451.986	349.88
452.207	354.88
452.428	340.88
452.648	350.88
452.869	351.88
453.089	336.88
453.31	331.88
453.53	342.88
453.751	321.88
453.971	358.88
454.192	346.88
454.412	344.88
454.633	346.88
454.853	336.88
455.073	352.88
455.294	353.88
455.514	386.88
455.734	378.88
455.955	354.88
456.175	324.88
456.395	324.88
456.616	318.88
456.836	331.88
457.056	329.88
457.276	316.88
457.497	322.88
457.717	326.88
457.937	326.88
458.157	346.88
458.377	354.88
458.598	371.88
458.818	372.88
459.038	416.88
459.258	438.88
459.478	381.88
459.698	381.88
459.918	380.88
460.138	379.88
460.358	360.88
460.578	375.88
460.798	394.88
461.018	397.88
461.238	396.88
461.458	372.88
461.678	375.88
461.898	404.88
462.118	378.88
462.338	396.88
462.558	425.88
462.777	414.88
462.997	422.88
463.217	450.88
463.437	435.88
463.657	442.88
463.876	414.88
464.096	447.88
464.316	421.88
464.536	415.88
464.755	425.88
464.975	418.88
465.195	436.88
465.414	439.88
465.634	409.88
465.854	389.88
466.073	384.88
466.293	370.88
466.512	361.88
466.732	360.88
466.951	354.88
467.171	364.88
467.391	366.88
467.61	370.88
467.829	392.88
468.049	390.88
468.268	396.88
468.488	374.88
468.707	355.88
468.927	362.88
469.146	349.88
469.365	357.88
469.585	359.88
469.804	372.88
470.023	354.88
470.243	390.88
470.462	373.88
470.681	379.88
470.901	394.88
471.12	370.88
471.339	377.88
471.558	373.88
471.777	371.88
471.997	387.88
472.216	406.88
472.435	473.88
472.654	458.88
472.873	394.88
473.092	364.88
473.311	370.88
473.53	370.88
473.749	384.88
473.968	399.88
474.187	427.88
474.406	442.88
474.625	403.88
474.844	376.88
475.063	387.88
475.282	363.88
475.501	376.88
475.72	357.88
475.939	351.88
476.158	376.88
476.377	379.88
476.596	391.88
476.814	390.88
477.033	362.88
477.252	376.88
477.471	387.88
477.69	404.88
477.908	398.88
478.127	408.88
478.346	406.88
478.564	414.88
478.783	428.88
479.002	408.88
479.22	422.88
479.439	429.88
479.658	419.88
479.876	440.88
480.095	448.88
480.313	468.88
480.532	454.88
480.751	453.88
480.969	483.88
481.188	612.88
481.406	678.88
481.624	514.88
481.843	468.88
482.061	406.88
482.28	451.88
482.498	427.88
482.717	413.88
482.935	412.88
483.153	410.88
483.372	427.88
483.59	434.88
483.808	427.88
484.027	427.88
484.245	408.88
484.463	415.88
484.681	450.88
484.9	432.88
485.118	452.88
485.336	431.88
485.554	445.88
485.772	444.88
485.99	430.88
486.209	431.88
486.427	427.88
486.645	446.88
486.863	449.88
487.081	463.88
487.299	440.88
487.517	437.88
487.735	434.88
487.953	460.88
488.171	459.88
488.389	456.88
488.607	467.88
488.825	450.88
489.043	445.88
489.261	445.88
489.479	460.88
489.696	463.88
489.914	470.88
490.132	487.88
490.35	467.88
490.568	454.88
490.786	475.88
491.003	472.88
491.221	463.88
491.439	504.88
491.657	499.88
491.874	489.88
492.092	504.88
492.31	481.88
492.527	508.88
492.745	509.88
492.963	508.88
493.18	505.88
493.398	515.88
493.615	503.88
493.833	526.88
494.05	496.88
494.268	524.88
494.485	515.88
494.703	517.88
494.92	498.88
495.138	515.88
495.355	488.88
495.573	519.88
495.79	526.88
496.008	489.88
496.225	497.88
496.442	495.88
496.66	525.88
496.877	509.88
497.094	521.88
497.312	548.88
497.529	529.88
497.746	538.88
497.963	523.88
498.181	557.88
498.398	585.88
498.615	582.88
498.832	602.88
499.049	607.88
499.267	637.88
499.484	658.88
499.701	688.88
499.918	730.88
500.135	731.88
500.352	807.88
500.569	782.88
500.786	812.88
501.003	811.88
501.22	773.88
501.437	732.88
501.654	714.88
501.871	682.88
502.088	641.88
502.305	600.88
502.522	617.88
502.739	563.88
502.956	576.88
503.172	556.88
503.389	527.88
503.606	540.88
503.823	547.88
504.04	535.88
504.256	522.88
504.473	531.88
504.69	511.88
504.907	540.88
505.123	511.88
505.34	519.88
505.557	484.88
505.773	485.88
505.99	498.88
506.207	477.88
506.423	496.88
506.64	462.88
506.856	470.88
507.073	473.88
507.289	476.88
507.506	472.88
507.722	468.88
507.939	486.88
508.155	459.88
508.372	465.88
508.588	465.88
508.805	438.88
509.021	430.88
509.238	461.88
509.454	457.88
509.67	451.88
509.887	432.88
510.103	444.88
510.319	455.88
510.536	499.88
510.752	812.88
510.968	657.88
511.184	454.88
511.401	448.88
511.617	434.88
511.833	448.88
512.049	435.88
512.265	428.88
512.481	459.88
512.698	429.88
512.914	423.88
513.13	430.88
513.346	432.88
513.562	412.88
513.778	448.88
513.994	409.88
514.21	427.88
514.426	480.88
514.642	476.88
514.858	466.88
515.074	522.88
515.29	566.88
515.506	763.88
515.721	661.88
515.937	505.88
516.153	472.88
516.369	474.88
516.585	473.88
516.801	433.88
517.016	436.88
517.232	443.88
517.448	462.88
517.664	440.88
517.879	450.88
518.095	443.88
518.311	486.88
518.527	458.88
518.742	454.88
518.958	437.88
519.173	438.88
519.389	440.88
519.605	446.88
519.82	449.88
520.036	448.88
520.251	446.88
520.467	446.88
520.682	454.88
520.898	457.88
521.113	457.88
521.329	489.88
521.544	517.88
521.76	644.88
521.975	977.88
522.19	964.88
522.406	575.88
522.621	452.88
522.836	424.88
523.052	414.88
523.267	392.88
523.482	399.88
523.698	407.88
523.913	405.88
524.128	402.88
524.343	395.88
524.559	380.88
524.774	387.88
524.989	380.88
525.204	379.88
525.419	377.88
525.634	385.88
525.849	376.88
526.064	395.88
526.28	364.88
526.495	359.88
526.71	383.88
526.925	384.88
527.14	361.88
527.355	345.88
527.57	359.88
527.785	347.88
527.999	365.88
528.214	380.88
528.429	367.88
528.644	380.88
528.859	376.88
529.074	372.88
529.289	393.88
529.503	414.88
529.718	417.88
529.933	397.88
530.148	375.88
530.363	358.88
530.577	351.88
530.792	372.88
531.007	361.88
531.221	360.88
531.436	358.88
531.651	375.88
531.865	372.88
532.08	358.88
532.295	344.88
532.509	342.88
532.724	356.88
532.938	363.88
533.153	353.88
533.367	362.88
533.582	364.88
533.796	348.88
534.011	347.88
534.225	345.88
534.44	370.88
534.654	340.88
534.868	344.88
535.083	339.88
535.297	364.88
535.511	347.88
535.726	347.88
535.94	352.88
536.154	342.88
536.369	328.88
536.583	340.88
536.797	338.88
537.011	336.88
537.225	329.88
537.44	324.88
537.654	337.88
537.868	340.88
538.082	341.88
538.296	341.88
538.51	335.88
538.724	340.88
538.938	330.88
539.153	339.88
539.367	349.88
539.581	353.88
539.795	348.88
540.009	311.88
540.222	350.88
540.436	342.88
540.65	338.88
540.864	359.88
541.078	337.88
541.292	356.88
541.506	343.88
541.72	349.88
541.934	347.88
542.147	357.88
542.361	350.88
542.575	337.88
542.789	335.88
543.002	335.88
543.216	345.88
543.43	338.88
543.644	340.88
543.857	344.88
544.071	345.88
544.285	337.88
544.498	349.88
544.712	356.88
544.925	346.88
545.139	352.88
545.352	342.88
545.566	328.88
545.779	348.88
545.993	356.88
546.206	352.88
546.42	352.88
546.633	341.88
546.847	348.88
547.06	332.88
547.274	331.88
547.487	339.88
547.7	328.88
547.914	324.88
548.127	339.88
548.34	346.88
548.554	338.88
548.767	332.88
548.98	318.88
549.193	336.88
549.407	324.88
549.62	323.88
549.833	339.88
550.046	316.88
550.259	333.88
550.473	333.88
550.686	322.88
550.899	319.88
551.112	304.88
551.325	341.88
551.538	318.88
551.751	312.88
551.964	329.88
552.177	333.88
552.39	321.88
552.603	344.88
552.816	363.88
553.029	345.88
553.242	337.88
553.455	342.88
553.667	334.88
553.88	346.88
554.093	357.88
554.306	322.88
554.519	341.88
554.732	345.88
554.944	328.88
555.157	336.88
555.37	313.88
555.583	325.88
555.795	305.88
556.008	309.88
556.221	316.88
556.433	311.88
556.646	299.88
556.859	303.88
557.071	290.88
557.284	321.88
557.496	312.88
557.709	312.88
557.921	280.88
558.134	300.88
558.346	318.88
558.559	300.88
558.771	297.88
558.984	300.88
559.196	285.88
559.409	298.88
559.621	298.88
559.833	280.88
560.046	304.88
560.258	285.88
560.47	307.88
560.683	275.88
560.895	278.88
561.107	299.88
561.32	283.88
561.532	285.88
561.744	293.88
561.956	285.88
562.168	306.88
562.381	291.88
562.593	307.88
562.805	289.88
563.017	278.88
563.229	291.88
563.441	285.88
563.653	296.88
563.865	300.88
564.077	283.88
564.289	299.88
564.501	296.88
564.713	318.88
564.925	312.88
565.137	309.88
565.349	321.88
565.561	322.88
565.773	338.88
565.985	342.88
566.197	354.88
566.408	355.88
566.62	357.88
566.832	368.88
567.044	374.88
567.255	393.88
567.467	397.88
567.679	414.88
567.891	388.88
568.102	406.88
568.314	376.88
568.526	380.88
568.737	371.88
568.949	338.88
569.161	340.88
569.372	306.88
569.584	317.88
569.795	324.88
570.007	297.88
570.218	316.88
570.43	317.88
570.641	288.88
570.853	287.88
571.064	305.88
571.276	293.88
571.487	297.88
571.698	282.88
571.91	269.88
572.121	290.88
572.333	275.88
572.544	258.88
572.755	271.88
572.966	261.88
573.178	242.88
573.389	268.88
573.6	279.88
573.811	274.88
574.023	261.88
574.234	249.88
574.445	256.88
574.656	259.88
574.867	263.88
575.078	247.88
575.289	239.88
575.501	238.88
575.712	254.88
575.923	272.88
576.134	263.88
576.345	258.88
576.556	244.88
576.767	254.88
576.978	254.88
577.188	251.88
577.399	248.88
577.61	250.88
577.821	233.88
578.032	233.88
578.243	241.88
578.454	360.88
578.665	294.88
578.875	243.88
579.086	240.88
579.297	258.88
579.508	217.88
579.718	222.88
579.929	234.88
580.14	239.88
580.35	229.88
580.561	227.88
580.772	236.88
580.982	228.88
581.193	231.88
581.403	248.88
581.614	241.88
581.825	236.88
582.035	242.88
582.246	252.88
582.456	235.88
582.667	232.88
582.877	230.88
583.087	220.88
583.298	244.88
583.508	243.88
583.719	234.88
583.929	224.88
584.139	242.88
584.35	231.88
584.56	226.88
584.77	234.88
584.981	223.88
585.191	236.88
585.401	223.88
585.611	221.88
585.821	237.88
586.032	235.88
586.242	220.88
586.452	235.88
586.662	221.88
586.872	213.88
587.082	235.88
587.292	216.88
587.502	236.88
587.713	224.88
587.923	234.88
588.133	217.88
588.343	229.88
588.553	234.88
588.762	230.88
588.972	234.88
589.182	290.88
589.392	284.88
589.602	226.88
589.812	277.88
590.022	249.88
590.232	223.88
590.441	208.88
590.651	221.88
590.861	244.88
591.071	235.88
591.281	244.88
591.49	228.88
591.7	224.88
591.91	226.88
592.119	244.88
592.329	220.88
592.539	250.88
592.748	252.88
592.958	231.88
593.167	236.88
593.377	243.88
593.587	229.88
593.796	240.88
594.006	246.88
594.215	235.88
594.424	252.88
594.634	232.88
594.843	230.88
595.053	231.88
595.262	228.88
595.472	219.88
595.681	235.88
595.89	228.88
596.1	222.88
596.309	219.88
596.518	222.88
596.727	223.88
596.937	218.88
597.146	215.88
597.355	217.88
597.564	207.88
597.774	200.88
597.983	219.88
598.192	218.88
598.401	205.88
598.61	215.88
598.819	202.88
599.028	198.88
599.237	198.88
599.446	201.88
599.655	205.88
599.864	199.88
600.073	202.88
600.282	217.88
600.491	216.88
600.7	195.88
600.909	195.88
601.118	197.88
601.327	198.88
601.536	222.88
601.745	198.88
601.953	200.88
602.162	188.88
602.371	193.88
602.58	202.88
602.789	200.88
602.997	194.88
603.206	192.88
603.415	203.88
603.623	182.88
603.832	197.88
604.041	199.88
604.249	186.88
604.458	201.88
604.666	197.88
604.875	180.88
605.084	188.88
605.292	194.88
605.501	184.88
605.709	192.88
605.918	181.88
606.126	189.88
606.334	186.88
606.543	202.88
606.751	193.88
606.96	216.88
607.168	195.88
607.376	180.88
607.585	188.88
607.793	180.88
608.001	187.88
608.21	191.88
608.418	194.88
608.626	193.88
608.834	192.88
609.043	191.88
609.251	184.88
609.459	188.88
609.667	182.88
609.875	193.88
610.083	191.88
610.291	173.88
610.499	203.88
610.707	193.88
610.916	218.88
611.124	210.88
611.332	198.88
611.54	198.88
611.748	203.88
611.955	208.88
612.163	194.88
612.371	177.88
612.579	186.88
612.787	185.88
612.995	189.88
613.203	196.88
613.411	181.88
613.618	185.88
613.826	185.88
614.034	204.88
614.242	174.88
614.449	176.88
614.657	186.88
614.865	186.88
615.072	193.88
615.28	182.88
615.488	186.88
615.695	183.88
615.903	184.88
616.111	180.88
616.318	186.88
616.526	188.88
616.733	186.88
616.941	190.88
617.148	179.88
617.356	182.88
617.563	176.88
617.771	177.88
617.978	184.88
618.185	185.88
618.393	185.88
618.6	178.88
618.807	187.88
619.015	194.88
619.222	185.88
619.429	184.88
619.637	176.88
619.844	186.88
620.051	172.88
620.258	188.88
620.466	178.88
620.673	157.88
620.88	182.88
621.087	152.88
621.294	186.88
621.501	177.88
621.708	182.88
621.915	181.88
622.122	173.88
622.329	181.88
622.536	180.88
622.743	173.88
622.95	154.88
623.157	159.88
623.364	178.88
623.571	179.88
623.778	176.88
623.985	161.88
624.192	178.88
624.399	164.88
624.606	172.88
624.812	161.88
625.019	168.88
625.226	174.88
625.433	168.88
625.639	172.88
625.846	162.88
626.053	156.88
626.259	162.88
626.466	159.88
626.673	179.88
626.879	170.88
627.086	173.88
627.293	166.88
627.499	170.88
627.706	152.88
627.912	161.88
628.119	177.88
628.325	180.88
628.532	166.88
628.738	152.88
628.945	166.88
629.151	161.88
629.357	156.88
629.564	164.88
629.77	160.88
629.976	157.88
630.183	156.88
630.389	167.88
630.595	157.88
630.802	158.88
631.008	160.88
631.214	166.88
631.42	161.88
631.627	162.88
631.833	157.88
632.039	137.88
632.245	157.88
632.451	163.88
632.657	143.88
632.863	158.88
633.069	166.88
633.275	152.88
633.481	145.88
633.688	155.88
633.893	165.88
634.099	138.88
634.305	156.88
634.511	154.88
634.717	155.88
634.923	148.88
635.129	134.88
635.335	138.88
635.541	149.88
635.747	150.88
635.952	151.88
636.158	147.88
636.364	179.88
636.57	180.88
636.775	168.88
636.981	164.88
637.187	145.88
637.392	140.88
637.598	156.88
637.804	162.88
638.009	147.88
638.215	159.88
638.421	139.88
638.626	148.88
638.832	140.88
639.037	151.88
639.243	132.88
639.448	152.88
639.654	141.88
639.859	138.88
640.065	146.88
640.27	141.88
640.475	164.88
640.681	143.88
640.886	141.88
641.091	152.88
641.297	160.88
641.502	144.88
641.707	139.88
641.913	150.88
642.118	143.88
642.323	136.88
642.528	150.88
642.733	146.88
642.939	144.88
643.144	136.88
643.349	132.88
643.554	136.88
643.759	163.88
643.964	154.88
644.169	153.88
644.374	141.88
644.579	148.88
644.784	146.88
644.989	147.88
645.194	149.88
645.399	151.88
645.604	152.88
645.809	144.88
646.014	143.88
646.219	138.88
646.423	135.88
646.628	144.88
646.833	139.88
647.038	146.88
647.243	157.88
647.447	144.88
647.652	146.88
647.857	152.88
648.062	146.88
648.266	138.88
648.471	151.88
648.676	126.88
648.88	154.88
649.085	165.88
649.289	146.88
649.494	145.88
649.698	155.88
649.903	146.88
650.107	131.88
650.312	132.88
650.516	142.88
650.721	136.88
650.925	143.88
651.13	134.88
651.334	137.88
651.539	140.88
651.743	128.88
651.947	118.88
652.152	119.88
652.356	131.88
652.56	125.88
652.764	121.88
652.969	131.88
653.173	129.88
653.377	129.88
653.581	129.88
653.785	128.88
653.99	120.88
654.194	105.88
654.398	131.88
654.602	113.88
654.806	118.88
655.01	132.88
655.214	130.88
655.418	140.88
655.622	132.88
655.826	141.88
656.03	137.88
656.234	134.88
656.438	133.88
656.642	134.88
656.846	136.88
657.049	124.88
657.253	117.88
657.457	118.88
657.661	96.88
657.865	114.88
658.068	116.88
658.272	91.88
658.476	107.88
658.68	116.88
658.883	92.88
659.087	98.88
659.291	96.88
659.494	94.88
659.698	89.88
659.901	101.88
660.105	97.88
660.309	97.88
660.512	84.88
660.716	96.88
660.919	85.88
661.123	82.88
661.326	85.88
661.53	87.88
661.733	87.88
661.936	99.88
662.14	75.88
662.343	82.88
662.546	91.88
662.75	90.88
662.953	93.88
663.156	86.88
663.36	77.88
663.563	93.88
663.766	82.88
663.969	87.88
664.173	85.88
664.376	68.88
664.579	77.88
664.782	82.88
664.985	77.88
665.188	88.88
665.391	89.88
665.594	88.88
665.797	73.88
666	92.88
666.203	80.88
666.406	90.88
666.609	89.88
666.812	84.88
667.015	65.88
667.218	97.88
667.421	89.88
667.624	83.88
667.827	78.88
668.03	76.88
668.232	88.88
668.435	80.88
668.638	74.88
668.841	87.88
669.043	85.88
669.246	76.88
669.449	86.88
669.651	84.88
669.854	95.88
670.057	93.88
670.259	86.88
670.462	82.88
670.665	79.88
670.867	79.88
671.07	93.88
671.272	71.88
671.475	101.88
671.677	101.88
671.88	83.88
672.082	82.88
672.284	92.88
672.487	84.88
672.689	81.88
672.892	80.88
