Data from 1986.PennyLincolnUp.Lamp.En5.5.200Scan.071819.P2_HRD10591_17-12-25-973.txt Node
Date: Thu Jul 18 17:12:25 EDT 2019
User: cochatt
Spectrometer: HR+D1059
Trigger mode: 1
Integration Time (sec): 1.000000E-1
Scans to average: 1
Electric dark correction enabled: true
Nonlinearity correction enabled: false
Boxcar width: 0
XAxis mode: Wavelengths
Number of Pixels in Spectrum: 2048
>>>>>Begin Spectral Data<<<<<
223.165	-15.12
223.4	-15.12
223.635	-15.12
223.869	-20.12
224.104	-13.12
224.338	-15.12
224.573	-15.12
224.808	-5.12
225.042	-19.12
225.277	-10.12
225.511	-4.12
225.746	2.88
225.98	7.88
226.215	9.88
226.449	12.88
226.683	18.88
226.918	29.88
227.152	34.88
227.387	33.88
227.621	34.88
227.856	45.88
228.09	38.88
228.324	69.88
228.559	60.88
228.793	67.88
229.027	91.88
229.262	129.88
229.496	105.88
229.73	144.88
229.964	162.88
230.199	136.88
230.433	107.88
230.667	120.88
230.901	124.88
231.136	110.88
231.37	119.88
231.604	112.88
231.838	113.88
232.072	102.88
232.306	125.88
232.541	122.88
232.775	112.88
233.009	117.88
233.243	96.88
233.477	115.88
233.711	114.88
233.945	123.88
234.179	134.88
234.413	120.88
234.647	117.88
234.881	112.88
235.115	117.88
235.349	119.88
235.583	127.88
235.817	125.88
236.051	120.88
236.285	121.88
236.519	134.88
236.753	125.88
236.987	149.88
237.221	196.88
237.455	252.88
237.689	202.88
237.922	156.88
238.156	133.88
238.39	122.88
238.624	131.88
238.858	130.88
239.091	122.88
239.325	132.88
239.559	128.88
239.793	125.88
240.027	124.88
240.26	134.88
240.494	166.88
240.728	150.88
240.961	151.88
241.195	144.88
241.429	141.88
241.662	136.88
241.896	131.88
242.13	142.88
242.363	134.88
242.597	137.88
242.83	149.88
243.064	151.88
243.298	147.88
243.531	136.88
243.765	154.88
243.998	149.88
244.232	131.88
244.465	149.88
244.699	146.88
244.932	144.88
245.166	156.88
245.399	167.88
245.633	154.88
245.866	136.88
246.099	159.88
246.333	164.88
246.566	160.88
246.8	167.88
247.033	164.88
247.266	169.88
247.5	164.88
247.733	176.88
247.966	177.88
248.2	190.88
248.433	172.88
248.666	202.88
248.899	198.88
249.133	206.88
249.366	225.88
249.599	209.88
249.832	197.88
250.066	198.88
250.299	235.88
250.532	242.88
250.765	264.88
250.998	287.88
251.231	281.88
251.465	261.88
251.698	229.88
251.931	223.88
252.164	209.88
252.397	245.88
252.63	222.88
252.863	246.88
253.096	254.88
253.329	255.88
253.562	259.88
253.795	234.88
254.028	246.88
254.261	261.88
254.494	249.88
254.727	288.88
254.96	321.88
255.193	322.88
255.426	281.88
255.659	297.88
255.892	291.88
256.124	326.88
256.357	357.88
256.59	330.88
256.823	303.88
257.056	277.88
257.289	285.88
257.521	257.88
257.754	256.88
257.987	259.88
258.22	244.88
258.452	247.88
258.685	241.88
258.918	229.88
259.151	240.88
259.383	236.88
259.616	251.88
259.849	240.88
260.081	267.88
260.314	278.88
260.547	288.88
260.779	260.88
261.012	265.88
261.244	251.88
261.477	241.88
261.71	226.88
261.942	232.88
262.175	271.88
262.407	252.88
262.64	247.88
262.872	237.88
263.105	213.88
263.337	217.88
263.57	226.88
263.802	246.88
264.035	225.88
264.267	232.88
264.499	217.88
264.732	203.88
264.964	230.88
265.197	228.88
265.429	205.88
265.661	214.88
265.894	218.88
266.126	210.88
266.358	229.88
266.591	211.88
266.823	236.88
267.055	225.88
267.287	246.88
267.52	224.88
267.752	234.88
267.984	214.88
268.216	232.88
268.448	239.88
268.681	256.88
268.913	264.88
269.145	276.88
269.377	294.88
269.609	274.88
269.841	288.88
270.073	282.88
270.306	275.88
270.538	324.88
270.77	330.88
271.002	321.88
271.234	305.88
271.466	313.88
271.698	309.88
271.93	340.88
272.162	340.88
272.394	338.88
272.626	340.88
272.858	310.88
273.09	307.88
273.322	282.88
273.553	282.88
273.785	273.88
274.017	275.88
274.249	281.88
274.481	268.88
274.713	269.88
274.945	285.88
275.176	271.88
275.408	284.88
275.64	297.88
275.872	287.88
276.104	273.88
276.335	296.88
276.567	304.88
276.799	312.88
277.031	312.88
277.262	359.88
277.494	341.88
277.726	314.88
277.957	321.88
278.189	306.88
278.421	302.88
278.652	314.88
278.884	297.88
279.115	291.88
279.347	276.88
279.579	282.88
279.81	287.88
280.042	288.88
280.273	292.88
280.505	300.88
280.736	284.88
280.968	290.88
281.199	297.88
281.431	296.88
281.662	296.88
281.894	266.88
282.125	308.88
282.356	306.88
282.588	310.88
282.819	344.88
283.051	273.88
283.282	288.88
283.513	293.88
283.745	280.88
283.976	304.88
284.207	269.88
284.439	284.88
284.67	277.88
284.901	277.88
285.132	291.88
285.364	277.88
285.595	276.88
285.826	298.88
286.057	275.88
286.288	270.88
286.52	291.88
286.751	288.88
286.982	289.88
287.213	297.88
287.444	296.88
287.675	298.88
287.906	308.88
288.138	312.88
288.369	306.88
288.6	334.88
288.831	290.88
289.062	288.88
289.293	308.88
289.524	293.88
289.755	287.88
289.986	300.88
290.217	313.88
290.448	281.88
290.679	290.88
290.91	282.88
291.141	284.88
291.371	290.88
291.602	286.88
291.833	290.88
292.064	275.88
292.295	289.88
292.526	309.88
292.757	311.88
292.987	285.88
293.218	270.88
293.449	281.88
293.68	281.88
293.91	294.88
294.141	299.88
294.372	310.88
294.603	296.88
294.833	297.88
295.064	305.88
295.295	281.88
295.525	279.88
295.756	293.88
295.987	304.88
296.217	314.88
296.448	345.88
296.679	313.88
296.909	301.88
297.14	293.88
297.37	298.88
297.601	286.88
297.831	300.88
298.062	300.88
298.292	306.88
298.523	312.88
298.753	291.88
298.984	313.88
299.214	306.88
299.445	281.88
299.675	312.88
299.905	295.88
300.136	321.88
300.366	319.88
300.597	304.88
300.827	304.88
301.057	325.88
301.288	322.88
301.518	331.88
301.748	326.88
301.979	317.88
302.209	315.88
302.439	343.88
302.669	332.88
302.9	321.88
303.13	331.88
303.36	323.88
303.59	338.88
303.82	346.88
304.051	333.88
304.281	336.88
304.511	324.88
304.741	322.88
304.971	288.88
305.201	325.88
305.431	312.88
305.661	321.88
305.891	328.88
306.121	332.88
306.352	339.88
306.582	346.88
306.812	337.88
307.042	346.88
307.272	311.88
307.502	334.88
307.731	344.88
307.961	341.88
308.191	338.88
308.421	348.88
308.651	323.88
308.881	356.88
309.111	343.88
309.341	342.88
309.571	343.88
309.8	379.88
310.03	372.88
310.26	381.88
310.49	389.88
310.72	381.88
310.949	389.88
311.179	397.88
311.409	377.88
311.639	384.88
311.868	378.88
312.098	393.88
312.328	393.88
312.557	393.88
312.787	437.88
313.017	439.88
313.246	408.88
313.476	385.88
313.706	409.88
313.935	383.88
314.165	404.88
314.394	422.88
314.624	409.88
314.853	380.88
315.083	398.88
315.312	400.88
315.542	369.88
315.771	357.88
316.001	373.88
316.23	380.88
316.46	354.88
316.689	380.88
316.919	384.88
317.148	410.88
317.377	397.88
317.607	382.88
317.836	404.88
318.065	367.88
318.295	374.88
318.524	380.88
318.753	396.88
318.983	410.88
319.212	387.88
319.441	410.88
319.67	412.88
319.9	390.88
320.129	380.88
320.358	398.88
320.587	382.88
320.816	384.88
321.046	410.88
321.275	401.88
321.504	396.88
321.733	411.88
321.962	413.88
322.191	437.88
322.42	454.88
322.649	426.88
322.878	467.88
323.108	504.88
323.337	500.88
323.566	551.88
323.795	581.88
324.024	640.88
324.253	779.88
324.482	1081.88
324.71	1692.88
324.939	2417.88
325.168	2130.88
325.397	1108.88
325.626	757.88
325.855	628.88
326.084	568.88
326.313	542.88
326.542	568.88
326.77	602.88
326.999	730.88
327.228	972.88
327.457	1494.88
327.686	1869.88
327.914	1314.88
328.143	894.88
328.372	812.88
328.6	770.88
328.829	682.88
329.058	697.88
329.287	681.88
329.515	659.88
329.744	644.88
329.972	700.88
330.201	788.88
330.43	897.88
330.658	874.88
330.887	768.88
331.115	733.88
331.344	602.88
331.572	564.88
331.801	583.88
332.03	576.88
332.258	529.88
332.486	519.88
332.715	514.88
332.943	506.88
333.172	523.88
333.4	516.88
333.629	547.88
333.857	579.88
334.085	688.88
334.314	772.88
334.542	945.88
334.771	1000.88
334.999	766.88
335.227	632.88
335.455	538.88
335.684	502.88
335.912	496.88
336.14	480.88
336.369	477.88
336.597	494.88
336.825	494.88
337.053	475.88
337.281	469.88
337.51	445.88
337.738	440.88
337.966	460.88
338.194	424.88
338.422	453.88
338.65	430.88
338.878	421.88
339.106	433.88
339.334	437.88
339.562	435.88
339.79	428.88
340.018	422.88
340.246	417.88
340.474	456.88
340.702	436.88
340.93	422.88
341.158	436.88
341.386	438.88
341.614	424.88
341.842	422.88
342.07	393.88
342.298	415.88
342.526	424.88
342.754	414.88
342.981	391.88
343.209	394.88
343.437	414.88
343.665	406.88
343.893	411.88
344.12	437.88
344.348	401.88
344.576	416.88
344.804	426.88
345.031	445.88
345.259	450.88
345.487	432.88
345.714	429.88
345.942	420.88
346.17	413.88
346.397	416.88
346.625	410.88
346.853	404.88
347.08	404.88
347.308	425.88
347.535	418.88
347.763	432.88
347.99	416.88
348.218	414.88
348.445	418.88
348.673	443.88
348.9	404.88
349.128	399.88
349.355	389.88
349.583	408.88
349.81	396.88
350.037	379.88
350.265	397.88
350.492	393.88
350.72	382.88
350.947	394.88
351.174	417.88
351.402	395.88
351.629	418.88
351.856	416.88
352.083	416.88
352.311	440.88
352.538	422.88
352.765	438.88
352.992	418.88
353.22	420.88
353.447	429.88
353.674	414.88
353.901	401.88
354.128	370.88
354.355	385.88
354.583	385.88
354.81	374.88
355.037	363.88
355.264	363.88
355.491	352.88
355.718	368.88
355.945	382.88
356.172	376.88
356.399	372.88
356.626	364.88
356.853	376.88
357.08	378.88
357.307	379.88
357.534	364.88
357.761	386.88
357.988	372.88
358.215	387.88
358.441	391.88
358.668	376.88
358.895	381.88
359.122	389.88
359.349	405.88
359.576	419.88
359.802	428.88
360.029	465.88
360.256	489.88
360.483	458.88
360.709	429.88
360.936	406.88
361.163	407.88
361.39	411.88
361.616	426.88
361.843	374.88
362.07	418.88
362.296	395.88
362.523	393.88
362.749	416.88
362.976	401.88
363.203	390.88
363.429	378.88
363.656	380.88
363.882	386.88
364.109	386.88
364.335	385.88
364.562	363.88
364.788	380.88
365.015	384.88
365.241	394.88
365.468	378.88
365.694	379.88
365.92	398.88
366.147	377.88
366.373	386.88
366.599	395.88
366.826	384.88
367.052	378.88
367.278	380.88
367.505	391.88
367.731	404.88
367.957	385.88
368.184	387.88
368.41	382.88
368.636	399.88
368.862	382.88
369.089	396.88
369.315	364.88
369.541	370.88
369.767	370.88
369.993	396.88
370.219	394.88
370.445	364.88
370.672	364.88
370.898	372.88
371.124	377.88
371.35	370.88
371.576	376.88
371.802	366.88
372.028	364.88
372.254	373.88
372.48	372.88
372.706	371.88
372.932	369.88
373.158	369.88
373.384	373.88
373.61	383.88
373.835	355.88
374.061	354.88
374.287	377.88
374.513	363.88
374.739	370.88
374.965	369.88
375.191	359.88
375.416	380.88
375.642	370.88
375.868	372.88
376.094	370.88
376.319	369.88
376.545	359.88
376.771	368.88
376.997	365.88
377.222	356.88
377.448	370.88
377.674	352.88
377.899	368.88
378.125	374.88
378.35	353.88
378.576	348.88
378.802	346.88
379.027	345.88
379.253	352.88
379.478	372.88
379.704	357.88
379.929	355.88
380.155	358.88
380.38	378.88
380.606	382.88
380.831	346.88
381.057	377.88
381.282	373.88
381.507	377.88
381.733	369.88
381.958	370.88
382.184	376.88
382.409	363.88
382.634	370.88
382.86	359.88
383.085	372.88
383.31	384.88
383.535	392.88
383.761	390.88
383.986	354.88
384.211	356.88
384.436	378.88
384.662	378.88
384.887	380.88
385.112	371.88
385.337	375.88
385.562	384.88
385.787	393.88
386.013	398.88
386.238	392.88
386.463	385.88
386.688	393.88
386.913	382.88
387.138	377.88
387.363	399.88
387.588	381.88
387.813	386.88
388.038	378.88
388.263	371.88
388.488	382.88
388.713	386.88
388.938	389.88
389.163	398.88
389.387	407.88
389.612	363.88
389.837	369.88
390.062	397.88
390.287	367.88
390.512	369.88
390.736	388.88
390.961	384.88
391.186	380.88
391.411	386.88
391.636	377.88
391.86	402.88
392.085	392.88
392.31	385.88
392.534	369.88
392.759	398.88
392.984	382.88
393.208	375.88
393.433	389.88
393.658	369.88
393.882	393.88
394.107	370.88
394.331	388.88
394.556	380.88
394.78	382.88
395.005	375.88
395.229	398.88
395.454	382.88
395.678	374.88
395.903	385.88
396.127	424.88
396.352	423.88
396.576	395.88
396.801	402.88
397.025	398.88
397.249	393.88
397.474	398.88
397.698	406.88
397.922	438.88
398.147	430.88
398.371	423.88
398.595	416.88
398.82	429.88
399.044	429.88
399.268	433.88
399.492	452.88
399.717	445.88
399.941	463.88
400.165	521.88
400.389	509.88
400.613	482.88
400.837	470.88
401.062	451.88
401.286	445.88
401.51	440.88
401.734	413.88
401.958	447.88
402.182	451.88
402.406	436.88
402.63	448.88
402.854	441.88
403.078	452.88
403.302	458.88
403.526	439.88
403.75	451.88
403.974	458.88
404.198	477.88
404.422	474.88
404.645	491.88
404.869	498.88
405.093	562.88
405.317	597.88
405.541	615.88
405.765	563.88
405.988	555.88
406.212	534.88
406.436	538.88
406.66	538.88
406.883	499.88
407.107	516.88
407.331	560.88
407.555	616.88
407.778	584.88
408.002	552.88
408.226	534.88
408.449	498.88
408.673	502.88
408.896	530.88
409.12	560.88
409.344	536.88
409.567	490.88
409.791	480.88
410.014	469.88
410.238	450.88
410.461	458.88
410.685	457.88
410.908	497.88
411.132	518.88
411.355	542.88
411.578	524.88
411.802	488.88
412.025	476.88
412.249	513.88
412.472	568.88
412.695	622.88
412.919	624.88
413.142	552.88
413.365	521.88
413.589	490.88
413.812	471.88
414.035	448.88
414.258	472.88
414.482	467.88
414.705	454.88
414.928	435.88
415.151	432.88
415.374	436.88
415.597	424.88
415.821	434.88
416.044	440.88
416.267	444.88
416.49	441.88
416.713	434.88
416.936	436.88
417.159	436.88
417.382	467.88
417.605	459.88
417.828	490.88
418.051	480.88
418.274	424.88
418.497	447.88
418.72	449.88
418.943	439.88
419.166	436.88
419.389	454.88
419.611	496.88
419.834	474.88
420.057	482.88
420.28	485.88
420.503	540.88
420.726	508.88
420.948	549.88
421.171	548.88
421.394	553.88
421.617	502.88
421.839	485.88
422.062	477.88
422.285	463.88
422.507	519.88
422.73	581.88
422.953	553.88
423.175	518.88
423.398	476.88
423.621	494.88
423.843	499.88
424.066	515.88
424.288	523.88
424.511	523.88
424.733	581.88
424.956	653.88
425.178	634.88
425.401	618.88
425.623	640.88
425.846	540.88
426.068	526.88
426.291	512.88
426.513	498.88
426.735	535.88
426.958	569.88
427.18	645.88
427.402	734.88
427.625	832.88
427.847	776.88
428.069	689.88
428.292	619.88
428.514	554.88
428.736	537.88
428.958	492.88
429.181	491.88
429.403	480.88
429.625	476.88
429.847	531.88
430.069	558.88
430.292	576.88
430.514	516.88
430.736	482.88
430.958	457.88
431.18	472.88
431.402	441.88
431.624	428.88
431.846	439.88
432.068	425.88
432.29	438.88
432.512	435.88
432.734	468.88
432.956	437.88
433.178	475.88
433.4	456.88
433.622	447.88
433.844	433.88
434.066	437.88
434.287	438.88
434.509	427.88
434.731	450.88
434.953	475.88
435.175	448.88
435.397	477.88
435.618	488.88
435.84	548.88
436.062	650.88
436.284	694.88
436.505	615.88
436.727	520.88
436.949	494.88
437.17	463.88
437.392	479.88
437.614	488.88
437.835	538.88
438.057	605.88
438.278	712.88
438.5	696.88
438.721	779.88
438.943	740.88
439.165	605.88
439.386	532.88
439.608	535.88
439.829	548.88
440.05	570.88
440.272	584.88
440.493	556.88
440.715	522.88
440.936	508.88
441.158	477.88
441.379	451.88
441.6	469.88
441.822	499.88
442.043	530.88
442.264	616.88
442.486	664.88
442.707	557.88
442.928	538.88
443.149	526.88
443.371	557.88
443.592	593.88
443.813	675.88
444.034	742.88
444.255	605.88
444.476	530.88
444.698	499.88
444.919	516.88
445.14	590.88
445.361	547.88
445.582	556.88
445.803	583.88
446.024	712.88
446.245	720.88
446.466	669.88
446.687	564.88
446.908	542.88
447.129	492.88
447.35	477.88
447.571	494.88
447.792	456.88
448.013	481.88
448.234	489.88
448.455	561.88
448.675	653.88
448.896	723.88
449.117	640.88
449.338	608.88
449.559	705.88
449.779	792.88
450	632.88
450.221	531.88
450.442	496.88
450.662	498.88
450.883	481.88
451.104	496.88
451.324	494.88
451.545	472.88
451.766	442.88
451.986	438.88
452.207	406.88
452.428	437.88
452.648	445.88
452.869	420.88
453.089	423.88
453.31	442.88
453.53	430.88
453.751	436.88
453.971	424.88
454.192	431.88
454.412	425.88
454.633	429.88
454.853	427.88
455.073	419.88
455.294	445.88
455.514	526.88
455.734	515.88
455.955	457.88
456.175	404.88
456.395	387.88
456.616	386.88
456.836	398.88
457.056	393.88
457.276	380.88
457.497	384.88
457.717	408.88
457.937	411.88
458.157	411.88
458.377	415.88
458.598	440.88
458.818	493.88
459.038	582.88
459.258	586.88
459.478	501.88
459.698	440.88
459.918	429.88
460.138	434.88
460.358	420.88
460.578	404.88
460.798	420.88
461.018	421.88
461.238	415.88
461.458	428.88
461.678	445.88
461.898	420.88
462.118	419.88
462.338	423.88
462.558	425.88
462.777	435.88
462.997	440.88
463.217	460.88
463.437	441.88
463.657	437.88
463.876	439.88
464.096	453.88
464.316	460.88
464.536	453.88
464.755	442.88
464.975	443.88
465.195	522.88
465.414	584.88
465.634	524.88
465.854	499.88
466.073	459.88
466.293	452.88
466.512	438.88
466.732	420.88
466.951	421.88
467.171	427.88
467.391	417.88
467.61	434.88
467.829	470.88
468.049	470.88
468.268	526.88
468.488	481.88
468.707	466.88
468.927	429.88
469.146	430.88
469.365	422.88
469.585	417.88
469.804	441.88
470.023	461.88
470.243	429.88
470.462	457.88
470.681	461.88
470.901	455.88
471.12	439.88
471.339	436.88
471.558	458.88
471.777	464.88
471.997	472.88
472.216	517.88
472.435	718.88
472.654	658.88
472.873	549.88
473.092	519.88
473.311	473.88
473.53	471.88
473.749	472.88
473.968	516.88
474.187	618.88
474.406	633.88
474.625	513.88
474.844	486.88
475.063	486.88
475.282	453.88
475.501	453.88
475.72	461.88
475.939	445.88
476.158	458.88
476.377	453.88
476.596	471.88
476.814	461.88
477.033	457.88
477.252	473.88
477.471	476.88
477.69	454.88
477.908	483.88
478.127	464.88
478.346	503.88
478.564	491.88
478.783	482.88
479.002	493.88
479.22	506.88
479.439	526.88
479.658	523.88
479.876	539.88
480.095	546.88
480.313	558.88
480.532	571.88
480.751	585.88
480.969	644.88
481.188	932.88
481.406	1161.88
481.624	856.88
481.843	700.88
482.061	644.88
482.28	634.88
482.498	611.88
482.717	571.88
482.935	563.88
483.153	569.88
483.372	557.88
483.59	558.88
483.808	555.88
484.027	556.88
484.245	538.88
484.463	556.88
484.681	566.88
484.9	563.88
485.118	560.88
485.336	550.88
485.554	562.88
485.772	586.88
485.99	549.88
486.209	576.88
486.427	572.88
486.645	610.88
486.863	587.88
487.081	600.88
487.299	592.88
487.517	564.88
487.735	593.88
487.953	574.88
488.171	587.88
488.389	570.88
488.607	587.88
488.825	582.88
489.043	580.88
489.261	585.88
489.479	598.88
489.696	581.88
489.914	628.88
490.132	624.88
490.35	637.88
490.568	648.88
490.786	633.88
491.003	665.88
491.221	670.88
491.439	680.88
491.657	696.88
491.874	681.88
492.092	698.88
492.31	704.88
492.527	699.88
492.745	726.88
492.963	752.88
493.18	724.88
493.398	718.88
493.615	728.88
493.833	738.88
494.05	728.88
494.268	712.88
494.485	707.88
494.703	732.88
494.92	732.88
495.138	699.88
495.355	713.88
495.573	714.88
495.79	724.88
496.008	714.88
496.225	712.88
496.442	696.88
496.66	737.88
496.877	697.88
497.094	688.88
497.312	694.88
497.529	718.88
497.746	740.88
497.963	723.88
498.181	733.88
498.398	725.88
498.615	742.88
498.832	728.88
499.049	745.88
499.267	737.88
499.484	743.88
499.701	772.88
499.918	778.88
500.135	789.88
500.352	808.88
500.569	816.88
500.786	850.88
501.003	826.88
501.22	823.88
501.437	840.88
501.654	788.88
501.871	793.88
502.088	787.88
502.305	764.88
502.522	754.88
502.739	742.88
502.956	690.88
503.172	696.88
503.389	683.88
503.606	702.88
503.823	700.88
504.04	697.88
504.256	671.88
504.473	660.88
504.69	646.88
504.907	645.88
505.123	672.88
505.34	664.88
505.557	647.88
505.773	658.88
505.99	662.88
506.207	659.88
506.423	639.88
506.64	632.88
506.856	660.88
507.073	645.88
507.289	625.88
507.506	650.88
507.722	640.88
507.939	674.88
508.155	647.88
508.372	632.88
508.588	618.88
508.805	601.88
509.021	618.88
509.238	669.88
509.454	648.88
509.67	642.88
509.887	629.88
510.103	616.88
510.319	640.88
510.536	730.88
510.752	1210.88
510.968	1051.88
511.184	680.88
511.401	640.88
511.617	639.88
511.833	633.88
512.049	660.88
512.265	638.88
512.481	635.88
512.698	626.88
512.914	618.88
513.13	610.88
513.346	601.88
513.562	622.88
513.778	618.88
513.994	589.88
514.21	642.88
514.426	628.88
514.642	690.88
514.858	731.88
515.074	781.88
515.29	870.88
515.506	1334.88
515.721	1141.88
515.937	753.88
516.153	691.88
516.369	655.88
516.585	634.88
516.801	612.88
517.016	614.88
517.232	588.88
517.448	591.88
517.664	601.88
517.879	597.88
518.095	585.88
518.311	595.88
518.527	587.88
518.742	595.88
518.958	591.88
519.173	596.88
519.389	602.88
519.605	610.88
519.82	609.88
520.036	615.88
520.251	651.88
520.467	672.88
520.682	653.88
520.898	677.88
521.113	708.88
521.329	736.88
521.544	837.88
521.76	1095.88
521.975	1787.88
522.19	1738.88
522.406	960.88
522.621	728.88
522.836	638.88
523.052	594.88
523.267	592.88
523.482	586.88
523.698	553.88
523.913	547.88
524.128	546.88
524.343	512.88
524.559	537.88
524.774	503.88
524.989	505.88
525.204	523.88
525.419	517.88
525.634	518.88
525.849	498.88
526.064	496.88
526.28	489.88
526.495	486.88
526.71	485.88
526.925	491.88
527.14	477.88
527.355	497.88
527.57	494.88
527.785	474.88
527.999	473.88
528.214	477.88
528.429	467.88
528.644	501.88
528.859	490.88
529.074	472.88
529.289	510.88
529.503	581.88
529.718	580.88
529.933	526.88
530.148	491.88
530.363	472.88
530.577	498.88
530.792	472.88
531.007	448.88
531.221	495.88
531.436	473.88
531.651	444.88
531.865	440.88
532.08	453.88
532.295	457.88
532.509	450.88
532.724	460.88
532.938	457.88
533.153	436.88
533.367	429.88
533.582	462.88
533.796	446.88
534.011	440.88
534.225	432.88
534.44	449.88
534.654	467.88
534.868	442.88
535.083	426.88
535.297	427.88
535.511	450.88
535.726	468.88
535.94	443.88
536.154	435.88
536.369	449.88
536.583	428.88
536.797	444.88
537.011	437.88
537.225	436.88
537.44	438.88
537.654	432.88
537.868	410.88
538.082	426.88
538.296	428.88
538.51	443.88
538.724	425.88
538.938	447.88
539.153	425.88
539.367	454.88
539.581	448.88
539.795	446.88
540.009	422.88
540.222	406.88
540.436	422.88
540.65	419.88
540.864	435.88
541.078	444.88
541.292	434.88
541.506	435.88
541.72	427.88
541.934	447.88
542.147	443.88
542.361	427.88
542.575	430.88
542.789	416.88
543.002	424.88
543.216	427.88
543.43	426.88
543.644	436.88
543.857	423.88
544.071	430.88
544.285	424.88
544.498	428.88
544.712	434.88
544.925	421.88
545.139	417.88
545.352	407.88
545.566	418.88
545.779	418.88
545.993	406.88
546.206	405.88
546.42	413.88
546.633	392.88
546.847	399.88
547.06	424.88
547.274	422.88
547.487	412.88
547.7	408.88
547.914	404.88
548.127	418.88
548.34	386.88
548.554	389.88
548.767	417.88
548.98	388.88
549.193	385.88
549.407	426.88
549.62	385.88
549.833	401.88
550.046	392.88
550.259	386.88
550.473	385.88
550.686	405.88
550.899	368.88
551.112	404.88
551.325	391.88
551.538	387.88
551.751	391.88
551.964	397.88
552.177	384.88
552.39	376.88
552.603	403.88
552.816	390.88
553.029	393.88
553.242	406.88
553.455	397.88
553.667	406.88
553.88	404.88
554.093	407.88
554.306	417.88
554.519	399.88
554.732	398.88
554.944	400.88
555.157	402.88
555.37	392.88
555.583	375.88
555.795	393.88
556.008	382.88
556.221	380.88
556.433	384.88
556.646	363.88
556.859	359.88
557.071	364.88
557.284	368.88
557.496	384.88
557.709	368.88
557.921	384.88
558.134	385.88
558.346	365.88
558.559	381.88
558.771	368.88
558.984	378.88
559.196	356.88
559.409	360.88
559.621	373.88
559.833	352.88
560.046	360.88
560.258	392.88
560.47	368.88
560.683	356.88
560.895	357.88
561.107	337.88
561.32	341.88
561.532	360.88
561.744	374.88
561.956	349.88
562.168	358.88
562.381	357.88
562.593	377.88
562.805	361.88
563.017	356.88
563.229	348.88
563.441	351.88
563.653	352.88
563.865	364.88
564.077	371.88
564.289	348.88
564.501	374.88
564.713	356.88
564.925	363.88
565.137	378.88
565.349	359.88
565.561	361.88
565.773	361.88
565.985	374.88
566.197	357.88
566.408	370.88
566.62	370.88
566.832	404.88
567.044	406.88
567.255	381.88
567.467	390.88
567.679	402.88
567.891	408.88
568.102	404.88
568.314	378.88
568.526	379.88
568.737	377.88
568.949	370.88
569.161	370.88
569.372	345.88
569.584	349.88
569.795	369.88
570.007	357.88
570.218	386.88
570.43	404.88
570.641	358.88
570.853	333.88
571.064	337.88
571.276	330.88
571.487	302.88
571.698	322.88
571.91	326.88
572.121	322.88
572.333	321.88
572.544	325.88
572.755	294.88
572.966	340.88
573.178	317.88
573.389	317.88
573.6	318.88
573.811	296.88
574.023	325.88
574.234	297.88
574.445	327.88
574.656	311.88
574.867	295.88
575.078	326.88
575.289	312.88
575.501	284.88
575.712	301.88
575.923	297.88
576.134	299.88
576.345	317.88
576.556	307.88
576.767	315.88
576.978	314.88
577.188	309.88
577.399	323.88
577.61	297.88
577.821	292.88
578.032	304.88
578.243	352.88
578.454	571.88
578.665	415.88
578.875	314.88
579.086	304.88
579.297	277.88
579.508	294.88
579.718	299.88
579.929	274.88
580.14	290.88
580.35	301.88
580.561	300.88
580.772	300.88
580.982	289.88
581.193	289.88
581.403	285.88
581.614	288.88
581.825	290.88
582.035	316.88
582.246	274.88
582.456	282.88
582.667	300.88
582.877	267.88
583.087	272.88
583.298	289.88
583.508	296.88
583.719	276.88
583.929	275.88
584.139	286.88
584.35	268.88
584.56	282.88
584.77	285.88
584.981	290.88
585.191	283.88
585.401	269.88
585.611	266.88
585.821	280.88
586.032	275.88
586.242	282.88
586.452	270.88
586.662	272.88
586.872	296.88
587.082	276.88
587.292	270.88
587.502	280.88
587.713	269.88
587.923	278.88
588.133	276.88
588.343	278.88
588.553	270.88
588.762	290.88
588.972	274.88
589.182	283.88
589.392	276.88
589.602	270.88
589.812	277.88
590.022	270.88
590.232	280.88
590.441	277.88
590.651	263.88
590.861	266.88
591.071	272.88
591.281	289.88
591.49	255.88
591.7	260.88
591.91	270.88
592.119	275.88
592.329	282.88
592.539	272.88
592.748	297.88
592.958	250.88
593.167	262.88
593.377	282.88
593.587	292.88
593.796	279.88
594.006	264.88
594.215	265.88
594.424	255.88
594.634	269.88
594.843	273.88
595.053	275.88
595.262	258.88
595.472	270.88
595.681	256.88
595.89	275.88
596.1	247.88
596.309	261.88
596.518	254.88
596.727	262.88
596.937	251.88
597.146	257.88
597.355	276.88
597.564	244.88
597.774	270.88
597.983	260.88
598.192	247.88
598.401	255.88
598.61	240.88
598.819	276.88
599.028	247.88
599.237	238.88
599.446	249.88
599.655	251.88
599.864	247.88
600.073	248.88
600.282	251.88
600.491	240.88
600.7	236.88
600.909	241.88
601.118	244.88
601.327	245.88
601.536	253.88
601.745	235.88
601.953	261.88
602.162	241.88
602.371	241.88
602.58	232.88
602.789	233.88
602.997	237.88
603.206	241.88
603.415	245.88
603.623	233.88
603.832	237.88
604.041	226.88
604.249	231.88
604.458	240.88
604.666	228.88
604.875	233.88
605.084	240.88
605.292	229.88
605.501	247.88
605.709	234.88
605.918	232.88
606.126	232.88
606.334	249.88
606.543	230.88
606.751	233.88
606.96	226.88
607.168	230.88
607.376	220.88
607.585	245.88
607.793	230.88
608.001	225.88
608.21	238.88
608.418	234.88
608.626	240.88
608.834	240.88
609.043	232.88
609.251	246.88
609.459	223.88
609.667	237.88
609.875	244.88
610.083	241.88
610.291	231.88
610.499	236.88
610.707	235.88
610.916	236.88
611.124	241.88
611.332	223.88
611.54	246.88
611.748	244.88
611.955	232.88
612.163	227.88
612.371	218.88
612.579	224.88
612.787	252.88
612.995	237.88
613.203	222.88
613.411	229.88
613.618	219.88
613.826	232.88
614.034	233.88
614.242	212.88
614.449	226.88
614.657	223.88
614.865	225.88
615.072	218.88
615.28	217.88
615.488	217.88
615.695	211.88
615.903	229.88
616.111	205.88
616.318	231.88
616.526	217.88
616.733	200.88
616.941	198.88
617.148	226.88
617.356	216.88
617.563	240.88
617.771	219.88
617.978	214.88
618.185	208.88
618.393	218.88
618.6	214.88
618.807	217.88
619.015	207.88
619.222	224.88
619.429	210.88
619.637	212.88
619.844	212.88
620.051	216.88
620.258	210.88
620.466	217.88
620.673	204.88
620.88	198.88
621.087	201.88
621.294	211.88
621.501	204.88
621.708	214.88
621.915	213.88
622.122	202.88
622.329	204.88
622.536	212.88
622.743	204.88
622.95	217.88
623.157	196.88
623.364	196.88
623.571	205.88
623.778	200.88
623.985	214.88
624.192	206.88
624.399	210.88
624.606	206.88
624.812	193.88
625.019	209.88
625.226	211.88
625.433	209.88
625.639	203.88
625.846	221.88
626.053	198.88
626.259	198.88
626.466	210.88
626.673	200.88
626.879	198.88
627.086	200.88
627.293	196.88
627.499	194.88
627.706	198.88
627.912	191.88
628.119	180.88
628.325	196.88
628.532	172.88
628.738	186.88
628.945	196.88
629.151	186.88
629.357	194.88
629.564	192.88
629.77	166.88
629.976	210.88
630.183	185.88
630.389	192.88
630.595	186.88
630.802	185.88
631.008	177.88
631.214	190.88
631.42	197.88
631.627	196.88
631.833	192.88
632.039	168.88
632.245	183.88
632.451	188.88
632.657	188.88
632.863	183.88
633.069	185.88
633.275	181.88
633.481	185.88
633.688	179.88
633.893	184.88
634.099	189.88
634.305	192.88
634.511	181.88
634.717	176.88
634.923	177.88
635.129	175.88
635.335	166.88
635.541	168.88
635.747	157.88
635.952	177.88
636.158	171.88
636.364	211.88
636.57	217.88
636.775	203.88
636.981	214.88
637.187	195.88
637.392	195.88
637.598	163.88
637.804	184.88
638.009	190.88
638.215	184.88
638.421	181.88
638.626	181.88
638.832	174.88
639.037	168.88
639.243	170.88
639.448	151.88
639.654	166.88
639.859	167.88
640.065	156.88
640.27	170.88
640.475	191.88
640.681	160.88
640.886	170.88
641.091	161.88
641.297	157.88
641.502	182.88
641.707	169.88
641.913	176.88
642.118	165.88
642.323	155.88
642.528	181.88
642.733	163.88
642.939	149.88
643.144	163.88
643.349	162.88
643.554	151.88
643.759	150.88
643.964	164.88
644.169	158.88
644.374	144.88
644.579	156.88
644.784	161.88
644.989	154.88
645.194	153.88
645.399	155.88
645.604	155.88
645.809	156.88
646.014	161.88
646.219	149.88
646.423	174.88
646.628	155.88
646.833	149.88
647.038	163.88
647.243	163.88
647.447	153.88
647.652	164.88
647.857	162.88
648.062	156.88
648.266	156.88
648.471	158.88
648.676	161.88
648.88	158.88
649.085	167.88
649.289	152.88
649.494	161.88
649.698	184.88
649.903	180.88
650.107	164.88
650.312	161.88
650.516	130.88
650.721	149.88
650.925	129.88
651.13	153.88
651.334	145.88
651.539	143.88
651.743	140.88
651.947	137.88
652.152	150.88
652.356	132.88
652.56	128.88
652.764	135.88
652.969	132.88
653.173	135.88
653.377	130.88
653.581	124.88
653.785	139.88
653.99	132.88
654.194	133.88
654.398	138.88
654.602	129.88
654.806	137.88
655.01	140.88
655.214	132.88
655.418	121.88
655.622	121.88
655.826	118.88
656.03	108.88
656.234	132.88
656.438	123.88
656.642	128.88
656.846	120.88
657.049	125.88
657.253	117.88
657.457	121.88
657.661	121.88
657.865	118.88
658.068	109.88
658.272	105.88
658.476	95.88
658.68	110.88
658.883	104.88
659.087	83.88
659.291	78.88
659.494	97.88
659.698	102.88
659.901	95.88
660.105	95.88
660.309	101.88
660.512	88.88
660.716	103.88
660.919	82.88
661.123	87.88
661.326	94.88
661.53	95.88
661.733	77.88
661.936	85.88
662.14	88.88
662.343	91.88
662.546	90.88
662.75	88.88
662.953	85.88
663.156	86.88
663.36	82.88
663.563	76.88
663.766	78.88
663.969	85.88
664.173	90.88
664.376	89.88
664.579	79.88
664.782	79.88
664.985	74.88
665.188	86.88
665.391	87.88
665.594	86.88
665.797	90.88
666	85.88
666.203	91.88
666.406	77.88
666.609	98.88
666.812	80.88
667.015	84.88
667.218	78.88
667.421	89.88
667.624	85.88
667.827	79.88
668.03	97.88
668.232	88.88
668.435	99.88
668.638	92.88
668.841	89.88
669.043	95.88
669.246	78.88
669.449	80.88
669.651	80.88
669.854	76.88
670.057	72.88
670.259	79.88
670.462	88.88
670.665	74.88
670.867	58.88
671.07	80.88
671.272	82.88
671.475	75.88
671.677	96.88
671.88	78.88
672.082	86.88
672.284	84.88
672.487	74.88
672.689	82.88
672.892	93.88
