Data from 1986.PennyLincolnUp.Lamp.En5.5.200Scan.071819.P2_HRD10591_17-09-49-974.txt Node
Date: Thu Jul 18 17:09:49 EDT 2019
User: cochatt
Spectrometer: HR+D1059
Trigger mode: 1
Integration Time (sec): 1.000000E-1
Scans to average: 1
Electric dark correction enabled: true
Nonlinearity correction enabled: false
Boxcar width: 0
XAxis mode: Wavelengths
Number of Pixels in Spectrum: 2048
>>>>>Begin Spectral Data<<<<<
223.165	-9.62
223.4	-9.62
223.635	-9.62
223.869	-25.62
224.104	-20.62
224.338	-8.62
224.573	-9.62
224.808	-3.62
225.042	-4.62
225.277	-18.62
225.511	2.38
225.746	1.38
225.98	7.38
226.215	14.38
226.449	19.38
226.683	22.38
226.918	14.38
227.152	19.38
227.387	17.38
227.621	27.38
227.856	35.38
228.09	38.38
228.324	50.38
228.559	54.38
228.793	66.38
229.027	106.38
229.262	105.38
229.496	106.38
229.73	125.38
229.964	144.38
230.199	117.38
230.433	101.38
230.667	103.38
230.901	118.38
231.136	106.38
231.37	122.38
231.604	113.38
231.838	111.38
232.072	112.38
232.306	106.38
232.541	112.38
232.775	105.38
233.009	97.38
233.243	109.38
233.477	119.38
233.711	106.38
233.945	100.38
234.179	122.38
234.413	116.38
234.647	118.38
234.881	108.38
235.115	114.38
235.349	105.38
235.583	125.38
235.817	123.38
236.051	125.38
236.285	118.38
236.519	115.38
236.753	120.38
236.987	161.38
237.221	186.38
237.455	225.38
237.689	193.38
237.922	146.38
238.156	131.38
238.39	138.38
238.624	105.38
238.858	127.38
239.091	117.38
239.325	114.38
239.559	128.38
239.793	123.38
240.027	134.38
240.26	126.38
240.494	147.38
240.728	152.38
240.961	157.38
241.195	142.38
241.429	127.38
241.662	123.38
241.896	125.38
242.13	124.38
242.363	130.38
242.597	135.38
242.83	139.38
243.064	143.38
243.298	129.38
243.531	125.38
243.765	139.38
243.998	144.38
244.232	135.38
244.465	126.38
244.699	136.38
244.932	136.38
245.166	146.38
245.399	133.38
245.633	129.38
245.866	139.38
246.099	142.38
246.333	125.38
246.566	137.38
246.8	143.38
247.033	138.38
247.266	162.38
247.5	146.38
247.733	173.38
247.966	167.38
248.2	166.38
248.433	174.38
248.666	164.38
248.899	165.38
249.133	197.38
249.366	193.38
249.599	194.38
249.832	154.38
250.066	173.38
250.299	169.38
250.532	190.38
250.765	189.38
250.998	198.38
251.231	215.38
251.465	216.38
251.698	203.38
251.931	205.38
252.164	202.38
252.397	198.38
252.63	182.38
252.863	203.38
253.096	214.38
253.329	225.38
253.562	224.38
253.795	194.38
254.028	218.38
254.261	224.38
254.494	213.38
254.727	270.38
254.96	289.38
255.193	257.38
255.426	232.38
255.659	234.38
255.892	212.38
256.124	223.38
256.357	214.38
256.59	199.38
256.823	199.38
257.056	202.38
257.289	190.38
257.521	195.38
257.754	177.38
257.987	194.38
258.22	205.38
258.452	197.38
258.685	214.38
258.918	200.38
259.151	208.38
259.383	214.38
259.616	206.38
259.849	213.38
260.081	215.38
260.314	246.38
260.547	233.38
260.779	233.38
261.012	217.38
261.244	229.38
261.477	229.38
261.71	207.38
261.942	209.38
262.175	235.38
262.407	229.38
262.64	222.38
262.872	211.38
263.105	209.38
263.337	202.38
263.57	209.38
263.802	202.38
264.035	214.38
264.267	215.38
264.499	197.38
264.732	198.38
264.964	204.38
265.197	201.38
265.429	191.38
265.661	195.38
265.894	186.38
266.126	198.38
266.358	217.38
266.591	196.38
266.823	204.38
267.055	212.38
267.287	214.38
267.52	209.38
267.752	218.38
267.984	212.38
268.216	213.38
268.448	204.38
268.681	210.38
268.913	236.38
269.145	241.38
269.377	250.38
269.609	257.38
269.841	242.38
270.073	250.38
270.306	251.38
270.538	287.38
270.77	310.38
271.002	282.38
271.234	269.38
271.466	285.38
271.698	293.38
271.93	316.38
272.162	291.38
272.394	314.38
272.626	291.38
272.858	278.38
273.09	261.38
273.322	263.38
273.553	258.38
273.785	257.38
274.017	226.38
274.249	248.38
274.481	245.38
274.713	238.38
274.945	244.38
275.176	255.38
275.408	255.38
275.64	243.38
275.872	238.38
276.104	236.38
276.335	258.38
276.567	243.38
276.799	269.38
277.031	271.38
277.262	287.38
277.494	287.38
277.726	275.38
277.957	262.38
278.189	269.38
278.421	257.38
278.652	247.38
278.884	252.38
279.115	229.38
279.347	243.38
279.579	247.38
279.81	251.38
280.042	233.38
280.273	241.38
280.505	225.38
280.736	257.38
280.968	225.38
281.199	243.38
281.431	241.38
281.662	246.38
281.894	245.38
282.125	253.38
282.356	275.38
282.588	274.38
282.819	275.38
283.051	238.38
283.282	228.38
283.513	243.38
283.745	249.38
283.976	243.38
284.207	248.38
284.439	264.38
284.67	234.38
284.901	237.38
285.132	247.38
285.364	241.38
285.595	255.38
285.826	242.38
286.057	227.38
286.288	251.38
286.52	261.38
286.751	239.38
286.982	248.38
287.213	242.38
287.444	260.38
287.675	253.38
287.906	274.38
288.138	268.38
288.369	257.38
288.6	257.38
288.831	260.38
289.062	262.38
289.293	248.38
289.524	250.38
289.755	257.38
289.986	269.38
290.217	241.38
290.448	261.38
290.679	246.38
290.91	245.38
291.141	248.38
291.371	264.38
291.602	268.38
291.833	236.38
292.064	249.38
292.295	255.38
292.526	250.38
292.757	257.38
292.987	266.38
293.218	227.38
293.449	268.38
293.68	263.38
293.91	245.38
294.141	256.38
294.372	242.38
294.603	236.38
294.833	238.38
295.064	244.38
295.295	263.38
295.525	239.38
295.756	261.38
295.987	264.38
296.217	277.38
296.448	301.38
296.679	255.38
296.909	253.38
297.14	247.38
297.37	267.38
297.601	255.38
297.831	238.38
298.062	268.38
298.292	257.38
298.523	256.38
298.753	264.38
298.984	254.38
299.214	254.38
299.445	265.38
299.675	283.38
299.905	278.38
300.136	273.38
300.366	273.38
300.597	277.38
300.827	266.38
301.057	272.38
301.288	279.38
301.518	277.38
301.748	259.38
301.979	285.38
302.209	270.38
302.439	289.38
302.669	293.38
302.9	294.38
303.13	270.38
303.36	281.38
303.59	270.38
303.82	298.38
304.051	293.38
304.281	273.38
304.511	297.38
304.741	279.38
304.971	278.38
305.201	270.38
305.431	275.38
305.661	281.38
305.891	269.38
306.121	285.38
306.352	263.38
306.582	295.38
306.812	266.38
307.042	273.38
307.272	258.38
307.502	275.38
307.731	292.38
307.961	289.38
308.191	289.38
308.421	287.38
308.651	296.38
308.881	287.38
309.111	288.38
309.341	313.38
309.571	298.38
309.8	313.38
310.03	333.38
310.26	332.38
310.49	325.38
310.72	355.38
310.949	358.38
311.179	343.38
311.409	341.38
311.639	330.38
311.868	322.38
312.098	340.38
312.328	326.38
312.557	347.38
312.787	363.38
313.017	344.38
313.246	335.38
313.476	330.38
313.706	331.38
313.935	325.38
314.165	340.38
314.394	345.38
314.624	356.38
314.853	334.38
315.083	337.38
315.312	331.38
315.542	323.38
315.771	311.38
316.001	334.38
316.23	317.38
316.46	316.38
316.689	320.38
316.919	338.38
317.148	331.38
317.377	339.38
317.607	347.38
317.836	346.38
318.065	319.38
318.295	326.38
318.524	296.38
318.753	326.38
318.983	329.38
319.212	337.38
319.441	330.38
319.67	356.38
319.9	347.38
320.129	335.38
320.358	326.38
320.587	341.38
320.816	338.38
321.046	344.38
321.275	357.38
321.504	357.38
321.733	355.38
321.962	358.38
322.191	372.38
322.42	377.38
322.649	385.38
322.878	391.38
323.108	398.38
323.337	428.38
323.566	456.38
323.795	483.38
324.024	537.38
324.253	645.38
324.482	925.38
324.71	1423.38
324.939	2070.38
325.168	1807.38
325.397	945.38
325.626	623.38
325.855	518.38
326.084	467.38
326.313	445.38
326.542	466.38
326.77	500.38
326.999	586.38
327.228	808.38
327.457	1197.38
327.686	1523.38
327.914	1038.38
328.143	689.38
328.372	585.38
328.6	541.38
328.829	522.38
329.058	534.38
329.287	536.38
329.515	505.38
329.744	457.38
329.972	437.38
330.201	430.38
330.43	448.38
330.658	486.38
330.887	548.38
331.115	545.38
331.344	463.38
331.572	424.38
331.801	421.38
332.03	425.38
332.258	401.38
332.486	378.38
332.715	378.38
332.943	378.38
333.172	382.38
333.4	390.38
333.629	380.38
333.857	374.38
334.085	374.38
334.314	375.38
334.542	374.38
334.771	393.38
334.999	372.38
335.227	370.38
335.455	380.38
335.684	377.38
335.912	353.38
336.14	389.38
336.369	381.38
336.597	381.38
336.825	370.38
337.053	355.38
337.281	378.38
337.51	369.38
337.738	373.38
337.966	369.38
338.194	373.38
338.422	372.38
338.65	359.38
338.878	369.38
339.106	361.38
339.334	373.38
339.562	347.38
339.79	351.38
340.018	346.38
340.246	359.38
340.474	379.38
340.702	367.38
340.93	355.38
341.158	349.38
341.386	354.38
341.614	364.38
341.842	330.38
342.07	343.38
342.298	364.38
342.526	335.38
342.754	338.38
342.981	342.38
343.209	347.38
343.437	359.38
343.665	322.38
343.893	376.38
344.12	332.38
344.348	356.38
344.576	390.38
344.804	378.38
345.031	362.38
345.259	374.38
345.487	364.38
345.714	382.38
345.942	367.38
346.17	378.38
346.397	335.38
346.625	349.38
346.853	350.38
347.08	339.38
347.308	354.38
347.535	385.38
347.763	349.38
347.99	351.38
348.218	373.38
348.445	373.38
348.673	359.38
348.9	358.38
349.128	341.38
349.355	330.38
349.583	345.38
349.81	335.38
350.037	355.38
350.265	330.38
350.492	323.38
350.72	345.38
350.947	329.38
351.174	372.38
351.402	380.38
351.629	348.38
351.856	373.38
352.083	375.38
352.311	386.38
352.538	383.38
352.765	385.38
352.992	354.38
353.22	354.38
353.447	364.38
353.674	350.38
353.901	351.38
354.128	332.38
354.355	327.38
354.583	332.38
354.81	334.38
355.037	323.38
355.264	318.38
355.491	297.38
355.718	305.38
355.945	318.38
356.172	317.38
356.399	314.38
356.626	325.38
356.853	337.38
357.08	334.38
357.307	331.38
357.534	315.38
357.761	327.38
357.988	324.38
358.215	319.38
358.441	309.38
358.668	306.38
358.895	335.38
359.122	343.38
359.349	329.38
359.576	330.38
359.802	366.38
360.029	408.38
360.256	405.38
360.483	399.38
360.709	366.38
360.936	348.38
361.163	364.38
361.39	370.38
361.616	371.38
361.843	350.38
362.07	322.38
362.296	360.38
362.523	343.38
362.749	358.38
362.976	351.38
363.203	335.38
363.429	333.38
363.656	334.38
363.882	334.38
364.109	333.38
364.335	329.38
364.562	342.38
364.788	340.38
365.015	349.38
365.241	335.38
365.468	330.38
365.694	359.38
365.92	350.38
366.147	350.38
366.373	336.38
366.599	324.38
366.826	311.38
367.052	315.38
367.278	315.38
367.505	317.38
367.731	330.38
367.957	334.38
368.184	343.38
368.41	345.38
368.636	343.38
368.862	339.38
369.089	322.38
369.315	325.38
369.541	333.38
369.767	339.38
369.993	343.38
370.219	327.38
370.445	348.38
370.672	327.38
370.898	316.38
371.124	331.38
371.35	330.38
371.576	329.38
371.802	307.38
372.028	317.38
372.254	325.38
372.48	323.38
372.706	333.38
372.932	314.38
373.158	331.38
373.384	324.38
373.61	324.38
373.835	309.38
374.061	346.38
374.287	334.38
374.513	350.38
374.739	337.38
374.965	321.38
375.191	325.38
375.416	331.38
375.642	320.38
375.868	337.38
376.094	340.38
376.319	315.38
376.545	325.38
376.771	330.38
376.997	312.38
377.222	330.38
377.448	325.38
377.674	305.38
377.899	318.38
378.125	311.38
378.35	313.38
378.576	315.38
378.802	297.38
379.027	325.38
379.253	326.38
379.478	318.38
379.704	325.38
379.929	326.38
380.155	330.38
380.38	317.38
380.606	323.38
380.831	321.38
381.057	322.38
381.282	324.38
381.507	333.38
381.733	336.38
381.958	327.38
382.184	332.38
382.409	319.38
382.634	329.38
382.86	313.38
383.085	334.38
383.31	339.38
383.535	329.38
383.761	333.38
383.986	321.38
384.211	333.38
384.436	339.38
384.662	324.38
384.887	342.38
385.112	344.38
385.337	331.38
385.562	326.38
385.787	335.38
386.013	346.38
386.238	362.38
386.463	335.38
386.688	333.38
386.913	348.38
387.138	345.38
387.363	339.38
387.588	334.38
387.813	360.38
388.038	329.38
388.263	334.38
388.488	333.38
388.713	341.38
388.938	349.38
389.163	344.38
389.387	323.38
389.612	351.38
389.837	329.38
390.062	332.38
390.287	309.38
390.512	335.38
390.736	346.38
390.961	329.38
391.186	343.38
391.411	342.38
391.636	362.38
391.86	347.38
392.085	344.38
392.31	351.38
392.534	334.38
392.759	347.38
392.984	341.38
393.208	354.38
393.433	349.38
393.658	359.38
393.882	338.38
394.107	358.38
394.331	348.38
394.556	346.38
394.78	354.38
395.005	341.38
395.229	348.38
395.454	338.38
395.678	358.38
395.903	346.38
396.127	366.38
396.352	368.38
396.576	353.38
396.801	369.38
397.025	337.38
397.249	361.38
397.474	361.38
397.698	367.38
397.922	379.38
398.147	379.38
398.371	375.38
398.595	395.38
398.82	380.38
399.044	375.38
399.268	379.38
399.492	389.38
399.717	411.38
399.941	445.38
400.165	464.38
400.389	468.38
400.613	410.38
400.837	408.38
401.062	400.38
401.286	398.38
401.51	373.38
401.734	370.38
401.958	381.38
402.182	399.38
402.406	422.38
402.63	411.38
402.854	415.38
403.078	404.38
403.302	390.38
403.526	387.38
403.75	415.38
403.974	409.38
404.198	412.38
404.422	424.38
404.645	401.38
404.869	383.38
405.093	408.38
405.317	423.38
405.541	452.38
405.765	415.38
405.988	415.38
406.212	419.38
406.436	445.38
406.66	449.38
406.883	456.38
407.107	478.38
407.331	499.38
407.555	547.38
407.778	528.38
408.002	499.38
408.226	445.38
408.449	444.38
408.673	423.38
408.896	468.38
409.12	490.38
409.344	478.38
409.567	442.38
409.791	420.38
410.014	393.38
410.238	406.38
410.461	401.38
410.685	406.38
410.908	425.38
411.132	450.38
411.355	487.38
411.578	455.38
411.802	420.38
412.025	389.38
412.249	390.38
412.472	379.38
412.695	389.38
412.919	387.38
413.142	388.38
413.365	378.38
413.589	385.38
413.812	371.38
414.035	389.38
414.258	390.38
414.482	379.38
414.705	381.38
414.928	372.38
415.151	380.38
415.374	378.38
415.597	367.38
415.821	372.38
416.044	381.38
416.267	379.38
416.49	382.38
416.713	349.38
416.936	366.38
417.159	359.38
417.382	391.38
417.605	380.38
417.828	387.38
418.051	408.38
418.274	389.38
418.497	357.38
418.72	378.38
418.943	387.38
419.166	394.38
419.389	398.38
419.611	392.38
419.834	384.38
420.057	416.38
420.28	400.38
420.503	380.38
420.726	407.38
420.948	409.38
421.171	446.38
421.394	478.38
421.617	445.38
421.839	394.38
422.062	395.38
422.285	421.38
422.507	472.38
422.73	526.38
422.953	494.38
423.175	449.38
423.398	416.38
423.621	435.38
423.843	438.38
424.066	446.38
424.288	431.38
424.511	455.38
424.733	493.38
424.956	565.38
425.178	558.38
425.401	553.38
425.623	584.38
425.846	481.38
426.068	464.38
426.291	446.38
426.513	447.38
426.735	462.38
426.958	485.38
427.18	563.38
427.402	678.38
427.625	746.38
427.847	668.38
428.069	556.38
428.292	491.38
428.514	461.38
428.736	433.38
428.958	425.38
429.181	405.38
429.403	413.38
429.625	420.38
429.847	471.38
430.069	523.38
430.292	500.38
430.514	448.38
430.736	420.38
430.958	406.38
431.18	383.38
431.402	392.38
431.624	378.38
431.846	378.38
432.068	378.38
432.29	407.38
432.512	366.38
432.734	398.38
432.956	392.38
433.178	387.38
433.4	374.38
433.622	383.38
433.844	393.38
434.066	371.38
434.287	382.38
434.509	374.38
434.731	390.38
434.953	405.38
435.175	399.38
435.397	438.38
435.618	460.38
435.84	501.38
436.062	595.38
436.284	654.38
436.505	519.38
436.727	465.38
436.949	441.38
437.17	421.38
437.392	422.38
437.614	425.38
437.835	482.38
438.057	553.38
438.278	635.38
438.5	653.38
438.721	709.38
438.943	652.38
439.165	506.38
439.386	480.38
439.608	484.38
439.829	490.38
440.05	490.38
440.272	558.38
440.493	489.38
440.715	439.38
440.936	443.38
441.158	434.38
441.379	442.38
441.6	418.38
441.822	455.38
442.043	487.38
442.264	551.38
442.486	605.38
442.707	540.38
442.928	453.38
443.149	458.38
443.371	487.38
443.592	541.38
443.813	619.38
444.034	666.38
444.255	537.38
444.476	458.38
444.698	455.38
444.919	445.38
445.14	575.38
445.361	499.38
445.582	513.38
445.803	557.38
446.024	640.38
446.245	643.38
446.466	603.38
446.687	511.38
446.908	477.38
447.129	432.38
447.35	411.38
447.571	399.38
447.792	429.38
448.013	430.38
448.234	448.38
448.455	493.38
448.675	586.38
448.896	692.38
449.117	577.38
449.338	547.38
449.559	635.38
449.779	728.38
450	587.38
450.221	490.38
450.442	453.38
450.662	430.38
450.883	426.38
451.104	439.38
451.324	422.38
451.545	412.38
451.766	402.38
451.986	388.38
452.207	373.38
452.428	376.38
452.648	369.38
452.869	385.38
453.089	405.38
453.31	403.38
453.53	395.38
453.751	399.38
453.971	385.38
454.192	402.38
454.412	389.38
454.633	379.38
454.853	389.38
455.073	377.38
455.294	391.38
455.514	468.38
455.734	470.38
455.955	395.38
456.175	369.38
456.395	350.38
456.616	353.38
456.836	354.38
457.056	337.38
457.276	329.38
457.497	336.38
457.717	360.38
457.937	363.38
458.157	357.38
458.377	362.38
458.598	376.38
458.818	451.38
459.038	521.38
459.258	546.38
459.478	429.38
459.698	395.38
459.918	409.38
460.138	381.38
460.358	383.38
460.578	357.38
460.798	380.38
461.018	379.38
461.238	371.38
461.458	367.38
461.678	375.38
461.898	376.38
462.118	372.38
462.338	376.38
462.558	394.38
462.777	391.38
462.997	407.38
463.217	397.38
463.437	390.38
463.657	379.38
463.876	397.38
464.096	402.38
464.316	384.38
464.536	442.38
464.755	402.38
464.975	419.38
465.195	462.38
465.414	533.38
465.634	461.38
465.854	411.38
466.073	410.38
466.293	371.38
466.512	373.38
466.732	382.38
466.951	373.38
467.171	374.38
467.391	388.38
467.61	371.38
467.829	385.38
468.049	364.38
468.268	373.38
468.488	366.38
468.707	355.38
468.927	369.38
469.146	345.38
469.365	354.38
469.585	355.38
469.804	379.38
470.023	365.38
470.243	377.38
470.462	389.38
470.681	421.38
470.901	402.38
471.12	372.38
471.339	370.38
471.558	356.38
471.777	375.38
471.997	373.38
472.216	363.38
472.435	369.38
472.654	369.38
472.873	376.38
473.092	371.38
473.311	360.38
473.53	385.38
473.749	393.38
473.968	408.38
474.187	523.38
474.406	537.38
474.625	453.38
474.844	389.38
475.063	411.38
475.282	399.38
475.501	392.38
475.72	411.38
475.939	387.38
476.158	387.38
476.377	400.38
476.596	403.38
476.814	395.38
477.033	419.38
477.252	421.38
477.471	412.38
477.69	418.38
477.908	413.38
478.127	421.38
478.346	405.38
478.564	418.38
478.783	417.38
479.002	454.38
479.22	430.38
479.439	433.38
479.658	465.38
479.876	448.38
480.095	475.38
480.313	488.38
480.532	456.38
480.751	445.38
480.969	483.38
481.188	457.38
481.406	490.38
481.624	484.38
481.843	451.38
482.061	464.38
482.28	455.38
482.498	445.38
482.717	430.38
482.935	445.38
483.153	439.38
483.372	461.38
483.59	445.38
483.808	452.38
484.027	447.38
484.245	449.38
484.463	437.38
484.681	442.38
484.9	457.38
485.118	471.38
485.336	465.38
485.554	467.38
485.772	466.38
485.99	451.38
486.209	451.38
486.427	460.38
486.645	472.38
486.863	503.38
487.081	498.38
487.299	482.38
487.517	481.38
487.735	478.38
487.953	498.38
488.171	482.38
488.389	514.38
488.607	484.38
488.825	482.38
489.043	483.38
489.261	500.38
489.479	497.38
489.696	491.38
489.914	500.38
490.132	503.38
490.35	513.38
490.568	520.38
490.786	501.38
491.003	533.38
491.221	538.38
491.439	527.38
491.657	541.38
491.874	541.38
492.092	539.38
492.31	539.38
492.527	544.38
492.745	581.38
492.963	582.38
493.18	565.38
493.398	563.38
493.615	564.38
493.833	570.38
494.05	566.38
494.268	559.38
494.485	571.38
494.703	561.38
494.92	575.38
495.138	585.38
495.355	598.38
495.573	573.38
495.79	584.38
496.008	591.38
496.225	591.38
496.442	580.38
496.66	595.38
496.877	577.38
497.094	581.38
497.312	575.38
497.529	619.38
497.746	574.38
497.963	600.38
498.181	624.38
498.398	637.38
498.615	609.38
498.832	641.38
499.049	645.38
499.267	626.38
499.484	663.38
499.701	672.38
499.918	659.38
500.135	708.38
500.352	709.38
500.569	687.38
500.786	718.38
501.003	743.38
501.22	693.38
501.437	703.38
501.654	710.38
501.871	699.38
502.088	685.38
502.305	648.38
502.522	625.38
502.739	625.38
502.956	614.38
503.172	605.38
503.389	611.38
503.606	614.38
503.823	611.38
504.04	569.38
504.256	573.38
504.473	578.38
504.69	573.38
504.907	569.38
505.123	577.38
505.34	565.38
505.557	561.38
505.773	566.38
505.99	604.38
506.207	554.38
506.423	563.38
506.64	546.38
506.856	575.38
507.073	543.38
507.289	554.38
507.506	554.38
507.722	573.38
507.939	585.38
508.155	574.38
508.372	561.38
508.588	533.38
508.805	549.38
509.021	551.38
509.238	566.38
509.454	554.38
509.67	584.38
509.887	560.38
510.103	551.38
510.319	574.38
510.536	649.38
510.752	1146.38
510.968	926.38
511.184	589.38
511.401	547.38
511.617	559.38
511.833	530.38
512.049	526.38
512.265	529.38
512.481	520.38
512.698	504.38
512.914	509.38
513.13	518.38
513.346	508.38
513.562	530.38
513.778	511.38
513.994	531.38
514.21	510.38
514.426	579.38
514.642	606.38
514.858	631.38
515.074	665.38
515.29	845.38
515.506	1285.38
515.721	1014.38
515.937	681.38
516.153	579.38
516.369	573.38
516.585	549.38
516.801	517.38
517.016	521.38
517.232	520.38
517.448	520.38
517.664	530.38
517.879	550.38
518.095	520.38
518.311	517.38
518.527	519.38
518.742	522.38
518.958	520.38
519.173	519.38
519.389	517.38
519.605	534.38
519.82	515.38
520.036	506.38
520.251	547.38
520.467	581.38
520.682	577.38
520.898	600.38
521.113	614.38
521.329	659.38
521.544	740.38
521.76	1018.38
521.975	1665.38
522.19	1671.38
522.406	886.38
522.621	651.38
522.836	559.38
523.052	533.38
523.267	504.38
523.482	472.38
523.698	479.38
523.913	487.38
524.128	462.38
524.343	480.38
524.559	463.38
524.774	473.38
524.989	466.38
525.204	433.38
525.419	454.38
525.634	460.38
525.849	462.38
526.064	435.38
526.28	445.38
526.495	447.38
526.71	436.38
526.925	429.38
527.14	426.38
527.355	420.38
527.57	410.38
527.785	427.38
527.999	411.38
528.214	450.38
528.429	407.38
528.644	422.38
528.859	429.38
529.074	452.38
529.289	447.38
529.503	523.38
529.718	499.38
529.933	445.38
530.148	429.38
530.363	459.38
530.577	410.38
530.792	408.38
531.007	411.38
531.221	422.38
531.436	407.38
531.651	411.38
531.865	408.38
532.08	391.38
532.295	413.38
532.509	399.38
532.724	402.38
532.938	389.38
533.153	394.38
533.367	386.38
533.582	362.38
533.796	391.38
534.011	391.38
534.225	381.38
534.44	384.38
534.654	371.38
534.868	394.38
535.083	399.38
535.297	391.38
535.511	391.38
535.726	412.38
535.94	398.38
536.154	408.38
536.369	374.38
536.583	391.38
536.797	385.38
537.011	393.38
537.225	385.38
537.44	383.38
537.654	381.38
537.868	380.38
538.082	366.38
538.296	383.38
538.51	404.38
538.724	379.38
538.938	391.38
539.153	380.38
539.367	403.38
539.581	395.38
539.795	386.38
540.009	366.38
540.222	389.38
540.436	377.38
540.65	389.38
540.864	398.38
541.078	401.38
541.292	397.38
541.506	396.38
541.72	367.38
541.934	387.38
542.147	379.38
542.361	369.38
542.575	387.38
542.789	394.38
543.002	382.38
543.216	389.38
543.43	393.38
543.644	391.38
543.857	389.38
544.071	377.38
544.285	369.38
544.498	367.38
544.712	366.38
544.925	380.38
545.139	379.38
545.352	364.38
545.566	354.38
545.779	362.38
545.993	371.38
546.206	363.38
546.42	336.38
546.633	369.38
546.847	358.38
547.06	347.38
547.274	345.38
547.487	352.38
547.7	363.38
547.914	331.38
548.127	355.38
548.34	350.38
548.554	379.38
548.767	359.38
548.98	355.38
549.193	365.38
549.407	373.38
549.62	349.38
549.833	359.38
550.046	351.38
550.259	356.38
550.473	349.38
550.686	345.38
550.899	354.38
551.112	352.38
551.325	344.38
551.538	350.38
551.751	343.38
551.964	339.38
552.177	361.38
552.39	352.38
552.603	363.38
552.816	349.38
553.029	355.38
553.242	346.38
553.455	336.38
553.667	373.38
553.88	382.38
554.093	365.38
554.306	356.38
554.519	348.38
554.732	350.38
554.944	359.38
555.157	354.38
555.37	338.38
555.583	345.38
555.795	346.38
556.008	336.38
556.221	331.38
556.433	335.38
556.646	311.38
556.859	322.38
557.071	331.38
557.284	329.38
557.496	314.38
557.709	340.38
557.921	338.38
558.134	330.38
558.346	321.38
558.559	326.38
558.771	319.38
558.984	313.38
559.196	321.38
559.409	315.38
559.621	330.38
559.833	313.38
560.046	321.38
560.258	317.38
560.47	310.38
560.683	309.38
560.895	332.38
561.107	318.38
561.32	309.38
561.532	306.38
561.744	313.38
561.956	294.38
562.168	313.38
562.381	322.38
562.593	303.38
562.805	327.38
563.017	329.38
563.229	326.38
563.441	316.38
563.653	314.38
563.865	327.38
564.077	315.38
564.289	339.38
564.501	319.38
564.713	329.38
564.925	328.38
565.137	332.38
565.349	342.38
565.561	326.38
565.773	333.38
565.985	335.38
566.197	342.38
566.408	339.38
566.62	369.38
566.832	367.38
567.044	348.38
567.255	345.38
567.467	352.38
567.679	356.38
567.891	381.38
568.102	355.38
568.314	362.38
568.526	353.38
568.737	353.38
568.949	330.38
569.161	336.38
569.372	320.38
569.584	308.38
569.795	316.38
570.007	313.38
570.218	380.38
570.43	355.38
570.641	311.38
570.853	315.38
571.064	298.38
571.276	305.38
571.487	298.38
571.698	298.38
571.91	311.38
572.121	315.38
572.333	296.38
572.544	294.38
572.755	300.38
572.966	305.38
573.178	291.38
573.389	291.38
573.6	284.38
573.811	280.38
574.023	271.38
574.234	279.38
574.445	272.38
574.656	276.38
574.867	285.38
575.078	293.38
575.289	274.38
575.501	276.38
575.712	272.38
575.923	293.38
576.134	286.38
576.345	277.38
576.556	278.38
576.767	263.38
576.978	293.38
577.188	280.38
577.399	269.38
577.61	290.38
577.821	298.38
578.032	285.38
578.243	308.38
578.454	556.38
578.665	407.38
578.875	307.38
579.086	267.38
579.297	277.38
579.508	279.38
579.718	263.38
579.929	283.38
580.14	247.38
580.35	266.38
580.561	257.38
580.772	266.38
580.982	261.38
581.193	268.38
581.403	262.38
581.614	272.38
581.825	259.38
582.035	249.38
582.246	247.38
582.456	271.38
582.667	269.38
582.877	253.38
583.087	245.38
583.298	229.38
583.508	265.38
583.719	269.38
583.929	249.38
584.139	254.38
584.35	261.38
584.56	236.38
584.77	230.38
584.981	267.38
585.191	225.38
585.401	255.38
585.611	245.38
585.821	259.38
586.032	250.38
586.242	255.38
586.452	240.38
586.662	245.38
586.872	246.38
587.082	246.38
587.292	238.38
587.502	264.38
587.713	254.38
587.923	249.38
588.133	251.38
588.343	247.38
588.553	241.38
588.762	248.38
588.972	272.38
589.182	318.38
589.392	307.38
589.602	268.38
589.812	307.38
590.022	290.38
590.232	259.38
590.441	241.38
590.651	247.38
590.861	255.38
591.071	246.38
591.281	241.38
591.49	237.38
591.7	247.38
591.91	247.38
592.119	237.38
592.329	236.38
592.539	249.38
592.748	244.38
592.958	230.38
593.167	226.38
593.377	251.38
593.587	246.38
593.796	252.38
594.006	243.38
594.215	232.38
594.424	258.38
594.634	261.38
594.843	250.38
595.053	247.38
595.262	261.38
595.472	262.38
595.681	248.38
595.89	243.38
596.1	247.38
596.309	239.38
596.518	233.38
596.727	240.38
596.937	228.38
597.146	219.38
597.355	235.38
597.564	232.38
597.774	224.38
597.983	227.38
598.192	217.38
598.401	221.38
598.61	215.38
598.819	219.38
599.028	198.38
599.237	225.38
599.446	223.38
599.655	225.38
599.864	208.38
600.073	225.38
600.282	213.38
600.491	207.38
600.7	207.38
600.909	215.38
601.118	197.38
601.327	199.38
601.536	221.38
601.745	218.38
601.953	219.38
602.162	236.38
602.371	213.38
602.58	195.38
602.789	207.38
602.997	206.38
603.206	207.38
603.415	223.38
603.623	215.38
603.832	198.38
604.041	211.38
604.249	211.38
604.458	218.38
604.666	204.38
604.875	211.38
605.084	208.38
605.292	202.38
605.501	207.38
605.709	222.38
605.918	215.38
606.126	198.38
606.334	203.38
606.543	204.38
606.751	206.38
606.96	221.38
607.168	202.38
607.376	216.38
607.585	196.38
607.793	207.38
608.001	195.38
608.21	197.38
608.418	211.38
608.626	193.38
608.834	213.38
609.043	201.38
609.251	199.38
609.459	212.38
609.667	217.38
609.875	204.38
610.083	212.38
610.291	210.38
610.499	187.38
610.707	218.38
610.916	215.38
611.124	217.38
611.332	205.38
611.54	215.38
611.748	232.38
611.955	195.38
612.163	199.38
612.371	196.38
612.579	204.38
612.787	206.38
612.995	214.38
613.203	217.38
613.411	205.38
613.618	199.38
613.826	191.38
614.034	203.38
614.242	198.38
614.449	211.38
614.657	204.38
614.865	199.38
615.072	204.38
615.28	203.38
615.488	197.38
615.695	189.38
615.903	189.38
616.111	201.38
616.318	185.38
616.526	212.38
616.733	197.38
616.941	189.38
617.148	209.38
617.356	206.38
617.563	211.38
617.771	220.38
617.978	222.38
618.185	187.38
618.393	193.38
618.6	201.38
618.807	190.38
619.015	192.38
619.222	187.38
619.429	183.38
619.637	187.38
619.844	177.38
620.051	210.38
620.258	199.38
620.466	193.38
620.673	202.38
620.88	206.38
621.087	189.38
621.294	186.38
621.501	189.38
621.708	172.38
621.915	193.38
622.122	190.38
622.329	190.38
622.536	189.38
622.743	196.38
622.95	188.38
623.157	197.38
623.364	187.38
623.571	195.38
623.778	198.38
623.985	193.38
624.192	195.38
624.399	184.38
624.606	184.38
624.812	195.38
625.019	199.38
625.226	177.38
625.433	177.38
625.639	186.38
625.846	172.38
626.053	174.38
626.259	193.38
626.466	167.38
626.673	166.38
626.879	166.38
627.086	194.38
627.293	189.38
627.499	181.38
627.706	179.38
627.912	177.38
628.119	175.38
628.325	179.38
628.532	179.38
628.738	171.38
628.945	165.38
629.151	164.38
629.357	175.38
629.564	162.38
629.77	180.38
629.976	177.38
630.183	158.38
630.389	175.38
630.595	171.38
630.802	169.38
631.008	181.38
631.214	163.38
631.42	180.38
631.627	177.38
631.833	167.38
632.039	165.38
632.245	161.38
632.451	163.38
632.657	166.38
632.863	163.38
633.069	166.38
633.275	181.38
633.481	181.38
633.688	166.38
633.893	171.38
634.099	164.38
634.305	178.38
634.511	166.38
634.717	153.38
634.923	134.38
635.129	147.38
635.335	166.38
635.541	163.38
635.747	167.38
635.952	164.38
636.158	156.38
636.364	160.38
636.57	137.38
636.775	163.38
636.981	153.38
637.187	147.38
637.392	163.38
637.598	165.38
637.804	176.38
638.009	161.38
638.215	160.38
638.421	154.38
638.626	157.38
638.832	155.38
639.037	162.38
639.243	155.38
639.448	148.38
639.654	167.38
639.859	162.38
640.065	143.38
640.27	167.38
640.475	162.38
640.681	170.38
640.886	154.38
641.091	163.38
641.297	162.38
641.502	146.38
641.707	154.38
641.913	156.38
642.118	156.38
642.323	165.38
642.528	169.38
642.733	151.38
642.939	137.38
643.144	149.38
643.349	135.38
643.554	155.38
643.759	153.38
643.964	149.38
644.169	142.38
644.374	142.38
644.579	168.38
644.784	146.38
644.989	158.38
645.194	153.38
645.399	155.38
645.604	162.38
645.809	147.38
646.014	147.38
646.219	158.38
646.423	147.38
646.628	148.38
646.833	150.38
647.038	147.38
647.243	164.38
647.447	159.38
647.652	149.38
647.857	146.38
648.062	158.38
648.266	143.38
648.471	150.38
648.676	150.38
648.88	141.38
649.085	139.38
649.289	161.38
649.494	159.38
649.698	168.38
649.903	169.38
650.107	149.38
650.312	141.38
650.516	144.38
650.721	148.38
650.925	149.38
651.13	130.38
651.334	133.38
651.539	127.38
651.743	134.38
651.947	137.38
652.152	141.38
652.356	132.38
652.56	125.38
652.764	134.38
652.969	125.38
653.173	119.38
653.377	122.38
653.581	128.38
653.785	142.38
653.99	122.38
654.194	129.38
654.398	135.38
654.602	129.38
654.806	132.38
655.01	130.38
655.214	125.38
655.418	124.38
655.622	129.38
655.826	131.38
656.03	125.38
656.234	122.38
656.438	117.38
656.642	130.38
656.846	121.38
657.049	121.38
657.253	113.38
657.457	116.38
657.661	133.38
657.865	114.38
658.068	113.38
658.272	101.38
658.476	102.38
658.68	102.38
658.883	95.38
659.087	96.38
659.291	99.38
659.494	100.38
659.698	105.38
659.901	91.38
660.105	85.38
660.309	97.38
660.512	94.38
660.716	94.38
660.919	89.38
661.123	93.38
661.326	97.38
661.53	93.38
661.733	88.38
661.936	86.38
662.14	91.38
662.343	72.38
662.546	88.38
662.75	79.38
662.953	79.38
663.156	91.38
663.36	79.38
663.563	81.38
663.766	86.38
663.969	80.38
664.173	73.38
664.376	74.38
664.579	71.38
664.782	85.38
664.985	88.38
665.188	73.38
665.391	86.38
665.594	90.38
665.797	90.38
666	75.38
666.203	77.38
666.406	74.38
666.609	82.38
666.812	87.38
667.015	76.38
667.218	81.38
667.421	79.38
667.624	71.38
667.827	90.38
668.03	89.38
668.232	81.38
668.435	84.38
668.638	74.38
668.841	93.38
669.043	88.38
669.246	88.38
669.449	90.38
669.651	86.38
669.854	68.38
670.057	73.38
670.259	80.38
670.462	72.38
670.665	75.38
670.867	71.38
671.07	80.38
671.272	78.38
671.475	90.38
671.677	86.38
671.88	80.38
672.082	76.38
672.284	91.38
672.487	92.38
672.689	90.38
672.892	77.38
