Data from 1986.PennyLincolnUp.Lamp.En5.5.200Scan.071819.P1_HRD10591_17-08-13-973.txt Node
Date: Thu Jul 18 17:08:13 EDT 2019
User: cochatt
Spectrometer: HR+D1059
Trigger mode: 1
Integration Time (sec): 1.000000E-1
Scans to average: 1
Electric dark correction enabled: true
Nonlinearity correction enabled: false
Boxcar width: 0
XAxis mode: Wavelengths
Number of Pixels in Spectrum: 2048
>>>>>Begin Spectral Data<<<<<
223.165	-9.12
223.4	-9.12
223.635	-9.12
223.869	-3.12
224.104	-5.12
224.338	-15.12
224.573	-9.12
224.808	-21.12
225.042	-6.12
225.277	4.88
225.511	-6.12
225.746	2.88
225.98	0.88
226.215	19.88
226.449	14.88
226.683	4.88
226.918	-0.12
227.152	26.88
227.387	27.88
227.621	36.88
227.856	29.88
228.09	41.88
228.324	40.88
228.559	46.88
228.793	60.88
229.027	91.88
229.262	79.88
229.496	90.88
229.73	97.88
229.964	108.88
230.199	80.88
230.433	98.88
230.667	96.88
230.901	100.88
231.136	99.88
231.37	92.88
231.604	94.88
231.838	98.88
232.072	103.88
232.306	99.88
232.541	98.88
232.775	101.88
233.009	102.88
233.243	106.88
233.477	99.88
233.711	104.88
233.945	103.88
234.179	107.88
234.413	106.88
234.647	102.88
234.881	109.88
235.115	102.88
235.349	95.88
235.583	100.88
235.817	98.88
236.051	91.88
236.285	106.88
236.519	102.88
236.753	114.88
236.987	108.88
237.221	128.88
237.455	144.88
237.689	137.88
237.922	119.88
238.156	103.88
238.39	99.88
238.624	117.88
238.858	96.88
239.091	101.88
239.325	116.88
239.559	92.88
239.793	91.88
240.027	101.88
240.26	112.88
240.494	127.88
240.728	124.88
240.961	118.88
241.195	128.88
241.429	108.88
241.662	92.88
241.896	100.88
242.13	104.88
242.363	101.88
242.597	115.88
242.83	110.88
243.064	106.88
243.298	104.88
243.531	111.88
243.765	120.88
243.998	110.88
244.232	116.88
244.465	103.88
244.699	124.88
244.932	118.88
245.166	122.88
245.399	107.88
245.633	111.88
245.866	120.88
246.099	128.88
246.333	124.88
246.566	111.88
246.8	118.88
247.033	122.88
247.266	125.88
247.5	129.88
247.733	124.88
247.966	128.88
248.2	143.88
248.433	144.88
248.666	154.88
248.899	154.88
249.133	139.88
249.366	154.88
249.599	130.88
249.832	130.88
250.066	147.88
250.299	126.88
250.532	140.88
250.765	136.88
250.998	160.88
251.231	169.88
251.465	159.88
251.698	142.88
251.931	163.88
252.164	162.88
252.397	150.88
252.63	159.88
252.863	152.88
253.096	160.88
253.329	157.88
253.562	165.88
253.795	151.88
254.028	161.88
254.261	173.88
254.494	173.88
254.727	167.88
254.96	186.88
255.193	178.88
255.426	167.88
255.659	158.88
255.892	158.88
256.124	162.88
256.357	157.88
256.59	163.88
256.823	154.88
257.056	159.88
257.289	162.88
257.521	154.88
257.754	158.88
257.987	152.88
258.22	171.88
258.452	156.88
258.685	165.88
258.918	154.88
259.151	155.88
259.383	146.88
259.616	157.88
259.849	159.88
260.081	149.88
260.314	186.88
260.547	170.88
260.779	168.88
261.012	159.88
261.244	150.88
261.477	161.88
261.71	166.88
261.942	167.88
262.175	163.88
262.407	164.88
262.64	132.88
262.872	182.88
263.105	162.88
263.337	157.88
263.57	172.88
263.802	172.88
264.035	155.88
264.267	168.88
264.499	150.88
264.732	162.88
264.964	167.88
265.197	164.88
265.429	164.88
265.661	160.88
265.894	160.88
266.126	183.88
266.358	165.88
266.591	172.88
266.823	168.88
267.055	159.88
267.287	198.88
267.52	150.88
267.752	156.88
267.984	170.88
268.216	156.88
268.448	170.88
268.681	162.88
268.913	169.88
269.145	185.88
269.377	210.88
269.609	191.88
269.841	181.88
270.073	183.88
270.306	195.88
270.538	212.88
270.77	204.88
271.002	205.88
271.234	203.88
271.466	204.88
271.698	228.88
271.93	208.88
272.162	205.88
272.394	206.88
272.626	198.88
272.858	214.88
273.09	202.88
273.322	193.88
273.553	185.88
273.785	185.88
274.017	191.88
274.249	193.88
274.481	174.88
274.713	181.88
274.945	184.88
275.176	199.88
275.408	197.88
275.64	194.88
275.872	189.88
276.104	201.88
276.335	191.88
276.567	227.88
276.799	190.88
277.031	214.88
277.262	237.88
277.494	229.88
277.726	203.88
277.957	184.88
278.189	184.88
278.421	190.88
278.652	203.88
278.884	202.88
279.115	196.88
279.347	185.88
279.579	191.88
279.81	217.88
280.042	204.88
280.273	212.88
280.505	207.88
280.736	200.88
280.968	181.88
281.199	191.88
281.431	208.88
281.662	202.88
281.894	214.88
282.125	219.88
282.356	203.88
282.588	213.88
282.819	222.88
283.051	211.88
283.282	184.88
283.513	219.88
283.745	210.88
283.976	200.88
284.207	213.88
284.439	207.88
284.67	208.88
284.901	205.88
285.132	216.88
285.364	215.88
285.595	201.88
285.826	198.88
286.057	195.88
286.288	189.88
286.52	216.88
286.751	231.88
286.982	199.88
287.213	225.88
287.444	214.88
287.675	207.88
287.906	219.88
288.138	217.88
288.369	210.88
288.6	218.88
288.831	227.88
289.062	218.88
289.293	212.88
289.524	221.88
289.755	214.88
289.986	222.88
290.217	215.88
290.448	207.88
290.679	233.88
290.91	214.88
291.141	200.88
291.371	210.88
291.602	208.88
291.833	219.88
292.064	208.88
292.295	213.88
292.526	224.88
292.757	224.88
292.987	226.88
293.218	235.88
293.449	241.88
293.68	230.88
293.91	224.88
294.141	204.88
294.372	209.88
294.603	218.88
294.833	222.88
295.064	219.88
295.295	216.88
295.525	228.88
295.756	215.88
295.987	218.88
296.217	216.88
296.448	227.88
296.679	234.88
296.909	215.88
297.14	222.88
297.37	235.88
297.601	236.88
297.831	242.88
298.062	235.88
298.292	228.88
298.523	226.88
298.753	219.88
298.984	227.88
299.214	216.88
299.445	262.88
299.675	234.88
299.905	252.88
300.136	228.88
300.366	220.88
300.597	232.88
300.827	230.88
301.057	238.88
301.288	243.88
301.518	235.88
301.748	218.88
301.979	253.88
302.209	243.88
302.439	244.88
302.669	242.88
302.9	246.88
303.13	227.88
303.36	244.88
303.59	235.88
303.82	245.88
304.051	249.88
304.281	242.88
304.511	251.88
304.741	241.88
304.971	229.88
305.201	234.88
305.431	244.88
305.661	227.88
305.891	236.88
306.121	250.88
306.352	254.88
306.582	254.88
306.812	231.88
307.042	237.88
307.272	251.88
307.502	252.88
307.731	245.88
307.961	253.88
308.191	258.88
308.421	244.88
308.651	242.88
308.881	237.88
309.111	252.88
309.341	231.88
309.571	258.88
309.8	266.88
310.03	261.88
310.26	258.88
310.49	281.88
310.72	278.88
310.949	283.88
311.179	272.88
311.409	269.88
311.639	275.88
311.868	262.88
312.098	264.88
312.328	277.88
312.557	300.88
312.787	281.88
313.017	284.88
313.246	284.88
313.476	265.88
313.706	262.88
313.935	262.88
314.165	276.88
314.394	265.88
314.624	287.88
314.853	266.88
315.083	260.88
315.312	283.88
315.542	263.88
315.771	267.88
316.001	268.88
316.23	267.88
316.46	267.88
316.689	266.88
316.919	274.88
317.148	282.88
317.377	287.88
317.607	276.88
317.836	296.88
318.065	287.88
318.295	271.88
318.524	287.88
318.753	284.88
318.983	276.88
319.212	259.88
319.441	273.88
319.67	286.88
319.9	286.88
320.129	285.88
320.358	293.88
320.587	282.88
320.816	271.88
321.046	284.88
321.275	296.88
321.504	294.88
321.733	302.88
321.962	278.88
322.191	276.88
322.42	303.88
322.649	309.88
322.878	312.88
323.108	306.88
323.337	302.88
323.566	326.88
323.795	333.88
324.024	378.88
324.253	428.88
324.482	589.88
324.71	855.88
324.939	1219.88
325.168	966.88
325.397	534.88
325.626	386.88
325.855	331.88
326.084	340.88
326.313	338.88
326.542	362.88
326.77	376.88
326.999	402.88
327.228	547.88
327.457	778.88
327.686	905.88
327.914	620.88
328.143	445.88
328.372	394.88
328.6	383.88
328.829	376.88
329.058	368.88
329.287	374.88
329.515	356.88
329.744	359.88
329.972	365.88
330.201	387.88
330.43	454.88
330.658	437.88
330.887	426.88
331.115	414.88
331.344	375.88
331.572	344.88
331.801	350.88
332.03	334.88
332.258	334.88
332.486	327.88
332.715	343.88
332.943	323.88
333.172	344.88
333.4	324.88
333.629	342.88
333.857	374.88
334.085	389.88
334.314	436.88
334.542	480.88
334.771	484.88
334.999	432.88
335.227	378.88
335.455	355.88
335.684	332.88
335.912	347.88
336.14	325.88
336.369	334.88
336.597	338.88
336.825	332.88
337.053	324.88
337.281	318.88
337.51	328.88
337.738	343.88
337.966	330.88
338.194	317.88
338.422	313.88
338.65	334.88
338.878	301.88
339.106	327.88
339.334	312.88
339.562	322.88
339.79	301.88
340.018	324.88
340.246	300.88
340.474	313.88
340.702	300.88
340.93	302.88
341.158	304.88
341.386	319.88
341.614	293.88
341.842	309.88
342.07	302.88
342.298	310.88
342.526	296.88
342.754	292.88
342.981	307.88
343.209	293.88
343.437	316.88
343.665	306.88
343.893	312.88
344.12	332.88
344.348	319.88
344.576	318.88
344.804	319.88
345.031	312.88
345.259	314.88
345.487	306.88
345.714	298.88
345.942	296.88
346.17	294.88
346.397	293.88
346.625	315.88
346.853	292.88
347.08	300.88
347.308	285.88
347.535	285.88
347.763	294.88
347.99	288.88
348.218	282.88
348.445	290.88
348.673	319.88
348.9	306.88
349.128	290.88
349.355	291.88
349.583	295.88
349.81	287.88
350.037	284.88
350.265	263.88
350.492	286.88
350.72	283.88
350.947	298.88
351.174	264.88
351.402	304.88
351.629	282.88
351.856	296.88
352.083	285.88
352.311	292.88
352.538	312.88
352.765	307.88
352.992	299.88
353.22	303.88
353.447	294.88
353.674	281.88
353.901	295.88
354.128	283.88
354.355	281.88
354.583	279.88
354.81	283.88
355.037	299.88
355.264	297.88
355.491	268.88
355.718	266.88
355.945	273.88
356.172	278.88
356.399	281.88
356.626	293.88
356.853	287.88
357.08	285.88
357.307	297.88
357.534	299.88
357.761	278.88
357.988	277.88
358.215	293.88
358.441	281.88
358.668	290.88
358.895	291.88
359.122	284.88
359.349	295.88
359.576	269.88
359.802	295.88
360.029	313.88
360.256	328.88
360.483	309.88
360.709	298.88
360.936	296.88
361.163	282.88
361.39	278.88
361.616	308.88
361.843	289.88
362.07	298.88
362.296	306.88
362.523	303.88
362.749	296.88
362.976	303.88
363.203	293.88
363.429	278.88
363.656	281.88
363.882	278.88
364.109	281.88
364.335	296.88
364.562	291.88
364.788	282.88
365.015	286.88
365.241	284.88
365.468	283.88
365.694	281.88
365.92	279.88
366.147	278.88
366.373	290.88
366.599	287.88
366.826	288.88
367.052	298.88
367.278	283.88
367.505	283.88
367.731	277.88
367.957	261.88
368.184	284.88
368.41	286.88
368.636	277.88
368.862	298.88
369.089	298.88
369.315	286.88
369.541	287.88
369.767	284.88
369.993	307.88
370.219	283.88
370.445	277.88
370.672	279.88
370.898	271.88
371.124	269.88
371.35	276.88
371.576	282.88
371.802	289.88
372.028	295.88
372.254	291.88
372.48	284.88
372.706	295.88
372.932	276.88
373.158	302.88
373.384	292.88
373.61	287.88
373.835	286.88
374.061	288.88
374.287	297.88
374.513	292.88
374.739	296.88
374.965	295.88
375.191	283.88
375.416	292.88
375.642	287.88
375.868	276.88
376.094	293.88
376.319	267.88
376.545	295.88
376.771	280.88
376.997	289.88
377.222	268.88
377.448	284.88
377.674	275.88
377.899	279.88
378.125	292.88
378.35	275.88
378.576	294.88
378.802	270.88
379.027	288.88
379.253	278.88
379.478	284.88
379.704	278.88
379.929	278.88
380.155	289.88
380.38	301.88
380.606	283.88
380.831	300.88
381.057	311.88
381.282	291.88
381.507	288.88
381.733	318.88
381.958	310.88
382.184	294.88
382.409	295.88
382.634	318.88
382.86	305.88
383.085	309.88
383.31	312.88
383.535	312.88
383.761	312.88
383.986	306.88
384.211	322.88
384.436	322.88
384.662	323.88
384.887	361.88
385.112	312.88
385.337	328.88
385.562	327.88
385.787	328.88
386.013	331.88
386.238	312.88
386.463	344.88
386.688	340.88
386.913	332.88
387.138	334.88
387.363	323.88
387.588	344.88
387.813	312.88
388.038	319.88
388.263	327.88
388.488	343.88
388.713	304.88
388.938	327.88
389.163	309.88
389.387	311.88
389.612	313.88
389.837	322.88
390.062	306.88
390.287	301.88
390.512	311.88
390.736	315.88
390.961	307.88
391.186	310.88
391.411	321.88
391.636	315.88
391.86	334.88
392.085	312.88
392.31	329.88
392.534	325.88
392.759	316.88
392.984	323.88
393.208	316.88
393.433	340.88
393.658	365.88
393.882	348.88
394.107	308.88
394.331	319.88
394.556	334.88
394.78	329.88
395.005	323.88
395.229	333.88
395.454	318.88
395.678	347.88
395.903	342.88
396.127	335.88
396.352	340.88
396.576	322.88
396.801	343.88
397.025	331.88
397.249	350.88
397.474	331.88
397.698	360.88
397.922	353.88
398.147	339.88
398.371	356.88
398.595	366.88
398.82	350.88
399.044	363.88
399.268	376.88
399.492	414.88
399.717	429.88
399.941	428.88
400.165	419.88
400.389	439.88
400.613	390.88
400.837	379.88
401.062	362.88
401.286	363.88
401.51	367.88
401.734	351.88
401.958	384.88
402.182	384.88
402.406	363.88
402.63	400.88
402.854	375.88
403.078	370.88
403.302	362.88
403.526	380.88
403.75	383.88
403.974	371.88
404.198	383.88
404.422	380.88
404.645	391.88
404.869	398.88
405.093	400.88
405.317	416.88
405.541	430.88
405.765	416.88
405.988	384.88
406.212	393.88
406.436	411.88
406.66	424.88
406.883	423.88
407.107	429.88
407.331	439.88
407.555	480.88
407.778	456.88
408.002	448.88
408.226	420.88
408.449	434.88
408.673	427.88
408.896	415.88
409.12	439.88
409.344	452.88
409.567	410.88
409.791	386.88
410.014	379.88
410.238	372.88
410.461	387.88
410.685	380.88
410.908	412.88
411.132	418.88
411.355	421.88
411.578	410.88
411.802	400.88
412.025	391.88
412.249	390.88
412.472	392.88
412.695	407.88
412.919	388.88
413.142	385.88
413.365	390.88
413.589	379.88
413.812	372.88
414.035	372.88
414.258	372.88
414.482	371.88
414.705	356.88
414.928	376.88
415.151	368.88
415.374	357.88
415.597	373.88
415.821	374.88
416.044	379.88
416.267	376.88
416.49	366.88
416.713	376.88
416.936	376.88
417.159	362.88
417.382	365.88
417.605	371.88
417.828	378.88
418.051	384.88
418.274	379.88
418.497	365.88
418.72	354.88
418.943	360.88
419.166	389.88
419.389	396.88
419.611	399.88
419.834	380.88
420.057	382.88
420.28	390.88
420.503	391.88
420.726	397.88
420.948	395.88
421.171	405.88
421.394	417.88
421.617	408.88
421.839	398.88
422.062	379.88
422.285	414.88
422.507	431.88
422.73	459.88
422.953	460.88
423.175	398.88
423.398	408.88
423.621	406.88
423.843	418.88
424.066	408.88
424.288	418.88
424.511	423.88
424.733	461.88
424.956	473.88
425.178	464.88
425.401	447.88
425.623	454.88
425.846	422.88
426.068	406.88
426.291	391.88
426.513	390.88
426.735	398.88
426.958	417.88
427.18	454.88
427.402	503.88
427.625	559.88
427.847	479.88
428.069	440.88
428.292	427.88
428.514	381.88
428.736	406.88
428.958	389.88
429.181	376.88
429.403	363.88
429.625	390.88
429.847	380.88
430.069	397.88
430.292	442.88
430.514	381.88
430.736	385.88
430.958	371.88
431.18	359.88
431.402	369.88
431.624	364.88
431.846	370.88
432.068	362.88
432.29	360.88
432.512	378.88
432.734	384.88
432.956	356.88
433.178	361.88
433.4	397.88
433.622	365.88
433.844	360.88
434.066	372.88
434.287	366.88
434.509	365.88
434.731	373.88
434.953	366.88
435.175	394.88
435.397	376.88
435.618	388.88
435.84	411.88
436.062	462.88
436.284	484.88
436.505	434.88
436.727	396.88
436.949	382.88
437.17	356.88
437.392	372.88
437.614	365.88
437.835	406.88
438.057	432.88
438.278	482.88
438.5	491.88
438.721	498.88
438.943	528.88
439.165	409.88
439.386	412.88
439.608	388.88
439.829	373.88
440.05	400.88
440.272	421.88
440.493	382.88
440.715	395.88
440.936	364.88
441.158	370.88
441.379	374.88
441.6	376.88
441.822	385.88
442.043	427.88
442.264	463.88
442.486	459.88
442.707	408.88
442.928	402.88
443.149	414.88
443.371	423.88
443.592	430.88
443.813	481.88
444.034	510.88
444.255	444.88
444.476	413.88
444.698	405.88
444.919	410.88
445.14	550.88
445.361	494.88
445.582	429.88
445.803	456.88
446.024	513.88
446.245	505.88
446.466	450.88
446.687	410.88
446.908	392.88
447.129	375.88
447.35	365.88
447.571	370.88
447.792	364.88
448.013	363.88
448.234	370.88
448.455	398.88
448.675	469.88
448.896	525.88
449.117	450.88
449.338	409.88
449.559	477.88
449.779	528.88
450	458.88
450.221	386.88
450.442	379.88
450.662	376.88
450.883	342.88
451.104	361.88
451.324	353.88
451.545	348.88
451.766	346.88
451.986	336.88
452.207	307.88
452.428	339.88
452.648	334.88
452.869	328.88
453.089	344.88
453.31	331.88
453.53	350.88
453.751	350.88
453.971	336.88
454.192	355.88
454.412	322.88
454.633	331.88
454.853	317.88
455.073	341.88
455.294	351.88
455.514	382.88
455.734	364.88
455.955	341.88
456.175	327.88
456.395	327.88
456.616	319.88
456.836	335.88
457.056	310.88
457.276	317.88
457.497	309.88
457.717	329.88
457.937	317.88
458.157	333.88
458.377	327.88
458.598	345.88
458.818	356.88
459.038	394.88
459.258	397.88
459.478	367.88
459.698	364.88
459.918	370.88
460.138	363.88
460.358	377.88
460.578	394.88
460.798	372.88
461.018	374.88
461.238	379.88
461.458	380.88
461.678	357.88
461.898	378.88
462.118	392.88
462.338	373.88
462.558	400.88
462.777	416.88
462.997	415.88
463.217	415.88
463.437	416.88
463.657	390.88
463.876	401.88
464.096	418.88
464.316	414.88
464.536	391.88
464.755	388.88
464.975	380.88
465.195	416.88
465.414	448.88
465.634	397.88
465.854	381.88
466.073	376.88
466.293	369.88
466.512	348.88
466.732	339.88
466.951	341.88
467.171	346.88
467.391	351.88
467.61	353.88
467.829	372.88
468.049	376.88
468.268	391.88
468.488	382.88
468.707	357.88
468.927	349.88
469.146	359.88
469.365	348.88
469.585	329.88
469.804	358.88
470.023	350.88
470.243	347.88
470.462	355.88
470.681	365.88
470.901	365.88
471.12	356.88
471.339	349.88
471.558	366.88
471.777	379.88
471.997	356.88
472.216	380.88
472.435	502.88
472.654	428.88
472.873	382.88
473.092	356.88
473.311	350.88
473.53	336.88
473.749	355.88
473.968	380.88
474.187	424.88
474.406	425.88
474.625	383.88
474.844	359.88
475.063	348.88
475.282	344.88
475.501	351.88
475.72	369.88
475.939	348.88
476.158	360.88
476.377	373.88
476.596	356.88
476.814	369.88
477.033	378.88
477.252	393.88
477.471	358.88
477.69	368.88
477.908	376.88
478.127	408.88
478.346	411.88
478.564	399.88
478.783	395.88
479.002	409.88
479.22	413.88
479.439	416.88
479.658	445.88
479.876	429.88
480.095	441.88
480.313	446.88
480.532	451.88
480.751	456.88
480.969	463.88
481.188	637.88
481.406	708.88
481.624	508.88
481.843	454.88
482.061	426.88
482.28	420.88
482.498	415.88
482.717	410.88
482.935	421.88
483.153	408.88
483.372	426.88
483.59	402.88
483.808	415.88
484.027	423.88
484.245	412.88
484.463	404.88
484.681	413.88
484.9	425.88
485.118	426.88
485.336	419.88
485.554	420.88
485.772	436.88
485.99	407.88
486.209	443.88
486.427	420.88
486.645	412.88
486.863	438.88
487.081	470.88
487.299	446.88
487.517	463.88
487.735	440.88
487.953	441.88
488.171	454.88
488.389	440.88
488.607	429.88
488.825	418.88
489.043	422.88
489.261	412.88
489.479	442.88
489.696	449.88
489.914	455.88
490.132	427.88
490.35	434.88
490.568	452.88
490.786	454.88
491.003	425.88
491.221	466.88
491.439	462.88
491.657	456.88
491.874	461.88
492.092	480.88
492.31	491.88
492.527	502.88
492.745	475.88
492.963	480.88
493.18	484.88
493.398	496.88
493.615	500.88
493.833	495.88
494.05	489.88
494.268	498.88
494.485	510.88
494.703	484.88
494.92	485.88
495.138	511.88
495.355	509.88
495.573	495.88
495.79	480.88
496.008	517.88
496.225	488.88
496.442	498.88
496.66	494.88
496.877	494.88
497.094	491.88
497.312	482.88
497.529	514.88
497.746	522.88
497.963	550.88
498.181	544.88
498.398	555.88
498.615	554.88
498.832	566.88
499.049	597.88
499.267	585.88
499.484	642.88
499.701	649.88
499.918	701.88
500.135	718.88
500.352	752.88
500.569	774.88
500.786	781.88
501.003	759.88
501.22	730.88
501.437	702.88
501.654	667.88
501.871	638.88
502.088	617.88
502.305	593.88
502.522	580.88
502.739	566.88
502.956	533.88
503.172	532.88
503.389	523.88
503.606	523.88
503.823	500.88
504.04	512.88
504.256	526.88
504.473	507.88
504.69	502.88
504.907	514.88
505.123	504.88
505.34	487.88
505.557	478.88
505.773	468.88
505.99	467.88
506.207	482.88
506.423	462.88
506.64	479.88
506.856	460.88
507.073	443.88
507.289	438.88
507.506	441.88
507.722	454.88
507.939	484.88
508.155	450.88
508.372	435.88
508.588	425.88
508.805	440.88
509.021	426.88
509.238	457.88
509.454	435.88
509.67	443.88
509.887	443.88
510.103	434.88
510.319	458.88
510.536	506.88
510.752	824.88
510.968	662.88
511.184	438.88
511.401	428.88
511.617	430.88
511.833	425.88
512.049	419.88
512.265	428.88
512.481	418.88
512.698	386.88
512.914	403.88
513.13	396.88
513.346	416.88
513.562	424.88
513.778	427.88
513.994	420.88
514.21	423.88
514.426	457.88
514.642	452.88
514.858	462.88
515.074	492.88
515.29	579.88
515.506	811.88
515.721	688.88
515.937	487.88
516.153	446.88
516.369	465.88
516.585	436.88
516.801	441.88
517.016	445.88
517.232	459.88
517.448	444.88
517.664	445.88
517.879	448.88
518.095	470.88
518.311	430.88
518.527	435.88
518.742	432.88
518.958	436.88
519.173	433.88
519.389	442.88
519.605	413.88
519.82	421.88
520.036	415.88
520.251	445.88
520.467	469.88
520.682	452.88
520.898	446.88
521.113	465.88
521.329	474.88
521.544	527.88
521.76	646.88
521.975	1026.88
522.19	1078.88
522.406	604.88
522.621	468.88
522.836	430.88
523.052	418.88
523.267	393.88
523.482	395.88
523.698	377.88
523.913	379.88
524.128	373.88
524.343	380.88
524.559	381.88
524.774	356.88
524.989	371.88
525.204	369.88
525.419	360.88
525.634	379.88
525.849	372.88
526.064	383.88
526.28	364.88
526.495	351.88
526.71	356.88
526.925	348.88
527.14	363.88
527.355	357.88
527.57	345.88
527.785	350.88
527.999	358.88
528.214	339.88
528.429	356.88
528.644	355.88
528.859	360.88
529.074	361.88
529.289	371.88
529.503	396.88
529.718	399.88
529.933	344.88
530.148	363.88
530.363	372.88
530.577	359.88
530.792	344.88
531.007	346.88
531.221	339.88
531.436	342.88
531.651	355.88
531.865	342.88
532.08	348.88
532.295	341.88
532.509	323.88
532.724	348.88
532.938	358.88
533.153	347.88
533.367	342.88
533.582	342.88
533.796	343.88
534.011	343.88
534.225	331.88
534.44	345.88
534.654	325.88
534.868	332.88
535.083	340.88
535.297	345.88
535.511	320.88
535.726	335.88
535.94	330.88
536.154	346.88
536.369	342.88
536.583	327.88
536.797	328.88
537.011	335.88
537.225	322.88
537.44	317.88
537.654	329.88
537.868	319.88
538.082	334.88
538.296	339.88
538.51	318.88
538.724	335.88
538.938	347.88
539.153	321.88
539.367	314.88
539.581	324.88
539.795	338.88
540.009	331.88
540.222	314.88
540.436	331.88
540.65	332.88
540.864	351.88
541.078	332.88
541.292	324.88
541.506	325.88
541.72	331.88
541.934	331.88
542.147	350.88
542.361	350.88
542.575	323.88
542.789	341.88
543.002	335.88
543.216	352.88
543.43	337.88
543.644	323.88
543.857	346.88
544.071	334.88
544.285	315.88
544.498	330.88
544.712	338.88
544.925	339.88
545.139	338.88
545.352	324.88
545.566	321.88
545.779	329.88
545.993	322.88
546.206	346.88
546.42	349.88
546.633	341.88
546.847	324.88
547.06	314.88
547.274	339.88
547.487	334.88
547.7	317.88
547.914	322.88
548.127	337.88
548.34	319.88
548.554	333.88
548.767	325.88
548.98	325.88
549.193	334.88
549.407	334.88
549.62	333.88
549.833	332.88
550.046	319.88
550.259	325.88
550.473	312.88
550.686	324.88
550.899	327.88
551.112	329.88
551.325	325.88
551.538	321.88
551.751	302.88
551.964	328.88
552.177	340.88
552.39	315.88
552.603	328.88
552.816	320.88
553.029	334.88
553.242	320.88
553.455	336.88
553.667	353.88
553.88	344.88
554.093	334.88
554.306	330.88
554.519	334.88
554.732	333.88
554.944	332.88
555.157	307.88
555.37	294.88
555.583	312.88
555.795	302.88
556.008	305.88
556.221	284.88
556.433	316.88
556.646	306.88
556.859	293.88
557.071	302.88
557.284	294.88
557.496	294.88
557.709	284.88
557.921	287.88
558.134	293.88
558.346	303.88
558.559	295.88
558.771	290.88
558.984	279.88
559.196	294.88
559.409	304.88
559.621	294.88
559.833	301.88
560.046	296.88
560.258	269.88
560.47	296.88
560.683	281.88
560.895	289.88
561.107	262.88
561.32	283.88
561.532	284.88
561.744	282.88
561.956	291.88
562.168	294.88
562.381	272.88
562.593	273.88
562.805	283.88
563.017	280.88
563.229	295.88
563.441	297.88
563.653	286.88
563.865	268.88
564.077	288.88
564.289	288.88
564.501	304.88
564.713	314.88
564.925	306.88
565.137	304.88
565.349	317.88
565.561	308.88
565.773	306.88
565.985	318.88
566.197	328.88
566.408	320.88
566.62	360.88
566.832	357.88
567.044	341.88
567.255	355.88
567.467	357.88
567.679	384.88
567.891	370.88
568.102	352.88
568.314	366.88
568.526	350.88
568.737	354.88
568.949	326.88
569.161	308.88
569.372	304.88
569.584	289.88
569.795	290.88
570.007	302.88
570.218	334.88
570.43	326.88
570.641	284.88
570.853	302.88
571.064	279.88
571.276	282.88
571.487	262.88
571.698	278.88
571.91	277.88
572.121	265.88
572.333	255.88
572.544	238.88
572.755	268.88
572.966	268.88
573.178	258.88
573.389	252.88
573.6	236.88
573.811	247.88
574.023	251.88
574.234	250.88
574.445	251.88
574.656	237.88
574.867	252.88
575.078	247.88
575.289	263.88
575.501	240.88
575.712	244.88
575.923	249.88
576.134	242.88
576.345	227.88
576.556	244.88
576.767	248.88
576.978	231.88
577.188	235.88
577.399	243.88
577.61	239.88
577.821	240.88
578.032	249.88
578.243	276.88
578.454	385.88
578.665	326.88
578.875	251.88
579.086	219.88
579.297	224.88
579.508	235.88
579.718	237.88
579.929	231.88
580.14	238.88
580.35	226.88
580.561	215.88
580.772	226.88
580.982	224.88
581.193	227.88
581.403	229.88
581.614	224.88
581.825	228.88
582.035	216.88
582.246	230.88
582.456	213.88
582.667	230.88
582.877	231.88
583.087	228.88
583.298	211.88
583.508	221.88
583.719	215.88
583.929	208.88
584.139	233.88
584.35	229.88
584.56	222.88
584.77	211.88
584.981	220.88
585.191	209.88
585.401	243.88
585.611	206.88
585.821	212.88
586.032	216.88
586.242	221.88
586.452	212.88
586.662	244.88
586.872	226.88
587.082	187.88
587.292	197.88
587.502	220.88
587.713	222.88
587.923	216.88
588.133	219.88
588.343	206.88
588.553	214.88
588.762	237.88
588.972	250.88
589.182	338.88
589.392	341.88
589.602	255.88
589.812	322.88
590.022	285.88
590.232	218.88
590.441	215.88
590.651	212.88
590.861	218.88
591.071	232.88
591.281	213.88
591.49	216.88
591.7	205.88
591.91	212.88
592.119	206.88
592.329	226.88
592.539	234.88
592.748	219.88
592.958	219.88
593.167	243.88
593.377	243.88
593.587	234.88
593.796	249.88
594.006	248.88
594.215	235.88
594.424	237.88
594.634	243.88
594.843	243.88
595.053	231.88
595.262	232.88
595.472	219.88
595.681	215.88
595.89	204.88
596.1	222.88
596.309	206.88
596.518	192.88
596.727	207.88
596.937	208.88
597.146	205.88
597.355	201.88
597.564	212.88
597.774	202.88
597.983	196.88
598.192	199.88
598.401	186.88
598.61	208.88
598.819	204.88
599.028	207.88
599.237	187.88
599.446	191.88
599.655	191.88
599.864	191.88
600.073	195.88
600.282	197.88
600.491	202.88
600.7	195.88
600.909	192.88
601.118	202.88
601.327	197.88
601.536	203.88
601.745	182.88
601.953	212.88
602.162	190.88
602.371	173.88
602.58	184.88
602.789	186.88
602.997	189.88
603.206	186.88
603.415	188.88
603.623	191.88
603.832	183.88
604.041	190.88
604.249	187.88
604.458	185.88
604.666	187.88
604.875	187.88
605.084	171.88
605.292	182.88
605.501	176.88
605.709	177.88
605.918	179.88
606.126	198.88
606.334	183.88
606.543	198.88
606.751	196.88
606.96	189.88
607.168	180.88
607.376	180.88
607.585	180.88
607.793	183.88
608.001	185.88
608.21	190.88
608.418	195.88
608.626	178.88
608.834	194.88
609.043	180.88
609.251	183.88
609.459	186.88
609.667	198.88
609.875	182.88
610.083	181.88
610.291	191.88
610.499	194.88
610.707	182.88
610.916	185.88
611.124	189.88
611.332	183.88
611.54	207.88
611.748	207.88
611.955	190.88
612.163	207.88
612.371	195.88
612.579	191.88
612.787	186.88
612.995	173.88
613.203	166.88
613.411	182.88
613.618	186.88
613.826	191.88
614.034	189.88
614.242	169.88
614.449	174.88
614.657	192.88
614.865	182.88
615.072	165.88
615.28	175.88
615.488	178.88
615.695	184.88
615.903	180.88
616.111	180.88
616.318	179.88
616.526	190.88
616.733	185.88
616.941	189.88
617.148	182.88
617.356	187.88
617.563	183.88
617.771	184.88
617.978	183.88
618.185	197.88
618.393	189.88
618.6	184.88
618.807	175.88
619.015	197.88
619.222	168.88
619.429	197.88
619.637	196.88
619.844	181.88
620.051	166.88
620.258	169.88
620.466	172.88
620.673	169.88
620.88	168.88
621.087	162.88
621.294	182.88
621.501	172.88
621.708	162.88
621.915	178.88
622.122	175.88
622.329	180.88
622.536	169.88
622.743	161.88
622.95	174.88
623.157	181.88
623.364	178.88
623.571	168.88
623.778	169.88
623.985	165.88
624.192	162.88
624.399	161.88
624.606	174.88
624.812	174.88
625.019	166.88
625.226	159.88
625.433	171.88
625.639	156.88
625.846	166.88
626.053	160.88
626.259	166.88
626.466	173.88
626.673	159.88
626.879	155.88
627.086	149.88
627.293	156.88
627.499	155.88
627.706	158.88
627.912	150.88
628.119	157.88
628.325	167.88
628.532	152.88
628.738	165.88
628.945	182.88
629.151	152.88
629.357	153.88
629.564	158.88
629.77	170.88
629.976	158.88
630.183	143.88
630.389	167.88
630.595	168.88
630.802	163.88
631.008	161.88
631.214	158.88
631.42	156.88
631.627	167.88
631.833	140.88
632.039	161.88
632.245	149.88
632.451	166.88
632.657	166.88
632.863	144.88
633.069	152.88
633.275	151.88
633.481	154.88
633.688	136.88
633.893	137.88
634.099	146.88
634.305	150.88
634.511	149.88
634.717	152.88
634.923	159.88
635.129	144.88
635.335	143.88
635.541	152.88
635.747	143.88
635.952	154.88
636.158	140.88
636.364	155.88
636.57	165.88
636.775	184.88
636.981	162.88
637.187	154.88
637.392	154.88
637.598	159.88
637.804	137.88
638.009	142.88
638.215	161.88
638.421	150.88
638.626	148.88
638.832	161.88
639.037	131.88
639.243	146.88
639.448	136.88
639.654	154.88
639.859	137.88
640.065	134.88
640.27	148.88
640.475	126.88
640.681	130.88
640.886	126.88
641.091	147.88
641.297	152.88
641.502	137.88
641.707	128.88
641.913	134.88
642.118	149.88
642.323	134.88
642.528	147.88
642.733	154.88
642.939	128.88
643.144	138.88
643.349	138.88
643.554	146.88
643.759	134.88
643.964	133.88
644.169	159.88
644.374	150.88
644.579	150.88
644.784	147.88
644.989	144.88
645.194	146.88
645.399	144.88
645.604	134.88
645.809	140.88
646.014	157.88
646.219	134.88
646.423	128.88
646.628	124.88
646.833	151.88
647.038	149.88
647.243	140.88
647.447	134.88
647.652	143.88
647.857	124.88
648.062	145.88
648.266	136.88
648.471	149.88
648.676	149.88
648.88	142.88
649.085	128.88
649.289	137.88
649.494	137.88
649.698	152.88
649.903	147.88
650.107	151.88
650.312	140.88
650.516	145.88
650.721	156.88
650.925	146.88
651.13	127.88
651.334	136.88
651.539	127.88
651.743	136.88
651.947	135.88
652.152	123.88
652.356	125.88
652.56	125.88
652.764	130.88
652.969	122.88
653.173	132.88
653.377	135.88
653.581	128.88
653.785	120.88
653.99	134.88
654.194	130.88
654.398	128.88
654.602	151.88
654.806	134.88
655.01	133.88
655.214	139.88
655.418	126.88
655.622	130.88
655.826	110.88
656.03	136.88
656.234	132.88
656.438	127.88
656.642	153.88
656.846	124.88
657.049	133.88
657.253	130.88
657.457	115.88
657.661	126.88
657.865	117.88
658.068	107.88
658.272	100.88
658.476	112.88
658.68	100.88
658.883	115.88
659.087	89.88
659.291	101.88
659.494	91.88
659.698	111.88
659.901	96.88
660.105	79.88
660.309	95.88
660.512	96.88
660.716	78.88
660.919	104.88
661.123	89.88
661.326	77.88
661.53	93.88
661.733	96.88
661.936	92.88
662.14	83.88
662.343	93.88
662.546	84.88
662.75	86.88
662.953	92.88
663.156	83.88
663.36	87.88
663.563	78.88
663.766	76.88
663.969	64.88
664.173	83.88
664.376	59.88
664.579	70.88
664.782	82.88
664.985	101.88
665.188	81.88
665.391	91.88
665.594	76.88
665.797	82.88
666	93.88
666.203	90.88
666.406	77.88
666.609	105.88
666.812	85.88
667.015	91.88
667.218	86.88
667.421	72.88
667.624	83.88
667.827	84.88
668.03	73.88
668.232	69.88
668.435	81.88
668.638	87.88
668.841	81.88
669.043	84.88
669.246	96.88
669.449	93.88
669.651	92.88
669.854	71.88
670.057	79.88
670.259	84.88
670.462	93.88
670.665	83.88
670.867	84.88
671.07	93.88
671.272	83.88
671.475	85.88
671.677	78.88
671.88	84.88
672.082	90.88
672.284	86.88
672.487	88.88
672.689	77.88
672.892	85.88
