Data from 1986.PennyLincolnUp.Lamp.En5.5.200Scan.071819.P2_HRD10591_17-10-58-973.txt Node
Date: Thu Jul 18 17:10:58 EDT 2019
User: cochatt
Spectrometer: HR+D1059
Trigger mode: 1
Integration Time (sec): 1.000000E-1
Scans to average: 1
Electric dark correction enabled: true
Nonlinearity correction enabled: false
Boxcar width: 0
XAxis mode: Wavelengths
Number of Pixels in Spectrum: 2048
>>>>>Begin Spectral Data<<<<<
223.165	-21.62
223.4	-21.62
223.635	-21.62
223.869	-6.62
224.104	-21.62
224.338	-16.62
224.573	-3.62
224.808	-8.62
225.042	-18.62
225.277	1.38
225.511	-21.62
225.746	13.38
225.98	10.38
226.215	13.38
226.449	23.38
226.683	16.38
226.918	10.38
227.152	30.38
227.387	23.38
227.621	50.38
227.856	47.38
228.09	54.38
228.324	39.38
228.559	52.38
228.793	66.38
229.027	105.38
229.262	113.38
229.496	126.38
229.73	140.38
229.964	179.38
230.199	144.38
230.433	125.38
230.667	123.38
230.901	134.38
231.136	108.38
231.37	118.38
231.604	107.38
231.838	124.38
232.072	121.38
232.306	120.38
232.541	117.38
232.775	109.38
233.009	123.38
233.243	120.38
233.477	119.38
233.711	92.38
233.945	121.38
234.179	112.38
234.413	115.38
234.647	118.38
234.881	107.38
235.115	117.38
235.349	119.38
235.583	129.38
235.817	137.38
236.051	129.38
236.285	129.38
236.519	116.38
236.753	133.38
236.987	157.38
237.221	186.38
237.455	238.38
237.689	179.38
237.922	136.38
238.156	133.38
238.39	133.38
238.624	134.38
238.858	137.38
239.091	140.38
239.325	125.38
239.559	121.38
239.793	142.38
240.027	121.38
240.26	145.38
240.494	151.38
240.728	165.38
240.961	179.38
241.195	162.38
241.429	142.38
241.662	129.38
241.896	141.38
242.13	126.38
242.363	130.38
242.597	129.38
242.83	135.38
243.064	128.38
243.298	131.38
243.531	136.38
243.765	149.38
243.998	149.38
244.232	143.38
244.465	137.38
244.699	140.38
244.932	133.38
245.166	157.38
245.399	154.38
245.633	137.38
245.866	143.38
246.099	141.38
246.333	160.38
246.566	154.38
246.8	157.38
247.033	149.38
247.266	167.38
247.5	161.38
247.733	165.38
247.966	181.38
248.2	177.38
248.433	182.38
248.666	188.38
248.899	172.38
249.133	206.38
249.366	216.38
249.599	228.38
249.832	189.38
250.066	204.38
250.299	197.38
250.532	196.38
250.765	232.38
250.998	221.38
251.231	234.38
251.465	227.38
251.698	202.38
251.931	202.38
252.164	203.38
252.397	213.38
252.63	214.38
252.863	203.38
253.096	239.38
253.329	235.38
253.562	243.38
253.795	226.38
254.028	217.38
254.261	218.38
254.494	246.38
254.727	268.38
254.96	308.38
255.193	294.38
255.426	290.38
255.659	255.38
255.892	260.38
256.124	266.38
256.357	260.38
256.59	267.38
256.823	247.38
257.056	232.38
257.289	213.38
257.521	227.38
257.754	220.38
257.987	205.38
258.22	211.38
258.452	202.38
258.685	207.38
258.918	212.38
259.151	229.38
259.383	234.38
259.616	224.38
259.849	224.38
260.081	241.38
260.314	253.38
260.547	271.38
260.779	257.38
261.012	245.38
261.244	250.38
261.477	241.38
261.71	227.38
261.942	233.38
262.175	232.38
262.407	236.38
262.64	213.38
262.872	191.38
263.105	213.38
263.337	219.38
263.57	215.38
263.802	219.38
264.035	214.38
264.267	210.38
264.499	213.38
264.732	234.38
264.964	211.38
265.197	221.38
265.429	215.38
265.661	214.38
265.894	219.38
266.126	204.38
266.358	216.38
266.591	220.38
266.823	232.38
267.055	214.38
267.287	242.38
267.52	219.38
267.752	208.38
267.984	229.38
268.216	227.38
268.448	234.38
268.681	221.38
268.913	262.38
269.145	269.38
269.377	276.38
269.609	272.38
269.841	265.38
270.073	284.38
270.306	306.38
270.538	317.38
270.77	334.38
271.002	321.38
271.234	311.38
271.466	313.38
271.698	324.38
271.93	324.38
272.162	315.38
272.394	316.38
272.626	307.38
272.858	317.38
273.09	287.38
273.322	286.38
273.553	271.38
273.785	272.38
274.017	262.38
274.249	255.38
274.481	275.38
274.713	265.38
274.945	272.38
275.176	274.38
275.408	265.38
275.64	261.38
275.872	274.38
276.104	257.38
276.335	249.38
276.567	271.38
276.799	293.38
277.031	327.38
277.262	332.38
277.494	329.38
277.726	291.38
277.957	291.38
278.189	287.38
278.421	262.38
278.652	273.38
278.884	264.38
279.115	254.38
279.347	252.38
279.579	265.38
279.81	252.38
280.042	259.38
280.273	255.38
280.505	255.38
280.736	257.38
280.968	266.38
281.199	250.38
281.431	270.38
281.662	269.38
281.894	272.38
282.125	274.38
282.356	277.38
282.588	300.38
282.819	321.38
283.051	263.38
283.282	263.38
283.513	283.38
283.745	246.38
283.976	272.38
284.207	277.38
284.439	268.38
284.67	253.38
284.901	275.38
285.132	262.38
285.364	263.38
285.595	269.38
285.826	267.38
286.057	270.38
286.288	259.38
286.52	275.38
286.751	268.38
286.982	258.38
287.213	249.38
287.444	277.38
287.675	259.38
287.906	286.38
288.138	293.38
288.369	279.38
288.6	275.38
288.831	280.38
289.062	271.38
289.293	283.38
289.524	267.38
289.755	281.38
289.986	254.38
290.217	278.38
290.448	275.38
290.679	266.38
290.91	284.38
291.141	263.38
291.371	281.38
291.602	278.38
291.833	254.38
292.064	253.38
292.295	270.38
292.526	266.38
292.757	264.38
292.987	269.38
293.218	255.38
293.449	275.38
293.68	267.38
293.91	275.38
294.141	265.38
294.372	283.38
294.603	270.38
294.833	277.38
295.064	265.38
295.295	275.38
295.525	264.38
295.756	270.38
295.987	286.38
296.217	325.38
296.448	323.38
296.679	288.38
296.909	259.38
297.14	269.38
297.37	296.38
297.601	269.38
297.831	257.38
298.062	275.38
298.292	267.38
298.523	272.38
298.753	294.38
298.984	267.38
299.214	277.38
299.445	295.38
299.675	290.38
299.905	285.38
300.136	288.38
300.366	289.38
300.597	282.38
300.827	303.38
301.057	277.38
301.288	299.38
301.518	317.38
301.748	294.38
301.979	307.38
302.209	299.38
302.439	312.38
302.669	315.38
302.9	292.38
303.13	283.38
303.36	288.38
303.59	311.38
303.82	321.38
304.051	330.38
304.281	301.38
304.511	295.38
304.741	283.38
304.971	298.38
305.201	285.38
305.431	284.38
305.661	296.38
305.891	310.38
306.121	292.38
306.352	322.38
306.582	332.38
306.812	310.38
307.042	293.38
307.272	316.38
307.502	302.38
307.731	321.38
307.961	309.38
308.191	310.38
308.421	305.38
308.651	321.38
308.881	314.38
309.111	323.38
309.341	346.38
309.571	331.38
309.8	341.38
310.03	357.38
310.26	360.38
310.49	356.38
310.72	376.38
310.949	390.38
311.179	395.38
311.409	383.38
311.639	370.38
311.868	353.38
312.098	356.38
312.328	370.38
312.557	395.38
312.787	401.38
313.017	399.38
313.246	375.38
313.476	365.38
313.706	354.38
313.935	361.38
314.165	377.38
314.394	381.38
314.624	385.38
314.853	365.38
315.083	360.38
315.312	359.38
315.542	362.38
315.771	352.38
316.001	357.38
316.23	343.38
316.46	357.38
316.689	353.38
316.919	379.38
317.148	378.38
317.377	360.38
317.607	359.38
317.836	365.38
318.065	356.38
318.295	358.38
318.524	348.38
318.753	359.38
318.983	359.38
319.212	341.38
319.441	351.38
319.67	386.38
319.9	361.38
320.129	348.38
320.358	362.38
320.587	361.38
320.816	364.38
321.046	375.38
321.275	391.38
321.504	394.38
321.733	380.38
321.962	388.38
322.191	428.38
322.42	420.38
322.649	458.38
322.878	457.38
323.108	472.38
323.337	483.38
323.566	511.38
323.795	554.38
324.024	590.38
324.253	777.38
324.482	1060.38
324.71	1626.38
324.939	2340.38
325.168	2103.38
325.397	1107.38
325.626	732.38
325.855	595.38
326.084	548.38
326.313	531.38
326.542	519.38
326.77	565.38
326.999	694.38
327.228	980.38
327.457	1462.38
327.686	1762.38
327.914	1239.38
328.143	802.38
328.372	687.38
328.6	643.38
328.829	607.38
329.058	609.38
329.287	630.38
329.515	583.38
329.744	563.38
329.972	559.38
330.201	572.38
330.43	622.38
330.658	645.38
330.887	695.38
331.115	636.38
331.344	563.38
331.572	499.38
331.801	526.38
332.03	498.38
332.258	467.38
332.486	440.38
332.715	450.38
332.943	462.38
333.172	448.38
333.4	450.38
333.629	425.38
333.857	459.38
334.085	510.38
334.314	520.38
334.542	569.38
334.771	605.38
334.999	497.38
335.227	460.38
335.455	445.38
335.684	439.38
335.912	397.38
336.14	419.38
336.369	403.38
336.597	414.38
336.825	423.38
337.053	410.38
337.281	402.38
337.51	390.38
337.738	415.38
337.966	397.38
338.194	429.38
338.422	396.38
338.65	407.38
338.878	389.38
339.106	380.38
339.334	413.38
339.562	393.38
339.79	390.38
340.018	417.38
340.246	387.38
340.474	398.38
340.702	405.38
340.93	398.38
341.158	393.38
341.386	406.38
341.614	400.38
341.842	397.38
342.07	405.38
342.298	390.38
342.526	400.38
342.754	366.38
342.981	375.38
343.209	383.38
343.437	399.38
343.665	369.38
343.893	369.38
344.12	390.38
344.348	389.38
344.576	373.38
344.804	407.38
345.031	410.38
345.259	417.38
345.487	411.38
345.714	410.38
345.942	381.38
346.17	398.38
346.397	407.38
346.625	383.38
346.853	402.38
347.08	394.38
347.308	391.38
347.535	399.38
347.763	424.38
347.99	401.38
348.218	409.38
348.445	408.38
348.673	411.38
348.9	393.38
349.128	381.38
349.355	361.38
349.583	363.38
349.81	372.38
350.037	367.38
350.265	385.38
350.492	377.38
350.72	372.38
350.947	396.38
351.174	402.38
351.402	411.38
351.629	420.38
351.856	401.38
352.083	411.38
352.311	401.38
352.538	395.38
352.765	403.38
352.992	409.38
353.22	379.38
353.447	393.38
353.674	359.38
353.901	374.38
354.128	385.38
354.355	364.38
354.583	354.38
354.81	361.38
355.037	372.38
355.264	330.38
355.491	347.38
355.718	347.38
355.945	347.38
356.172	349.38
356.399	357.38
356.626	359.38
356.853	332.38
357.08	364.38
357.307	341.38
357.534	343.38
357.761	370.38
357.988	332.38
358.215	353.38
358.441	350.38
358.668	353.38
358.895	369.38
359.122	362.38
359.349	373.38
359.576	387.38
359.802	430.38
360.029	465.38
360.256	450.38
360.483	441.38
360.709	389.38
360.936	394.38
361.163	391.38
361.39	381.38
361.616	386.38
361.843	377.38
362.07	386.38
362.296	395.38
362.523	366.38
362.749	381.38
362.976	398.38
363.203	361.38
363.429	374.38
363.656	369.38
363.882	361.38
364.109	363.38
364.335	360.38
364.562	347.38
364.788	350.38
365.015	359.38
365.241	364.38
365.468	369.38
365.694	357.38
365.92	364.38
366.147	359.38
366.373	363.38
366.599	373.38
366.826	359.38
367.052	364.38
367.278	355.38
367.505	361.38
367.731	356.38
367.957	353.38
368.184	346.38
368.41	364.38
368.636	374.38
368.862	381.38
369.089	357.38
369.315	337.38
369.541	362.38
369.767	355.38
369.993	363.38
370.219	371.38
370.445	353.38
370.672	371.38
370.898	349.38
371.124	341.38
371.35	374.38
371.576	340.38
371.802	336.38
372.028	344.38
372.254	334.38
372.48	344.38
372.706	352.38
372.932	349.38
373.158	362.38
373.384	347.38
373.61	343.38
373.835	362.38
374.061	358.38
374.287	357.38
374.513	350.38
374.739	354.38
374.965	362.38
375.191	349.38
375.416	344.38
375.642	358.38
375.868	355.38
376.094	339.38
376.319	341.38
376.545	347.38
376.771	337.38
376.997	353.38
377.222	362.38
377.448	365.38
377.674	350.38
377.899	325.38
378.125	341.38
378.35	341.38
378.576	353.38
378.802	334.38
379.027	352.38
379.253	337.38
379.478	334.38
379.704	344.38
379.929	334.38
380.155	347.38
380.38	341.38
380.606	341.38
380.831	343.38
381.057	366.38
381.282	342.38
381.507	345.38
381.733	363.38
381.958	360.38
382.184	344.38
382.409	333.38
382.634	347.38
382.86	356.38
383.085	348.38
383.31	340.38
383.535	360.38
383.761	349.38
383.986	315.38
384.211	334.38
384.436	361.38
384.662	343.38
384.887	361.38
385.112	346.38
385.337	342.38
385.562	355.38
385.787	332.38
386.013	359.38
386.238	371.38
386.463	361.38
386.688	383.38
386.913	356.38
387.138	360.38
387.363	363.38
387.588	371.38
387.813	357.38
388.038	346.38
388.263	353.38
388.488	360.38
388.713	371.38
388.938	360.38
389.163	368.38
389.387	357.38
389.612	357.38
389.837	359.38
390.062	358.38
390.287	365.38
390.512	340.38
390.736	370.38
390.961	353.38
391.186	356.38
391.411	352.38
391.636	376.38
391.86	353.38
392.085	354.38
392.31	351.38
392.534	366.38
392.759	349.38
392.984	357.38
393.208	339.38
393.433	358.38
393.658	346.38
393.882	350.38
394.107	372.38
394.331	347.38
394.556	368.38
394.78	358.38
395.005	354.38
395.229	369.38
395.454	367.38
395.678	365.38
395.903	365.38
396.127	401.38
396.352	425.38
396.576	387.38
396.801	378.38
397.025	373.38
397.249	371.38
397.474	392.38
397.698	360.38
397.922	391.38
398.147	403.38
398.371	395.38
398.595	387.38
398.82	384.38
399.044	396.38
399.268	404.38
399.492	421.38
399.717	450.38
399.941	475.38
400.165	467.38
400.389	517.38
400.613	464.38
400.837	437.38
401.062	411.38
401.286	405.38
401.51	425.38
401.734	410.38
401.958	402.38
402.182	401.38
402.406	424.38
402.63	427.38
402.854	415.38
403.078	399.38
403.302	422.38
403.526	417.38
403.75	425.38
403.974	436.38
404.198	424.38
404.422	417.38
404.645	436.38
404.869	435.38
405.093	491.38
405.317	521.38
405.541	538.38
405.765	527.38
405.988	454.38
406.212	462.38
406.436	501.38
406.66	517.38
406.883	471.38
407.107	479.38
407.331	514.38
407.555	595.38
407.778	591.38
408.002	535.38
408.226	500.38
408.449	494.38
408.673	473.38
408.896	504.38
409.12	543.38
409.344	513.38
409.567	441.38
409.791	426.38
410.014	426.38
410.238	433.38
410.461	435.38
410.685	435.38
410.908	457.38
411.132	481.38
411.355	510.38
411.578	485.38
411.802	448.38
412.025	438.38
412.249	438.38
412.472	454.38
412.695	500.38
412.919	510.38
413.142	466.38
413.365	443.38
413.589	423.38
413.812	438.38
414.035	406.38
414.258	415.38
414.482	406.38
414.705	394.38
414.928	388.38
415.151	385.38
415.374	392.38
415.597	391.38
415.821	381.38
416.044	386.38
416.267	403.38
416.49	395.38
416.713	385.38
416.936	393.38
417.159	407.38
417.382	386.38
417.605	408.38
417.828	429.38
418.051	435.38
418.274	417.38
418.497	424.38
418.72	405.38
418.943	416.38
419.166	413.38
419.389	421.38
419.611	451.38
419.834	443.38
420.057	442.38
420.28	427.38
420.503	458.38
420.726	441.38
420.948	460.38
421.171	503.38
421.394	515.38
421.617	452.38
421.839	417.38
422.062	435.38
422.285	467.38
422.507	514.38
422.73	569.38
422.953	569.38
423.175	488.38
423.398	457.38
423.621	456.38
423.843	477.38
424.066	471.38
424.288	487.38
424.511	490.38
424.733	542.38
424.956	630.38
425.178	612.38
425.401	583.38
425.623	619.38
425.846	519.38
426.068	476.38
426.291	476.38
426.513	482.38
426.735	488.38
426.958	533.38
427.18	633.38
427.402	712.38
427.625	801.38
427.847	755.38
428.069	624.38
428.292	565.38
428.514	517.38
428.736	481.38
428.958	470.38
429.181	449.38
429.403	435.38
429.625	470.38
429.847	497.38
430.069	557.38
430.292	548.38
430.514	492.38
430.736	443.38
430.958	445.38
431.18	424.38
431.402	407.38
431.624	422.38
431.846	427.38
432.068	429.38
432.29	419.38
432.512	418.38
432.734	423.38
432.956	422.38
433.178	427.38
433.4	429.38
433.622	425.38
433.844	415.38
434.066	402.38
434.287	413.38
434.509	406.38
434.731	422.38
434.953	418.38
435.175	444.38
435.397	450.38
435.618	477.38
435.84	527.38
436.062	610.38
436.284	679.38
436.505	565.38
436.727	495.38
436.949	485.38
437.17	428.38
437.392	458.38
437.614	468.38
437.835	513.38
438.057	596.38
438.278	708.38
438.5	663.38
438.721	729.38
438.943	698.38
439.165	596.38
439.386	522.38
439.608	507.38
439.829	495.38
440.05	551.38
440.272	565.38
440.493	503.38
440.715	485.38
440.936	485.38
441.158	461.38
441.379	458.38
441.6	446.38
441.822	467.38
442.043	505.38
442.264	595.38
442.486	647.38
442.707	575.38
442.928	517.38
443.149	518.38
443.371	517.38
443.592	561.38
443.813	645.38
444.034	678.38
444.255	567.38
444.476	488.38
444.698	495.38
444.919	480.38
445.14	569.38
445.361	510.38
445.582	521.38
445.803	581.38
446.024	677.38
446.245	707.38
446.466	630.38
446.687	562.38
446.908	482.38
447.129	486.38
447.35	462.38
447.571	458.38
447.792	463.38
448.013	451.38
448.234	478.38
448.455	499.38
448.675	619.38
448.896	711.38
449.117	629.38
449.338	590.38
449.559	707.38
449.779	758.38
450	643.38
450.221	495.38
450.442	477.38
450.662	453.38
450.883	464.38
451.104	473.38
451.324	463.38
451.545	454.38
451.766	426.38
451.986	405.38
452.207	415.38
452.428	406.38
452.648	424.38
452.869	427.38
453.089	408.38
453.31	437.38
453.53	414.38
453.751	407.38
453.971	414.38
454.192	443.38
454.412	422.38
454.633	418.38
454.853	390.38
455.073	417.38
455.294	444.38
455.514	497.38
455.734	489.38
455.955	397.38
456.175	396.38
456.395	374.38
456.616	373.38
456.836	360.38
457.056	362.38
457.276	362.38
457.497	373.38
457.717	373.38
457.937	382.38
458.157	398.38
458.377	394.38
458.598	408.38
458.818	492.38
459.038	562.38
459.258	564.38
459.478	470.38
459.698	436.38
459.918	428.38
460.138	413.38
460.358	415.38
460.578	413.38
460.798	400.38
461.018	433.38
461.238	396.38
461.458	405.38
461.678	375.38
461.898	403.38
462.118	405.38
462.338	419.38
462.558	403.38
462.777	403.38
462.997	429.38
463.217	435.38
463.437	415.38
463.657	409.38
463.876	426.38
464.096	398.38
464.316	417.38
464.536	431.38
464.755	428.38
464.975	425.38
465.195	476.38
465.414	590.38
465.634	515.38
465.854	454.38
466.073	453.38
466.293	399.38
466.512	400.38
466.732	411.38
466.951	414.38
467.171	406.38
467.391	420.38
467.61	408.38
467.829	427.38
468.049	419.38
468.268	419.38
468.488	409.38
468.707	401.38
468.927	400.38
469.146	388.38
469.365	402.38
469.585	381.38
469.804	400.38
470.023	425.38
470.243	405.38
470.462	413.38
470.681	444.38
470.901	419.38
471.12	416.38
471.339	412.38
471.558	417.38
471.777	410.38
471.997	415.38
472.216	451.38
472.435	493.38
472.654	454.38
472.873	429.38
473.092	425.38
473.311	420.38
473.53	430.38
473.749	422.38
473.968	486.38
474.187	563.38
474.406	620.38
474.625	477.38
474.844	435.38
475.063	415.38
475.282	403.38
475.501	426.38
475.72	438.38
475.939	418.38
476.158	426.38
476.377	434.38
476.596	413.38
476.814	413.38
477.033	428.38
477.252	439.38
477.471	419.38
477.69	430.38
477.908	433.38
478.127	439.38
478.346	435.38
478.564	454.38
478.783	451.38
479.002	438.38
479.22	463.38
479.439	469.38
479.658	485.38
479.876	516.38
480.095	511.38
480.313	517.38
480.532	503.38
480.751	512.38
480.969	537.38
481.188	636.38
481.406	735.38
481.624	588.38
481.843	545.38
482.061	516.38
482.28	506.38
482.498	487.38
482.717	513.38
482.935	492.38
483.153	485.38
483.372	500.38
483.59	464.38
483.808	491.38
484.027	477.38
484.245	489.38
484.463	488.38
484.681	501.38
484.9	493.38
485.118	491.38
485.336	503.38
485.554	491.38
485.772	493.38
485.99	484.38
486.209	514.38
486.427	531.38
486.645	509.38
486.863	535.38
487.081	554.38
487.299	539.38
487.517	528.38
487.735	522.38
487.953	533.38
488.171	533.38
488.389	524.38
488.607	518.38
488.825	536.38
489.043	544.38
489.261	540.38
489.479	530.38
489.696	547.38
489.914	557.38
490.132	545.38
490.35	546.38
490.568	569.38
490.786	583.38
491.003	573.38
491.221	590.38
491.439	600.38
491.657	592.38
491.874	611.38
492.092	621.38
492.31	611.38
492.527	625.38
492.745	631.38
492.963	625.38
493.18	637.38
493.398	649.38
493.615	649.38
493.833	633.38
494.05	627.38
494.268	656.38
494.485	619.38
494.703	643.38
494.92	631.38
495.138	633.38
495.355	628.38
495.573	622.38
495.79	653.38
496.008	647.38
496.225	645.38
496.442	642.38
496.66	643.38
496.877	648.38
497.094	663.38
497.312	643.38
497.529	645.38
497.746	641.38
497.963	674.38
498.181	679.38
498.398	649.38
498.615	673.38
498.832	672.38
499.049	693.38
499.267	692.38
499.484	693.38
499.701	704.38
499.918	726.38
500.135	725.38
500.352	769.38
500.569	761.38
500.786	741.38
501.003	758.38
501.22	759.38
501.437	771.38
501.654	754.38
501.871	750.38
502.088	753.38
502.305	709.38
502.522	683.38
502.739	657.38
502.956	674.38
503.172	647.38
503.389	639.38
503.606	678.38
503.823	659.38
504.04	652.38
504.256	622.38
504.473	649.38
504.69	625.38
504.907	628.38
505.123	606.38
505.34	622.38
505.557	614.38
505.773	593.38
505.99	623.38
506.207	621.38
506.423	631.38
506.64	637.38
506.856	606.38
507.073	607.38
507.289	601.38
507.506	605.38
507.722	619.38
507.939	659.38
508.155	618.38
508.372	609.38
508.588	606.38
508.805	606.38
509.021	587.38
509.238	626.38
509.454	641.38
509.67	623.38
509.887	620.38
510.103	602.38
510.319	609.38
510.536	719.38
510.752	1297.38
510.968	1040.38
511.184	645.38
511.401	608.38
511.617	596.38
511.833	581.38
512.049	557.38
512.265	594.38
512.481	561.38
512.698	577.38
512.914	567.38
513.13	590.38
513.346	566.38
513.562	562.38
513.778	580.38
513.994	600.38
514.21	590.38
514.426	622.38
514.642	683.38
514.858	716.38
515.074	767.38
515.29	942.38
515.506	1432.38
515.721	1167.38
515.937	746.38
516.153	650.38
516.369	632.38
516.585	586.38
516.801	580.38
517.016	581.38
517.232	582.38
517.448	582.38
517.664	585.38
517.879	571.38
518.095	573.38
518.311	538.38
518.527	563.38
518.742	574.38
518.958	565.38
519.173	570.38
519.389	575.38
519.605	579.38
519.82	570.38
520.036	580.38
520.251	623.38
520.467	631.38
520.682	645.38
520.898	662.38
521.113	697.38
521.329	743.38
521.544	869.38
521.76	1166.38
521.975	1963.38
522.19	1897.38
522.406	995.38
522.621	745.38
522.836	635.38
523.052	566.38
523.267	573.38
523.482	546.38
523.698	531.38
523.913	543.38
524.128	545.38
524.343	498.38
524.559	508.38
524.774	505.38
524.989	479.38
525.204	504.38
525.419	487.38
525.634	481.38
525.849	469.38
526.064	471.38
526.28	471.38
526.495	468.38
526.71	454.38
526.925	451.38
527.14	448.38
527.355	441.38
527.57	458.38
527.785	462.38
527.999	443.38
528.214	433.38
528.429	448.38
528.644	447.38
528.859	461.38
529.074	462.38
529.289	478.38
529.503	578.38
529.718	569.38
529.933	515.38
530.148	473.38
530.363	478.38
530.577	449.38
530.792	422.38
531.007	439.38
531.221	438.38
531.436	436.38
531.651	438.38
531.865	422.38
532.08	413.38
532.295	423.38
532.509	436.38
532.724	410.38
532.938	433.38
533.153	420.38
533.367	422.38
533.582	430.38
533.796	434.38
534.011	424.38
534.225	430.38
534.44	402.38
534.654	425.38
534.868	409.38
535.083	423.38
535.297	413.38
535.511	414.38
535.726	437.38
535.94	439.38
536.154	416.38
536.369	434.38
536.583	422.38
536.797	405.38
537.011	405.38
537.225	408.38
537.44	412.38
537.654	418.38
537.868	396.38
538.082	383.38
538.296	426.38
538.51	433.38
538.724	430.38
538.938	420.38
539.153	408.38
539.367	435.38
539.581	429.38
539.795	425.38
540.009	407.38
540.222	405.38
540.436	404.38
540.65	414.38
540.864	431.38
541.078	411.38
541.292	426.38
541.506	413.38
541.72	400.38
541.934	398.38
542.147	390.38
542.361	400.38
542.575	411.38
542.789	389.38
543.002	395.38
543.216	405.38
543.43	421.38
543.644	414.38
543.857	413.38
544.071	419.38
544.285	408.38
544.498	406.38
544.712	404.38
544.925	401.38
545.139	396.38
545.352	405.38
545.566	392.38
545.779	398.38
545.993	380.38
546.206	402.38
546.42	379.38
546.633	400.38
546.847	362.38
547.06	385.38
547.274	383.38
547.487	383.38
547.7	360.38
547.914	349.38
548.127	379.38
548.34	373.38
548.554	358.38
548.767	385.38
548.98	377.38
549.193	379.38
549.407	364.38
549.62	377.38
549.833	366.38
550.046	381.38
550.259	372.38
550.473	379.38
550.686	349.38
550.899	369.38
551.112	376.38
551.325	358.38
551.538	350.38
551.751	354.38
551.964	369.38
552.177	355.38
552.39	370.38
552.603	374.38
552.816	370.38
553.029	383.38
553.242	371.38
553.455	384.38
553.667	389.38
553.88	407.38
554.093	382.38
554.306	383.38
554.519	365.38
554.732	365.38
554.944	356.38
555.157	378.38
555.37	365.38
555.583	348.38
555.795	387.38
556.008	345.38
556.221	341.38
556.433	339.38
556.646	357.38
556.859	354.38
557.071	347.38
557.284	347.38
557.496	341.38
557.709	350.38
557.921	356.38
558.134	340.38
558.346	334.38
558.559	339.38
558.771	355.38
558.984	344.38
559.196	344.38
559.409	328.38
559.621	335.38
559.833	345.38
560.046	335.38
560.258	336.38
560.47	343.38
560.683	336.38
560.895	346.38
561.107	363.38
561.32	330.38
561.532	332.38
561.744	313.38
561.956	331.38
562.168	347.38
562.381	321.38
562.593	326.38
562.805	335.38
563.017	322.38
563.229	333.38
563.441	342.38
563.653	335.38
563.865	333.38
564.077	349.38
564.289	313.38
564.501	332.38
564.713	347.38
564.925	339.38
565.137	349.38
565.349	340.38
565.561	365.38
565.773	368.38
565.985	345.38
566.197	345.38
566.408	354.38
566.62	378.38
566.832	356.38
567.044	360.38
567.255	380.38
567.467	362.38
567.679	375.38
567.891	372.38
568.102	373.38
568.314	369.38
568.526	358.38
568.737	346.38
568.949	349.38
569.161	336.38
569.372	355.38
569.584	344.38
569.795	335.38
570.007	335.38
570.218	374.38
570.43	398.38
570.641	309.38
570.853	342.38
571.064	332.38
571.276	297.38
571.487	303.38
571.698	315.38
571.91	308.38
572.121	298.38
572.333	303.38
572.544	312.38
572.755	309.38
572.966	293.38
573.178	297.38
573.389	301.38
573.6	299.38
573.811	287.38
574.023	294.38
574.234	297.38
574.445	306.38
574.656	275.38
574.867	313.38
575.078	294.38
575.289	299.38
575.501	293.38
575.712	299.38
575.923	293.38
576.134	281.38
576.345	306.38
576.556	300.38
576.767	317.38
576.978	284.38
577.188	260.38
577.399	300.38
577.61	303.38
577.821	291.38
578.032	300.38
578.243	334.38
578.454	603.38
578.665	444.38
578.875	305.38
579.086	297.38
579.297	288.38
579.508	269.38
579.718	280.38
579.929	276.38
580.14	285.38
580.35	271.38
580.561	273.38
580.772	269.38
580.982	275.38
581.193	261.38
581.403	279.38
581.614	272.38
581.825	257.38
582.035	279.38
582.246	267.38
582.456	267.38
582.667	267.38
582.877	275.38
583.087	266.38
583.298	260.38
583.508	247.38
583.719	254.38
583.929	257.38
584.139	277.38
584.35	269.38
584.56	267.38
584.77	249.38
584.981	263.38
585.191	257.38
585.401	275.38
585.611	269.38
585.821	272.38
586.032	263.38
586.242	278.38
586.452	277.38
586.662	256.38
586.872	268.38
587.082	270.38
587.292	259.38
587.502	255.38
587.713	243.38
587.923	270.38
588.133	243.38
588.343	236.38
588.553	269.38
588.762	260.38
588.972	276.38
589.182	267.38
589.392	270.38
589.602	280.38
589.812	262.38
590.022	271.38
590.232	258.38
590.441	233.38
590.651	263.38
590.861	254.38
591.071	241.38
591.281	235.38
591.49	245.38
591.7	254.38
591.91	258.38
592.119	257.38
592.329	270.38
592.539	269.38
592.748	275.38
592.958	266.38
593.167	262.38
593.377	264.38
593.587	267.38
593.796	259.38
594.006	237.38
594.215	263.38
594.424	245.38
594.634	270.38
594.843	263.38
595.053	257.38
595.262	262.38
595.472	266.38
595.681	245.38
595.89	246.38
596.1	254.38
596.309	243.38
596.518	258.38
596.727	245.38
596.937	249.38
597.146	245.38
597.355	255.38
597.564	218.38
597.774	237.38
597.983	239.38
598.192	252.38
598.401	241.38
598.61	228.38
598.819	245.38
599.028	218.38
599.237	242.38
599.446	215.38
599.655	238.38
599.864	251.38
600.073	227.38
600.282	223.38
600.491	241.38
600.7	225.38
600.909	218.38
601.118	227.38
601.327	233.38
601.536	226.38
601.745	233.38
601.953	235.38
602.162	228.38
602.371	215.38
602.58	221.38
602.789	223.38
602.997	223.38
603.206	230.38
603.415	239.38
603.623	221.38
603.832	206.38
604.041	211.38
604.249	230.38
604.458	213.38
604.666	236.38
604.875	222.38
605.084	229.38
605.292	229.38
605.501	218.38
605.709	229.38
605.918	221.38
606.126	231.38
606.334	225.38
606.543	215.38
606.751	230.38
606.96	229.38
607.168	230.38
607.376	213.38
607.585	215.38
607.793	222.38
608.001	227.38
608.21	218.38
608.418	200.38
608.626	216.38
608.834	225.38
609.043	222.38
609.251	225.38
609.459	228.38
609.667	212.38
609.875	203.38
610.083	202.38
610.291	239.38
610.499	237.38
610.707	232.38
610.916	224.38
611.124	236.38
611.332	221.38
611.54	219.38
611.748	214.38
611.955	211.38
612.163	214.38
612.371	214.38
612.579	202.38
612.787	202.38
612.995	202.38
613.203	215.38
613.411	210.38
613.618	202.38
613.826	222.38
614.034	220.38
614.242	217.38
614.449	200.38
614.657	198.38
614.865	203.38
615.072	219.38
615.28	220.38
615.488	206.38
615.695	208.38
615.903	234.38
616.111	195.38
616.318	212.38
616.526	217.38
616.733	203.38
616.941	211.38
617.148	221.38
617.356	227.38
617.563	203.38
617.771	222.38
617.978	210.38
618.185	202.38
618.393	218.38
618.6	215.38
618.807	200.38
619.015	209.38
619.222	191.38
619.429	208.38
619.637	218.38
619.844	199.38
620.051	194.38
620.258	215.38
620.466	204.38
620.673	191.38
620.88	191.38
621.087	185.38
621.294	211.38
621.501	198.38
621.708	204.38
621.915	198.38
622.122	206.38
622.329	196.38
622.536	206.38
622.743	194.38
622.95	198.38
623.157	190.38
623.364	208.38
623.571	201.38
623.778	200.38
623.985	193.38
624.192	205.38
624.399	199.38
624.606	195.38
624.812	211.38
625.019	190.38
625.226	195.38
625.433	199.38
625.639	190.38
625.846	207.38
626.053	185.38
626.259	188.38
626.466	181.38
626.673	185.38
626.879	180.38
627.086	198.38
627.293	186.38
627.499	187.38
627.706	197.38
627.912	173.38
628.119	198.38
628.325	183.38
628.532	170.38
628.738	178.38
628.945	202.38
629.151	182.38
629.357	189.38
629.564	175.38
629.77	167.38
629.976	176.38
630.183	189.38
630.389	178.38
630.595	163.38
630.802	162.38
631.008	163.38
631.214	198.38
631.42	186.38
631.627	189.38
631.833	188.38
632.039	186.38
632.245	180.38
632.451	171.38
632.657	165.38
632.863	167.38
633.069	167.38
633.275	185.38
633.481	172.38
633.688	177.38
633.893	176.38
634.099	178.38
634.305	175.38
634.511	156.38
634.717	178.38
634.923	185.38
635.129	167.38
635.335	154.38
635.541	174.38
635.747	158.38
635.952	162.38
636.158	175.38
636.364	185.38
636.57	187.38
636.775	171.38
636.981	155.38
637.187	167.38
637.392	156.38
637.598	157.38
637.804	166.38
638.009	165.38
638.215	154.38
638.421	153.38
638.626	151.38
638.832	168.38
639.037	158.38
639.243	153.38
639.448	177.38
639.654	162.38
639.859	153.38
640.065	151.38
640.27	152.38
640.475	151.38
640.681	174.38
640.886	181.38
641.091	161.38
641.297	158.38
641.502	166.38
641.707	147.38
641.913	158.38
642.118	157.38
642.323	147.38
642.528	160.38
642.733	165.38
642.939	164.38
643.144	176.38
643.349	177.38
643.554	155.38
643.759	157.38
643.964	163.38
644.169	151.38
644.374	159.38
644.579	158.38
644.784	174.38
644.989	145.38
645.194	144.38
645.399	147.38
645.604	159.38
645.809	144.38
646.014	143.38
646.219	151.38
646.423	158.38
646.628	153.38
646.833	162.38
647.038	147.38
647.243	142.38
647.447	165.38
647.652	155.38
647.857	141.38
648.062	154.38
648.266	154.38
648.471	153.38
648.676	152.38
648.88	161.38
649.085	166.38
649.289	152.38
649.494	163.38
649.698	173.38
649.903	165.38
650.107	157.38
650.312	165.38
650.516	140.38
650.721	165.38
650.925	145.38
651.13	145.38
651.334	150.38
651.539	147.38
651.743	142.38
651.947	137.38
652.152	141.38
652.356	117.38
652.56	134.38
652.764	139.38
652.969	142.38
653.173	145.38
653.377	131.38
653.581	135.38
653.785	134.38
653.99	129.38
654.194	123.38
654.398	132.38
654.602	137.38
654.806	124.38
655.01	134.38
655.214	127.38
655.418	136.38
655.622	118.38
655.826	128.38
656.03	146.38
656.234	114.38
656.438	121.38
656.642	133.38
656.846	121.38
657.049	116.38
657.253	118.38
657.457	121.38
657.661	111.38
657.865	114.38
658.068	101.38
658.272	116.38
658.476	105.38
658.68	113.38
658.883	99.38
659.087	109.38
659.291	99.38
659.494	121.38
659.698	100.38
659.901	107.38
660.105	119.38
660.309	102.38
660.512	89.38
660.716	94.38
660.919	96.38
661.123	87.38
661.326	95.38
661.53	99.38
661.733	102.38
661.936	90.38
662.14	79.38
662.343	86.38
662.546	104.38
662.75	78.38
662.953	86.38
663.156	70.38
663.36	96.38
663.563	79.38
663.766	78.38
663.969	72.38
664.173	90.38
664.376	64.38
664.579	93.38
664.782	97.38
664.985	91.38
665.188	69.38
665.391	84.38
665.594	77.38
665.797	97.38
666	71.38
666.203	81.38
666.406	87.38
666.609	84.38
666.812	80.38
667.015	76.38
667.218	76.38
667.421	79.38
667.624	75.38
667.827	77.38
668.03	96.38
668.232	89.38
668.435	83.38
668.638	91.38
668.841	82.38
669.043	76.38
669.246	83.38
669.449	96.38
669.651	87.38
669.854	79.38
670.057	99.38
670.259	83.38
670.462	87.38
670.665	71.38
670.867	78.38
671.07	74.38
671.272	83.38
671.475	94.38
671.677	99.38
671.88	88.38
672.082	85.38
672.284	88.38
672.487	99.38
672.689	98.38
672.892	87.38
