Data from 1986.PennyLincolnUp.Lamp.En5.5.200Scan.071819.P2_HRD10591_17-11-33-973.txt Node
Date: Thu Jul 18 17:11:33 EDT 2019
User: cochatt
Spectrometer: HR+D1059
Trigger mode: 1
Integration Time (sec): 1.000000E-1
Scans to average: 1
Electric dark correction enabled: true
Nonlinearity correction enabled: false
Boxcar width: 0
XAxis mode: Wavelengths
Number of Pixels in Spectrum: 2048
>>>>>Begin Spectral Data<<<<<
223.165	-14.31
223.4	-14.31
223.635	-14.31
223.869	-11.31
224.104	-18.31
224.338	-15.31
224.573	-20.31
224.808	-0.31
225.042	-4.31
225.277	0.69
225.511	-2.31
225.746	11.69
225.98	-5.31
226.215	4.69
226.449	9.69
226.683	16.69
226.918	17.69
227.152	30.69
227.387	32.69
227.621	27.69
227.856	38.69
228.09	48.69
228.324	42.69
228.559	57.69
228.793	64.69
229.027	104.69
229.262	104.69
229.496	109.69
229.73	132.69
229.964	149.69
230.199	136.69
230.433	124.69
230.667	107.69
230.901	107.69
231.136	113.69
231.37	99.69
231.604	104.69
231.838	117.69
232.072	102.69
232.306	116.69
232.541	104.69
232.775	116.69
233.009	113.69
233.243	112.69
233.477	113.69
233.711	117.69
233.945	117.69
234.179	113.69
234.413	131.69
234.647	112.69
234.881	108.69
235.115	104.69
235.349	105.69
235.583	116.69
235.817	111.69
236.051	124.69
236.285	126.69
236.519	131.69
236.753	122.69
236.987	156.69
237.221	204.69
237.455	252.69
237.689	198.69
237.922	143.69
238.156	137.69
238.39	146.69
238.624	138.69
238.858	121.69
239.091	118.69
239.325	128.69
239.559	123.69
239.793	128.69
240.027	145.69
240.26	158.69
240.494	167.69
240.728	146.69
240.961	142.69
241.195	146.69
241.429	150.69
241.662	156.69
241.896	141.69
242.13	130.69
242.363	149.69
242.597	148.69
242.83	141.69
243.064	142.69
243.298	134.69
243.531	145.69
243.765	152.69
243.998	132.69
244.232	148.69
244.465	166.69
244.699	141.69
244.932	152.69
245.166	154.69
245.399	149.69
245.633	151.69
245.866	142.69
246.099	153.69
246.333	171.69
246.566	152.69
246.8	153.69
247.033	163.69
247.266	156.69
247.5	147.69
247.733	177.69
247.966	161.69
248.2	177.69
248.433	188.69
248.666	176.69
248.899	187.69
249.133	197.69
249.366	215.69
249.599	221.69
249.832	201.69
250.066	189.69
250.299	202.69
250.532	219.69
250.765	236.69
250.998	248.69
251.231	258.69
251.465	244.69
251.698	237.69
251.931	201.69
252.164	221.69
252.397	225.69
252.63	211.69
252.863	226.69
253.096	251.69
253.329	248.69
253.562	246.69
253.795	254.69
254.028	244.69
254.261	241.69
254.494	250.69
254.727	274.69
254.96	316.69
255.193	315.69
255.426	297.69
255.659	271.69
255.892	283.69
256.124	283.69
256.357	302.69
256.59	296.69
256.823	249.69
257.056	256.69
257.289	230.69
257.521	249.69
257.754	252.69
257.987	252.69
258.22	228.69
258.452	224.69
258.685	223.69
258.918	210.69
259.151	222.69
259.383	237.69
259.616	246.69
259.849	247.69
260.081	251.69
260.314	271.69
260.547	274.69
260.779	252.69
261.012	251.69
261.244	254.69
261.477	237.69
261.71	247.69
261.942	252.69
262.175	248.69
262.407	251.69
262.64	229.69
262.872	231.69
263.105	226.69
263.337	234.69
263.57	217.69
263.802	224.69
264.035	229.69
264.267	228.69
264.499	221.69
264.732	220.69
264.964	231.69
265.197	217.69
265.429	232.69
265.661	222.69
265.894	228.69
266.126	224.69
266.358	226.69
266.591	222.69
266.823	221.69
267.055	256.69
267.287	259.69
267.52	228.69
267.752	250.69
267.984	234.69
268.216	234.69
268.448	232.69
268.681	232.69
268.913	256.69
269.145	263.69
269.377	298.69
269.609	283.69
269.841	285.69
270.073	283.69
270.306	304.69
270.538	317.69
270.77	356.69
271.002	330.69
271.234	296.69
271.466	325.69
271.698	308.69
271.93	339.69
272.162	318.69
272.394	347.69
272.626	312.69
272.858	302.69
273.09	310.69
273.322	285.69
273.553	297.69
273.785	285.69
274.017	262.69
274.249	280.69
274.481	278.69
274.713	260.69
274.945	280.69
275.176	295.69
275.408	282.69
275.64	258.69
275.872	278.69
276.104	280.69
276.335	267.69
276.567	270.69
276.799	288.69
277.031	313.69
277.262	345.69
277.494	349.69
277.726	316.69
277.957	278.69
278.189	292.69
278.421	284.69
278.652	295.69
278.884	268.69
279.115	271.69
279.347	250.69
279.579	288.69
279.81	270.69
280.042	285.69
280.273	294.69
280.505	290.69
280.736	271.69
280.968	258.69
281.199	282.69
281.431	266.69
281.662	265.69
281.894	281.69
282.125	280.69
282.356	302.69
282.588	322.69
282.819	330.69
283.051	294.69
283.282	270.69
283.513	288.69
283.745	275.69
283.976	268.69
284.207	277.69
284.439	280.69
284.67	274.69
284.901	281.69
285.132	281.69
285.364	278.69
285.595	272.69
285.826	281.69
286.057	269.69
286.288	279.69
286.52	275.69
286.751	278.69
286.982	283.69
287.213	290.69
287.444	277.69
287.675	284.69
287.906	288.69
288.138	304.69
288.369	313.69
288.6	313.69
288.831	301.69
289.062	290.69
289.293	305.69
289.524	278.69
289.755	293.69
289.986	276.69
290.217	281.69
290.448	291.69
290.679	278.69
290.91	291.69
291.141	284.69
291.371	265.69
291.602	288.69
291.833	280.69
292.064	289.69
292.295	274.69
292.526	292.69
292.757	277.69
292.987	304.69
293.218	284.69
293.449	299.69
293.68	267.69
293.91	282.69
294.141	288.69
294.372	287.69
294.603	282.69
294.833	294.69
295.064	275.69
295.295	286.69
295.525	272.69
295.756	299.69
295.987	306.69
296.217	319.69
296.448	339.69
296.679	304.69
296.909	293.69
297.14	308.69
297.37	297.69
297.601	295.69
297.831	286.69
298.062	294.69
298.292	291.69
298.523	295.69
298.753	283.69
298.984	288.69
299.214	301.69
299.445	312.69
299.675	308.69
299.905	315.69
300.136	305.69
300.366	278.69
300.597	313.69
300.827	324.69
301.057	316.69
301.288	318.69
301.518	313.69
301.748	324.69
301.979	324.69
302.209	316.69
302.439	318.69
302.669	320.69
302.9	327.69
303.13	309.69
303.36	320.69
303.59	330.69
303.82	331.69
304.051	325.69
304.281	305.69
304.511	309.69
304.741	301.69
304.971	337.69
305.201	317.69
305.431	309.69
305.661	324.69
305.891	321.69
306.121	314.69
306.352	326.69
306.582	330.69
306.812	339.69
307.042	314.69
307.272	325.69
307.502	334.69
307.731	334.69
307.961	337.69
308.191	326.69
308.421	308.69
308.651	328.69
308.881	350.69
309.111	336.69
309.341	329.69
309.571	334.69
309.8	357.69
310.03	369.69
310.26	378.69
310.49	381.69
310.72	383.69
310.949	420.69
311.179	392.69
311.409	394.69
311.639	359.69
311.868	358.69
312.098	386.69
312.328	401.69
312.557	432.69
312.787	406.69
313.017	418.69
313.246	383.69
313.476	378.69
313.706	381.69
313.935	380.69
314.165	408.69
314.394	414.69
314.624	402.69
314.853	376.69
315.083	378.69
315.312	387.69
315.542	380.69
315.771	369.69
316.001	370.69
316.23	371.69
316.46	361.69
316.689	376.69
316.919	388.69
317.148	373.69
317.377	393.69
317.607	399.69
317.836	380.69
318.065	370.69
318.295	376.69
318.524	366.69
318.753	365.69
318.983	387.69
319.212	381.69
319.441	370.69
319.67	409.69
319.9	414.69
320.129	387.69
320.358	380.69
320.587	396.69
320.816	384.69
321.046	422.69
321.275	409.69
321.504	398.69
321.733	390.69
321.962	426.69
322.191	428.69
322.42	436.69
322.649	459.69
322.878	470.69
323.108	468.69
323.337	480.69
323.566	529.69
323.795	582.69
324.024	642.69
324.253	759.69
324.482	1101.69
324.71	1664.69
324.939	2420.69
325.168	2116.69
325.397	1133.69
325.626	748.69
325.855	629.69
326.084	550.69
326.313	560.69
326.542	547.69
326.77	597.69
326.999	738.69
327.228	992.69
327.457	1485.69
327.686	1854.69
327.914	1329.69
328.143	846.69
328.372	735.69
328.6	688.69
328.829	638.69
329.058	669.69
329.287	653.69
329.515	628.69
329.744	572.69
329.972	596.69
330.201	662.69
330.43	726.69
330.658	770.69
330.887	704.69
331.115	659.69
331.344	576.69
331.572	546.69
331.801	512.69
332.03	515.69
332.258	482.69
332.486	498.69
332.715	479.69
332.943	478.69
333.172	463.69
333.4	481.69
333.629	503.69
333.857	510.69
334.085	553.69
334.314	612.69
334.542	716.69
334.771	745.69
334.999	601.69
335.227	545.69
335.455	505.69
335.684	493.69
335.912	456.69
336.14	420.69
336.369	427.69
336.597	447.69
336.825	450.69
337.053	442.69
337.281	429.69
337.51	430.69
337.738	437.69
337.966	446.69
338.194	418.69
338.422	433.69
338.65	417.69
338.878	416.69
339.106	414.69
339.334	426.69
339.562	411.69
339.79	418.69
340.018	410.69
340.246	416.69
340.474	424.69
340.702	443.69
340.93	425.69
341.158	407.69
341.386	430.69
341.614	410.69
341.842	421.69
342.07	404.69
342.298	416.69
342.526	414.69
342.754	399.69
342.981	394.69
343.209	384.69
343.437	393.69
343.665	424.69
343.893	421.69
344.12	405.69
344.348	419.69
344.576	422.69
344.804	406.69
345.031	431.69
345.259	430.69
345.487	442.69
345.714	432.69
345.942	415.69
346.17	402.69
346.397	396.69
346.625	405.69
346.853	410.69
347.08	400.69
347.308	418.69
347.535	425.69
347.763	422.69
347.99	421.69
348.218	403.69
348.445	420.69
348.673	420.69
348.9	414.69
349.128	408.69
349.355	373.69
349.583	405.69
349.81	392.69
350.037	382.69
350.265	407.69
350.492	395.69
350.72	384.69
350.947	395.69
351.174	418.69
351.402	426.69
351.629	415.69
351.856	407.69
352.083	421.69
352.311	419.69
352.538	410.69
352.765	443.69
352.992	425.69
353.22	413.69
353.447	405.69
353.674	387.69
353.901	387.69
354.128	390.69
354.355	374.69
354.583	385.69
354.81	373.69
355.037	365.69
355.264	375.69
355.491	360.69
355.718	347.69
355.945	370.69
356.172	374.69
356.399	377.69
356.626	389.69
356.853	355.69
357.08	364.69
357.307	368.69
357.534	382.69
357.761	355.69
357.988	368.69
358.215	358.69
358.441	372.69
358.668	394.69
358.895	382.69
359.122	374.69
359.349	399.69
359.576	406.69
359.802	415.69
360.029	462.69
360.256	452.69
360.483	447.69
360.709	417.69
360.936	393.69
361.163	403.69
361.39	415.69
361.616	414.69
361.843	413.69
362.07	385.69
362.296	396.69
362.523	400.69
362.749	373.69
362.976	374.69
363.203	404.69
363.429	384.69
363.656	377.69
363.882	375.69
364.109	389.69
364.335	365.69
364.562	364.69
364.788	379.69
365.015	365.69
365.241	374.69
365.468	384.69
365.694	393.69
365.92	397.69
366.147	375.69
366.373	373.69
366.599	387.69
366.826	351.69
367.052	388.69
367.278	370.69
367.505	393.69
367.731	389.69
367.957	387.69
368.184	371.69
368.41	390.69
368.636	385.69
368.862	421.69
369.089	384.69
369.315	376.69
369.541	355.69
369.767	376.69
369.993	360.69
370.219	376.69
370.445	382.69
370.672	354.69
370.898	356.69
371.124	360.69
371.35	371.69
371.576	363.69
371.802	366.69
372.028	364.69
372.254	357.69
372.48	374.69
372.706	361.69
372.932	352.69
373.158	370.69
373.384	372.69
373.61	360.69
373.835	368.69
374.061	382.69
374.287	347.69
374.513	377.69
374.739	357.69
374.965	359.69
375.191	380.69
375.416	368.69
375.642	374.69
375.868	378.69
376.094	366.69
376.319	388.69
376.545	359.69
376.771	352.69
376.997	370.69
377.222	372.69
377.448	370.69
377.674	346.69
377.899	349.69
378.125	366.69
378.35	352.69
378.576	356.69
378.802	365.69
379.027	382.69
379.253	345.69
379.478	368.69
379.704	359.69
379.929	352.69
380.155	352.69
380.38	360.69
380.606	357.69
380.831	356.69
381.057	369.69
381.282	360.69
381.507	378.69
381.733	376.69
381.958	361.69
382.184	352.69
382.409	357.69
382.634	395.69
382.86	370.69
383.085	362.69
383.31	388.69
383.535	377.69
383.761	370.69
383.986	345.69
384.211	373.69
384.436	386.69
384.662	384.69
384.887	361.69
385.112	362.69
385.337	389.69
385.562	380.69
385.787	370.69
386.013	393.69
386.238	398.69
386.463	405.69
386.688	397.69
386.913	379.69
387.138	386.69
387.363	373.69
387.588	382.69
387.813	395.69
388.038	358.69
388.263	386.69
388.488	382.69
388.713	375.69
388.938	365.69
389.163	378.69
389.387	389.69
389.612	362.69
389.837	372.69
390.062	379.69
390.287	376.69
390.512	376.69
390.736	349.69
390.961	381.69
391.186	383.69
391.411	363.69
391.636	404.69
391.86	413.69
392.085	361.69
392.31	388.69
392.534	380.69
392.759	403.69
392.984	386.69
393.208	384.69
393.433	360.69
393.658	374.69
393.882	386.69
394.107	379.69
394.331	377.69
394.556	377.69
394.78	377.69
395.005	400.69
395.229	388.69
395.454	386.69
395.678	378.69
395.903	396.69
396.127	407.69
396.352	408.69
396.576	400.69
396.801	402.69
397.025	392.69
397.249	386.69
397.474	398.69
397.698	385.69
397.922	404.69
398.147	409.69
398.371	421.69
398.595	425.69
398.82	405.69
399.044	402.69
399.268	439.69
399.492	451.69
399.717	472.69
399.941	485.69
400.165	501.69
400.389	520.69
400.613	500.69
400.837	476.69
401.062	416.69
401.286	453.69
401.51	451.69
401.734	432.69
401.958	439.69
402.182	452.69
402.406	452.69
402.63	452.69
402.854	446.69
403.078	445.69
403.302	430.69
403.526	451.69
403.75	449.69
403.974	433.69
404.198	444.69
404.422	467.69
404.645	459.69
404.869	488.69
405.093	527.69
405.317	574.69
405.541	596.69
405.765	540.69
405.988	519.69
406.212	514.69
406.436	520.69
406.66	517.69
406.883	513.69
407.107	513.69
407.331	536.69
407.555	580.69
407.778	619.69
408.002	569.69
408.226	504.69
408.449	474.69
408.673	496.69
408.896	534.69
409.12	568.69
409.344	544.69
409.567	475.69
409.791	469.69
410.014	478.69
410.238	447.69
410.461	460.69
410.685	447.69
410.908	482.69
411.132	508.69
411.355	528.69
411.578	525.69
411.802	475.69
412.025	465.69
412.249	478.69
412.472	532.69
412.695	586.69
412.919	580.69
413.142	547.69
413.365	489.69
413.589	485.69
413.812	445.69
414.035	448.69
414.258	458.69
414.482	445.69
414.705	442.69
414.928	432.69
415.151	401.69
415.374	420.69
415.597	424.69
415.821	423.69
416.044	424.69
416.267	449.69
416.49	418.69
416.713	414.69
416.936	429.69
417.159	449.69
417.382	434.69
417.605	435.69
417.828	459.69
418.051	477.69
418.274	454.69
418.497	445.69
418.72	428.69
418.943	422.69
419.166	446.69
419.389	459.69
419.611	470.69
419.834	446.69
420.057	468.69
420.28	478.69
420.503	481.69
420.726	492.69
420.948	473.69
421.171	533.69
421.394	553.69
421.617	478.69
421.839	454.69
422.062	465.69
422.285	484.69
422.507	549.69
422.73	624.69
422.953	592.69
423.175	516.69
423.398	486.69
423.621	488.69
423.843	486.69
424.066	502.69
424.288	471.69
424.511	518.69
424.733	555.69
424.956	642.69
425.178	625.69
425.401	614.69
425.623	640.69
425.846	545.69
426.068	512.69
426.291	497.69
426.513	512.69
426.735	514.69
426.958	558.69
427.18	629.69
427.402	731.69
427.625	857.69
427.847	765.69
428.069	680.69
428.292	620.69
428.514	547.69
428.736	508.69
428.958	492.69
429.181	460.69
429.403	482.69
429.625	471.69
429.847	514.69
430.069	571.69
430.292	581.69
430.514	509.69
430.736	460.69
430.958	477.69
431.18	463.69
431.402	444.69
431.624	442.69
431.846	411.69
432.068	436.69
432.29	425.69
432.512	440.69
432.734	434.69
432.956	429.69
433.178	454.69
433.4	457.69
433.622	426.69
433.844	434.69
434.066	443.69
434.287	436.69
434.509	424.69
434.731	436.69
434.953	449.69
435.175	468.69
435.397	481.69
435.618	507.69
435.84	536.69
436.062	637.69
436.284	685.69
436.505	594.69
436.727	543.69
436.949	490.69
437.17	460.69
437.392	480.69
437.614	467.69
437.835	516.69
438.057	609.69
438.278	728.69
438.5	714.69
438.721	741.69
438.943	755.69
439.165	604.69
439.386	551.69
439.608	553.69
439.829	537.69
440.05	555.69
440.272	600.69
440.493	569.69
440.715	513.69
440.936	493.69
441.158	464.69
441.379	476.69
441.6	498.69
441.822	516.69
442.043	543.69
442.264	645.69
442.486	684.69
442.707	587.69
442.928	518.69
443.149	526.69
443.371	562.69
443.592	589.69
443.813	692.69
444.034	711.69
444.255	608.69
444.476	532.69
444.698	514.69
444.919	513.69
445.14	604.69
445.361	560.69
445.582	561.69
445.803	618.69
446.024	710.69
446.245	739.69
446.466	647.69
446.687	570.69
446.908	519.69
447.129	472.69
447.35	470.69
447.571	487.69
447.792	477.69
448.013	493.69
448.234	508.69
448.455	547.69
448.675	658.69
448.896	768.69
449.117	652.69
449.338	630.69
449.559	710.69
449.779	797.69
450	640.69
450.221	537.69
450.442	487.69
450.662	473.69
450.883	459.69
451.104	510.69
451.324	471.69
451.545	452.69
451.766	448.69
451.986	447.69
452.207	405.69
452.428	424.69
452.648	420.69
452.869	414.69
453.089	427.69
453.31	448.69
453.53	437.69
453.751	423.69
453.971	419.69
454.192	482.69
454.412	457.69
454.633	438.69
454.853	412.69
455.073	427.69
455.294	480.69
455.514	519.69
455.734	518.69
455.955	424.69
456.175	404.69
456.395	384.69
456.616	388.69
456.836	388.69
457.056	395.69
457.276	373.69
457.497	384.69
457.717	398.69
457.937	414.69
458.157	402.69
458.377	390.69
458.598	435.69
458.818	494.69
459.038	578.69
459.258	563.69
459.478	488.69
459.698	444.69
459.918	415.69
460.138	425.69
460.358	434.69
460.578	426.69
460.798	444.69
461.018	449.69
461.238	449.69
461.458	425.69
461.678	416.69
461.898	424.69
462.118	413.69
462.338	434.69
462.558	416.69
462.777	433.69
462.997	429.69
463.217	436.69
463.437	458.69
463.657	437.69
463.876	435.69
464.096	432.69
464.316	433.69
464.536	466.69
464.755	474.69
464.975	461.69
465.195	508.69
465.414	617.69
465.634	524.69
465.854	487.69
466.073	459.69
466.293	434.69
466.512	419.69
466.732	429.69
466.951	420.69
467.171	421.69
467.391	451.69
467.61	428.69
467.829	445.69
468.049	442.69
468.268	454.69
468.488	437.69
468.707	432.69
468.927	428.69
469.146	418.69
469.365	409.69
469.585	416.69
469.804	435.69
470.023	428.69
470.243	440.69
470.462	443.69
470.681	453.69
470.901	452.69
471.12	440.69
471.339	439.69
471.558	440.69
471.777	427.69
471.997	426.69
472.216	468.69
472.435	587.69
472.654	541.69
472.873	486.69
473.092	456.69
473.311	450.69
473.53	450.69
473.749	456.69
473.968	482.69
474.187	605.69
474.406	644.69
474.625	504.69
474.844	461.69
475.063	439.69
475.282	421.69
475.501	442.69
475.72	452.69
475.939	457.69
476.158	459.69
476.377	440.69
476.596	444.69
476.814	463.69
477.033	462.69
477.252	452.69
477.471	455.69
477.69	461.69
477.908	476.69
478.127	464.69
478.346	476.69
478.564	463.69
478.783	452.69
479.002	479.69
479.22	489.69
479.439	484.69
479.658	520.69
479.876	508.69
480.095	553.69
480.313	592.69
480.532	545.69
480.751	532.69
480.969	567.69
481.188	738.69
481.406	844.69
481.624	692.69
481.843	594.69
482.061	592.69
482.28	568.69
482.498	542.69
482.717	536.69
482.935	526.69
483.153	508.69
483.372	513.69
483.59	515.69
483.808	514.69
484.027	522.69
484.245	499.69
484.463	540.69
484.681	522.69
484.9	533.69
485.118	544.69
485.336	516.69
485.554	534.69
485.772	519.69
485.99	539.69
486.209	523.69
486.427	522.69
486.645	545.69
486.863	588.69
487.081	587.69
487.299	570.69
487.517	556.69
487.735	542.69
487.953	568.69
488.171	569.69
488.389	544.69
488.607	556.69
488.825	560.69
489.043	588.69
489.261	600.69
489.479	575.69
489.696	596.69
489.914	582.69
490.132	586.69
490.35	597.69
490.568	624.69
490.786	606.69
491.003	598.69
491.221	648.69
491.439	645.69
491.657	653.69
491.874	684.69
492.092	689.69
492.31	683.69
492.527	660.69
492.745	671.69
492.963	698.69
493.18	692.69
493.398	709.69
493.615	724.69
493.833	711.69
494.05	692.69
494.268	707.69
494.485	686.69
494.703	665.69
494.92	708.69
495.138	687.69
495.355	688.69
495.573	681.69
495.79	672.69
496.008	677.69
496.225	672.69
496.442	704.69
496.66	673.69
496.877	665.69
497.094	673.69
497.312	678.69
497.529	697.69
497.746	696.69
497.963	695.69
498.181	717.69
498.398	725.69
498.615	697.69
498.832	737.69
499.049	718.69
499.267	701.69
499.484	753.69
499.701	757.69
499.918	765.69
500.135	806.69
500.352	796.69
500.569	814.69
500.786	855.69
501.003	825.69
501.22	791.69
501.437	811.69
501.654	774.69
501.871	796.69
502.088	770.69
502.305	740.69
502.522	716.69
502.739	713.69
502.956	675.69
503.172	698.69
503.389	692.69
503.606	707.69
503.823	710.69
504.04	677.69
504.256	664.69
504.473	660.69
504.69	635.69
504.907	655.69
505.123	652.69
505.34	669.69
505.557	652.69
505.773	664.69
505.99	661.69
506.207	655.69
506.423	646.69
506.64	628.69
506.856	626.69
507.073	627.69
507.289	636.69
507.506	642.69
507.722	661.69
507.939	685.69
508.155	627.69
508.372	610.69
508.588	604.69
508.805	629.69
509.021	638.69
509.238	633.69
509.454	658.69
509.67	646.69
509.887	649.69
510.103	632.69
510.319	648.69
510.536	717.69
510.752	1246.69
510.968	1072.69
511.184	672.69
511.401	628.69
511.617	605.69
511.833	610.69
512.049	613.69
512.265	611.69
512.481	596.69
512.698	619.69
512.914	588.69
513.13	588.69
513.346	583.69
513.562	615.69
513.778	615.69
513.994	600.69
514.21	627.69
514.426	663.69
514.642	689.69
514.858	718.69
515.074	779.69
515.29	927.69
515.506	1416.69
515.721	1131.69
515.937	745.69
516.153	693.69
516.369	658.69
516.585	622.69
516.801	589.69
517.016	619.69
517.232	602.69
517.448	603.69
517.664	584.69
517.879	596.69
518.095	579.69
518.311	611.69
518.527	587.69
518.742	579.69
518.958	573.69
519.173	589.69
519.389	582.69
519.605	583.69
519.82	614.69
520.036	589.69
520.251	634.69
520.467	666.69
520.682	655.69
520.898	683.69
521.113	691.69
521.329	745.69
521.544	838.69
521.76	1124.69
521.975	1921.69
522.19	1853.69
522.406	1001.69
522.621	754.69
522.836	644.69
523.052	619.69
523.267	586.69
523.482	552.69
523.698	540.69
523.913	576.69
524.128	547.69
524.343	536.69
524.559	514.69
524.774	490.69
524.989	513.69
525.204	526.69
525.419	520.69
525.634	514.69
525.849	498.69
526.064	488.69
526.28	483.69
526.495	473.69
526.71	502.69
526.925	488.69
527.14	482.69
527.355	476.69
527.57	497.69
527.785	460.69
527.999	501.69
528.214	479.69
528.429	472.69
528.644	489.69
528.859	466.69
529.074	462.69
529.289	517.69
529.503	583.69
529.718	569.69
529.933	512.69
530.148	487.69
530.363	488.69
530.577	488.69
530.792	483.69
531.007	450.69
531.221	456.69
531.436	462.69
531.651	478.69
531.865	477.69
532.08	436.69
532.295	451.69
532.509	436.69
532.724	447.69
532.938	442.69
533.153	416.69
533.367	428.69
533.582	471.69
533.796	440.69
534.011	443.69
534.225	442.69
534.44	424.69
534.654	426.69
534.868	445.69
535.083	452.69
535.297	416.69
535.511	454.69
535.726	460.69
535.94	474.69
536.154	455.69
536.369	438.69
536.583	452.69
536.797	432.69
537.011	416.69
537.225	429.69
537.44	439.69
537.654	443.69
537.868	422.69
538.082	423.69
538.296	444.69
538.51	416.69
538.724	444.69
538.938	464.69
539.153	425.69
539.367	470.69
539.581	436.69
539.795	420.69
540.009	447.69
540.222	434.69
540.436	434.69
540.65	426.69
540.864	449.69
541.078	444.69
541.292	442.69
541.506	428.69
541.72	428.69
541.934	441.69
542.147	442.69
542.361	418.69
542.575	410.69
542.789	398.69
543.002	421.69
543.216	413.69
543.43	445.69
543.644	427.69
543.857	446.69
544.071	413.69
544.285	429.69
544.498	411.69
544.712	408.69
544.925	412.69
545.139	424.69
545.352	415.69
545.566	407.69
545.779	412.69
545.993	402.69
546.206	396.69
546.42	403.69
546.633	410.69
546.847	408.69
547.06	404.69
547.274	406.69
547.487	403.69
547.7	399.69
547.914	425.69
548.127	373.69
548.34	403.69
548.554	405.69
548.767	391.69
548.98	393.69
549.193	403.69
549.407	392.69
549.62	402.69
549.833	397.69
550.046	382.69
550.259	393.69
550.473	417.69
550.686	397.69
550.899	385.69
551.112	380.69
551.325	382.69
551.538	390.69
551.751	362.69
551.964	376.69
552.177	396.69
552.39	385.69
552.603	383.69
552.816	400.69
553.029	396.69
553.242	386.69
553.455	427.69
553.667	399.69
553.88	411.69
554.093	405.69
554.306	395.69
554.519	372.69
554.732	398.69
554.944	388.69
555.157	386.69
555.37	403.69
555.583	384.69
555.795	377.69
556.008	380.69
556.221	346.69
556.433	363.69
556.646	363.69
556.859	358.69
557.071	363.69
557.284	354.69
557.496	362.69
557.709	355.69
557.921	365.69
558.134	358.69
558.346	360.69
558.559	368.69
558.771	357.69
558.984	346.69
559.196	359.69
559.409	356.69
559.621	344.69
559.833	349.69
560.046	339.69
560.258	346.69
560.47	346.69
560.683	349.69
560.895	345.69
561.107	346.69
561.32	331.69
561.532	344.69
561.744	344.69
561.956	348.69
562.168	342.69
562.381	366.69
562.593	344.69
562.805	347.69
563.017	360.69
563.229	357.69
563.441	361.69
563.653	340.69
563.865	341.69
564.077	354.69
564.289	361.69
564.501	354.69
564.713	349.69
564.925	380.69
565.137	373.69
565.349	389.69
565.561	364.69
565.773	377.69
565.985	359.69
566.197	368.69
566.408	372.69
566.62	397.69
566.832	382.69
567.044	405.69
567.255	376.69
567.467	396.69
567.679	398.69
567.891	411.69
568.102	416.69
568.314	406.69
568.526	392.69
568.737	384.69
568.949	369.69
569.161	349.69
569.372	344.69
569.584	346.69
569.795	373.69
570.007	360.69
570.218	398.69
570.43	378.69
570.641	351.69
570.853	354.69
571.064	353.69
571.276	299.69
571.487	336.69
571.698	328.69
571.91	315.69
572.121	336.69
572.333	333.69
572.544	319.69
572.755	324.69
572.966	332.69
573.178	309.69
573.389	325.69
573.6	302.69
573.811	323.69
574.023	306.69
574.234	299.69
574.445	308.69
574.656	322.69
574.867	287.69
575.078	291.69
575.289	294.69
575.501	294.69
575.712	300.69
575.923	311.69
576.134	320.69
576.345	306.69
576.556	314.69
576.767	303.69
576.978	300.69
577.188	322.69
577.399	309.69
577.61	302.69
577.821	305.69
578.032	297.69
578.243	348.69
578.454	614.69
578.665	419.69
578.875	314.69
579.086	310.69
579.297	304.69
579.508	295.69
579.718	304.69
579.929	290.69
580.14	284.69
580.35	291.69
580.561	282.69
580.772	292.69
580.982	261.69
581.193	284.69
581.403	298.69
581.614	292.69
581.825	277.69
582.035	286.69
582.246	276.69
582.456	299.69
582.667	290.69
582.877	276.69
583.087	270.69
583.298	260.69
583.508	286.69
583.719	297.69
583.929	282.69
584.139	307.69
584.35	282.69
584.56	281.69
584.77	274.69
584.981	297.69
585.191	289.69
585.401	269.69
585.611	264.69
585.821	258.69
586.032	276.69
586.242	266.69
586.452	257.69
586.662	262.69
586.872	258.69
587.082	264.69
587.292	268.69
587.502	262.69
587.713	266.69
587.923	290.69
588.133	261.69
588.343	256.69
588.553	260.69
588.762	278.69
588.972	283.69
589.182	277.69
589.392	286.69
589.602	285.69
589.812	286.69
590.022	268.69
590.232	271.69
590.441	280.69
590.651	273.69
590.861	276.69
591.071	261.69
591.281	261.69
591.49	270.69
591.7	260.69
591.91	270.69
592.119	262.69
592.329	268.69
592.539	284.69
592.748	276.69
592.958	295.69
593.167	248.69
593.377	277.69
593.587	289.69
593.796	268.69
594.006	262.69
594.215	268.69
594.424	269.69
594.634	262.69
594.843	281.69
595.053	271.69
595.262	261.69
595.472	254.69
595.681	251.69
595.89	270.69
596.1	246.69
596.309	271.69
596.518	249.69
596.727	255.69
596.937	272.69
597.146	269.69
597.355	252.69
597.564	261.69
597.774	249.69
597.983	233.69
598.192	242.69
598.401	244.69
598.61	251.69
598.819	234.69
599.028	226.69
599.237	247.69
599.446	241.69
599.655	245.69
599.864	259.69
600.073	236.69
600.282	231.69
600.491	226.69
600.7	243.69
600.909	224.69
601.118	232.69
601.327	225.69
601.536	242.69
601.745	242.69
601.953	217.69
602.162	254.69
602.371	219.69
602.58	237.69
602.789	229.69
602.997	232.69
603.206	244.69
603.415	226.69
603.623	221.69
603.832	229.69
604.041	229.69
604.249	227.69
604.458	214.69
604.666	226.69
604.875	222.69
605.084	228.69
605.292	236.69
605.501	222.69
605.709	256.69
605.918	239.69
606.126	236.69
606.334	226.69
606.543	237.69
606.751	215.69
606.96	228.69
607.168	218.69
607.376	240.69
607.585	231.69
607.793	226.69
608.001	228.69
608.21	231.69
608.418	233.69
608.626	234.69
608.834	228.69
609.043	225.69
609.251	211.69
609.459	225.69
609.667	236.69
609.875	218.69
610.083	218.69
610.291	211.69
610.499	215.69
610.707	226.69
610.916	215.69
611.124	214.69
611.332	204.69
611.54	220.69
611.748	227.69
611.955	212.69
612.163	211.69
612.371	242.69
612.579	238.69
612.787	221.69
612.995	236.69
613.203	228.69
613.411	232.69
613.618	220.69
613.826	216.69
614.034	224.69
614.242	220.69
614.449	224.69
614.657	216.69
614.865	216.69
615.072	203.69
615.28	208.69
615.488	224.69
615.695	214.69
615.903	206.69
616.111	219.69
616.318	218.69
616.526	213.69
616.733	226.69
616.941	212.69
617.148	209.69
617.356	225.69
617.563	219.69
617.771	225.69
617.978	210.69
618.185	216.69
618.393	203.69
618.6	224.69
618.807	205.69
619.015	221.69
619.222	219.69
619.429	216.69
619.637	208.69
619.844	225.69
620.051	213.69
620.258	220.69
620.466	210.69
620.673	218.69
620.88	201.69
621.087	209.69
621.294	193.69
621.501	203.69
621.708	198.69
621.915	197.69
622.122	205.69
622.329	196.69
622.536	206.69
622.743	213.69
622.95	193.69
623.157	201.69
623.364	199.69
623.571	192.69
623.778	207.69
623.985	190.69
624.192	203.69
624.399	204.69
624.606	205.69
624.812	202.69
625.019	199.69
625.226	200.69
625.433	213.69
625.639	188.69
625.846	205.69
626.053	199.69
626.259	184.69
626.466	178.69
626.673	201.69
626.879	189.69
627.086	202.69
627.293	189.69
627.499	212.69
627.706	178.69
627.912	200.69
628.119	190.69
628.325	190.69
628.532	184.69
628.738	195.69
628.945	179.69
629.151	191.69
629.357	194.69
629.564	187.69
629.77	177.69
629.976	188.69
630.183	184.69
630.389	185.69
630.595	194.69
630.802	188.69
631.008	180.69
631.214	174.69
631.42	187.69
631.627	186.69
631.833	181.69
632.039	187.69
632.245	179.69
632.451	173.69
632.657	188.69
632.863	171.69
633.069	189.69
633.275	176.69
633.481	178.69
633.688	191.69
633.893	178.69
634.099	198.69
634.305	173.69
634.511	182.69
634.717	171.69
634.923	152.69
635.129	181.69
635.335	184.69
635.541	176.69
635.747	174.69
635.952	172.69
636.158	183.69
636.364	196.69
636.57	185.69
636.775	190.69
636.981	180.69
637.187	170.69
637.392	161.69
637.598	166.69
637.804	181.69
638.009	164.69
638.215	164.69
638.421	167.69
638.626	169.69
638.832	171.69
639.037	166.69
639.243	171.69
639.448	151.69
639.654	157.69
639.859	174.69
640.065	154.69
640.27	164.69
640.475	155.69
640.681	176.69
640.886	160.69
641.091	158.69
641.297	165.69
641.502	162.69
641.707	182.69
641.913	176.69
642.118	163.69
642.323	150.69
642.528	146.69
642.733	168.69
642.939	146.69
643.144	156.69
643.349	146.69
643.554	179.69
643.759	154.69
643.964	151.69
644.169	171.69
644.374	136.69
644.579	165.69
644.784	150.69
644.989	157.69
645.194	152.69
645.399	154.69
645.604	146.69
645.809	149.69
646.014	156.69
646.219	158.69
646.423	133.69
646.628	130.69
646.833	160.69
647.038	152.69
647.243	149.69
647.447	150.69
647.652	156.69
647.857	154.69
648.062	132.69
648.266	156.69
648.471	171.69
648.676	160.69
648.88	164.69
649.085	169.69
649.289	158.69
649.494	165.69
649.698	165.69
649.903	165.69
650.107	152.69
650.312	134.69
650.516	148.69
650.721	151.69
650.925	146.69
651.13	150.69
651.334	132.69
651.539	134.69
651.743	155.69
651.947	142.69
652.152	144.69
652.356	135.69
652.56	139.69
652.764	132.69
652.969	134.69
653.173	131.69
653.377	131.69
653.581	125.69
653.785	141.69
653.99	125.69
654.194	122.69
654.398	128.69
654.602	126.69
654.806	136.69
655.01	142.69
655.214	139.69
655.418	129.69
655.622	124.69
655.826	124.69
656.03	113.69
656.234	125.69
656.438	118.69
656.642	119.69
656.846	140.69
657.049	119.69
657.253	118.69
657.457	105.69
657.661	105.69
657.865	121.69
658.068	118.69
658.272	109.69
658.476	104.69
658.68	112.69
658.883	99.69
659.087	109.69
659.291	102.69
659.494	93.69
659.698	90.69
659.901	88.69
660.105	100.69
660.309	89.69
660.512	77.69
660.716	76.69
660.919	90.69
661.123	96.69
661.326	87.69
661.53	96.69
661.733	91.69
661.936	95.69
662.14	88.69
662.343	97.69
662.546	83.69
662.75	85.69
662.953	86.69
663.156	82.69
663.36	80.69
663.563	84.69
663.766	88.69
663.969	77.69
664.173	78.69
664.376	82.69
664.579	86.69
664.782	79.69
664.985	74.69
665.188	82.69
665.391	82.69
665.594	84.69
665.797	83.69
666	81.69
666.203	83.69
666.406	93.69
666.609	64.69
666.812	78.69
667.015	86.69
667.218	80.69
667.421	95.69
667.624	75.69
667.827	76.69
668.03	70.69
668.232	71.69
668.435	84.69
668.638	85.69
668.841	76.69
669.043	75.69
669.246	85.69
669.449	83.69
669.651	88.69
669.854	76.69
670.057	73.69
670.259	85.69
670.462	90.69
670.665	76.69
670.867	83.69
671.07	77.69
671.272	79.69
671.475	85.69
671.677	74.69
671.88	81.69
672.082	82.69
672.284	81.69
672.487	79.69
672.689	82.69
672.892	74.69
