Data from 1986.PennyLincolnUp.Lamp.En5.5.200Scan.071819.P2_HRD10591_17-12-24-972.txt Node
Date: Thu Jul 18 17:12:24 EDT 2019
User: cochatt
Spectrometer: HR+D1059
Trigger mode: 1
Integration Time (sec): 1.000000E-1
Scans to average: 1
Electric dark correction enabled: true
Nonlinearity correction enabled: false
Boxcar width: 0
XAxis mode: Wavelengths
Number of Pixels in Spectrum: 2048
>>>>>Begin Spectral Data<<<<<
223.165	-10.31
223.4	-10.31
223.635	-10.31
223.869	-17.31
224.104	-26.31
224.338	-2.31
224.573	-11.31
224.808	-16.31
225.042	-13.31
225.277	-8.31
225.511	0.69
225.746	6.69
225.98	-2.31
226.215	9.69
226.449	12.69
226.683	24.69
226.918	20.69
227.152	32.69
227.387	55.69
227.621	38.69
227.856	50.69
228.09	66.69
228.324	56.69
228.559	51.69
228.793	66.69
229.027	102.69
229.262	78.69
229.496	125.69
229.73	138.69
229.964	166.69
230.199	124.69
230.433	118.69
230.667	118.69
230.901	126.69
231.136	117.69
231.37	132.69
231.604	110.69
231.838	112.69
232.072	121.69
232.306	106.69
232.541	103.69
232.775	124.69
233.009	123.69
233.243	122.69
233.477	123.69
233.711	127.69
233.945	115.69
234.179	107.69
234.413	119.69
234.647	126.69
234.881	120.69
235.115	116.69
235.349	119.69
235.583	122.69
235.817	124.69
236.051	116.69
236.285	115.69
236.519	126.69
236.753	140.69
236.987	149.69
237.221	206.69
237.455	254.69
237.689	188.69
237.922	141.69
238.156	142.69
238.39	125.69
238.624	138.69
238.858	122.69
239.091	139.69
239.325	124.69
239.559	144.69
239.793	130.69
240.027	136.69
240.26	164.69
240.494	177.69
240.728	162.69
240.961	153.69
241.195	166.69
241.429	151.69
241.662	138.69
241.896	129.69
242.13	153.69
242.363	154.69
242.597	142.69
242.83	154.69
243.064	147.69
243.298	148.69
243.531	152.69
243.765	145.69
243.998	151.69
244.232	145.69
244.465	143.69
244.699	171.69
244.932	165.69
245.166	158.69
245.399	146.69
245.633	156.69
245.866	136.69
246.099	162.69
246.333	148.69
246.566	162.69
246.8	166.69
247.033	158.69
247.266	166.69
247.5	181.69
247.733	179.69
247.966	195.69
248.2	191.69
248.433	181.69
248.666	204.69
248.899	202.69
249.133	212.69
249.366	219.69
249.599	217.69
249.832	200.69
250.066	208.69
250.299	207.69
250.532	254.69
250.765	269.69
250.998	286.69
251.231	273.69
251.465	258.69
251.698	241.69
251.931	221.69
252.164	220.69
252.397	226.69
252.63	237.69
252.863	234.69
253.096	246.69
253.329	261.69
253.562	262.69
253.795	235.69
254.028	246.69
254.261	246.69
254.494	253.69
254.727	270.69
254.96	323.69
255.193	297.69
255.426	282.69
255.659	276.69
255.892	301.69
256.124	331.69
256.357	368.69
256.59	344.69
256.823	312.69
257.056	291.69
257.289	276.69
257.521	262.69
257.754	277.69
257.987	248.69
258.22	248.69
258.452	238.69
258.685	240.69
258.918	255.69
259.151	236.69
259.383	242.69
259.616	254.69
259.849	257.69
260.081	279.69
260.314	257.69
260.547	277.69
260.779	266.69
261.012	276.69
261.244	247.69
261.477	252.69
261.71	262.69
261.942	252.69
262.175	245.69
262.407	250.69
262.64	234.69
262.872	228.69
263.105	206.69
263.337	244.69
263.57	232.69
263.802	238.69
264.035	231.69
264.267	217.69
264.499	231.69
264.732	231.69
264.964	205.69
265.197	200.69
265.429	207.69
265.661	223.69
265.894	229.69
266.126	238.69
266.358	228.69
266.591	243.69
266.823	213.69
267.055	231.69
267.287	264.69
267.52	226.69
267.752	242.69
267.984	239.69
268.216	238.69
268.448	240.69
268.681	261.69
268.913	245.69
269.145	279.69
269.377	309.69
269.609	300.69
269.841	285.69
270.073	299.69
270.306	317.69
270.538	337.69
270.77	348.69
271.002	337.69
271.234	324.69
271.466	333.69
271.698	338.69
271.93	335.69
272.162	331.69
272.394	342.69
272.626	306.69
272.858	310.69
273.09	303.69
273.322	306.69
273.553	280.69
273.785	294.69
274.017	278.69
274.249	292.69
274.481	280.69
274.713	281.69
274.945	309.69
275.176	289.69
275.408	296.69
275.64	292.69
275.872	287.69
276.104	301.69
276.335	288.69
276.567	288.69
276.799	303.69
277.031	336.69
277.262	342.69
277.494	349.69
277.726	324.69
277.957	323.69
278.189	310.69
278.421	283.69
278.652	290.69
278.884	277.69
279.115	272.69
279.347	286.69
279.579	294.69
279.81	281.69
280.042	279.69
280.273	300.69
280.505	296.69
280.736	310.69
280.968	287.69
281.199	291.69
281.431	279.69
281.662	269.69
281.894	287.69
282.125	287.69
282.356	284.69
282.588	333.69
282.819	326.69
283.051	304.69
283.282	277.69
283.513	284.69
283.745	290.69
283.976	309.69
284.207	290.69
284.439	304.69
284.67	285.69
284.901	297.69
285.132	286.69
285.364	286.69
285.595	294.69
285.826	297.69
286.057	272.69
286.288	286.69
286.52	278.69
286.751	295.69
286.982	297.69
287.213	284.69
287.444	282.69
287.675	291.69
287.906	296.69
288.138	330.69
288.369	309.69
288.6	319.69
288.831	309.69
289.062	307.69
289.293	304.69
289.524	303.69
289.755	297.69
289.986	293.69
290.217	294.69
290.448	302.69
290.679	291.69
290.91	302.69
291.141	286.69
291.371	295.69
291.602	310.69
291.833	279.69
292.064	273.69
292.295	291.69
292.526	302.69
292.757	285.69
292.987	297.69
293.218	282.69
293.449	280.69
293.68	286.69
293.91	278.69
294.141	300.69
294.372	281.69
294.603	279.69
294.833	294.69
295.064	272.69
295.295	298.69
295.525	294.69
295.756	300.69
295.987	313.69
296.217	324.69
296.448	341.69
296.679	318.69
296.909	298.69
297.14	288.69
297.37	306.69
297.601	306.69
297.831	302.69
298.062	310.69
298.292	306.69
298.523	316.69
298.753	317.69
298.984	298.69
299.214	301.69
299.445	297.69
299.675	303.69
299.905	318.69
300.136	329.69
300.366	303.69
300.597	306.69
300.827	330.69
301.057	335.69
301.288	325.69
301.518	340.69
301.748	321.69
301.979	331.69
302.209	328.69
302.439	357.69
302.669	350.69
302.9	342.69
303.13	306.69
303.36	326.69
303.59	334.69
303.82	355.69
304.051	346.69
304.281	313.69
304.511	332.69
304.741	336.69
304.971	326.69
305.201	329.69
305.431	319.69
305.661	332.69
305.891	307.69
306.121	322.69
306.352	341.69
306.582	331.69
306.812	346.69
307.042	333.69
307.272	339.69
307.502	335.69
307.731	358.69
307.961	350.69
308.191	327.69
308.421	339.69
308.651	357.69
308.881	350.69
309.111	358.69
309.341	366.69
309.571	367.69
309.8	380.69
310.03	374.69
310.26	404.69
310.49	384.69
310.72	378.69
310.949	399.69
311.179	410.69
311.409	384.69
311.639	376.69
311.868	387.69
312.098	404.69
312.328	391.69
312.557	419.69
312.787	437.69
313.017	425.69
313.246	419.69
313.476	389.69
313.706	381.69
313.935	388.69
314.165	402.69
314.394	407.69
314.624	423.69
314.853	395.69
315.083	379.69
315.312	380.69
315.542	388.69
315.771	376.69
316.001	376.69
316.23	352.69
316.46	380.69
316.689	414.69
316.919	399.69
317.148	394.69
317.377	386.69
317.607	395.69
317.836	382.69
318.065	367.69
318.295	378.69
318.524	372.69
318.753	384.69
318.983	384.69
319.212	398.69
319.441	389.69
319.67	404.69
319.9	396.69
320.129	400.69
320.358	380.69
320.587	404.69
320.816	407.69
321.046	400.69
321.275	410.69
321.504	406.69
321.733	422.69
321.962	442.69
322.191	437.69
322.42	458.69
322.649	480.69
322.878	495.69
323.108	482.69
323.337	519.69
323.566	544.69
323.795	586.69
324.024	642.69
324.253	820.69
324.482	1122.69
324.71	1721.69
324.939	2441.69
325.168	2140.69
325.397	1123.69
325.626	770.69
325.855	642.69
326.084	602.69
326.313	547.69
326.542	579.69
326.77	618.69
326.999	722.69
327.228	991.69
327.457	1553.69
327.686	1870.69
327.914	1317.69
328.143	930.69
328.372	835.69
328.6	764.69
328.829	706.69
329.058	692.69
329.287	695.69
329.515	660.69
329.744	671.69
329.972	704.69
330.201	790.69
330.43	933.69
330.658	876.69
330.887	795.69
331.115	734.69
331.344	611.69
331.572	569.69
331.801	566.69
332.03	592.69
332.258	544.69
332.486	543.69
332.715	542.69
332.943	512.69
333.172	523.69
333.4	543.69
333.629	569.69
333.857	606.69
334.085	649.69
334.314	796.69
334.542	960.69
334.771	1014.69
334.999	778.69
335.227	623.69
335.455	566.69
335.684	524.69
335.912	502.69
336.14	493.69
336.369	473.69
336.597	486.69
336.825	478.69
337.053	461.69
337.281	447.69
337.51	470.69
337.738	438.69
337.966	433.69
338.194	455.69
338.422	444.69
338.65	462.69
338.878	435.69
339.106	431.69
339.334	437.69
339.562	461.69
339.79	440.69
340.018	446.69
340.246	442.69
340.474	435.69
340.702	426.69
340.93	448.69
341.158	431.69
341.386	445.69
341.614	432.69
341.842	444.69
342.07	432.69
342.298	404.69
342.526	393.69
342.754	430.69
342.981	422.69
343.209	410.69
343.437	397.69
343.665	415.69
343.893	410.69
344.12	408.69
344.348	452.69
344.576	418.69
344.804	441.69
345.031	422.69
345.259	461.69
345.487	441.69
345.714	428.69
345.942	443.69
346.17	434.69
346.397	413.69
346.625	424.69
346.853	429.69
347.08	418.69
347.308	424.69
347.535	425.69
347.763	419.69
347.99	457.69
348.218	416.69
348.445	453.69
348.673	430.69
348.9	419.69
349.128	431.69
349.355	394.69
349.583	399.69
349.81	396.69
350.037	400.69
350.265	393.69
350.492	393.69
350.72	407.69
350.947	408.69
351.174	410.69
351.402	413.69
351.629	398.69
351.856	406.69
352.083	433.69
352.311	438.69
352.538	434.69
352.765	435.69
352.992	436.69
353.22	403.69
353.447	400.69
353.674	403.69
353.901	398.69
354.128	401.69
354.355	387.69
354.583	393.69
354.81	362.69
355.037	393.69
355.264	379.69
355.491	351.69
355.718	388.69
355.945	381.69
356.172	392.69
356.399	376.69
356.626	366.69
356.853	366.69
357.08	375.69
357.307	374.69
357.534	367.69
357.761	385.69
357.988	366.69
358.215	365.69
358.441	371.69
358.668	378.69
358.895	415.69
359.122	401.69
359.349	402.69
359.576	406.69
359.802	429.69
360.029	459.69
360.256	463.69
360.483	452.69
360.709	424.69
360.936	406.69
361.163	399.69
361.39	400.69
361.616	401.69
361.843	400.69
362.07	400.69
362.296	420.69
362.523	408.69
362.749	408.69
362.976	406.69
363.203	394.69
363.429	392.69
363.656	390.69
363.882	395.69
364.109	398.69
364.335	383.69
364.562	367.69
364.788	394.69
365.015	400.69
365.241	376.69
365.468	412.69
365.694	407.69
365.92	398.69
366.147	386.69
366.373	383.69
366.599	382.69
366.826	388.69
367.052	396.69
367.278	365.69
367.505	380.69
367.731	384.69
367.957	388.69
368.184	375.69
368.41	378.69
368.636	404.69
368.862	392.69
369.089	389.69
369.315	400.69
369.541	373.69
369.767	397.69
369.993	383.69
370.219	389.69
370.445	381.69
370.672	358.69
370.898	382.69
371.124	377.69
371.35	352.69
371.576	378.69
371.802	370.69
372.028	371.69
372.254	374.69
372.48	376.69
372.706	360.69
372.932	373.69
373.158	354.69
373.384	371.69
373.61	361.69
373.835	361.69
374.061	384.69
374.287	364.69
374.513	380.69
374.739	350.69
374.965	382.69
375.191	388.69
375.416	376.69
375.642	358.69
375.868	389.69
376.094	384.69
376.319	379.69
376.545	374.69
376.771	374.69
376.997	371.69
377.222	380.69
377.448	355.69
377.674	382.69
377.899	363.69
378.125	380.69
378.35	386.69
378.576	366.69
378.802	349.69
379.027	361.69
379.253	350.69
379.478	357.69
379.704	374.69
379.929	363.69
380.155	361.69
380.38	376.69
380.606	380.69
380.831	365.69
381.057	374.69
381.282	365.69
381.507	382.69
381.733	373.69
381.958	357.69
382.184	379.69
382.409	355.69
382.634	360.69
382.86	365.69
383.085	384.69
383.31	363.69
383.535	358.69
383.761	364.69
383.986	374.69
384.211	388.69
384.436	366.69
384.662	388.69
384.887	388.69
385.112	381.69
385.337	396.69
385.562	388.69
385.787	397.69
386.013	388.69
386.238	413.69
386.463	389.69
386.688	409.69
386.913	380.69
387.138	378.69
387.363	394.69
387.588	380.69
387.813	387.69
388.038	390.69
388.263	387.69
388.488	398.69
388.713	392.69
388.938	394.69
389.163	391.69
389.387	389.69
389.612	400.69
389.837	378.69
390.062	376.69
390.287	378.69
390.512	389.69
390.736	380.69
390.961	379.69
391.186	378.69
391.411	374.69
391.636	379.69
391.86	375.69
392.085	370.69
392.31	390.69
392.534	411.69
392.759	394.69
392.984	380.69
393.208	403.69
393.433	415.69
393.658	388.69
393.882	358.69
394.107	382.69
394.331	380.69
394.556	390.69
394.78	382.69
395.005	402.69
395.229	402.69
395.454	395.69
395.678	384.69
395.903	389.69
396.127	424.69
396.352	422.69
396.576	418.69
396.801	410.69
397.025	419.69
397.249	415.69
397.474	404.69
397.698	410.69
397.922	419.69
398.147	414.69
398.371	425.69
398.595	432.69
398.82	404.69
399.044	422.69
399.268	424.69
399.492	442.69
399.717	461.69
399.941	490.69
400.165	551.69
400.389	530.69
400.613	475.69
400.837	447.69
401.062	464.69
401.286	419.69
401.51	427.69
401.734	428.69
401.958	419.69
402.182	422.69
402.406	444.69
402.63	460.69
402.854	438.69
403.078	450.69
403.302	454.69
403.526	454.69
403.75	471.69
403.974	454.69
404.198	457.69
404.422	463.69
404.645	479.69
404.869	510.69
405.093	515.69
405.317	580.69
405.541	618.69
405.765	578.69
405.988	525.69
406.212	503.69
406.436	538.69
406.66	546.69
406.883	528.69
407.107	521.69
407.331	562.69
407.555	616.69
407.778	607.69
408.002	547.69
408.226	535.69
408.449	502.69
408.673	495.69
408.896	505.69
409.12	566.69
409.344	505.69
409.567	492.69
409.791	464.69
410.014	458.69
410.238	464.69
410.461	457.69
410.685	466.69
410.908	468.69
411.132	502.69
411.355	543.69
411.578	534.69
411.802	495.69
412.025	479.69
412.249	534.69
412.472	562.69
412.695	623.69
412.919	630.69
413.142	551.69
413.365	516.69
413.589	504.69
413.812	480.69
414.035	463.69
414.258	461.69
414.482	447.69
414.705	458.69
414.928	452.69
415.151	456.69
415.374	439.69
415.597	423.69
415.821	423.69
416.044	443.69
416.267	434.69
416.49	448.69
416.713	436.69
416.936	441.69
417.159	450.69
417.382	459.69
417.605	468.69
417.828	479.69
418.051	472.69
418.274	448.69
418.497	448.69
418.72	430.69
418.943	420.69
419.166	461.69
419.389	492.69
419.611	481.69
419.834	497.69
420.057	484.69
420.28	520.69
420.503	515.69
420.726	511.69
420.948	528.69
421.171	552.69
421.394	572.69
421.617	487.69
421.839	455.69
422.062	457.69
422.285	478.69
422.507	532.69
422.73	611.69
422.953	578.69
423.175	522.69
423.398	495.69
423.621	509.69
423.843	507.69
424.066	526.69
424.288	529.69
424.511	525.69
424.733	582.69
424.956	653.69
425.178	593.69
425.401	631.69
425.623	660.69
425.846	557.69
426.068	522.69
426.291	506.69
426.513	522.69
426.735	508.69
426.958	557.69
427.18	617.69
427.402	759.69
427.625	863.69
427.847	775.69
428.069	726.69
428.292	640.69
428.514	571.69
428.736	516.69
428.958	501.69
429.181	486.69
429.403	456.69
429.625	489.69
429.847	527.69
430.069	580.69
430.292	579.69
430.514	498.69
430.736	482.69
430.958	458.69
431.18	470.69
431.402	447.69
431.624	414.69
431.846	396.69
432.068	437.69
432.29	438.69
432.512	425.69
432.734	452.69
432.956	468.69
433.178	463.69
433.4	446.69
433.622	441.69
433.844	451.69
434.066	427.69
434.287	458.69
434.509	444.69
434.731	448.69
434.953	443.69
435.175	458.69
435.397	492.69
435.618	493.69
435.84	535.69
436.062	637.69
436.284	710.69
436.505	609.69
436.727	526.69
436.949	504.69
437.17	501.69
437.392	457.69
437.614	483.69
437.835	531.69
438.057	624.69
438.278	734.69
438.5	708.69
438.721	745.69
438.943	732.69
439.165	593.69
439.386	528.69
439.608	539.69
439.829	530.69
440.05	567.69
440.272	595.69
440.493	565.69
440.715	486.69
440.936	496.69
441.158	455.69
441.379	473.69
441.6	486.69
441.822	502.69
442.043	564.69
442.264	620.69
442.486	644.69
442.707	568.69
442.928	538.69
443.149	538.69
443.371	557.69
443.592	594.69
443.813	663.69
444.034	706.69
444.255	600.69
444.476	502.69
444.698	520.69
444.919	498.69
445.14	604.69
445.361	559.69
445.582	549.69
445.803	609.69
446.024	710.69
446.245	715.69
446.466	652.69
446.687	563.69
446.908	522.69
447.129	484.69
447.35	473.69
447.571	486.69
447.792	470.69
448.013	481.69
448.234	506.69
448.455	551.69
448.675	679.69
448.896	755.69
449.117	663.69
449.338	630.69
449.559	729.69
449.779	822.69
450	658.69
450.221	557.69
450.442	502.69
450.662	497.69
450.883	495.69
451.104	518.69
451.324	494.69
451.545	480.69
451.766	422.69
451.986	443.69
452.207	424.69
452.428	446.69
452.648	427.69
452.869	441.69
453.089	447.69
453.31	443.69
453.53	440.69
453.751	423.69
453.971	426.69
454.192	447.69
454.412	442.69
454.633	422.69
454.853	435.69
455.073	426.69
455.294	452.69
455.514	533.69
455.734	495.69
455.955	438.69
456.175	421.69
456.395	396.69
456.616	423.69
456.836	411.69
457.056	390.69
457.276	372.69
457.497	402.69
457.717	406.69
457.937	388.69
458.157	414.69
458.377	399.69
458.598	440.69
458.818	483.69
459.038	576.69
459.258	583.69
459.478	499.69
459.698	431.69
459.918	448.69
460.138	420.69
460.358	426.69
460.578	429.69
460.798	432.69
461.018	449.69
461.238	427.69
461.458	420.69
461.678	427.69
461.898	420.69
462.118	418.69
462.338	447.69
462.558	438.69
462.777	436.69
462.997	427.69
463.217	432.69
463.437	439.69
463.657	442.69
463.876	444.69
464.096	440.69
464.316	464.69
464.536	468.69
464.755	480.69
464.975	466.69
465.195	512.69
465.414	594.69
465.634	529.69
465.854	458.69
466.073	469.69
466.293	450.69
466.512	422.69
466.732	451.69
466.951	430.69
467.171	422.69
467.391	426.69
467.61	462.69
467.829	474.69
468.049	481.69
468.268	513.69
468.488	476.69
468.707	470.69
468.927	440.69
469.146	425.69
469.365	438.69
469.585	410.69
469.804	426.69
470.023	468.69
470.243	440.69
470.462	455.69
470.681	455.69
470.901	479.69
471.12	452.69
471.339	445.69
471.558	468.69
471.777	469.69
471.997	471.69
472.216	516.69
472.435	716.69
472.654	667.69
472.873	544.69
473.092	518.69
473.311	474.69
473.53	466.69
473.749	478.69
473.968	512.69
474.187	594.69
474.406	649.69
474.625	528.69
474.844	478.69
475.063	450.69
475.282	462.69
475.501	447.69
475.72	463.69
475.939	465.69
476.158	456.69
476.377	463.69
476.596	452.69
476.814	458.69
477.033	475.69
477.252	467.69
477.471	476.69
477.69	472.69
477.908	476.69
478.127	486.69
478.346	495.69
478.564	479.69
478.783	480.69
479.002	489.69
479.22	488.69
479.439	510.69
479.658	535.69
479.876	554.69
480.095	542.69
480.313	583.69
480.532	591.69
480.751	599.69
480.969	671.69
481.188	942.69
481.406	1178.69
481.624	823.69
481.843	694.69
482.061	649.69
482.28	626.69
482.498	592.69
482.717	590.69
482.935	578.69
483.153	580.69
483.372	552.69
483.59	562.69
483.808	546.69
484.027	551.69
484.245	552.69
484.463	539.69
484.681	564.69
484.9	532.69
485.118	546.69
485.336	557.69
485.554	573.69
485.772	551.69
485.99	567.69
486.209	552.69
486.427	564.69
486.645	583.69
486.863	608.69
487.081	604.69
487.299	584.69
487.517	588.69
487.735	568.69
487.953	583.69
488.171	612.69
488.389	602.69
488.607	592.69
488.825	601.69
489.043	609.69
489.261	616.69
489.479	615.69
489.696	592.69
489.914	622.69
490.132	613.69
490.35	632.69
490.568	633.69
490.786	648.69
491.003	661.69
491.221	700.69
491.439	676.69
491.657	687.69
491.874	708.69
492.092	698.69
492.31	711.69
492.527	732.69
492.745	717.69
492.963	761.69
493.18	750.69
493.398	738.69
493.615	731.69
493.833	740.69
494.05	735.69
494.268	726.69
494.485	725.69
494.703	734.69
494.92	726.69
495.138	724.69
495.355	699.69
495.573	702.69
495.79	719.69
496.008	728.69
496.225	722.69
496.442	701.69
496.66	709.69
496.877	714.69
497.094	693.69
497.312	699.69
497.529	720.69
497.746	711.69
497.963	719.69
498.181	727.69
498.398	720.69
498.615	746.69
498.832	752.69
499.049	728.69
499.267	766.69
499.484	780.69
499.701	756.69
499.918	763.69
500.135	799.69
500.352	826.69
500.569	820.69
500.786	850.69
501.003	867.69
501.22	847.69
501.437	818.69
501.654	810.69
501.871	812.69
502.088	791.69
502.305	758.69
502.522	749.69
502.739	744.69
502.956	712.69
503.172	726.69
503.389	691.69
503.606	700.69
503.823	676.69
504.04	678.69
504.256	688.69
504.473	698.69
504.69	681.69
504.907	663.69
505.123	658.69
505.34	650.69
505.557	652.69
505.773	665.69
505.99	668.69
506.207	659.69
506.423	645.69
506.64	670.69
506.856	636.69
507.073	650.69
507.289	628.69
507.506	640.69
507.722	665.69
507.939	677.69
508.155	667.69
508.372	638.69
508.588	648.69
508.805	633.69
509.021	635.69
509.238	655.69
509.454	653.69
509.67	662.69
509.887	656.69
510.103	630.69
510.319	653.69
510.536	759.69
510.752	1260.69
510.968	1026.69
511.184	666.69
511.401	635.69
511.617	634.69
511.833	633.69
512.049	670.69
512.265	664.69
512.481	640.69
512.698	612.69
512.914	624.69
513.13	628.69
513.346	608.69
513.562	608.69
513.778	623.69
513.994	605.69
514.21	654.69
514.426	662.69
514.642	688.69
514.858	714.69
515.074	771.69
515.29	923.69
515.506	1347.69
515.721	1122.69
515.937	774.69
516.153	668.69
516.369	638.69
516.585	634.69
516.801	623.69
517.016	620.69
517.232	608.69
517.448	619.69
517.664	604.69
517.879	583.69
518.095	631.69
518.311	580.69
518.527	596.69
518.742	596.69
518.958	592.69
519.173	587.69
519.389	591.69
519.605	582.69
519.82	580.69
520.036	620.69
520.251	646.69
520.467	650.69
520.682	681.69
520.898	672.69
521.113	679.69
521.329	755.69
521.544	861.69
521.76	1066.69
521.975	1726.69
522.19	1742.69
522.406	975.69
522.621	722.69
522.836	656.69
523.052	608.69
523.267	611.69
523.482	584.69
523.698	560.69
523.913	562.69
524.128	550.69
524.343	542.69
524.559	517.69
524.774	538.69
524.989	534.69
525.204	526.69
525.419	519.69
525.634	491.69
525.849	501.69
526.064	476.69
526.28	483.69
526.495	518.69
526.71	495.69
526.925	486.69
527.14	463.69
527.355	484.69
527.57	457.69
527.785	486.69
527.999	474.69
528.214	480.69
528.429	478.69
528.644	479.69
528.859	470.69
529.074	502.69
529.289	522.69
529.503	602.69
529.718	572.69
529.933	527.69
530.148	492.69
530.363	492.69
530.577	476.69
530.792	479.69
531.007	478.69
531.221	474.69
531.436	483.69
531.651	466.69
531.865	462.69
532.08	424.69
532.295	454.69
532.509	478.69
532.724	472.69
532.938	438.69
533.153	444.69
533.367	459.69
533.582	443.69
533.796	443.69
534.011	454.69
534.225	438.69
534.44	425.69
534.654	427.69
534.868	447.69
535.083	439.69
535.297	445.69
535.511	447.69
535.726	476.69
535.94	453.69
536.154	454.69
536.369	439.69
536.583	469.69
536.797	440.69
537.011	437.69
537.225	423.69
537.44	433.69
537.654	434.69
537.868	423.69
538.082	457.69
538.296	447.69
538.51	457.69
538.724	434.69
538.938	419.69
539.153	435.69
539.367	446.69
539.581	436.69
539.795	432.69
540.009	434.69
540.222	438.69
540.436	439.69
540.65	436.69
540.864	441.69
541.078	451.69
541.292	451.69
541.506	430.69
541.72	443.69
541.934	437.69
542.147	418.69
542.361	451.69
542.575	416.69
542.789	421.69
543.002	410.69
543.216	414.69
543.43	414.69
543.644	422.69
543.857	446.69
544.071	428.69
544.285	424.69
544.498	420.69
544.712	430.69
544.925	420.69
545.139	422.69
545.352	418.69
545.566	421.69
545.779	423.69
545.993	402.69
546.206	423.69
546.42	406.69
546.633	412.69
546.847	408.69
547.06	408.69
547.274	404.69
547.487	384.69
547.7	395.69
547.914	405.69
548.127	407.69
548.34	413.69
548.554	404.69
548.767	396.69
548.98	392.69
549.193	400.69
549.407	378.69
549.62	399.69
549.833	392.69
550.046	397.69
550.259	393.69
550.473	389.69
550.686	397.69
550.899	372.69
551.112	395.69
551.325	392.69
551.538	378.69
551.751	390.69
551.964	384.69
552.177	406.69
552.39	401.69
552.603	396.69
552.816	378.69
553.029	380.69
553.242	400.69
553.455	421.69
553.667	412.69
553.88	427.69
554.093	399.69
554.306	403.69
554.519	415.69
554.732	415.69
554.944	393.69
555.157	388.69
555.37	385.69
555.583	386.69
555.795	379.69
556.008	380.69
556.221	383.69
556.433	366.69
556.646	396.69
556.859	358.69
557.071	382.69
557.284	363.69
557.496	379.69
557.709	365.69
557.921	366.69
558.134	363.69
558.346	366.69
558.559	379.69
558.771	364.69
558.984	380.69
559.196	367.69
559.409	370.69
559.621	373.69
559.833	362.69
560.046	363.69
560.258	380.69
560.47	367.69
560.683	373.69
560.895	354.69
561.107	364.69
561.32	347.69
561.532	366.69
561.744	362.69
561.956	348.69
562.168	357.69
562.381	352.69
562.593	344.69
562.805	334.69
563.017	354.69
563.229	364.69
563.441	360.69
563.653	356.69
563.865	338.69
564.077	366.69
564.289	342.69
564.501	354.69
564.713	362.69
564.925	371.69
565.137	390.69
565.349	378.69
565.561	372.69
565.773	371.69
565.985	381.69
566.197	388.69
566.408	381.69
566.62	396.69
566.832	405.69
567.044	393.69
567.255	413.69
567.467	391.69
567.679	406.69
567.891	398.69
568.102	392.69
568.314	404.69
568.526	384.69
568.737	382.69
568.949	371.69
569.161	362.69
569.372	358.69
569.584	341.69
569.795	379.69
570.007	364.69
570.218	396.69
570.43	380.69
570.641	334.69
570.853	322.69
571.064	340.69
571.276	351.69
571.487	330.69
571.698	339.69
571.91	346.69
572.121	341.69
572.333	319.69
572.544	341.69
572.755	332.69
572.966	316.69
573.178	340.69
573.389	321.69
573.6	313.69
573.811	325.69
574.023	326.69
574.234	332.69
574.445	316.69
574.656	321.69
574.867	320.69
575.078	300.69
575.289	321.69
575.501	310.69
575.712	299.69
575.923	316.69
576.134	306.69
576.345	318.69
576.556	313.69
576.767	317.69
576.978	290.69
577.188	291.69
577.399	314.69
577.61	308.69
577.821	289.69
578.032	304.69
578.243	344.69
578.454	565.69
578.665	428.69
578.875	326.69
579.086	307.69
579.297	306.69
579.508	297.69
579.718	288.69
579.929	299.69
580.14	292.69
580.35	277.69
580.561	300.69
580.772	289.69
580.982	288.69
581.193	296.69
581.403	295.69
581.614	286.69
581.825	291.69
582.035	306.69
582.246	310.69
582.456	295.69
582.667	284.69
582.877	286.69
583.087	279.69
583.298	271.69
583.508	284.69
583.719	286.69
583.929	271.69
584.139	273.69
584.35	282.69
584.56	289.69
584.77	286.69
584.981	268.69
585.191	283.69
585.401	278.69
585.611	281.69
585.821	268.69
586.032	283.69
586.242	276.69
586.452	280.69
586.662	272.69
586.872	279.69
587.082	278.69
587.292	279.69
587.502	271.69
587.713	282.69
587.923	279.69
588.133	276.69
588.343	284.69
588.553	269.69
588.762	260.69
588.972	277.69
589.182	274.69
589.392	283.69
589.602	271.69
589.812	264.69
590.022	293.69
590.232	264.69
590.441	277.69
590.651	266.69
590.861	268.69
591.071	280.69
591.281	293.69
591.49	268.69
591.7	261.69
591.91	280.69
592.119	275.69
592.329	263.69
592.539	268.69
592.748	283.69
592.958	285.69
593.167	267.69
593.377	266.69
593.587	290.69
593.796	265.69
594.006	270.69
594.215	270.69
594.424	281.69
594.634	271.69
594.843	293.69
595.053	268.69
595.262	254.69
595.472	260.69
595.681	269.69
595.89	267.69
596.1	270.69
596.309	285.69
596.518	271.69
596.727	266.69
596.937	258.69
597.146	263.69
597.355	258.69
597.564	253.69
597.774	264.69
597.983	260.69
598.192	247.69
598.401	256.69
598.61	250.69
598.819	250.69
599.028	235.69
599.237	245.69
599.446	249.69
599.655	252.69
599.864	243.69
600.073	248.69
600.282	247.69
600.491	258.69
600.7	266.69
600.909	244.69
601.118	233.69
601.327	228.69
601.536	242.69
601.745	235.69
601.953	246.69
602.162	243.69
602.371	244.69
602.58	241.69
602.789	253.69
602.997	244.69
603.206	234.69
603.415	228.69
603.623	231.69
603.832	230.69
604.041	251.69
604.249	234.69
604.458	242.69
604.666	247.69
604.875	230.69
605.084	231.69
605.292	243.69
605.501	221.69
605.709	242.69
605.918	239.69
606.126	223.69
606.334	234.69
606.543	235.69
606.751	227.69
606.96	238.69
607.168	246.69
607.376	244.69
607.585	245.69
607.793	227.69
608.001	235.69
608.21	242.69
608.418	228.69
608.626	248.69
608.834	222.69
609.043	236.69
609.251	238.69
609.459	234.69
609.667	234.69
609.875	235.69
610.083	232.69
610.291	242.69
610.499	255.69
610.707	223.69
610.916	231.69
611.124	223.69
611.332	222.69
611.54	263.69
611.748	236.69
611.955	233.69
612.163	236.69
612.371	240.69
612.579	217.69
612.787	230.69
612.995	232.69
613.203	220.69
613.411	230.69
613.618	236.69
613.826	214.69
614.034	226.69
614.242	229.69
614.449	214.69
614.657	230.69
614.865	220.69
615.072	228.69
615.28	234.69
615.488	223.69
615.695	233.69
615.903	222.69
616.111	227.69
616.318	218.69
616.526	218.69
616.733	215.69
616.941	216.69
617.148	214.69
617.356	226.69
617.563	228.69
617.771	240.69
617.978	224.69
618.185	200.69
618.393	233.69
618.6	223.69
618.807	211.69
619.015	222.69
619.222	204.69
619.429	205.69
619.637	223.69
619.844	233.69
620.051	206.69
620.258	215.69
620.466	199.69
620.673	194.69
620.88	214.69
621.087	217.69
621.294	208.69
621.501	214.69
621.708	209.69
621.915	207.69
622.122	207.69
622.329	212.69
622.536	216.69
622.743	203.69
622.95	218.69
623.157	212.69
623.364	221.69
623.571	193.69
623.778	203.69
623.985	208.69
624.192	202.69
624.399	206.69
624.606	205.69
624.812	211.69
625.019	207.69
625.226	217.69
625.433	209.69
625.639	206.69
625.846	198.69
626.053	212.69
626.259	208.69
626.466	187.69
626.673	194.69
626.879	189.69
627.086	187.69
627.293	195.69
627.499	188.69
627.706	182.69
627.912	183.69
628.119	179.69
628.325	192.69
628.532	186.69
628.738	196.69
628.945	200.69
629.151	184.69
629.357	174.69
629.564	176.69
629.77	206.69
629.976	188.69
630.183	189.69
630.389	191.69
630.595	173.69
630.802	183.69
631.008	191.69
631.214	202.69
631.42	188.69
631.627	204.69
631.833	192.69
632.039	183.69
632.245	201.69
632.451	174.69
632.657	180.69
632.863	188.69
633.069	171.69
633.275	159.69
633.481	171.69
633.688	184.69
633.893	170.69
634.099	194.69
634.305	180.69
634.511	175.69
634.717	185.69
634.923	194.69
635.129	165.69
635.335	173.69
635.541	181.69
635.747	189.69
635.952	189.69
636.158	172.69
636.364	191.69
636.57	215.69
636.775	187.69
636.981	183.69
637.187	187.69
637.392	185.69
637.598	182.69
637.804	180.69
638.009	170.69
638.215	181.69
638.421	175.69
638.626	178.69
638.832	186.69
639.037	165.69
639.243	171.69
639.448	180.69
639.654	178.69
639.859	174.69
640.065	153.69
640.27	186.69
640.475	168.69
640.681	160.69
640.886	164.69
641.091	171.69
641.297	171.69
641.502	168.69
641.707	165.69
641.913	176.69
642.118	177.69
642.323	158.69
642.528	154.69
642.733	179.69
642.939	160.69
643.144	166.69
643.349	157.69
643.554	152.69
643.759	143.69
643.964	152.69
644.169	141.69
644.374	152.69
644.579	147.69
644.784	153.69
644.989	167.69
645.194	171.69
645.399	174.69
645.604	171.69
645.809	164.69
646.014	166.69
646.219	147.69
646.423	170.69
646.628	158.69
646.833	166.69
647.038	160.69
647.243	162.69
647.447	158.69
647.652	144.69
647.857	156.69
648.062	152.69
648.266	160.69
648.471	162.69
648.676	156.69
648.88	147.69
649.085	174.69
649.289	155.69
649.494	175.69
649.698	177.69
649.903	182.69
650.107	166.69
650.312	175.69
650.516	162.69
650.721	144.69
650.925	160.69
651.13	141.69
651.334	142.69
651.539	144.69
651.743	149.69
651.947	150.69
652.152	132.69
652.356	137.69
652.56	144.69
652.764	139.69
652.969	140.69
653.173	147.69
653.377	136.69
653.581	126.69
653.785	139.69
653.99	138.69
654.194	134.69
654.398	135.69
654.602	132.69
654.806	134.69
655.01	143.69
655.214	146.69
655.418	127.69
655.622	128.69
655.826	122.69
656.03	135.69
656.234	124.69
656.438	128.69
656.642	135.69
656.846	126.69
657.049	123.69
657.253	133.69
657.457	119.69
657.661	122.69
657.865	107.69
658.068	108.69
658.272	120.69
658.476	116.69
658.68	123.69
658.883	106.69
659.087	111.69
659.291	111.69
659.494	107.69
659.698	94.69
659.901	107.69
660.105	109.69
660.309	103.69
660.512	98.69
660.716	76.69
660.919	108.69
661.123	98.69
661.326	93.69
661.53	86.69
661.733	79.69
661.936	87.69
662.14	90.69
662.343	87.69
662.546	95.69
662.75	93.69
662.953	92.69
663.156	88.69
663.36	86.69
663.563	90.69
663.766	89.69
663.969	86.69
664.173	83.69
664.376	91.69
664.579	64.69
664.782	85.69
664.985	74.69
665.188	74.69
665.391	89.69
665.594	79.69
665.797	93.69
666	89.69
666.203	92.69
666.406	71.69
666.609	93.69
666.812	80.69
667.015	93.69
667.218	100.69
667.421	83.69
667.624	71.69
667.827	89.69
668.03	85.69
668.232	80.69
668.435	90.69
668.638	73.69
668.841	77.69
669.043	79.69
669.246	80.69
669.449	94.69
669.651	95.69
669.854	96.69
670.057	103.69
670.259	91.69
670.462	101.69
670.665	79.69
670.867	84.69
671.07	90.69
671.272	91.69
671.475	84.69
671.677	87.69
671.88	84.69
672.082	77.69
672.284	91.69
672.487	89.69
672.689	86.69
672.892	84.69
