Data from 1986.PennyLincolnUp.Lamp.En5.5.200Scan.071819.P2_HRD10591_17-11-47-973.txt Node
Date: Thu Jul 18 17:11:47 EDT 2019
User: cochatt
Spectrometer: HR+D1059
Trigger mode: 1
Integration Time (sec): 1.000000E-1
Scans to average: 1
Electric dark correction enabled: true
Nonlinearity correction enabled: false
Boxcar width: 0
XAxis mode: Wavelengths
Number of Pixels in Spectrum: 2048
>>>>>Begin Spectral Data<<<<<
223.165	-11.94
223.4	-11.94
223.635	-11.94
223.869	-19.94
224.104	-15.94
224.338	-15.94
224.573	-21.94
224.808	-2.94
225.042	-20.94
225.277	-6.94
225.511	7.06
225.746	12.06
225.98	-8.94
226.215	13.06
226.449	19.06
226.683	24.06
226.918	32.06
227.152	18.06
227.387	19.06
227.621	25.06
227.856	43.06
228.09	43.06
228.324	49.06
228.559	56.06
228.793	67.06
229.027	96.06
229.262	95.06
229.496	124.06
229.73	126.06
229.964	160.06
230.199	134.06
230.433	125.06
230.667	124.06
230.901	117.06
231.136	97.06
231.37	117.06
231.604	121.06
231.838	115.06
232.072	101.06
232.306	122.06
232.541	123.06
232.775	121.06
233.009	116.06
233.243	121.06
233.477	119.06
233.711	107.06
233.945	121.06
234.179	100.06
234.413	121.06
234.647	124.06
234.881	116.06
235.115	120.06
235.349	109.06
235.583	125.06
235.817	126.06
236.051	130.06
236.285	127.06
236.519	121.06
236.753	137.06
236.987	139.06
237.221	201.06
237.455	249.06
237.689	208.06
237.922	155.06
238.156	138.06
238.39	124.06
238.624	122.06
238.858	140.06
239.091	123.06
239.325	135.06
239.559	137.06
239.793	124.06
240.027	148.06
240.26	152.06
240.494	178.06
240.728	165.06
240.961	164.06
241.195	154.06
241.429	164.06
241.662	136.06
241.896	137.06
242.13	142.06
242.363	149.06
242.597	141.06
242.83	140.06
243.064	139.06
243.298	154.06
243.531	132.06
243.765	151.06
243.998	158.06
244.232	149.06
244.465	138.06
244.699	172.06
244.932	155.06
245.166	154.06
245.399	148.06
245.633	144.06
245.866	160.06
246.099	166.06
246.333	150.06
246.566	166.06
246.8	166.06
247.033	169.06
247.266	178.06
247.5	171.06
247.733	182.06
247.966	189.06
248.2	183.06
248.433	184.06
248.666	183.06
248.899	200.06
249.133	204.06
249.366	229.06
249.599	228.06
249.832	211.06
250.066	195.06
250.299	213.06
250.532	221.06
250.765	236.06
250.998	265.06
251.231	269.06
251.465	245.06
251.698	229.06
251.931	221.06
252.164	226.06
252.397	216.06
252.63	226.06
252.863	223.06
253.096	228.06
253.329	241.06
253.562	236.06
253.795	248.06
254.028	254.06
254.261	229.06
254.494	229.06
254.727	286.06
254.96	308.06
255.193	310.06
255.426	278.06
255.659	298.06
255.892	289.06
256.124	324.06
256.357	315.06
256.59	291.06
256.823	293.06
257.056	280.06
257.289	247.06
257.521	245.06
257.754	242.06
257.987	219.06
258.22	237.06
258.452	245.06
258.685	237.06
258.918	228.06
259.151	247.06
259.383	245.06
259.616	243.06
259.849	268.06
260.081	257.06
260.314	279.06
260.547	292.06
260.779	280.06
261.012	253.06
261.244	257.06
261.477	245.06
261.71	235.06
261.942	246.06
262.175	249.06
262.407	244.06
262.64	219.06
262.872	227.06
263.105	235.06
263.337	227.06
263.57	241.06
263.802	229.06
264.035	239.06
264.267	232.06
264.499	225.06
264.732	225.06
264.964	216.06
265.197	229.06
265.429	227.06
265.661	220.06
265.894	220.06
266.126	222.06
266.358	231.06
266.591	230.06
266.823	239.06
267.055	229.06
267.287	234.06
267.52	236.06
267.752	243.06
267.984	222.06
268.216	240.06
268.448	238.06
268.681	252.06
268.913	259.06
269.145	278.06
269.377	282.06
269.609	292.06
269.841	276.06
270.073	284.06
270.306	309.06
270.538	333.06
270.77	328.06
271.002	321.06
271.234	304.06
271.466	329.06
271.698	334.06
271.93	342.06
272.162	356.06
272.394	341.06
272.626	313.06
272.858	302.06
273.09	299.06
273.322	276.06
273.553	292.06
273.785	281.06
274.017	272.06
274.249	276.06
274.481	307.06
274.713	273.06
274.945	289.06
275.176	281.06
275.408	274.06
275.64	292.06
275.872	268.06
276.104	286.06
276.335	284.06
276.567	290.06
276.799	296.06
277.031	331.06
277.262	346.06
277.494	333.06
277.726	332.06
277.957	302.06
278.189	310.06
278.421	298.06
278.652	301.06
278.884	304.06
279.115	280.06
279.347	286.06
279.579	286.06
279.81	280.06
280.042	276.06
280.273	265.06
280.505	283.06
280.736	276.06
280.968	266.06
281.199	264.06
281.431	275.06
281.662	275.06
281.894	258.06
282.125	281.06
282.356	276.06
282.588	324.06
282.819	323.06
283.051	281.06
283.282	282.06
283.513	267.06
283.745	294.06
283.976	298.06
284.207	289.06
284.439	285.06
284.67	285.06
284.901	288.06
285.132	278.06
285.364	263.06
285.595	287.06
285.826	280.06
286.057	292.06
286.288	281.06
286.52	278.06
286.751	274.06
286.982	277.06
287.213	293.06
287.444	293.06
287.675	297.06
287.906	317.06
288.138	298.06
288.369	306.06
288.6	312.06
288.831	285.06
289.062	298.06
289.293	284.06
289.524	290.06
289.755	297.06
289.986	301.06
290.217	288.06
290.448	285.06
290.679	301.06
290.91	285.06
291.141	290.06
291.371	287.06
291.602	304.06
291.833	280.06
292.064	271.06
292.295	268.06
292.526	288.06
292.757	306.06
292.987	286.06
293.218	280.06
293.449	301.06
293.68	293.06
293.91	285.06
294.141	300.06
294.372	283.06
294.603	298.06
294.833	296.06
295.064	292.06
295.295	299.06
295.525	305.06
295.756	298.06
295.987	313.06
296.217	334.06
296.448	311.06
296.679	328.06
296.909	284.06
297.14	302.06
297.37	295.06
297.601	294.06
297.831	306.06
298.062	282.06
298.292	314.06
298.523	303.06
298.753	320.06
298.984	308.06
299.214	307.06
299.445	313.06
299.675	314.06
299.905	328.06
300.136	309.06
300.366	306.06
300.597	293.06
300.827	317.06
301.057	313.06
301.288	320.06
301.518	330.06
301.748	329.06
301.979	308.06
302.209	328.06
302.439	311.06
302.669	298.06
302.9	316.06
303.13	310.06
303.36	324.06
303.59	330.06
303.82	361.06
304.051	334.06
304.281	322.06
304.511	328.06
304.741	305.06
304.971	317.06
305.201	321.06
305.431	326.06
305.661	329.06
305.891	331.06
306.121	322.06
306.352	335.06
306.582	347.06
306.812	323.06
307.042	330.06
307.272	312.06
307.502	335.06
307.731	342.06
307.961	324.06
308.191	328.06
308.421	337.06
308.651	320.06
308.881	358.06
309.111	339.06
309.341	363.06
309.571	357.06
309.8	364.06
310.03	382.06
310.26	414.06
310.49	375.06
310.72	388.06
310.949	405.06
311.179	414.06
311.409	399.06
311.639	396.06
311.868	380.06
312.098	408.06
312.328	402.06
312.557	411.06
312.787	418.06
313.017	434.06
313.246	399.06
313.476	381.06
313.706	394.06
313.935	366.06
314.165	401.06
314.394	406.06
314.624	421.06
314.853	386.06
315.083	384.06
315.312	381.06
315.542	366.06
315.771	370.06
316.001	359.06
316.23	379.06
316.46	388.06
316.689	403.06
316.919	397.06
317.148	399.06
317.377	412.06
317.607	400.06
317.836	382.06
318.065	384.06
318.295	386.06
318.524	393.06
318.753	385.06
318.983	379.06
319.212	388.06
319.441	402.06
319.67	401.06
319.9	376.06
320.129	374.06
320.358	396.06
320.587	380.06
320.816	399.06
321.046	403.06
321.275	401.06
321.504	428.06
321.733	415.06
321.962	424.06
322.191	458.06
322.42	451.06
322.649	480.06
322.878	477.06
323.108	497.06
323.337	532.06
323.566	531.06
323.795	597.06
324.024	660.06
324.253	798.06
324.482	1113.06
324.71	1747.06
324.939	2488.06
325.168	2209.06
325.397	1145.06
325.626	790.06
325.855	646.06
326.084	597.06
326.313	566.06
326.542	578.06
326.77	635.06
326.999	749.06
327.228	1019.06
327.457	1537.06
327.686	1944.06
327.914	1293.06
328.143	881.06
328.372	766.06
328.6	705.06
328.829	693.06
329.058	668.06
329.287	695.06
329.515	644.06
329.744	612.06
329.972	640.06
330.201	725.06
330.43	808.06
330.658	797.06
330.887	758.06
331.115	688.06
331.344	605.06
331.572	538.06
331.801	578.06
332.03	552.06
332.258	528.06
332.486	502.06
332.715	492.06
332.943	482.06
333.172	491.06
333.4	514.06
333.629	503.06
333.857	555.06
334.085	594.06
334.314	684.06
334.542	774.06
334.771	844.06
334.999	676.06
335.227	568.06
335.455	500.06
335.684	471.06
335.912	473.06
336.14	461.06
336.369	445.06
336.597	482.06
336.825	460.06
337.053	449.06
337.281	452.06
337.51	447.06
337.738	436.06
337.966	441.06
338.194	440.06
338.422	436.06
338.65	442.06
338.878	421.06
339.106	429.06
339.334	418.06
339.562	433.06
339.79	434.06
340.018	428.06
340.246	435.06
340.474	432.06
340.702	416.06
340.93	413.06
341.158	425.06
341.386	419.06
341.614	425.06
341.842	447.06
342.07	403.06
342.298	421.06
342.526	414.06
342.754	404.06
342.981	407.06
343.209	403.06
343.437	425.06
343.665	422.06
343.893	419.06
344.12	399.06
344.348	426.06
344.576	420.06
344.804	439.06
345.031	446.06
345.259	451.06
345.487	439.06
345.714	433.06
345.942	423.06
346.17	399.06
346.397	425.06
346.625	401.06
346.853	406.06
347.08	402.06
347.308	421.06
347.535	420.06
347.763	440.06
347.99	439.06
348.218	434.06
348.445	420.06
348.673	445.06
348.9	422.06
349.128	418.06
349.355	385.06
349.583	403.06
349.81	390.06
350.037	382.06
350.265	406.06
350.492	379.06
350.72	403.06
350.947	405.06
351.174	429.06
351.402	436.06
351.629	412.06
351.856	412.06
352.083	402.06
352.311	437.06
352.538	439.06
352.765	450.06
352.992	435.06
353.22	418.06
353.447	420.06
353.674	407.06
353.901	394.06
354.128	382.06
354.355	380.06
354.583	372.06
354.81	385.06
355.037	382.06
355.264	391.06
355.491	371.06
355.718	355.06
355.945	368.06
356.172	362.06
356.399	373.06
356.626	357.06
356.853	379.06
357.08	374.06
357.307	370.06
357.534	378.06
357.761	358.06
357.988	365.06
358.215	375.06
358.441	382.06
358.668	380.06
358.895	374.06
359.122	404.06
359.349	417.06
359.576	406.06
359.802	444.06
360.029	474.06
360.256	462.06
360.483	444.06
360.709	420.06
360.936	397.06
361.163	410.06
361.39	424.06
361.616	411.06
361.843	402.06
362.07	405.06
362.296	410.06
362.523	419.06
362.749	409.06
362.976	424.06
363.203	385.06
363.429	369.06
363.656	390.06
363.882	406.06
364.109	382.06
364.335	394.06
364.562	402.06
364.788	376.06
365.015	378.06
365.241	399.06
365.468	385.06
365.694	381.06
365.92	390.06
366.147	406.06
366.373	408.06
366.599	378.06
366.826	405.06
367.052	392.06
367.278	376.06
367.505	377.06
367.731	388.06
367.957	372.06
368.184	396.06
368.41	398.06
368.636	385.06
368.862	385.06
369.089	383.06
369.315	381.06
369.541	392.06
369.767	381.06
369.993	378.06
370.219	368.06
370.445	392.06
370.672	368.06
370.898	370.06
371.124	370.06
371.35	391.06
371.576	366.06
371.802	360.06
372.028	381.06
372.254	365.06
372.48	392.06
372.706	373.06
372.932	374.06
373.158	367.06
373.384	375.06
373.61	390.06
373.835	383.06
374.061	381.06
374.287	373.06
374.513	373.06
374.739	371.06
374.965	377.06
375.191	385.06
375.416	373.06
375.642	376.06
375.868	378.06
376.094	358.06
376.319	379.06
376.545	364.06
376.771	376.06
376.997	373.06
377.222	364.06
377.448	384.06
377.674	376.06
377.899	360.06
378.125	379.06
378.35	365.06
378.576	376.06
378.802	370.06
379.027	366.06
379.253	371.06
379.478	365.06
379.704	344.06
379.929	378.06
380.155	377.06
380.38	374.06
380.606	351.06
380.831	372.06
381.057	353.06
381.282	362.06
381.507	389.06
381.733	380.06
381.958	358.06
382.184	376.06
382.409	368.06
382.634	377.06
382.86	377.06
383.085	361.06
383.31	337.06
383.535	365.06
383.761	363.06
383.986	373.06
384.211	357.06
384.436	374.06
384.662	370.06
384.887	369.06
385.112	371.06
385.337	381.06
385.562	357.06
385.787	356.06
386.013	385.06
386.238	396.06
386.463	396.06
386.688	384.06
386.913	392.06
387.138	377.06
387.363	383.06
387.588	404.06
387.813	366.06
388.038	396.06
388.263	374.06
388.488	384.06
388.713	374.06
388.938	379.06
389.163	402.06
389.387	376.06
389.612	374.06
389.837	404.06
390.062	364.06
390.287	376.06
390.512	384.06
390.736	390.06
390.961	377.06
391.186	375.06
391.411	380.06
391.636	382.06
391.86	383.06
392.085	392.06
392.31	408.06
392.534	394.06
392.759	376.06
392.984	380.06
393.208	380.06
393.433	391.06
393.658	380.06
393.882	378.06
394.107	384.06
394.331	391.06
394.556	379.06
394.78	369.06
395.005	378.06
395.229	377.06
395.454	412.06
395.678	416.06
395.903	386.06
396.127	430.06
396.352	429.06
396.576	405.06
396.801	391.06
397.025	412.06
397.249	387.06
397.474	394.06
397.698	402.06
397.922	412.06
398.147	446.06
398.371	440.06
398.595	436.06
398.82	404.06
399.044	421.06
399.268	432.06
399.492	438.06
399.717	452.06
399.941	485.06
400.165	536.06
400.389	551.06
400.613	504.06
400.837	453.06
401.062	448.06
401.286	425.06
401.51	417.06
401.734	425.06
401.958	457.06
402.182	456.06
402.406	471.06
402.63	465.06
402.854	458.06
403.078	439.06
403.302	441.06
403.526	453.06
403.75	462.06
403.974	456.06
404.198	470.06
404.422	454.06
404.645	471.06
404.869	515.06
405.093	546.06
405.317	567.06
405.541	615.06
405.765	554.06
405.988	515.06
406.212	521.06
406.436	530.06
406.66	542.06
406.883	497.06
407.107	522.06
407.331	545.06
407.555	591.06
407.778	614.06
408.002	562.06
408.226	531.06
408.449	519.06
408.673	517.06
408.896	536.06
409.12	552.06
409.344	539.06
409.567	483.06
409.791	472.06
410.014	460.06
410.238	453.06
410.461	450.06
410.685	444.06
410.908	466.06
411.132	526.06
411.355	570.06
411.578	542.06
411.802	497.06
412.025	485.06
412.249	499.06
412.472	533.06
412.695	603.06
412.919	596.06
413.142	531.06
413.365	510.06
413.589	489.06
413.812	480.06
414.035	464.06
414.258	454.06
414.482	436.06
414.705	439.06
414.928	452.06
415.151	438.06
415.374	441.06
415.597	420.06
415.821	428.06
416.044	435.06
416.267	439.06
416.49	440.06
416.713	431.06
416.936	432.06
417.159	440.06
417.382	457.06
417.605	458.06
417.828	472.06
418.051	461.06
418.274	479.06
418.497	443.06
418.72	444.06
418.943	416.06
419.166	453.06
419.389	468.06
419.611	453.06
419.834	461.06
420.057	488.06
420.28	490.06
420.503	500.06
420.726	506.06
420.948	507.06
421.171	538.06
421.394	564.06
421.617	500.06
421.839	483.06
422.062	488.06
422.285	481.06
422.507	554.06
422.73	603.06
422.953	596.06
423.175	533.06
423.398	478.06
423.621	480.06
423.843	513.06
424.066	497.06
424.288	484.06
424.511	519.06
424.733	570.06
424.956	675.06
425.178	626.06
425.401	614.06
425.623	648.06
425.846	572.06
426.068	524.06
426.291	523.06
426.513	503.06
426.735	514.06
426.958	581.06
427.18	644.06
427.402	761.06
427.625	866.06
427.847	800.06
428.069	719.06
428.292	610.06
428.514	544.06
428.736	496.06
428.958	494.06
429.181	474.06
429.403	463.06
429.625	485.06
429.847	539.06
430.069	589.06
430.292	599.06
430.514	505.06
430.736	470.06
430.958	454.06
431.18	450.06
431.402	466.06
431.624	432.06
431.846	440.06
432.068	444.06
432.29	437.06
432.512	436.06
432.734	456.06
432.956	436.06
433.178	448.06
433.4	462.06
433.622	449.06
433.844	441.06
434.066	433.06
434.287	432.06
434.509	435.06
434.731	438.06
434.953	458.06
435.175	466.06
435.397	498.06
435.618	521.06
435.84	541.06
436.062	643.06
436.284	720.06
436.505	591.06
436.727	533.06
436.949	497.06
437.17	478.06
437.392	475.06
437.614	502.06
437.835	564.06
438.057	638.06
438.278	748.06
438.5	734.06
438.721	778.06
438.943	769.06
439.165	609.06
439.386	544.06
439.608	532.06
439.829	540.06
440.05	573.06
440.272	643.06
440.493	584.06
440.715	524.06
440.936	500.06
441.158	497.06
441.379	475.06
441.6	496.06
441.822	524.06
442.043	556.06
442.264	635.06
442.486	680.06
442.707	564.06
442.928	532.06
443.149	550.06
443.371	586.06
443.592	602.06
443.813	670.06
444.034	728.06
444.255	592.06
444.476	518.06
444.698	500.06
444.919	499.06
445.14	581.06
445.361	550.06
445.582	556.06
445.803	618.06
446.024	720.06
446.245	730.06
446.466	669.06
446.687	587.06
446.908	529.06
447.129	507.06
447.35	483.06
447.571	468.06
447.792	457.06
448.013	482.06
448.234	496.06
448.455	567.06
448.675	659.06
448.896	777.06
449.117	682.06
449.338	613.06
449.559	702.06
449.779	828.06
450	668.06
450.221	542.06
450.442	488.06
450.662	491.06
450.883	475.06
451.104	476.06
451.324	487.06
451.545	476.06
451.766	442.06
451.986	427.06
452.207	425.06
452.428	419.06
452.648	433.06
452.869	452.06
453.089	440.06
453.31	454.06
453.53	423.06
453.751	436.06
453.971	449.06
454.192	441.06
454.412	474.06
454.633	427.06
454.853	432.06
455.073	414.06
455.294	463.06
455.514	530.06
455.734	540.06
455.955	448.06
456.175	425.06
456.395	396.06
456.616	404.06
456.836	392.06
457.056	398.06
457.276	373.06
457.497	392.06
457.717	401.06
457.937	413.06
458.157	412.06
458.377	433.06
458.598	422.06
458.818	489.06
459.038	603.06
459.258	621.06
459.478	479.06
459.698	460.06
459.918	456.06
460.138	426.06
460.358	410.06
460.578	432.06
460.798	451.06
461.018	438.06
461.238	433.06
461.458	420.06
461.678	429.06
461.898	426.06
462.118	425.06
462.338	436.06
462.558	438.06
462.777	440.06
462.997	452.06
463.217	457.06
463.437	447.06
463.657	460.06
463.876	440.06
464.096	462.06
464.316	449.06
464.536	460.06
464.755	482.06
464.975	455.06
465.195	526.06
465.414	617.06
465.634	550.06
465.854	499.06
466.073	471.06
466.293	467.06
466.512	446.06
466.732	420.06
466.951	413.06
467.171	444.06
467.391	448.06
467.61	448.06
467.829	454.06
468.049	460.06
468.268	473.06
468.488	460.06
468.707	433.06
468.927	423.06
469.146	425.06
469.365	412.06
469.585	422.06
469.804	436.06
470.023	436.06
470.243	450.06
470.462	437.06
470.681	481.06
470.901	465.06
471.12	456.06
471.339	444.06
471.558	434.06
471.777	474.06
471.997	444.06
472.216	499.06
472.435	608.06
472.654	587.06
472.873	515.06
473.092	467.06
473.311	448.06
473.53	457.06
473.749	466.06
473.968	512.06
474.187	617.06
474.406	653.06
474.625	518.06
474.844	467.06
475.063	456.06
475.282	458.06
475.501	470.06
475.72	432.06
475.939	455.06
476.158	438.06
476.377	446.06
476.596	462.06
476.814	456.06
477.033	466.06
477.252	462.06
477.471	470.06
477.69	460.06
477.908	480.06
478.127	482.06
478.346	465.06
478.564	486.06
478.783	477.06
479.002	498.06
479.22	512.06
479.439	522.06
479.658	534.06
479.876	551.06
480.095	530.06
480.313	587.06
480.532	548.06
480.751	530.06
480.969	594.06
481.188	790.06
481.406	978.06
481.624	724.06
481.843	637.06
482.061	587.06
482.28	584.06
482.498	564.06
482.717	555.06
482.935	533.06
483.153	547.06
483.372	548.06
483.59	546.06
483.808	520.06
484.027	530.06
484.245	553.06
484.463	528.06
484.681	565.06
484.9	538.06
485.118	558.06
485.336	524.06
485.554	549.06
485.772	553.06
485.99	576.06
486.209	552.06
486.427	542.06
486.645	595.06
486.863	595.06
487.081	595.06
487.299	581.06
487.517	568.06
487.735	571.06
487.953	545.06
488.171	572.06
488.389	585.06
488.607	574.06
488.825	577.06
489.043	584.06
489.261	585.06
489.479	596.06
489.696	587.06
489.914	602.06
490.132	600.06
490.35	614.06
490.568	625.06
490.786	624.06
491.003	642.06
491.221	658.06
491.439	663.06
491.657	675.06
491.874	689.06
492.092	669.06
492.31	690.06
492.527	667.06
492.745	689.06
492.963	700.06
493.18	711.06
493.398	705.06
493.615	712.06
493.833	710.06
494.05	718.06
494.268	704.06
494.485	709.06
494.703	676.06
494.92	683.06
495.138	722.06
495.355	690.06
495.573	732.06
495.79	715.06
496.008	727.06
496.225	682.06
496.442	692.06
496.66	691.06
496.877	691.06
497.094	711.06
497.312	673.06
497.529	700.06
497.746	702.06
497.963	709.06
498.181	721.06
498.398	719.06
498.615	708.06
498.832	755.06
499.049	740.06
499.267	726.06
499.484	797.06
499.701	796.06
499.918	761.06
500.135	797.06
500.352	781.06
500.569	832.06
500.786	843.06
501.003	824.06
501.22	808.06
501.437	806.06
501.654	789.06
501.871	808.06
502.088	792.06
502.305	794.06
502.522	724.06
502.739	735.06
502.956	714.06
503.172	704.06
503.389	709.06
503.606	701.06
503.823	691.06
504.04	684.06
504.256	676.06
504.473	681.06
504.69	666.06
504.907	647.06
505.123	655.06
505.34	668.06
505.557	638.06
505.773	642.06
505.99	664.06
506.207	657.06
506.423	644.06
506.64	648.06
506.856	646.06
507.073	661.06
507.289	657.06
507.506	642.06
507.722	669.06
507.939	663.06
508.155	692.06
508.372	640.06
508.588	630.06
508.805	655.06
509.021	622.06
509.238	646.06
509.454	655.06
509.67	667.06
509.887	643.06
510.103	648.06
510.319	644.06
510.536	764.06
510.752	1313.06
510.968	1092.06
511.184	683.06
511.401	640.06
511.617	646.06
511.833	627.06
512.049	642.06
512.265	622.06
512.481	615.06
512.698	603.06
512.914	615.06
513.13	606.06
513.346	594.06
513.562	612.06
513.778	625.06
513.994	634.06
514.21	659.06
514.426	656.06
514.642	679.06
514.858	741.06
515.074	790.06
515.29	953.06
515.506	1428.06
515.721	1167.06
515.937	772.06
516.153	710.06
516.369	656.06
516.585	621.06
516.801	620.06
517.016	615.06
517.232	615.06
517.448	600.06
517.664	627.06
517.879	604.06
518.095	592.06
518.311	596.06
518.527	614.06
518.742	605.06
518.958	594.06
519.173	589.06
519.389	601.06
519.605	580.06
519.82	597.06
520.036	611.06
520.251	669.06
520.467	702.06
520.682	688.06
520.898	654.06
521.113	741.06
521.329	764.06
521.544	890.06
521.76	1148.06
521.975	1963.06
522.19	1899.06
522.406	1006.06
522.621	752.06
522.836	662.06
523.052	610.06
523.267	585.06
523.482	566.06
523.698	544.06
523.913	581.06
524.128	580.06
524.343	538.06
524.559	530.06
524.774	545.06
524.989	502.06
525.204	538.06
525.419	535.06
525.634	513.06
525.849	507.06
526.064	516.06
526.28	494.06
526.495	489.06
526.71	490.06
526.925	490.06
527.14	464.06
527.355	468.06
527.57	489.06
527.785	478.06
527.999	481.06
528.214	459.06
528.429	479.06
528.644	493.06
528.859	465.06
529.074	484.06
529.289	526.06
529.503	627.06
529.718	592.06
529.933	546.06
530.148	534.06
530.363	493.06
530.577	474.06
530.792	458.06
531.007	473.06
531.221	471.06
531.436	483.06
531.651	455.06
531.865	451.06
532.08	461.06
532.295	453.06
532.509	456.06
532.724	451.06
532.938	436.06
533.153	454.06
533.367	442.06
533.582	444.06
533.796	453.06
534.011	464.06
534.225	439.06
534.44	444.06
534.654	437.06
534.868	436.06
535.083	459.06
535.297	430.06
535.511	440.06
535.726	470.06
535.94	453.06
536.154	444.06
536.369	443.06
536.583	442.06
536.797	457.06
537.011	421.06
537.225	422.06
537.44	421.06
537.654	429.06
537.868	429.06
538.082	442.06
538.296	424.06
538.51	439.06
538.724	438.06
538.938	429.06
539.153	451.06
539.367	439.06
539.581	463.06
539.795	446.06
540.009	424.06
540.222	441.06
540.436	424.06
540.65	444.06
540.864	418.06
541.078	456.06
541.292	444.06
541.506	429.06
541.72	445.06
541.934	440.06
542.147	430.06
542.361	446.06
542.575	420.06
542.789	418.06
543.002	424.06
543.216	434.06
543.43	438.06
543.644	428.06
543.857	426.06
544.071	433.06
544.285	436.06
544.498	427.06
544.712	424.06
544.925	416.06
545.139	413.06
545.352	414.06
545.566	408.06
545.779	412.06
545.993	408.06
546.206	420.06
546.42	420.06
546.633	417.06
546.847	395.06
547.06	414.06
547.274	395.06
547.487	413.06
547.7	418.06
547.914	402.06
548.127	402.06
548.34	400.06
548.554	394.06
548.767	386.06
548.98	405.06
549.193	392.06
549.407	394.06
549.62	406.06
549.833	396.06
550.046	379.06
550.259	380.06
550.473	400.06
550.686	393.06
550.899	386.06
551.112	385.06
551.325	396.06
551.538	385.06
551.751	389.06
551.964	361.06
552.177	386.06
552.39	376.06
552.603	398.06
552.816	399.06
553.029	410.06
553.242	381.06
553.455	389.06
553.667	413.06
553.88	406.06
554.093	407.06
554.306	408.06
554.519	393.06
554.732	412.06
554.944	405.06
555.157	371.06
555.37	383.06
555.583	380.06
555.795	379.06
556.008	345.06
556.221	388.06
556.433	368.06
556.646	381.06
556.859	348.06
557.071	376.06
557.284	358.06
557.496	365.06
557.709	355.06
557.921	366.06
558.134	369.06
558.346	372.06
558.559	355.06
558.771	371.06
558.984	365.06
559.196	357.06
559.409	354.06
559.621	358.06
559.833	341.06
560.046	370.06
560.258	359.06
560.47	350.06
560.683	364.06
560.895	358.06
561.107	350.06
561.32	357.06
561.532	340.06
561.744	349.06
561.956	362.06
562.168	355.06
562.381	365.06
562.593	347.06
562.805	340.06
563.017	351.06
563.229	368.06
563.441	353.06
563.653	371.06
563.865	356.06
564.077	372.06
564.289	361.06
564.501	370.06
564.713	370.06
564.925	378.06
565.137	386.06
565.349	394.06
565.561	382.06
565.773	376.06
565.985	373.06
566.197	368.06
566.408	371.06
566.62	383.06
566.832	388.06
567.044	429.06
567.255	423.06
567.467	402.06
567.679	420.06
567.891	393.06
568.102	406.06
568.314	389.06
568.526	394.06
568.737	407.06
568.949	378.06
569.161	344.06
569.372	371.06
569.584	366.06
569.795	366.06
570.007	369.06
570.218	390.06
570.43	376.06
570.641	342.06
570.853	345.06
571.064	341.06
571.276	346.06
571.487	325.06
571.698	320.06
571.91	322.06
572.121	338.06
572.333	338.06
572.544	313.06
572.755	312.06
572.966	345.06
573.178	317.06
573.389	310.06
573.6	334.06
573.811	326.06
574.023	311.06
574.234	312.06
574.445	329.06
574.656	322.06
574.867	324.06
575.078	296.06
575.289	312.06
575.501	309.06
575.712	317.06
575.923	304.06
576.134	313.06
576.345	302.06
576.556	329.06
576.767	311.06
576.978	337.06
577.188	324.06
577.399	297.06
577.61	309.06
577.821	310.06
578.032	305.06
578.243	353.06
578.454	590.06
578.665	443.06
578.875	313.06
579.086	299.06
579.297	312.06
579.508	279.06
579.718	307.06
579.929	299.06
580.14	287.06
580.35	299.06
580.561	289.06
580.772	274.06
580.982	279.06
581.193	276.06
581.403	308.06
581.614	271.06
581.825	296.06
582.035	292.06
582.246	282.06
582.456	302.06
582.667	292.06
582.877	283.06
583.087	287.06
583.298	287.06
583.508	289.06
583.719	261.06
583.929	285.06
584.139	277.06
584.35	267.06
584.56	284.06
584.77	283.06
584.981	287.06
585.191	277.06
585.401	290.06
585.611	275.06
585.821	285.06
586.032	277.06
586.242	278.06
586.452	297.06
586.662	267.06
586.872	270.06
587.082	263.06
587.292	276.06
587.502	282.06
587.713	280.06
587.923	264.06
588.133	281.06
588.343	273.06
588.553	281.06
588.762	269.06
588.972	286.06
589.182	270.06
589.392	280.06
589.602	264.06
589.812	286.06
590.022	281.06
590.232	275.06
590.441	280.06
590.651	286.06
590.861	258.06
591.071	276.06
591.281	264.06
591.49	278.06
591.7	268.06
591.91	257.06
592.119	277.06
592.329	282.06
592.539	273.06
592.748	280.06
592.958	295.06
593.167	278.06
593.377	272.06
593.587	286.06
593.796	275.06
594.006	278.06
594.215	258.06
594.424	263.06
594.634	263.06
594.843	269.06
595.053	289.06
595.262	270.06
595.472	253.06
595.681	254.06
595.89	270.06
596.1	288.06
596.309	266.06
596.518	262.06
596.727	235.06
596.937	237.06
597.146	259.06
597.355	262.06
597.564	263.06
597.774	237.06
597.983	245.06
598.192	255.06
598.401	260.06
598.61	256.06
598.819	248.06
599.028	241.06
599.237	250.06
599.446	240.06
599.655	236.06
599.864	250.06
600.073	265.06
600.282	260.06
600.491	250.06
600.7	243.06
600.909	237.06
601.118	233.06
601.327	253.06
601.536	228.06
601.745	243.06
601.953	236.06
602.162	231.06
602.371	247.06
602.58	230.06
602.789	234.06
602.997	219.06
603.206	240.06
603.415	251.06
603.623	244.06
603.832	250.06
604.041	234.06
604.249	254.06
604.458	242.06
604.666	240.06
604.875	243.06
605.084	229.06
605.292	225.06
605.501	217.06
605.709	238.06
605.918	222.06
606.126	226.06
606.334	213.06
606.543	238.06
606.751	222.06
606.96	230.06
607.168	237.06
607.376	232.06
607.585	238.06
607.793	224.06
608.001	244.06
608.21	224.06
608.418	225.06
608.626	230.06
608.834	207.06
609.043	217.06
609.251	227.06
609.459	230.06
609.667	235.06
609.875	235.06
610.083	242.06
610.291	231.06
610.499	223.06
610.707	229.06
610.916	247.06
611.124	241.06
611.332	236.06
611.54	235.06
611.748	233.06
611.955	239.06
612.163	236.06
612.371	230.06
612.579	220.06
612.787	211.06
612.995	222.06
613.203	233.06
613.411	228.06
613.618	235.06
613.826	226.06
614.034	226.06
614.242	204.06
614.449	214.06
614.657	226.06
614.865	225.06
615.072	202.06
615.28	233.06
615.488	215.06
615.695	233.06
615.903	233.06
616.111	213.06
616.318	228.06
616.526	218.06
616.733	213.06
616.941	205.06
617.148	222.06
617.356	220.06
617.563	216.06
617.771	212.06
617.978	204.06
618.185	211.06
618.393	206.06
618.6	227.06
618.807	223.06
619.015	224.06
619.222	230.06
619.429	233.06
619.637	210.06
619.844	231.06
620.051	220.06
620.258	219.06
620.466	214.06
620.673	194.06
620.88	211.06
621.087	209.06
621.294	215.06
621.501	208.06
621.708	207.06
621.915	206.06
622.122	219.06
622.329	214.06
622.536	206.06
622.743	204.06
622.95	210.06
623.157	189.06
623.364	203.06
623.571	214.06
623.778	222.06
623.985	220.06
624.192	206.06
624.399	211.06
624.606	212.06
624.812	221.06
625.019	182.06
625.226	192.06
625.433	194.06
625.639	197.06
625.846	200.06
626.053	162.06
626.259	204.06
626.466	202.06
626.673	201.06
626.879	177.06
627.086	185.06
627.293	203.06
627.499	181.06
627.706	194.06
627.912	187.06
628.119	182.06
628.325	195.06
628.532	206.06
628.738	199.06
628.945	198.06
629.151	173.06
629.357	197.06
629.564	184.06
629.77	185.06
629.976	184.06
630.183	180.06
630.389	202.06
630.595	201.06
630.802	185.06
631.008	183.06
631.214	181.06
631.42	201.06
631.627	187.06
631.833	193.06
632.039	177.06
632.245	182.06
632.451	174.06
632.657	185.06
632.863	163.06
633.069	195.06
633.275	182.06
633.481	174.06
633.688	190.06
633.893	182.06
634.099	187.06
634.305	188.06
634.511	173.06
634.717	161.06
634.923	184.06
635.129	176.06
635.335	168.06
635.541	176.06
635.747	188.06
635.952	192.06
636.158	188.06
636.364	210.06
636.57	210.06
636.775	194.06
636.981	185.06
637.187	185.06
637.392	167.06
637.598	157.06
637.804	166.06
638.009	174.06
638.215	166.06
638.421	166.06
638.626	152.06
638.832	171.06
639.037	159.06
639.243	173.06
639.448	173.06
639.654	164.06
639.859	157.06
640.065	173.06
640.27	181.06
640.475	160.06
640.681	157.06
640.886	154.06
641.091	172.06
641.297	161.06
641.502	172.06
641.707	158.06
641.913	160.06
642.118	167.06
642.323	157.06
642.528	165.06
642.733	160.06
642.939	165.06
643.144	150.06
643.349	152.06
643.554	157.06
643.759	138.06
643.964	155.06
644.169	154.06
644.374	168.06
644.579	156.06
644.784	166.06
644.989	168.06
645.194	161.06
645.399	169.06
645.604	164.06
645.809	165.06
646.014	160.06
646.219	150.06
646.423	159.06
646.628	173.06
646.833	140.06
647.038	149.06
647.243	162.06
647.447	154.06
647.652	163.06
647.857	166.06
648.062	167.06
648.266	164.06
648.471	157.06
648.676	159.06
648.88	168.06
649.085	165.06
649.289	154.06
649.494	167.06
649.698	179.06
649.903	167.06
650.107	157.06
650.312	154.06
650.516	160.06
650.721	150.06
650.925	139.06
651.13	136.06
651.334	148.06
651.539	153.06
651.743	133.06
651.947	153.06
652.152	156.06
652.356	143.06
652.56	135.06
652.764	143.06
652.969	139.06
653.173	121.06
653.377	126.06
653.581	124.06
653.785	130.06
653.99	138.06
654.194	130.06
654.398	137.06
654.602	139.06
654.806	134.06
655.01	140.06
655.214	145.06
655.418	142.06
655.622	121.06
655.826	123.06
656.03	128.06
656.234	126.06
656.438	122.06
656.642	131.06
656.846	134.06
657.049	127.06
657.253	124.06
657.457	120.06
657.661	124.06
657.865	117.06
658.068	134.06
658.272	99.06
658.476	103.06
658.68	105.06
658.883	106.06
659.087	112.06
659.291	101.06
659.494	103.06
659.698	96.06
659.901	111.06
660.105	105.06
660.309	101.06
660.512	91.06
660.716	99.06
660.919	103.06
661.123	106.06
661.326	92.06
661.53	85.06
661.733	92.06
661.936	83.06
662.14	81.06
662.343	95.06
662.546	88.06
662.75	77.06
662.953	101.06
663.156	73.06
663.36	84.06
663.563	80.06
663.766	76.06
663.969	84.06
664.173	73.06
664.376	81.06
664.579	78.06
664.782	89.06
664.985	80.06
665.188	85.06
665.391	76.06
665.594	68.06
665.797	78.06
666	85.06
666.203	85.06
666.406	83.06
666.609	84.06
666.812	84.06
667.015	95.06
667.218	80.06
667.421	78.06
667.624	92.06
667.827	68.06
668.03	81.06
668.232	76.06
668.435	105.06
668.638	76.06
668.841	89.06
669.043	73.06
669.246	77.06
669.449	73.06
669.651	84.06
669.854	84.06
670.057	90.06
670.259	70.06
670.462	82.06
670.665	76.06
670.867	93.06
671.07	88.06
671.272	83.06
671.475	84.06
671.677	73.06
671.88	85.06
672.082	78.06
672.284	97.06
672.487	73.06
672.689	78.06
672.892	81.06
