Data from 1986.PennyLincolnUp.Lamp.En5.5.200Scan.071819.P2_HRD10591_17-10-21-974.txt Node
Date: Thu Jul 18 17:10:21 EDT 2019
User: cochatt
Spectrometer: HR+D1059
Trigger mode: 1
Integration Time (sec): 1.000000E-1
Scans to average: 1
Electric dark correction enabled: true
Nonlinearity correction enabled: false
Boxcar width: 0
XAxis mode: Wavelengths
Number of Pixels in Spectrum: 2048
>>>>>Begin Spectral Data<<<<<
223.165	-9.62
223.4	-9.62
223.635	-9.62
223.869	-27.62
224.104	-24.62
224.338	-18.62
224.573	-22.62
224.808	-12.62
225.042	-9.62
225.277	-6.62
225.511	-7.62
225.746	1.38
225.98	24.38
226.215	12.38
226.449	4.38
226.683	33.38
226.918	23.38
227.152	40.38
227.387	40.38
227.621	27.38
227.856	50.38
228.09	52.38
228.324	45.38
228.559	45.38
228.793	59.38
229.027	82.38
229.262	107.38
229.496	106.38
229.73	137.38
229.964	152.38
230.199	138.38
230.433	124.38
230.667	122.38
230.901	115.38
231.136	96.38
231.37	112.38
231.604	116.38
231.838	124.38
232.072	113.38
232.306	109.38
232.541	122.38
232.775	115.38
233.009	107.38
233.243	105.38
233.477	117.38
233.711	113.38
233.945	118.38
234.179	108.38
234.413	113.38
234.647	109.38
234.881	116.38
235.115	106.38
235.349	110.38
235.583	121.38
235.817	105.38
236.051	104.38
236.285	118.38
236.519	111.38
236.753	133.38
236.987	148.38
237.221	172.38
237.455	233.38
237.689	193.38
237.922	155.38
238.156	129.38
238.39	146.38
238.624	123.38
238.858	129.38
239.091	109.38
239.325	115.38
239.559	120.38
239.793	136.38
240.027	134.38
240.26	138.38
240.494	150.38
240.728	161.38
240.961	145.38
241.195	150.38
241.429	136.38
241.662	136.38
241.896	128.38
242.13	137.38
242.363	126.38
242.597	137.38
242.83	129.38
243.064	121.38
243.298	123.38
243.531	148.38
243.765	133.38
243.998	125.38
244.232	138.38
244.465	154.38
244.699	147.38
244.932	130.38
245.166	123.38
245.399	132.38
245.633	142.38
245.866	148.38
246.099	147.38
246.333	151.38
246.566	160.38
246.8	148.38
247.033	142.38
247.266	152.38
247.5	180.38
247.733	175.38
247.966	177.38
248.2	177.38
248.433	166.38
248.666	180.38
248.899	199.38
249.133	184.38
249.366	187.38
249.599	196.38
249.832	171.38
250.066	174.38
250.299	169.38
250.532	182.38
250.765	202.38
250.998	216.38
251.231	234.38
251.465	218.38
251.698	211.38
251.931	189.38
252.164	216.38
252.397	195.38
252.63	212.38
252.863	195.38
253.096	228.38
253.329	226.38
253.562	231.38
253.795	217.38
254.028	218.38
254.261	231.38
254.494	252.38
254.727	242.38
254.96	290.38
255.193	283.38
255.426	243.38
255.659	244.38
255.892	238.38
256.124	232.38
256.357	229.38
256.59	216.38
256.823	211.38
257.056	224.38
257.289	205.38
257.521	218.38
257.754	203.38
257.987	212.38
258.22	202.38
258.452	203.38
258.685	209.38
258.918	201.38
259.151	207.38
259.383	210.38
259.616	225.38
259.849	219.38
260.081	232.38
260.314	248.38
260.547	269.38
260.779	251.38
261.012	252.38
261.244	233.38
261.477	234.38
261.71	237.38
261.942	234.38
262.175	246.38
262.407	245.38
262.64	222.38
262.872	206.38
263.105	215.38
263.337	227.38
263.57	213.38
263.802	206.38
264.035	218.38
264.267	228.38
264.499	225.38
264.732	210.38
264.964	205.38
265.197	211.38
265.429	206.38
265.661	219.38
265.894	223.38
266.126	217.38
266.358	225.38
266.591	209.38
266.823	211.38
267.055	232.38
267.287	218.38
267.52	223.38
267.752	210.38
267.984	216.38
268.216	215.38
268.448	236.38
268.681	201.38
268.913	239.38
269.145	248.38
269.377	279.38
269.609	278.38
269.841	257.38
270.073	264.38
270.306	304.38
270.538	320.38
270.77	320.38
271.002	306.38
271.234	300.38
271.466	304.38
271.698	308.38
271.93	309.38
272.162	320.38
272.394	322.38
272.626	332.38
272.858	304.38
273.09	292.38
273.322	273.38
273.553	252.38
273.785	265.38
274.017	252.38
274.249	242.38
274.481	248.38
274.713	253.38
274.945	248.38
275.176	279.38
275.408	265.38
275.64	260.38
275.872	260.38
276.104	274.38
276.335	272.38
276.567	270.38
276.799	276.38
277.031	308.38
277.262	310.38
277.494	316.38
277.726	305.38
277.957	285.38
278.189	256.38
278.421	261.38
278.652	259.38
278.884	260.38
279.115	268.38
279.347	254.38
279.579	257.38
279.81	258.38
280.042	253.38
280.273	247.38
280.505	251.38
280.736	253.38
280.968	246.38
281.199	246.38
281.431	256.38
281.662	266.38
281.894	268.38
282.125	250.38
282.356	267.38
282.588	277.38
282.819	299.38
283.051	273.38
283.282	238.38
283.513	267.38
283.745	257.38
283.976	256.38
284.207	268.38
284.439	260.38
284.67	268.38
284.901	253.38
285.132	262.38
285.364	261.38
285.595	263.38
285.826	244.38
286.057	266.38
286.288	263.38
286.52	245.38
286.751	243.38
286.982	258.38
287.213	273.38
287.444	268.38
287.675	286.38
287.906	283.38
288.138	281.38
288.369	262.38
288.6	281.38
288.831	250.38
289.062	269.38
289.293	268.38
289.524	270.38
289.755	274.38
289.986	286.38
290.217	271.38
290.448	257.38
290.679	242.38
290.91	257.38
291.141	278.38
291.371	275.38
291.602	275.38
291.833	261.38
292.064	236.38
292.295	262.38
292.526	256.38
292.757	263.38
292.987	264.38
293.218	251.38
293.449	274.38
293.68	258.38
293.91	261.38
294.141	272.38
294.372	274.38
294.603	268.38
294.833	264.38
295.064	277.38
295.295	276.38
295.525	268.38
295.756	271.38
295.987	263.38
296.217	289.38
296.448	310.38
296.679	292.38
296.909	262.38
297.14	264.38
297.37	283.38
297.601	274.38
297.831	268.38
298.062	274.38
298.292	288.38
298.523	284.38
298.753	283.38
298.984	276.38
299.214	273.38
299.445	285.38
299.675	277.38
299.905	290.38
300.136	286.38
300.366	277.38
300.597	283.38
300.827	302.38
301.057	305.38
301.288	291.38
301.518	300.38
301.748	290.38
301.979	297.38
302.209	289.38
302.439	299.38
302.669	264.38
302.9	288.38
303.13	298.38
303.36	297.38
303.59	310.38
303.82	306.38
304.051	319.38
304.281	289.38
304.511	291.38
304.741	300.38
304.971	284.38
305.201	310.38
305.431	316.38
305.661	308.38
305.891	301.38
306.121	295.38
306.352	306.38
306.582	312.38
306.812	293.38
307.042	294.38
307.272	293.38
307.502	294.38
307.731	304.38
307.961	297.38
308.191	306.38
308.421	298.38
308.651	311.38
308.881	310.38
309.111	315.38
309.341	320.38
309.571	341.38
309.8	358.38
310.03	372.38
310.26	346.38
310.49	352.38
310.72	363.38
310.949	379.38
311.179	385.38
311.409	356.38
311.639	354.38
311.868	342.38
312.098	353.38
312.328	355.38
312.557	394.38
312.787	398.38
313.017	365.38
313.246	372.38
313.476	358.38
313.706	349.38
313.935	344.38
314.165	356.38
314.394	369.38
314.624	364.38
314.853	370.38
315.083	355.38
315.312	352.38
315.542	327.38
315.771	332.38
316.001	346.38
316.23	342.38
316.46	339.38
316.689	358.38
316.919	358.38
317.148	369.38
317.377	362.38
317.607	336.38
317.836	358.38
318.065	351.38
318.295	344.38
318.524	340.38
318.753	338.38
318.983	358.38
319.212	347.38
319.441	348.38
319.67	351.38
319.9	355.38
320.129	350.38
320.358	364.38
320.587	362.38
320.816	365.38
321.046	376.38
321.275	404.38
321.504	382.38
321.733	368.38
321.962	393.38
322.191	398.38
322.42	410.38
322.649	435.38
322.878	432.38
323.108	459.38
323.337	477.38
323.566	510.38
323.795	518.38
324.024	606.38
324.253	715.38
324.482	1053.38
324.71	1584.38
324.939	2273.38
325.168	1977.38
325.397	1065.38
325.626	682.38
325.855	562.38
326.084	518.38
326.313	500.38
326.542	502.38
326.77	552.38
326.999	644.38
327.228	914.38
327.457	1387.38
327.686	1688.38
327.914	1170.38
328.143	780.38
328.372	672.38
328.6	609.38
328.829	582.38
329.058	561.38
329.287	588.38
329.515	566.38
329.744	518.38
329.972	505.38
330.201	518.38
330.43	545.38
330.658	582.38
330.887	611.38
331.115	616.38
331.344	521.38
331.572	473.38
331.801	477.38
332.03	484.38
332.258	456.38
332.486	406.38
332.715	422.38
332.943	423.38
333.172	411.38
333.4	446.38
333.629	398.38
333.857	419.38
334.085	410.38
334.314	434.38
334.542	429.38
334.771	460.38
334.999	438.38
335.227	426.38
335.455	427.38
335.684	410.38
335.912	406.38
336.14	400.38
336.369	398.38
336.597	426.38
336.825	400.38
337.053	411.38
337.281	405.38
337.51	402.38
337.738	393.38
337.966	396.38
338.194	395.38
338.422	409.38
338.65	384.38
338.878	402.38
339.106	401.38
339.334	378.38
339.562	372.38
339.79	383.38
340.018	388.38
340.246	397.38
340.474	378.38
340.702	372.38
340.93	400.38
341.158	367.38
341.386	396.38
341.614	405.38
341.842	399.38
342.07	376.38
342.298	381.38
342.526	373.38
342.754	386.38
342.981	392.38
343.209	370.38
343.437	352.38
343.665	371.38
343.893	396.38
344.12	378.38
344.348	384.38
344.576	380.38
344.804	400.38
345.031	413.38
345.259	398.38
345.487	401.38
345.714	402.38
345.942	389.38
346.17	390.38
346.397	377.38
346.625	379.38
346.853	373.38
347.08	388.38
347.308	379.38
347.535	388.38
347.763	401.38
347.99	384.38
348.218	378.38
348.445	400.38
348.673	408.38
348.9	377.38
349.128	382.38
349.355	366.38
349.583	337.38
349.81	356.38
350.037	354.38
350.265	369.38
350.492	363.38
350.72	376.38
350.947	374.38
351.174	390.38
351.402	393.38
351.629	410.38
351.856	382.38
352.083	396.38
352.311	397.38
352.538	397.38
352.765	398.38
352.992	430.38
353.22	380.38
353.447	378.38
353.674	381.38
353.901	366.38
354.128	358.38
354.355	337.38
354.583	354.38
354.81	372.38
355.037	357.38
355.264	337.38
355.491	355.38
355.718	359.38
355.945	342.38
356.172	336.38
356.399	338.38
356.626	347.38
356.853	340.38
357.08	355.38
357.307	349.38
357.534	331.38
357.761	343.38
357.988	347.38
358.215	344.38
358.441	344.38
358.668	355.38
358.895	351.38
359.122	327.38
359.349	361.38
359.576	380.38
359.802	422.38
360.029	454.38
360.256	453.38
360.483	427.38
360.709	403.38
360.936	392.38
361.163	390.38
361.39	394.38
361.616	388.38
361.843	390.38
362.07	369.38
362.296	380.38
362.523	390.38
362.749	388.38
362.976	339.38
363.203	378.38
363.429	372.38
363.656	348.38
363.882	361.38
364.109	353.38
364.335	362.38
364.562	353.38
364.788	375.38
365.015	356.38
365.241	366.38
365.468	345.38
365.694	370.38
365.92	356.38
366.147	372.38
366.373	350.38
366.599	358.38
366.826	357.38
367.052	358.38
367.278	352.38
367.505	357.38
367.731	362.38
367.957	355.38
368.184	353.38
368.41	358.38
368.636	369.38
368.862	365.38
369.089	363.38
369.315	358.38
369.541	361.38
369.767	348.38
369.993	334.38
370.219	359.38
370.445	372.38
370.672	340.38
370.898	337.38
371.124	342.38
371.35	352.38
371.576	336.38
371.802	321.38
372.028	327.38
372.254	345.38
372.48	337.38
372.706	336.38
372.932	334.38
373.158	331.38
373.384	369.38
373.61	362.38
373.835	347.38
374.061	321.38
374.287	356.38
374.513	331.38
374.739	370.38
374.965	372.38
375.191	359.38
375.416	350.38
375.642	331.38
375.868	370.38
376.094	361.38
376.319	334.38
376.545	348.38
376.771	362.38
376.997	341.38
377.222	339.38
377.448	344.38
377.674	340.38
377.899	334.38
378.125	337.38
378.35	352.38
378.576	335.38
378.802	338.38
379.027	348.38
379.253	333.38
379.478	330.38
379.704	338.38
379.929	328.38
380.155	346.38
380.38	333.38
380.606	356.38
380.831	344.38
381.057	356.38
381.282	354.38
381.507	344.38
381.733	355.38
381.958	350.38
382.184	350.38
382.409	339.38
382.634	345.38
382.86	339.38
383.085	339.38
383.31	337.38
383.535	357.38
383.761	362.38
383.986	357.38
384.211	364.38
384.436	357.38
384.662	347.38
384.887	341.38
385.112	352.38
385.337	345.38
385.562	369.38
385.787	342.38
386.013	376.38
386.238	382.38
386.463	384.38
386.688	368.38
386.913	363.38
387.138	361.38
387.363	376.38
387.588	352.38
387.813	374.38
388.038	371.38
388.263	360.38
388.488	358.38
388.713	377.38
388.938	368.38
389.163	388.38
389.387	372.38
389.612	354.38
389.837	352.38
390.062	342.38
390.287	361.38
390.512	352.38
390.736	359.38
390.961	370.38
391.186	356.38
391.411	360.38
391.636	364.38
391.86	355.38
392.085	377.38
392.31	375.38
392.534	364.38
392.759	369.38
392.984	345.38
393.208	361.38
393.433	372.38
393.658	370.38
393.882	350.38
394.107	368.38
394.331	354.38
394.556	367.38
394.78	349.38
395.005	360.38
395.229	383.38
395.454	370.38
395.678	395.38
395.903	376.38
396.127	388.38
396.352	422.38
396.576	380.38
396.801	366.38
397.025	364.38
397.249	361.38
397.474	367.38
397.698	393.38
397.922	387.38
398.147	425.38
398.371	412.38
398.595	405.38
398.82	408.38
399.044	392.38
399.268	397.38
399.492	425.38
399.717	441.38
399.941	458.38
400.165	484.38
400.389	497.38
400.613	500.38
400.837	421.38
401.062	417.38
401.286	415.38
401.51	396.38
401.734	418.38
401.958	394.38
402.182	432.38
402.406	429.38
402.63	444.38
402.854	438.38
403.078	411.38
403.302	406.38
403.526	419.38
403.75	408.38
403.974	398.38
404.198	423.38
404.422	402.38
404.645	418.38
404.869	420.38
405.093	447.38
405.317	477.38
405.541	505.38
405.765	452.38
405.988	450.38
406.212	460.38
406.436	477.38
406.66	498.38
406.883	473.38
407.107	482.38
407.331	537.38
407.555	578.38
407.778	572.38
408.002	522.38
408.226	494.38
408.449	453.38
408.673	470.38
408.896	507.38
409.12	521.38
409.344	508.38
409.567	455.38
409.791	442.38
410.014	437.38
410.238	430.38
410.461	427.38
410.685	426.38
410.908	440.38
411.132	472.38
411.355	493.38
411.578	486.38
411.802	436.38
412.025	432.38
412.249	432.38
412.472	439.38
412.695	459.38
412.919	429.38
413.142	411.38
413.365	410.38
413.589	406.38
413.812	407.38
414.035	381.38
414.258	408.38
414.482	393.38
414.705	388.38
414.928	388.38
415.151	394.38
415.374	394.38
415.597	398.38
415.821	402.38
416.044	408.38
416.267	424.38
416.49	411.38
416.713	395.38
416.936	379.38
417.159	395.38
417.382	413.38
417.605	405.38
417.828	409.38
418.051	437.38
418.274	423.38
418.497	414.38
418.72	402.38
418.943	394.38
419.166	410.38
419.389	415.38
419.611	436.38
419.834	428.38
420.057	406.38
420.28	422.38
420.503	444.38
420.726	422.38
420.948	429.38
421.171	470.38
421.394	526.38
421.617	449.38
421.839	441.38
422.062	434.38
422.285	432.38
422.507	484.38
422.73	568.38
422.953	556.38
423.175	509.38
423.398	459.38
423.621	456.38
423.843	471.38
424.066	489.38
424.288	493.38
424.511	505.38
424.733	545.38
424.956	624.38
425.178	598.38
425.401	600.38
425.623	605.38
425.846	547.38
426.068	485.38
426.291	488.38
426.513	489.38
426.735	514.38
426.958	549.38
427.18	614.38
427.402	698.38
427.625	788.38
427.847	718.38
428.069	620.38
428.292	521.38
428.514	485.38
428.736	459.38
428.958	465.38
429.181	437.38
429.403	446.38
429.625	433.38
429.847	464.38
430.069	518.38
430.292	549.38
430.514	461.38
430.736	457.38
430.958	442.38
431.18	410.38
431.402	408.38
431.624	389.38
431.846	391.38
432.068	392.38
432.29	410.38
432.512	413.38
432.734	429.38
432.956	413.38
433.178	440.38
433.4	428.38
433.622	416.38
433.844	416.38
434.066	415.38
434.287	408.38
434.509	428.38
434.731	437.38
434.953	429.38
435.175	435.38
435.397	445.38
435.618	506.38
435.84	518.38
436.062	589.38
436.284	650.38
436.505	565.38
436.727	496.38
436.949	471.38
437.17	449.38
437.392	457.38
437.614	457.38
437.835	517.38
438.057	596.38
438.278	686.38
438.5	708.38
438.721	712.38
438.943	701.38
439.165	562.38
439.386	488.38
439.608	508.38
439.829	486.38
440.05	536.38
440.272	563.38
440.493	532.38
440.715	498.38
440.936	473.38
441.158	452.38
441.379	469.38
441.6	464.38
441.822	484.38
442.043	533.38
442.264	590.38
442.486	620.38
442.707	537.38
442.928	502.38
443.149	513.38
443.371	521.38
443.592	546.38
443.813	634.38
444.034	690.38
444.255	581.38
444.476	501.38
444.698	474.38
444.919	468.38
445.14	537.38
445.361	522.38
445.582	549.38
445.803	595.38
446.024	686.38
446.245	696.38
446.466	632.38
446.687	539.38
446.908	485.38
447.129	454.38
447.35	461.38
447.571	453.38
447.792	450.38
448.013	449.38
448.234	458.38
448.455	525.38
448.675	640.38
448.896	744.38
449.117	613.38
449.338	593.38
449.559	669.38
449.779	753.38
450	638.38
450.221	491.38
450.442	489.38
450.662	462.38
450.883	460.38
451.104	480.38
451.324	457.38
451.545	433.38
451.766	432.38
451.986	411.38
452.207	388.38
452.428	406.38
452.648	406.38
452.869	417.38
453.089	412.38
453.31	425.38
453.53	424.38
453.751	412.38
453.971	405.38
454.192	428.38
454.412	423.38
454.633	402.38
454.853	391.38
455.073	388.38
455.294	418.38
455.514	481.38
455.734	491.38
455.955	392.38
456.175	384.38
456.395	377.38
456.616	371.38
456.836	379.38
457.056	382.38
457.276	368.38
457.497	360.38
457.717	361.38
457.937	381.38
458.157	392.38
458.377	369.38
458.598	413.38
458.818	464.38
459.038	547.38
459.258	560.38
459.478	466.38
459.698	425.38
459.918	419.38
460.138	384.38
460.358	395.38
460.578	389.38
460.798	394.38
461.018	423.38
461.238	410.38
461.458	391.38
461.678	382.38
461.898	413.38
462.118	405.38
462.338	411.38
462.558	426.38
462.777	409.38
462.997	413.38
463.217	417.38
463.437	432.38
463.657	414.38
463.876	410.38
464.096	418.38
464.316	427.38
464.536	429.38
464.755	448.38
464.975	438.38
465.195	484.38
465.414	590.38
465.634	507.38
465.854	465.38
466.073	429.38
466.293	419.38
466.512	406.38
466.732	417.38
466.951	398.38
467.171	404.38
467.391	398.38
467.61	412.38
467.829	392.38
468.049	411.38
468.268	428.38
468.488	398.38
468.707	395.38
468.927	392.38
469.146	378.38
469.365	402.38
469.585	393.38
469.804	402.38
470.023	400.38
470.243	402.38
470.462	402.38
470.681	440.38
470.901	432.38
471.12	411.38
471.339	405.38
471.558	402.38
471.777	410.38
471.997	388.38
472.216	394.38
472.435	412.38
472.654	421.38
472.873	397.38
473.092	410.38
473.311	388.38
473.53	413.38
473.749	420.38
473.968	464.38
474.187	558.38
474.406	606.38
474.625	481.38
474.844	424.38
475.063	432.38
475.282	413.38
475.501	404.38
475.72	427.38
475.939	429.38
476.158	440.38
476.377	412.38
476.596	411.38
476.814	420.38
477.033	441.38
477.252	461.38
477.471	435.38
477.69	448.38
477.908	448.38
478.127	433.38
478.346	427.38
478.564	425.38
478.783	442.38
479.002	462.38
479.22	458.38
479.439	492.38
479.658	459.38
479.876	500.38
480.095	495.38
480.313	514.38
480.532	496.38
480.751	492.38
480.969	500.38
481.188	549.38
481.406	562.38
481.624	518.38
481.843	471.38
482.061	485.38
482.28	471.38
482.498	470.38
482.717	466.38
482.935	456.38
483.153	484.38
483.372	490.38
483.59	488.38
483.808	484.38
484.027	455.38
484.245	462.38
484.463	491.38
484.681	501.38
484.9	489.38
485.118	502.38
485.336	494.38
485.554	493.38
485.772	490.38
485.99	504.38
486.209	498.38
486.427	520.38
486.645	510.38
486.863	546.38
487.081	530.38
487.299	542.38
487.517	523.38
487.735	510.38
487.953	510.38
488.171	527.38
488.389	548.38
488.607	534.38
488.825	504.38
489.043	493.38
489.261	537.38
489.479	541.38
489.696	527.38
489.914	568.38
490.132	576.38
490.35	566.38
490.568	546.38
490.786	566.38
491.003	582.38
491.221	562.38
491.439	585.38
491.657	585.38
491.874	569.38
492.092	609.38
492.31	597.38
492.527	607.38
492.745	628.38
492.963	596.38
493.18	587.38
493.398	607.38
493.615	608.38
493.833	612.38
494.05	622.38
494.268	595.38
494.485	619.38
494.703	601.38
494.92	610.38
495.138	635.38
495.355	636.38
495.573	631.38
495.79	617.38
496.008	636.38
496.225	611.38
496.442	621.38
496.66	633.38
496.877	624.38
497.094	638.38
497.312	629.38
497.529	641.38
497.746	664.38
497.963	644.38
498.181	651.38
498.398	667.38
498.615	683.38
498.832	661.38
499.049	680.38
499.267	699.38
499.484	718.38
499.701	707.38
499.918	728.38
500.135	743.38
500.352	747.38
500.569	779.38
500.786	774.38
501.003	788.38
501.22	747.38
501.437	757.38
501.654	726.38
501.871	776.38
502.088	720.38
502.305	723.38
502.522	701.38
502.739	692.38
502.956	674.38
503.172	650.38
503.389	634.38
503.606	661.38
503.823	657.38
504.04	649.38
504.256	615.38
504.473	621.38
504.69	609.38
504.907	600.38
505.123	606.38
505.34	612.38
505.557	610.38
505.773	615.38
505.99	627.38
506.207	621.38
506.423	604.38
506.64	587.38
506.856	588.38
507.073	595.38
507.289	596.38
507.506	617.38
507.722	628.38
507.939	653.38
508.155	641.38
508.372	587.38
508.588	584.38
508.805	594.38
509.021	577.38
509.238	611.38
509.454	606.38
509.67	585.38
509.887	580.38
510.103	583.38
510.319	627.38
510.536	723.38
510.752	1297.38
510.968	1046.38
511.184	629.38
511.401	576.38
511.617	588.38
511.833	557.38
512.049	546.38
512.265	554.38
512.481	563.38
512.698	550.38
512.914	571.38
513.13	559.38
513.346	542.38
513.562	552.38
513.778	588.38
513.994	573.38
514.21	579.38
514.426	619.38
514.642	673.38
514.858	668.38
515.074	759.38
515.29	932.38
515.506	1453.38
515.721	1160.38
515.937	736.38
516.153	676.38
516.369	613.38
516.585	589.38
516.801	604.38
517.016	542.38
517.232	554.38
517.448	567.38
517.664	550.38
517.879	556.38
518.095	578.38
518.311	561.38
518.527	585.38
518.742	566.38
518.958	563.38
519.173	588.38
519.389	561.38
519.605	561.38
519.82	561.38
520.036	586.38
520.251	625.38
520.467	637.38
520.682	622.38
520.898	660.38
521.113	674.38
521.329	752.38
521.544	848.38
521.76	1146.38
521.975	1932.38
522.19	1893.38
522.406	976.38
522.621	690.38
522.836	605.38
523.052	609.38
523.267	584.38
523.482	534.38
523.698	525.38
523.913	555.38
524.128	533.38
524.343	505.38
524.559	481.38
524.774	473.38
524.989	486.38
525.204	506.38
525.419	524.38
525.634	472.38
525.849	485.38
526.064	462.38
526.28	453.38
526.495	475.38
526.71	441.38
526.925	428.38
527.14	442.38
527.355	456.38
527.57	463.38
527.785	424.38
527.999	456.38
528.214	441.38
528.429	427.38
528.644	442.38
528.859	438.38
529.074	457.38
529.289	482.38
529.503	572.38
529.718	544.38
529.933	502.38
530.148	464.38
530.363	455.38
530.577	442.38
530.792	448.38
531.007	424.38
531.221	428.38
531.436	411.38
531.651	413.38
531.865	424.38
532.08	434.38
532.295	430.38
532.509	403.38
532.724	427.38
532.938	421.38
533.153	420.38
533.367	412.38
533.582	426.38
533.796	423.38
534.011	404.38
534.225	402.38
534.44	416.38
534.654	416.38
534.868	415.38
535.083	402.38
535.297	407.38
535.511	422.38
535.726	440.38
535.94	437.38
536.154	418.38
536.369	421.38
536.583	416.38
536.797	417.38
537.011	390.38
537.225	406.38
537.44	384.38
537.654	412.38
537.868	402.38
538.082	408.38
538.296	411.38
538.51	437.38
538.724	408.38
538.938	418.38
539.153	399.38
539.367	425.38
539.581	427.38
539.795	411.38
540.009	402.38
540.222	410.38
540.436	408.38
540.65	405.38
540.864	399.38
541.078	412.38
541.292	406.38
541.506	406.38
541.72	419.38
541.934	388.38
542.147	407.38
542.361	411.38
542.575	397.38
542.789	400.38
543.002	392.38
543.216	410.38
543.43	393.38
543.644	404.38
543.857	396.38
544.071	404.38
544.285	405.38
544.498	391.38
544.712	388.38
544.925	393.38
545.139	396.38
545.352	393.38
545.566	377.38
545.779	377.38
545.993	381.38
546.206	382.38
546.42	397.38
546.633	398.38
546.847	400.38
547.06	396.38
547.274	373.38
547.487	385.38
547.7	388.38
547.914	365.38
548.127	378.38
548.34	366.38
548.554	374.38
548.767	376.38
548.98	360.38
549.193	368.38
549.407	365.38
549.62	375.38
549.833	388.38
550.046	364.38
550.259	368.38
550.473	360.38
550.686	355.38
550.899	365.38
551.112	368.38
551.325	353.38
551.538	375.38
551.751	360.38
551.964	364.38
552.177	357.38
552.39	371.38
552.603	374.38
552.816	374.38
553.029	365.38
553.242	370.38
553.455	366.38
553.667	402.38
553.88	399.38
554.093	395.38
554.306	380.38
554.519	380.38
554.732	368.38
554.944	375.38
555.157	340.38
555.37	363.38
555.583	377.38
555.795	362.38
556.008	361.38
556.221	350.38
556.433	335.38
556.646	345.38
556.859	337.38
557.071	337.38
557.284	362.38
557.496	335.38
557.709	332.38
557.921	341.38
558.134	336.38
558.346	342.38
558.559	341.38
558.771	343.38
558.984	345.38
559.196	350.38
559.409	342.38
559.621	339.38
559.833	332.38
560.046	346.38
560.258	343.38
560.47	337.38
560.683	342.38
560.895	320.38
561.107	339.38
561.32	322.38
561.532	334.38
561.744	337.38
561.956	347.38
562.168	328.38
562.381	333.38
562.593	325.38
562.805	334.38
563.017	340.38
563.229	328.38
563.441	341.38
563.653	353.38
563.865	336.38
564.077	334.38
564.289	350.38
564.501	345.38
564.713	347.38
564.925	347.38
565.137	360.38
565.349	355.38
565.561	370.38
565.773	340.38
565.985	357.38
566.197	338.38
566.408	370.38
566.62	374.38
566.832	384.38
567.044	370.38
567.255	386.38
567.467	377.38
567.679	382.38
567.891	393.38
568.102	376.38
568.314	376.38
568.526	374.38
568.737	384.38
568.949	352.38
569.161	345.38
569.372	325.38
569.584	324.38
569.795	349.38
570.007	363.38
570.218	407.38
570.43	374.38
570.641	317.38
570.853	304.38
571.064	329.38
571.276	322.38
571.487	319.38
571.698	325.38
571.91	320.38
572.121	322.38
572.333	328.38
572.544	302.38
572.755	315.38
572.966	301.38
573.178	296.38
573.389	307.38
573.6	306.38
573.811	312.38
574.023	290.38
574.234	282.38
574.445	279.38
574.656	309.38
574.867	294.38
575.078	308.38
575.289	286.38
575.501	304.38
575.712	304.38
575.923	269.38
576.134	280.38
576.345	282.38
576.556	275.38
576.767	290.38
576.978	273.38
577.188	283.38
577.399	283.38
577.61	283.38
577.821	263.38
578.032	297.38
578.243	344.38
578.454	613.38
578.665	438.38
578.875	310.38
579.086	291.38
579.297	293.38
579.508	269.38
579.718	274.38
579.929	290.38
580.14	270.38
580.35	252.38
580.561	267.38
580.772	264.38
580.982	280.38
581.193	272.38
581.403	280.38
581.614	271.38
581.825	281.38
582.035	261.38
582.246	280.38
582.456	275.38
582.667	271.38
582.877	258.38
583.087	276.38
583.298	268.38
583.508	256.38
583.719	270.38
583.929	254.38
584.139	262.38
584.35	260.38
584.56	272.38
584.77	282.38
584.981	248.38
585.191	261.38
585.401	267.38
585.611	267.38
585.821	262.38
586.032	243.38
586.242	261.38
586.452	275.38
586.662	258.38
586.872	250.38
587.082	259.38
587.292	260.38
587.502	262.38
587.713	260.38
587.923	257.38
588.133	248.38
588.343	244.38
588.553	261.38
588.762	246.38
588.972	275.38
589.182	287.38
589.392	280.38
589.602	258.38
589.812	280.38
590.022	269.38
590.232	240.38
590.441	262.38
590.651	263.38
590.861	260.38
591.071	269.38
591.281	249.38
591.49	261.38
591.7	268.38
591.91	258.38
592.119	263.38
592.329	259.38
592.539	271.38
592.748	263.38
592.958	266.38
593.167	265.38
593.377	266.38
593.587	247.38
593.796	270.38
594.006	262.38
594.215	256.38
594.424	258.38
594.634	262.38
594.843	254.38
595.053	260.38
595.262	262.38
595.472	262.38
595.681	249.38
595.89	256.38
596.1	248.38
596.309	238.38
596.518	235.38
596.727	245.38
596.937	254.38
597.146	248.38
597.355	251.38
597.564	225.38
597.774	254.38
597.983	237.38
598.192	245.38
598.401	215.38
598.61	236.38
598.819	213.38
599.028	257.38
599.237	240.38
599.446	249.38
599.655	226.38
599.864	240.38
600.073	227.38
600.282	226.38
600.491	227.38
600.7	218.38
600.909	224.38
601.118	210.38
601.327	224.38
601.536	222.38
601.745	219.38
601.953	221.38
602.162	229.38
602.371	221.38
602.58	213.38
602.789	225.38
602.997	230.38
603.206	222.38
603.415	235.38
603.623	217.38
603.832	221.38
604.041	232.38
604.249	221.38
604.458	230.38
604.666	233.38
604.875	197.38
605.084	229.38
605.292	219.38
605.501	228.38
605.709	221.38
605.918	226.38
606.126	220.38
606.334	221.38
606.543	222.38
606.751	212.38
606.96	212.38
607.168	206.38
607.376	202.38
607.585	231.38
607.793	216.38
608.001	219.38
608.21	225.38
608.418	219.38
608.626	218.38
608.834	227.38
609.043	222.38
609.251	221.38
609.459	204.38
609.667	219.38
609.875	216.38
610.083	209.38
610.291	221.38
610.499	218.38
610.707	228.38
610.916	193.38
611.124	215.38
611.332	228.38
611.54	224.38
611.748	219.38
611.955	208.38
612.163	202.38
612.371	211.38
612.579	213.38
612.787	207.38
612.995	220.38
613.203	213.38
613.411	208.38
613.618	196.38
613.826	198.38
614.034	214.38
614.242	199.38
614.449	206.38
614.657	221.38
614.865	218.38
615.072	204.38
615.28	210.38
615.488	204.38
615.695	199.38
615.903	189.38
616.111	208.38
616.318	206.38
616.526	214.38
616.733	223.38
616.941	201.38
617.148	217.38
617.356	201.38
617.563	203.38
617.771	208.38
617.978	222.38
618.185	203.38
618.393	211.38
618.6	191.38
618.807	210.38
619.015	211.38
619.222	224.38
619.429	201.38
619.637	208.38
619.844	194.38
620.051	194.38
620.258	205.38
620.466	206.38
620.673	201.38
620.88	186.38
621.087	181.38
621.294	198.38
621.501	203.38
621.708	195.38
621.915	212.38
622.122	206.38
622.329	199.38
622.536	205.38
622.743	201.38
622.95	189.38
623.157	200.38
623.364	192.38
623.571	181.38
623.778	212.38
623.985	196.38
624.192	200.38
624.399	191.38
624.606	194.38
624.812	201.38
625.019	184.38
625.226	192.38
625.433	195.38
625.639	190.38
625.846	172.38
626.053	182.38
626.259	194.38
626.466	192.38
626.673	172.38
626.879	180.38
627.086	175.38
627.293	185.38
627.499	193.38
627.706	188.38
627.912	181.38
628.119	168.38
628.325	184.38
628.532	182.38
628.738	187.38
628.945	202.38
629.151	186.38
629.357	179.38
629.564	173.38
629.77	184.38
629.976	178.38
630.183	171.38
630.389	194.38
630.595	188.38
630.802	181.38
631.008	177.38
631.214	173.38
631.42	165.38
631.627	182.38
631.833	170.38
632.039	176.38
632.245	159.38
632.451	194.38
632.657	178.38
632.863	166.38
633.069	168.38
633.275	176.38
633.481	164.38
633.688	164.38
633.893	163.38
634.099	168.38
634.305	168.38
634.511	163.38
634.717	147.38
634.923	164.38
635.129	164.38
635.335	170.38
635.541	158.38
635.747	170.38
635.952	162.38
636.158	176.38
636.364	171.38
636.57	163.38
636.775	177.38
636.981	177.38
637.187	166.38
637.392	171.38
637.598	156.38
637.804	168.38
638.009	176.38
638.215	154.38
638.421	155.38
638.626	166.38
638.832	149.38
639.037	174.38
639.243	152.38
639.448	158.38
639.654	167.38
639.859	145.38
640.065	160.38
640.27	175.38
640.475	157.38
640.681	172.38
640.886	168.38
641.091	152.38
641.297	156.38
641.502	155.38
641.707	152.38
641.913	157.38
642.118	172.38
642.323	154.38
642.528	153.38
642.733	165.38
642.939	161.38
643.144	155.38
643.349	163.38
643.554	150.38
643.759	169.38
643.964	169.38
644.169	147.38
644.374	164.38
644.579	141.38
644.784	150.38
644.989	164.38
645.194	155.38
645.399	139.38
645.604	158.38
645.809	148.38
646.014	161.38
646.219	132.38
646.423	141.38
646.628	154.38
646.833	149.38
647.038	168.38
647.243	152.38
647.447	161.38
647.652	158.38
647.857	160.38
648.062	152.38
648.266	152.38
648.471	178.38
648.676	163.38
648.88	154.38
649.085	168.38
649.289	165.38
649.494	154.38
649.698	172.38
649.903	169.38
650.107	158.38
650.312	138.38
650.516	148.38
650.721	142.38
650.925	130.38
651.13	147.38
651.334	134.38
651.539	138.38
651.743	136.38
651.947	140.38
652.152	132.38
652.356	136.38
652.56	133.38
652.764	140.38
652.969	143.38
653.173	135.38
653.377	143.38
653.581	140.38
653.785	136.38
653.99	138.38
654.194	130.38
654.398	143.38
654.602	123.38
654.806	116.38
655.01	119.38
655.214	145.38
655.418	135.38
655.622	129.38
655.826	126.38
656.03	139.38
656.234	128.38
656.438	123.38
656.642	143.38
656.846	122.38
657.049	113.38
657.253	117.38
657.457	116.38
657.661	112.38
657.865	116.38
658.068	99.38
658.272	108.38
658.476	121.38
658.68	102.38
658.883	94.38
659.087	87.38
659.291	102.38
659.494	95.38
659.698	99.38
659.901	74.38
660.105	74.38
660.309	112.38
660.512	90.38
660.716	83.38
660.919	83.38
661.123	91.38
661.326	97.38
661.53	92.38
661.733	88.38
661.936	80.38
662.14	88.38
662.343	80.38
662.546	85.38
662.75	87.38
662.953	85.38
663.156	77.38
663.36	100.38
663.563	88.38
663.766	90.38
663.969	78.38
664.173	90.38
664.376	86.38
664.579	85.38
664.782	96.38
664.985	84.38
665.188	78.38
665.391	70.38
665.594	78.38
665.797	81.38
666	84.38
666.203	79.38
666.406	71.38
666.609	80.38
666.812	87.38
667.015	71.38
667.218	71.38
667.421	81.38
667.624	83.38
667.827	74.38
668.03	89.38
668.232	97.38
668.435	84.38
668.638	81.38
668.841	74.38
669.043	76.38
669.246	90.38
669.449	79.38
669.651	76.38
669.854	86.38
670.057	78.38
670.259	91.38
670.462	86.38
670.665	84.38
670.867	98.38
671.07	81.38
671.272	82.38
671.475	97.38
671.677	87.38
671.88	88.38
672.082	83.38
672.284	76.38
672.487	83.38
672.689	60.38
672.892	75.38
