Data from 1986.PennyLincolnUp.Lamp.En5.5.200Scan.071819.P2_HRD10591_17-10-13-974.txt Node
Date: Thu Jul 18 17:10:13 EDT 2019
User: cochatt
Spectrometer: HR+D1059
Trigger mode: 1
Integration Time (sec): 1.000000E-1
Scans to average: 1
Electric dark correction enabled: true
Nonlinearity correction enabled: false
Boxcar width: 0
XAxis mode: Wavelengths
Number of Pixels in Spectrum: 2048
>>>>>Begin Spectral Data<<<<<
223.165	-17.62
223.4	-17.62
223.635	-17.62
223.869	-18.62
224.104	-20.62
224.338	-11.62
224.573	-10.62
224.808	-7.62
225.042	2.38
225.277	14.38
225.511	-2.62
225.746	0.38
225.98	-4.62
226.215	5.38
226.449	10.38
226.683	21.38
226.918	17.38
227.152	22.38
227.387	47.38
227.621	44.38
227.856	39.38
228.09	50.38
228.324	48.38
228.559	48.38
228.793	59.38
229.027	113.38
229.262	110.38
229.496	133.38
229.73	138.38
229.964	169.38
230.199	124.38
230.433	116.38
230.667	110.38
230.901	116.38
231.136	116.38
231.37	114.38
231.604	119.38
231.838	113.38
232.072	109.38
232.306	115.38
232.541	98.38
232.775	107.38
233.009	114.38
233.243	104.38
233.477	114.38
233.711	102.38
233.945	98.38
234.179	114.38
234.413	120.38
234.647	119.38
234.881	125.38
235.115	106.38
235.349	119.38
235.583	118.38
235.817	123.38
236.051	129.38
236.285	130.38
236.519	122.38
236.753	132.38
236.987	144.38
237.221	174.38
237.455	235.38
237.689	186.38
237.922	136.38
238.156	133.38
238.39	129.38
238.624	134.38
238.858	137.38
239.091	140.38
239.325	137.38
239.559	125.38
239.793	123.38
240.027	118.38
240.26	153.38
240.494	173.38
240.728	150.38
240.961	151.38
241.195	138.38
241.429	139.38
241.662	142.38
241.896	139.38
242.13	129.38
242.363	141.38
242.597	141.38
242.83	131.38
243.064	140.38
243.298	138.38
243.531	136.38
243.765	134.38
243.998	155.38
244.232	129.38
244.465	145.38
244.699	146.38
244.932	140.38
245.166	137.38
245.399	141.38
245.633	141.38
245.866	155.38
246.099	140.38
246.333	142.38
246.566	131.38
246.8	156.38
247.033	141.38
247.266	168.38
247.5	152.38
247.733	153.38
247.966	169.38
248.2	181.38
248.433	162.38
248.666	175.38
248.899	176.38
249.133	195.38
249.366	206.38
249.599	202.38
249.832	197.38
250.066	169.38
250.299	176.38
250.532	194.38
250.765	195.38
250.998	233.38
251.231	229.38
251.465	212.38
251.698	212.38
251.931	212.38
252.164	198.38
252.397	192.38
252.63	208.38
252.863	208.38
253.096	217.38
253.329	229.38
253.562	213.38
253.795	229.38
254.028	229.38
254.261	231.38
254.494	246.38
254.727	273.38
254.96	293.38
255.193	268.38
255.426	249.38
255.659	220.38
255.892	225.38
256.124	231.38
256.357	218.38
256.59	212.38
256.823	204.38
257.056	201.38
257.289	204.38
257.521	189.38
257.754	218.38
257.987	195.38
258.22	185.38
258.452	216.38
258.685	191.38
258.918	201.38
259.151	207.38
259.383	202.38
259.616	232.38
259.849	225.38
260.081	231.38
260.314	256.38
260.547	245.38
260.779	245.38
261.012	237.38
261.244	228.38
261.477	234.38
261.71	244.38
261.942	222.38
262.175	249.38
262.407	230.38
262.64	208.38
262.872	229.38
263.105	217.38
263.337	205.38
263.57	206.38
263.802	207.38
264.035	206.38
264.267	228.38
264.499	204.38
264.732	196.38
264.964	217.38
265.197	201.38
265.429	211.38
265.661	204.38
265.894	186.38
266.126	214.38
266.358	209.38
266.591	211.38
266.823	213.38
267.055	218.38
267.287	227.38
267.52	202.38
267.752	226.38
267.984	217.38
268.216	246.38
268.448	218.38
268.681	236.38
268.913	241.38
269.145	247.38
269.377	275.38
269.609	278.38
269.841	252.38
270.073	281.38
270.306	283.38
270.538	320.38
270.77	322.38
271.002	315.38
271.234	301.38
271.466	303.38
271.698	315.38
271.93	319.38
272.162	330.38
272.394	313.38
272.626	310.38
272.858	296.38
273.09	269.38
273.322	263.38
273.553	261.38
273.785	261.38
274.017	263.38
274.249	274.38
274.481	244.38
274.713	249.38
274.945	259.38
275.176	246.38
275.408	261.38
275.64	253.38
275.872	258.38
276.104	261.38
276.335	260.38
276.567	253.38
276.799	273.38
277.031	286.38
277.262	297.38
277.494	316.38
277.726	277.38
277.957	288.38
278.189	286.38
278.421	257.38
278.652	254.38
278.884	246.38
279.115	238.38
279.347	229.38
279.579	243.38
279.81	249.38
280.042	236.38
280.273	249.38
280.505	233.38
280.736	251.38
280.968	263.38
281.199	236.38
281.431	254.38
281.662	249.38
281.894	269.38
282.125	232.38
282.356	279.38
282.588	287.38
282.819	295.38
283.051	253.38
283.282	243.38
283.513	278.38
283.745	258.38
283.976	266.38
284.207	272.38
284.439	250.38
284.67	239.38
284.901	259.38
285.132	252.38
285.364	243.38
285.595	243.38
285.826	248.38
286.057	250.38
286.288	254.38
286.52	272.38
286.751	265.38
286.982	270.38
287.213	270.38
287.444	262.38
287.675	255.38
287.906	250.38
288.138	284.38
288.369	282.38
288.6	269.38
288.831	285.38
289.062	268.38
289.293	271.38
289.524	267.38
289.755	261.38
289.986	247.38
290.217	265.38
290.448	266.38
290.679	250.38
290.91	248.38
291.141	259.38
291.371	259.38
291.602	255.38
291.833	260.38
292.064	259.38
292.295	279.38
292.526	251.38
292.757	272.38
292.987	278.38
293.218	257.38
293.449	255.38
293.68	270.38
293.91	261.38
294.141	267.38
294.372	249.38
294.603	267.38
294.833	278.38
295.064	253.38
295.295	264.38
295.525	271.38
295.756	260.38
295.987	246.38
296.217	302.38
296.448	303.38
296.679	279.38
296.909	281.38
297.14	252.38
297.37	272.38
297.601	275.38
297.831	265.38
298.062	261.38
298.292	268.38
298.523	250.38
298.753	271.38
298.984	277.38
299.214	266.38
299.445	280.38
299.675	265.38
299.905	270.38
300.136	281.38
300.366	293.38
300.597	282.38
300.827	286.38
301.057	308.38
301.288	289.38
301.518	285.38
301.748	289.38
301.979	281.38
302.209	307.38
302.439	286.38
302.669	294.38
302.9	282.38
303.13	263.38
303.36	296.38
303.59	318.38
303.82	300.38
304.051	328.38
304.281	295.38
304.511	297.38
304.741	305.38
304.971	289.38
305.201	293.38
305.431	306.38
305.661	269.38
305.891	293.38
306.121	278.38
306.352	289.38
306.582	295.38
306.812	321.38
307.042	295.38
307.272	307.38
307.502	306.38
307.731	310.38
307.961	295.38
308.191	303.38
308.421	300.38
308.651	318.38
308.881	289.38
309.111	289.38
309.341	309.38
309.571	325.38
309.8	329.38
310.03	320.38
310.26	345.38
310.49	342.38
310.72	370.38
310.949	379.38
311.179	378.38
311.409	346.38
311.639	360.38
311.868	358.38
312.098	354.38
312.328	343.38
312.557	373.38
312.787	371.38
313.017	414.38
313.246	359.38
313.476	328.38
313.706	342.38
313.935	359.38
314.165	373.38
314.394	377.38
314.624	380.38
314.853	362.38
315.083	339.38
315.312	355.38
315.542	339.38
315.771	332.38
316.001	325.38
316.23	342.38
316.46	344.38
316.689	338.38
316.919	352.38
317.148	346.38
317.377	375.38
317.607	359.38
317.836	333.38
318.065	353.38
318.295	338.38
318.524	335.38
318.753	352.38
318.983	335.38
319.212	339.38
319.441	358.38
319.67	377.38
319.9	345.38
320.129	349.38
320.358	355.38
320.587	351.38
320.816	357.38
321.046	370.38
321.275	361.38
321.504	375.38
321.733	371.38
321.962	391.38
322.191	382.38
322.42	417.38
322.649	416.38
322.878	428.38
323.108	459.38
323.337	474.38
323.566	509.38
323.795	537.38
324.024	618.38
324.253	697.38
324.482	1004.38
324.71	1531.38
324.939	2238.38
325.168	1971.38
325.397	1042.38
325.626	712.38
325.855	574.38
326.084	531.38
326.313	499.38
326.542	527.38
326.77	554.38
326.999	633.38
327.228	906.38
327.457	1377.38
327.686	1683.38
327.914	1173.38
328.143	743.38
328.372	620.38
328.6	591.38
328.829	557.38
329.058	577.38
329.287	593.38
329.515	505.38
329.744	489.38
329.972	467.38
330.201	494.38
330.43	512.38
330.658	542.38
330.887	599.38
331.115	593.38
331.344	517.38
331.572	470.38
331.801	452.38
332.03	437.38
332.258	420.38
332.486	405.38
332.715	400.38
332.943	400.38
333.172	417.38
333.4	393.38
333.629	407.38
333.857	415.38
334.085	428.38
334.314	405.38
334.542	405.38
334.771	434.38
334.999	417.38
335.227	409.38
335.455	419.38
335.684	390.38
335.912	394.38
336.14	386.38
336.369	390.38
336.597	389.38
336.825	387.38
337.053	389.38
337.281	383.38
337.51	387.38
337.738	372.38
337.966	379.38
338.194	388.38
338.422	389.38
338.65	380.38
338.878	379.38
339.106	391.38
339.334	376.38
339.562	385.38
339.79	373.38
340.018	364.38
340.246	369.38
340.474	371.38
340.702	363.38
340.93	398.38
341.158	385.38
341.386	387.38
341.614	393.38
341.842	375.38
342.07	381.38
342.298	383.38
342.526	364.38
342.754	349.38
342.981	363.38
343.209	349.38
343.437	358.38
343.665	376.38
343.893	381.38
344.12	373.38
344.348	381.38
344.576	380.38
344.804	396.38
345.031	396.38
345.259	396.38
345.487	395.38
345.714	386.38
345.942	386.38
346.17	372.38
346.397	369.38
346.625	382.38
346.853	365.38
347.08	380.38
347.308	373.38
347.535	379.38
347.763	381.38
347.99	363.38
348.218	393.38
348.445	384.38
348.673	383.38
348.9	393.38
349.128	365.38
349.355	348.38
349.583	371.38
349.81	343.38
350.037	343.38
350.265	353.38
350.492	353.38
350.72	375.38
350.947	346.38
351.174	376.38
351.402	405.38
351.629	389.38
351.856	381.38
352.083	373.38
352.311	410.38
352.538	394.38
352.765	415.38
352.992	388.38
353.22	375.38
353.447	365.38
353.674	377.38
353.901	365.38
354.128	360.38
354.355	354.38
354.583	333.38
354.81	334.38
355.037	357.38
355.264	353.38
355.491	345.38
355.718	333.38
355.945	332.38
356.172	352.38
356.399	341.38
356.626	347.38
356.853	318.38
357.08	350.38
357.307	335.38
357.534	340.38
357.761	335.38
357.988	344.38
358.215	337.38
358.441	333.38
358.668	340.38
358.895	361.38
359.122	363.38
359.349	358.38
359.576	340.38
359.802	402.38
360.029	429.38
360.256	442.38
360.483	415.38
360.709	402.38
360.936	375.38
361.163	384.38
361.39	384.38
361.616	371.38
361.843	377.38
362.07	371.38
362.296	367.38
362.523	361.38
362.749	373.38
362.976	364.38
363.203	355.38
363.429	342.38
363.656	326.38
363.882	344.38
364.109	323.38
364.335	343.38
364.562	344.38
364.788	349.38
365.015	351.38
365.241	340.38
365.468	365.38
365.694	367.38
365.92	374.38
366.147	349.38
366.373	357.38
366.599	346.38
366.826	344.38
367.052	327.38
367.278	334.38
367.505	346.38
367.731	355.38
367.957	340.38
368.184	350.38
368.41	370.38
368.636	355.38
368.862	371.38
369.089	348.38
369.315	344.38
369.541	339.38
369.767	331.38
369.993	355.38
370.219	357.38
370.445	358.38
370.672	341.38
370.898	341.38
371.124	325.38
371.35	338.38
371.576	348.38
371.802	324.38
372.028	317.38
372.254	323.38
372.48	337.38
372.706	327.38
372.932	340.38
373.158	345.38
373.384	329.38
373.61	322.38
373.835	334.38
374.061	345.38
374.287	349.38
374.513	331.38
374.739	342.38
374.965	357.38
375.191	344.38
375.416	334.38
375.642	354.38
375.868	348.38
376.094	354.38
376.319	357.38
376.545	324.38
376.771	340.38
376.997	344.38
377.222	333.38
377.448	333.38
377.674	335.38
377.899	329.38
378.125	341.38
378.35	328.38
378.576	346.38
378.802	339.38
379.027	343.38
379.253	323.38
379.478	346.38
379.704	313.38
379.929	342.38
380.155	330.38
380.38	332.38
380.606	343.38
380.831	348.38
381.057	355.38
381.282	342.38
381.507	334.38
381.733	335.38
381.958	338.38
382.184	350.38
382.409	334.38
382.634	337.38
382.86	353.38
383.085	325.38
383.31	334.38
383.535	347.38
383.761	358.38
383.986	324.38
384.211	345.38
384.436	340.38
384.662	347.38
384.887	347.38
385.112	346.38
385.337	311.38
385.562	344.38
385.787	334.38
386.013	365.38
386.238	367.38
386.463	357.38
386.688	375.38
386.913	355.38
387.138	328.38
387.363	362.38
387.588	365.38
387.813	356.38
388.038	364.38
388.263	339.38
388.488	332.38
388.713	349.38
388.938	346.38
389.163	363.38
389.387	327.38
389.612	341.38
389.837	350.38
390.062	348.38
390.287	354.38
390.512	342.38
390.736	340.38
390.961	354.38
391.186	366.38
391.411	337.38
391.636	353.38
391.86	339.38
392.085	346.38
392.31	351.38
392.534	346.38
392.759	347.38
392.984	354.38
393.208	346.38
393.433	348.38
393.658	364.38
393.882	334.38
394.107	333.38
394.331	356.38
394.556	344.38
394.78	339.38
395.005	364.38
395.229	345.38
395.454	360.38
395.678	342.38
395.903	356.38
396.127	380.38
396.352	369.38
396.576	364.38
396.801	367.38
397.025	375.38
397.249	362.38
397.474	366.38
397.698	378.38
397.922	387.38
398.147	390.38
398.371	399.38
398.595	392.38
398.82	377.38
399.044	373.38
399.268	421.38
399.492	410.38
399.717	439.38
399.941	433.38
400.165	486.38
400.389	499.38
400.613	441.38
400.837	418.38
401.062	404.38
401.286	409.38
401.51	410.38
401.734	401.38
401.958	397.38
402.182	403.38
402.406	411.38
402.63	405.38
402.854	403.38
403.078	401.38
403.302	409.38
403.526	413.38
403.75	423.38
403.974	422.38
404.198	390.38
404.422	415.38
404.645	409.38
404.869	413.38
405.093	444.38
405.317	462.38
405.541	458.38
405.765	447.38
405.988	441.38
406.212	434.38
406.436	457.38
406.66	481.38
406.883	476.38
407.107	478.38
407.331	526.38
407.555	566.38
407.778	567.38
408.002	505.38
408.226	451.38
408.449	448.38
408.673	491.38
408.896	485.38
409.12	515.38
409.344	493.38
409.567	461.38
409.791	444.38
410.014	435.38
410.238	429.38
410.461	415.38
410.685	408.38
410.908	429.38
411.132	471.38
411.355	490.38
411.578	477.38
411.802	426.38
412.025	388.38
412.249	408.38
412.472	426.38
412.695	426.38
412.919	411.38
413.142	417.38
413.365	403.38
413.589	390.38
413.812	383.38
414.035	393.38
414.258	361.38
414.482	389.38
414.705	389.38
414.928	380.38
415.151	383.38
415.374	389.38
415.597	384.38
415.821	380.38
416.044	380.38
416.267	397.38
416.49	384.38
416.713	400.38
416.936	398.38
417.159	379.38
417.382	371.38
417.605	383.38
417.828	411.38
418.051	418.38
418.274	423.38
418.497	398.38
418.72	399.38
418.943	379.38
419.166	379.38
419.389	412.38
419.611	406.38
419.834	414.38
420.057	417.38
420.28	411.38
420.503	424.38
420.726	393.38
420.948	429.38
421.171	462.38
421.394	492.38
421.617	457.38
421.839	440.38
422.062	424.38
422.285	430.38
422.507	475.38
422.73	559.38
422.953	497.38
423.175	463.38
423.398	428.38
423.621	435.38
423.843	483.38
424.066	469.38
424.288	457.38
424.511	485.38
424.733	524.38
424.956	618.38
425.178	606.38
425.401	578.38
425.623	577.38
425.846	509.38
426.068	479.38
426.291	465.38
426.513	466.38
426.735	470.38
426.958	508.38
427.18	568.38
427.402	708.38
427.625	776.38
427.847	677.38
428.069	586.38
428.292	525.38
428.514	481.38
428.736	468.38
428.958	431.38
429.181	422.38
429.403	445.38
429.625	447.38
429.847	492.38
430.069	550.38
430.292	542.38
430.514	449.38
430.736	422.38
430.958	424.38
431.18	426.38
431.402	406.38
431.624	394.38
431.846	385.38
432.068	413.38
432.29	399.38
432.512	395.38
432.734	414.38
432.956	405.38
433.178	426.38
433.4	427.38
433.622	405.38
433.844	393.38
434.066	395.38
434.287	391.38
434.509	398.38
434.731	413.38
434.953	419.38
435.175	422.38
435.397	473.38
435.618	468.38
435.84	514.38
436.062	571.38
436.284	654.38
436.505	571.38
436.727	482.38
436.949	458.38
437.17	444.38
437.392	422.38
437.614	430.38
437.835	503.38
438.057	599.38
438.278	665.38
438.5	664.38
438.721	731.38
438.943	698.38
439.165	570.38
439.386	466.38
439.608	492.38
439.829	504.38
440.05	519.38
440.272	548.38
440.493	524.38
440.715	457.38
440.936	451.38
441.158	449.38
441.379	433.38
441.6	429.38
441.822	461.38
442.043	503.38
442.264	586.38
442.486	644.38
442.707	516.38
442.928	500.38
443.149	510.38
443.371	521.38
443.592	555.38
443.813	623.38
444.034	692.38
444.255	561.38
444.476	481.38
444.698	470.38
444.919	462.38
445.14	545.38
445.361	540.38
445.582	527.38
445.803	577.38
446.024	667.38
446.245	669.38
446.466	614.38
446.687	508.38
446.908	465.38
447.129	458.38
447.35	440.38
447.571	454.38
447.792	426.38
448.013	458.38
448.234	442.38
448.455	521.38
448.675	614.38
448.896	702.38
449.117	601.38
449.338	556.38
449.559	643.38
449.779	726.38
450	603.38
450.221	501.38
450.442	450.38
450.662	439.38
450.883	450.38
451.104	462.38
451.324	426.38
451.545	417.38
451.766	421.38
451.986	410.38
452.207	376.38
452.428	375.38
452.648	372.38
452.869	399.38
453.089	393.38
453.31	413.38
453.53	397.38
453.751	414.38
453.971	389.38
454.192	404.38
454.412	414.38
454.633	368.38
454.853	392.38
455.073	393.38
455.294	428.38
455.514	493.38
455.734	464.38
455.955	392.38
456.175	353.38
456.395	348.38
456.616	358.38
456.836	381.38
457.056	361.38
457.276	357.38
457.497	364.38
457.717	363.38
457.937	382.38
458.157	390.38
458.377	388.38
458.598	417.38
458.818	467.38
459.038	564.38
459.258	565.38
459.478	476.38
459.698	419.38
459.918	400.38
460.138	393.38
460.358	414.38
460.578	381.38
460.798	387.38
461.018	402.38
461.238	377.38
461.458	389.38
461.678	382.38
461.898	392.38
462.118	388.38
462.338	411.38
462.558	399.38
462.777	408.38
462.997	420.38
463.217	433.38
463.437	421.38
463.657	396.38
463.876	410.38
464.096	405.38
464.316	410.38
464.536	424.38
464.755	423.38
464.975	419.38
465.195	504.38
465.414	586.38
465.634	492.38
465.854	422.38
466.073	406.38
466.293	386.38
466.512	385.38
466.732	389.38
466.951	385.38
467.171	394.38
467.391	411.38
467.61	407.38
467.829	423.38
468.049	418.38
468.268	405.38
468.488	380.38
468.707	382.38
468.927	373.38
469.146	373.38
469.365	371.38
469.585	380.38
469.804	401.38
470.023	413.38
470.243	408.38
470.462	405.38
470.681	408.38
470.901	430.38
471.12	415.38
471.339	392.38
471.558	391.38
471.777	401.38
471.997	394.38
472.216	405.38
472.435	386.38
472.654	409.38
472.873	394.38
473.092	373.38
473.311	391.38
473.53	388.38
473.749	407.38
473.968	457.38
474.187	561.38
474.406	592.38
474.625	462.38
474.844	417.38
475.063	390.38
475.282	375.38
475.501	386.38
475.72	393.38
475.939	422.38
476.158	415.38
476.377	430.38
476.596	409.38
476.814	428.38
477.033	399.38
477.252	443.38
477.471	410.38
477.69	420.38
477.908	421.38
478.127	427.38
478.346	427.38
478.564	439.38
478.783	423.38
479.002	461.38
479.22	454.38
479.439	463.38
479.658	477.38
479.876	492.38
480.095	472.38
480.313	509.38
480.532	485.38
480.751	469.38
480.969	500.38
481.188	523.38
481.406	513.38
481.624	484.38
481.843	469.38
482.061	475.38
482.28	462.38
482.498	439.38
482.717	446.38
482.935	453.38
483.153	443.38
483.372	464.38
483.59	460.38
483.808	433.38
484.027	449.38
484.245	467.38
484.463	466.38
484.681	464.38
484.9	469.38
485.118	480.38
485.336	474.38
485.554	472.38
485.772	479.38
485.99	478.38
486.209	495.38
486.427	484.38
486.645	495.38
486.863	518.38
487.081	505.38
487.299	507.38
487.517	496.38
487.735	521.38
487.953	494.38
488.171	499.38
488.389	489.38
488.607	509.38
488.825	489.38
489.043	503.38
489.261	515.38
489.479	531.38
489.696	524.38
489.914	544.38
490.132	517.38
490.35	543.38
490.568	525.38
490.786	539.38
491.003	524.38
491.221	551.38
491.439	584.38
491.657	582.38
491.874	578.38
492.092	581.38
492.31	567.38
492.527	602.38
492.745	601.38
492.963	577.38
493.18	615.38
493.398	592.38
493.615	599.38
493.833	609.38
494.05	578.38
494.268	592.38
494.485	610.38
494.703	596.38
494.92	615.38
495.138	603.38
495.355	618.38
495.573	598.38
495.79	633.38
496.008	621.38
496.225	627.38
496.442	613.38
496.66	602.38
496.877	614.38
497.094	625.38
497.312	622.38
497.529	618.38
497.746	637.38
497.963	618.38
498.181	648.38
498.398	645.38
498.615	663.38
498.832	659.38
499.049	651.38
499.267	657.38
499.484	684.38
499.701	695.38
499.918	673.38
500.135	720.38
500.352	711.38
500.569	737.38
500.786	745.38
501.003	730.38
501.22	733.38
501.437	722.38
501.654	714.38
501.871	730.38
502.088	717.38
502.305	678.38
502.522	664.38
502.739	655.38
502.956	625.38
503.172	649.38
503.389	613.38
503.606	629.38
503.823	630.38
504.04	613.38
504.256	635.38
504.473	613.38
504.69	595.38
504.907	643.38
505.123	607.38
505.34	579.38
505.557	589.38
505.773	573.38
505.99	615.38
506.207	571.38
506.423	611.38
506.64	611.38
506.856	584.38
507.073	566.38
507.289	580.38
507.506	585.38
507.722	572.38
507.939	621.38
508.155	600.38
508.372	567.38
508.588	541.38
508.805	571.38
509.021	592.38
509.238	589.38
509.454	595.38
509.67	589.38
509.887	577.38
510.103	580.38
510.319	599.38
510.536	693.38
510.752	1238.38
510.968	1031.38
511.184	622.38
511.401	568.38
511.617	555.38
511.833	561.38
512.049	551.38
512.265	561.38
512.481	540.38
512.698	543.38
512.914	543.38
513.13	548.38
513.346	535.38
513.562	554.38
513.778	553.38
513.994	562.38
514.21	590.38
514.426	611.38
514.642	654.38
514.858	719.38
515.074	737.38
515.29	882.38
515.506	1411.38
515.721	1149.38
515.937	713.38
516.153	636.38
516.369	621.38
516.585	597.38
516.801	551.38
517.016	565.38
517.232	545.38
517.448	556.38
517.664	551.38
517.879	557.38
518.095	520.38
518.311	543.38
518.527	539.38
518.742	562.38
518.958	535.38
519.173	524.38
519.389	518.38
519.605	559.38
519.82	565.38
520.036	597.38
520.251	591.38
520.467	645.38
520.682	637.38
520.898	626.38
521.113	673.38
521.329	734.38
521.544	837.38
521.76	1107.38
521.975	1921.38
522.19	1869.38
522.406	965.38
522.621	692.38
522.836	612.38
523.052	563.38
523.267	537.38
523.482	529.38
523.698	513.38
523.913	514.38
524.128	505.38
524.343	481.38
524.559	490.38
524.774	475.38
524.989	474.38
525.204	474.38
525.419	520.38
525.634	486.38
525.849	457.38
526.064	474.38
526.28	461.38
526.495	439.38
526.71	461.38
526.925	469.38
527.14	451.38
527.355	447.38
527.57	470.38
527.785	440.38
527.999	441.38
528.214	449.38
528.429	441.38
528.644	429.38
528.859	451.38
529.074	444.38
529.289	475.38
529.503	584.38
529.718	537.38
529.933	497.38
530.148	461.38
530.363	436.38
530.577	452.38
530.792	415.38
531.007	426.38
531.221	431.38
531.436	403.38
531.651	420.38
531.865	419.38
532.08	413.38
532.295	424.38
532.509	435.38
532.724	401.38
532.938	409.38
533.153	408.38
533.367	398.38
533.582	399.38
533.796	430.38
534.011	415.38
534.225	413.38
534.44	390.38
534.654	423.38
534.868	409.38
535.083	376.38
535.297	422.38
535.511	422.38
535.726	419.38
535.94	424.38
536.154	421.38
536.369	430.38
536.583	420.38
536.797	402.38
537.011	407.38
537.225	396.38
537.44	393.38
537.654	383.38
537.868	384.38
538.082	407.38
538.296	393.38
538.51	413.38
538.724	410.38
538.938	404.38
539.153	401.38
539.367	395.38
539.581	409.38
539.795	400.38
540.009	393.38
540.222	383.38
540.436	383.38
540.65	388.38
540.864	399.38
541.078	428.38
541.292	406.38
541.506	402.38
541.72	391.38
541.934	398.38
542.147	409.38
542.361	390.38
542.575	381.38
542.789	387.38
543.002	398.38
543.216	405.38
543.43	417.38
543.644	404.38
543.857	385.38
544.071	405.38
544.285	391.38
544.498	393.38
544.712	393.38
544.925	406.38
545.139	380.38
545.352	399.38
545.566	393.38
545.779	406.38
545.993	379.38
546.206	385.38
546.42	387.38
546.633	374.38
546.847	383.38
547.06	359.38
547.274	383.38
547.487	370.38
547.7	382.38
547.914	375.38
548.127	364.38
548.34	382.38
548.554	380.38
548.767	363.38
548.98	378.38
549.193	364.38
549.407	358.38
549.62	364.38
549.833	361.38
550.046	375.38
550.259	358.38
550.473	381.38
550.686	387.38
550.899	373.38
551.112	358.38
551.325	358.38
551.538	374.38
551.751	357.38
551.964	358.38
552.177	372.38
552.39	349.38
552.603	349.38
552.816	365.38
553.029	374.38
553.242	371.38
553.455	357.38
553.667	370.38
553.88	383.38
554.093	367.38
554.306	381.38
554.519	367.38
554.732	370.38
554.944	362.38
555.157	351.38
555.37	352.38
555.583	369.38
555.795	343.38
556.008	341.38
556.221	337.38
556.433	353.38
556.646	355.38
556.859	342.38
557.071	342.38
557.284	330.38
557.496	319.38
557.709	334.38
557.921	350.38
558.134	326.38
558.346	331.38
558.559	323.38
558.771	314.38
558.984	332.38
559.196	335.38
559.409	322.38
559.621	322.38
559.833	329.38
560.046	319.38
560.258	333.38
560.47	333.38
560.683	339.38
560.895	345.38
561.107	310.38
561.32	328.38
561.532	323.38
561.744	329.38
561.956	340.38
562.168	333.38
562.381	329.38
562.593	332.38
562.805	331.38
563.017	341.38
563.229	340.38
563.441	326.38
563.653	329.38
563.865	325.38
564.077	324.38
564.289	325.38
564.501	336.38
564.713	343.38
564.925	337.38
565.137	359.38
565.349	344.38
565.561	332.38
565.773	353.38
565.985	370.38
566.197	345.38
566.408	349.38
566.62	360.38
566.832	353.38
567.044	388.38
567.255	364.38
567.467	373.38
567.679	366.38
567.891	372.38
568.102	389.38
568.314	370.38
568.526	375.38
568.737	351.38
568.949	354.38
569.161	351.38
569.372	335.38
569.584	347.38
569.795	333.38
570.007	327.38
570.218	408.38
570.43	374.38
570.641	341.38
570.853	312.38
571.064	310.38
571.276	296.38
571.487	311.38
571.698	318.38
571.91	314.38
572.121	284.38
572.333	295.38
572.544	307.38
572.755	293.38
572.966	301.38
573.178	290.38
573.389	301.38
573.6	308.38
573.811	298.38
574.023	313.38
574.234	300.38
574.445	309.38
574.656	287.38
574.867	293.38
575.078	278.38
575.289	272.38
575.501	298.38
575.712	290.38
575.923	287.38
576.134	285.38
576.345	282.38
576.556	269.38
576.767	282.38
576.978	275.38
577.188	287.38
577.399	293.38
577.61	281.38
577.821	286.38
578.032	300.38
578.243	354.38
578.454	605.38
578.665	438.38
578.875	305.38
579.086	267.38
579.297	285.38
579.508	287.38
579.718	269.38
579.929	263.38
580.14	256.38
580.35	263.38
580.561	279.38
580.772	262.38
580.982	274.38
581.193	257.38
581.403	274.38
581.614	260.38
581.825	263.38
582.035	259.38
582.246	278.38
582.456	269.38
582.667	264.38
582.877	287.38
583.087	261.38
583.298	252.38
583.508	262.38
583.719	246.38
583.929	265.38
584.139	271.38
584.35	262.38
584.56	252.38
584.77	261.38
584.981	285.38
585.191	248.38
585.401	242.38
585.611	266.38
585.821	262.38
586.032	261.38
586.242	251.38
586.452	256.38
586.662	238.38
586.872	243.38
587.082	261.38
587.292	231.38
587.502	242.38
587.713	247.38
587.923	235.38
588.133	229.38
588.343	257.38
588.553	245.38
588.762	250.38
588.972	265.38
589.182	289.38
589.392	285.38
589.602	272.38
589.812	269.38
590.022	260.38
590.232	239.38
590.441	243.38
590.651	264.38
590.861	257.38
591.071	245.38
591.281	242.38
591.49	257.38
591.7	234.38
591.91	244.38
592.119	265.38
592.329	257.38
592.539	261.38
592.748	245.38
592.958	259.38
593.167	250.38
593.377	244.38
593.587	266.38
593.796	253.38
594.006	250.38
594.215	248.38
594.424	276.38
594.634	265.38
594.843	270.38
595.053	245.38
595.262	237.38
595.472	236.38
595.681	238.38
595.89	248.38
596.1	257.38
596.309	254.38
596.518	240.38
596.727	239.38
596.937	230.38
597.146	230.38
597.355	236.38
597.564	230.38
597.774	221.38
597.983	235.38
598.192	236.38
598.401	227.38
598.61	230.38
598.819	219.38
599.028	238.38
599.237	228.38
599.446	225.38
599.655	225.38
599.864	226.38
600.073	222.38
600.282	216.38
600.491	211.38
600.7	229.38
600.909	210.38
601.118	227.38
601.327	218.38
601.536	197.38
601.745	218.38
601.953	226.38
602.162	213.38
602.371	227.38
602.58	225.38
602.789	216.38
602.997	211.38
603.206	231.38
603.415	217.38
603.623	228.38
603.832	204.38
604.041	233.38
604.249	207.38
604.458	225.38
604.666	222.38
604.875	207.38
605.084	213.38
605.292	202.38
605.501	201.38
605.709	217.38
605.918	207.38
606.126	226.38
606.334	221.38
606.543	209.38
606.751	215.38
606.96	215.38
607.168	223.38
607.376	202.38
607.585	210.38
607.793	221.38
608.001	209.38
608.21	213.38
608.418	216.38
608.626	211.38
608.834	223.38
609.043	203.38
609.251	212.38
609.459	204.38
609.667	213.38
609.875	208.38
610.083	203.38
610.291	215.38
610.499	197.38
610.707	216.38
610.916	220.38
611.124	211.38
611.332	220.38
611.54	232.38
611.748	204.38
611.955	208.38
612.163	180.38
612.371	201.38
612.579	201.38
612.787	204.38
612.995	205.38
613.203	213.38
613.411	203.38
613.618	207.38
613.826	221.38
614.034	206.38
614.242	208.38
614.449	221.38
614.657	191.38
614.865	207.38
615.072	219.38
615.28	210.38
615.488	214.38
615.695	197.38
615.903	211.38
616.111	195.38
616.318	198.38
616.526	211.38
616.733	208.38
616.941	210.38
617.148	211.38
617.356	198.38
617.563	198.38
617.771	209.38
617.978	183.38
618.185	197.38
618.393	197.38
618.6	198.38
618.807	209.38
619.015	207.38
619.222	202.38
619.429	202.38
619.637	217.38
619.844	200.38
620.051	199.38
620.258	198.38
620.466	190.38
620.673	202.38
620.88	201.38
621.087	183.38
621.294	188.38
621.501	186.38
621.708	183.38
621.915	207.38
622.122	204.38
622.329	189.38
622.536	186.38
622.743	196.38
622.95	183.38
623.157	183.38
623.364	199.38
623.571	199.38
623.778	202.38
623.985	189.38
624.192	190.38
624.399	178.38
624.606	177.38
624.812	164.38
625.019	184.38
625.226	186.38
625.433	204.38
625.639	182.38
625.846	177.38
626.053	189.38
626.259	195.38
626.466	187.38
626.673	172.38
626.879	193.38
627.086	193.38
627.293	181.38
627.499	181.38
627.706	182.38
627.912	198.38
628.119	168.38
628.325	168.38
628.532	169.38
628.738	175.38
628.945	171.38
629.151	177.38
629.357	190.38
629.564	174.38
629.77	187.38
629.976	193.38
630.183	166.38
630.389	176.38
630.595	173.38
630.802	177.38
631.008	173.38
631.214	183.38
631.42	185.38
631.627	161.38
631.833	184.38
632.039	162.38
632.245	166.38
632.451	162.38
632.657	159.38
632.863	159.38
633.069	182.38
633.275	165.38
633.481	162.38
633.688	181.38
633.893	177.38
634.099	174.38
634.305	165.38
634.511	154.38
634.717	167.38
634.923	164.38
635.129	166.38
635.335	153.38
635.541	149.38
635.747	170.38
635.952	145.38
636.158	164.38
636.364	166.38
636.57	168.38
636.775	177.38
636.981	163.38
637.187	163.38
637.392	146.38
637.598	163.38
637.804	163.38
638.009	162.38
638.215	153.38
638.421	158.38
638.626	162.38
638.832	166.38
639.037	167.38
639.243	159.38
639.448	158.38
639.654	153.38
639.859	169.38
640.065	162.38
640.27	163.38
640.475	184.38
640.681	163.38
640.886	155.38
641.091	163.38
641.297	152.38
641.502	150.38
641.707	141.38
641.913	147.38
642.118	157.38
642.323	153.38
642.528	181.38
642.733	160.38
642.939	143.38
643.144	146.38
643.349	145.38
643.554	153.38
643.759	138.38
643.964	136.38
644.169	148.38
644.374	139.38
644.579	155.38
644.784	143.38
644.989	161.38
645.194	147.38
645.399	153.38
645.604	148.38
645.809	155.38
646.014	149.38
646.219	152.38
646.423	157.38
646.628	130.38
646.833	160.38
647.038	150.38
647.243	155.38
647.447	149.38
647.652	154.38
647.857	154.38
648.062	157.38
648.266	145.38
648.471	147.38
648.676	151.38
648.88	148.38
649.085	161.38
649.289	161.38
649.494	157.38
649.698	160.38
649.903	142.38
650.107	159.38
650.312	154.38
650.516	149.38
650.721	161.38
650.925	141.38
651.13	156.38
651.334	131.38
651.539	138.38
651.743	154.38
651.947	129.38
652.152	145.38
652.356	143.38
652.56	126.38
652.764	134.38
652.969	122.38
653.173	142.38
653.377	120.38
653.581	125.38
653.785	144.38
653.99	129.38
654.194	137.38
654.398	127.38
654.602	114.38
654.806	124.38
655.01	142.38
655.214	149.38
655.418	132.38
655.622	131.38
655.826	131.38
656.03	127.38
656.234	131.38
656.438	124.38
656.642	135.38
656.846	137.38
657.049	101.38
657.253	116.38
657.457	105.38
657.661	99.38
657.865	105.38
658.068	125.38
658.272	97.38
658.476	105.38
658.68	104.38
658.883	101.38
659.087	117.38
659.291	110.38
659.494	113.38
659.698	97.38
659.901	94.38
660.105	89.38
660.309	84.38
660.512	90.38
660.716	95.38
660.919	78.38
661.123	101.38
661.326	93.38
661.53	90.38
661.733	92.38
661.936	91.38
662.14	89.38
662.343	90.38
662.546	87.38
662.75	96.38
662.953	90.38
663.156	86.38
663.36	83.38
663.563	66.38
663.766	75.38
663.969	92.38
664.173	83.38
664.376	91.38
664.579	59.38
664.782	87.38
664.985	104.38
665.188	81.38
665.391	86.38
665.594	90.38
665.797	70.38
666	84.38
666.203	82.38
666.406	82.38
666.609	79.38
666.812	87.38
667.015	84.38
667.218	91.38
667.421	87.38
667.624	81.38
667.827	85.38
668.03	66.38
668.232	75.38
668.435	90.38
668.638	83.38
668.841	81.38
669.043	87.38
669.246	86.38
669.449	91.38
669.651	84.38
669.854	71.38
670.057	80.38
670.259	89.38
670.462	86.38
670.665	90.38
670.867	73.38
671.07	66.38
671.272	78.38
671.475	79.38
671.677	94.38
671.88	78.38
672.082	81.38
672.284	89.38
672.487	92.38
672.689	81.38
672.892	77.38
