Data from 1986.PennyLincolnUp.Lamp.En5.5.200Scan.071819.P2_HRD10591_17-09-39-974.txt Node
Date: Thu Jul 18 17:09:39 EDT 2019
User: cochatt
Spectrometer: HR+D1059
Trigger mode: 1
Integration Time (sec): 1.000000E-1
Scans to average: 1
Electric dark correction enabled: true
Nonlinearity correction enabled: false
Boxcar width: 0
XAxis mode: Wavelengths
Number of Pixels in Spectrum: 2048
>>>>>Begin Spectral Data<<<<<
223.165	-13.94
223.4	-13.94
223.635	-13.94
223.869	-7.94
224.104	-13.94
224.338	-12.94
224.573	-23.94
224.808	-1.94
225.042	-14.94
225.277	-4.94
225.511	0.06
225.746	12.06
225.98	7.06
226.215	7.06
226.449	6.06
226.683	19.06
226.918	14.06
227.152	29.06
227.387	29.06
227.621	35.06
227.856	49.06
228.09	33.06
228.324	41.06
228.559	52.06
228.793	72.06
229.027	84.06
229.262	104.06
229.496	82.06
229.73	102.06
229.964	130.06
230.199	120.06
230.433	100.06
230.667	92.06
230.901	93.06
231.136	92.06
231.37	89.06
231.604	99.06
231.838	102.06
232.072	95.06
232.306	96.06
232.541	101.06
232.775	108.06
233.009	89.06
233.243	98.06
233.477	104.06
233.711	116.06
233.945	106.06
234.179	99.06
234.413	104.06
234.647	108.06
234.881	103.06
235.115	104.06
235.349	105.06
235.583	100.06
235.817	97.06
236.051	114.06
236.285	112.06
236.519	102.06
236.753	116.06
236.987	126.06
237.221	157.06
237.455	196.06
237.689	160.06
237.922	114.06
238.156	116.06
238.39	119.06
238.624	116.06
238.858	102.06
239.091	112.06
239.325	108.06
239.559	112.06
239.793	106.06
240.027	98.06
240.26	114.06
240.494	134.06
240.728	137.06
240.961	133.06
241.195	124.06
241.429	134.06
241.662	117.06
241.896	108.06
242.13	115.06
242.363	128.06
242.597	119.06
242.83	104.06
243.064	121.06
243.298	118.06
243.531	113.06
243.765	119.06
243.998	119.06
244.232	138.06
244.465	128.06
244.699	116.06
244.932	124.06
245.166	133.06
245.399	132.06
245.633	132.06
245.866	116.06
246.099	123.06
246.333	139.06
246.566	128.06
246.8	138.06
247.033	137.06
247.266	140.06
247.5	125.06
247.733	153.06
247.966	160.06
248.2	151.06
248.433	157.06
248.666	155.06
248.899	177.06
249.133	164.06
249.366	184.06
249.599	176.06
249.832	162.06
250.066	156.06
250.299	158.06
250.532	146.06
250.765	153.06
250.998	174.06
251.231	185.06
251.465	180.06
251.698	169.06
251.931	169.06
252.164	171.06
252.397	175.06
252.63	180.06
252.863	194.06
253.096	204.06
253.329	200.06
253.562	191.06
253.795	186.06
254.028	188.06
254.261	194.06
254.494	192.06
254.727	203.06
254.96	231.06
255.193	232.06
255.426	221.06
255.659	205.06
255.892	192.06
256.124	182.06
256.357	187.06
256.59	184.06
256.823	176.06
257.056	192.06
257.289	181.06
257.521	166.06
257.754	177.06
257.987	153.06
258.22	169.06
258.452	195.06
258.685	168.06
258.918	165.06
259.151	155.06
259.383	185.06
259.616	177.06
259.849	185.06
260.081	193.06
260.314	211.06
260.547	212.06
260.779	199.06
261.012	195.06
261.244	200.06
261.477	198.06
261.71	189.06
261.942	204.06
262.175	200.06
262.407	202.06
262.64	181.06
262.872	196.06
263.105	173.06
263.337	181.06
263.57	165.06
263.802	165.06
264.035	185.06
264.267	161.06
264.499	169.06
264.732	173.06
264.964	169.06
265.197	169.06
265.429	188.06
265.661	164.06
265.894	168.06
266.126	179.06
266.358	173.06
266.591	179.06
266.823	178.06
267.055	194.06
267.287	187.06
267.52	184.06
267.752	193.06
267.984	188.06
268.216	201.06
268.448	180.06
268.681	198.06
268.913	199.06
269.145	205.06
269.377	219.06
269.609	218.06
269.841	196.06
270.073	202.06
270.306	228.06
270.538	236.06
270.77	246.06
271.002	241.06
271.234	225.06
271.466	227.06
271.698	255.06
271.93	256.06
272.162	246.06
272.394	246.06
272.626	225.06
272.858	232.06
273.09	216.06
273.322	215.06
273.553	219.06
273.785	208.06
274.017	220.06
274.249	218.06
274.481	219.06
274.713	201.06
274.945	221.06
275.176	228.06
275.408	229.06
275.64	225.06
275.872	215.06
276.104	212.06
276.335	227.06
276.567	206.06
276.799	222.06
277.031	224.06
277.262	230.06
277.494	249.06
277.726	232.06
277.957	214.06
278.189	225.06
278.421	206.06
278.652	218.06
278.884	220.06
279.115	224.06
279.347	210.06
279.579	212.06
279.81	224.06
280.042	237.06
280.273	220.06
280.505	224.06
280.736	227.06
280.968	214.06
281.199	203.06
281.431	199.06
281.662	207.06
281.894	211.06
282.125	216.06
282.356	216.06
282.588	217.06
282.819	248.06
283.051	213.06
283.282	215.06
283.513	204.06
283.745	232.06
283.976	210.06
284.207	218.06
284.439	215.06
284.67	217.06
284.901	221.06
285.132	221.06
285.364	222.06
285.595	229.06
285.826	202.06
286.057	219.06
286.288	233.06
286.52	212.06
286.751	214.06
286.982	233.06
287.213	198.06
287.444	211.06
287.675	240.06
287.906	216.06
288.138	229.06
288.369	228.06
288.6	236.06
288.831	225.06
289.062	230.06
289.293	215.06
289.524	218.06
289.755	229.06
289.986	228.06
290.217	228.06
290.448	208.06
290.679	217.06
290.91	213.06
291.141	229.06
291.371	206.06
291.602	216.06
291.833	221.06
292.064	214.06
292.295	233.06
292.526	231.06
292.757	227.06
292.987	228.06
293.218	212.06
293.449	229.06
293.68	229.06
293.91	224.06
294.141	210.06
294.372	218.06
294.603	217.06
294.833	222.06
295.064	237.06
295.295	220.06
295.525	202.06
295.756	219.06
295.987	236.06
296.217	240.06
296.448	274.06
296.679	249.06
296.909	225.06
297.14	222.06
297.37	231.06
297.601	235.06
297.831	235.06
298.062	224.06
298.292	213.06
298.523	227.06
298.753	229.06
298.984	257.06
299.214	223.06
299.445	212.06
299.675	221.06
299.905	242.06
300.136	238.06
300.366	232.06
300.597	233.06
300.827	238.06
301.057	248.06
301.288	258.06
301.518	251.06
301.748	250.06
301.979	247.06
302.209	241.06
302.439	236.06
302.669	248.06
302.9	250.06
303.13	244.06
303.36	250.06
303.59	243.06
303.82	264.06
304.051	263.06
304.281	273.06
304.511	258.06
304.741	245.06
304.971	238.06
305.201	245.06
305.431	257.06
305.661	244.06
305.891	266.06
306.121	237.06
306.352	262.06
306.582	251.06
306.812	253.06
307.042	228.06
307.272	248.06
307.502	248.06
307.731	268.06
307.961	254.06
308.191	235.06
308.421	241.06
308.651	264.06
308.881	249.06
309.111	260.06
309.341	247.06
309.571	259.06
309.8	264.06
310.03	271.06
310.26	276.06
310.49	286.06
310.72	277.06
310.949	284.06
311.179	294.06
311.409	278.06
311.639	284.06
311.868	295.06
312.098	294.06
312.328	275.06
312.557	294.06
312.787	308.06
313.017	289.06
313.246	290.06
313.476	277.06
313.706	288.06
313.935	291.06
314.165	284.06
314.394	314.06
314.624	278.06
314.853	294.06
315.083	281.06
315.312	276.06
315.542	290.06
315.771	288.06
316.001	271.06
316.23	273.06
316.46	289.06
316.689	284.06
316.919	276.06
317.148	294.06
317.377	278.06
317.607	277.06
317.836	288.06
318.065	293.06
318.295	283.06
318.524	285.06
318.753	290.06
318.983	274.06
319.212	291.06
319.441	291.06
319.67	276.06
319.9	292.06
320.129	285.06
320.358	276.06
320.587	288.06
320.816	290.06
321.046	289.06
321.275	320.06
321.504	296.06
321.733	311.06
321.962	314.06
322.191	300.06
322.42	317.06
322.649	337.06
322.878	330.06
323.108	354.06
323.337	342.06
323.566	377.06
323.795	379.06
324.024	418.06
324.253	501.06
324.482	668.06
324.71	1016.06
324.939	1490.06
325.168	1296.06
325.397	669.06
325.626	455.06
325.855	399.06
326.084	377.06
326.313	364.06
326.542	375.06
326.77	384.06
326.999	444.06
327.228	614.06
327.457	932.06
327.686	1097.06
327.914	763.06
328.143	496.06
328.372	436.06
328.6	418.06
328.829	403.06
329.058	416.06
329.287	400.06
329.515	376.06
329.744	361.06
329.972	360.06
330.201	356.06
330.43	360.06
330.658	390.06
330.887	410.06
331.115	416.06
331.344	380.06
331.572	363.06
331.801	344.06
332.03	371.06
332.258	347.06
332.486	331.06
332.715	337.06
332.943	320.06
333.172	322.06
333.4	325.06
333.629	325.06
333.857	334.06
334.085	335.06
334.314	335.06
334.542	324.06
334.771	340.06
334.999	319.06
335.227	340.06
335.455	321.06
335.684	324.06
335.912	318.06
336.14	315.06
336.369	311.06
336.597	330.06
336.825	315.06
337.053	345.06
337.281	320.06
337.51	321.06
337.738	317.06
337.966	319.06
338.194	336.06
338.422	324.06
338.65	318.06
338.878	317.06
339.106	314.06
339.334	318.06
339.562	309.06
339.79	320.06
340.018	289.06
340.246	308.06
340.474	325.06
340.702	321.06
340.93	312.06
341.158	314.06
341.386	310.06
341.614	306.06
341.842	314.06
342.07	311.06
342.298	313.06
342.526	310.06
342.754	292.06
342.981	312.06
343.209	307.06
343.437	302.06
343.665	318.06
343.893	309.06
344.12	317.06
344.348	301.06
344.576	320.06
344.804	317.06
345.031	329.06
345.259	315.06
345.487	325.06
345.714	338.06
345.942	319.06
346.17	317.06
346.397	313.06
346.625	311.06
346.853	310.06
347.08	301.06
347.308	301.06
347.535	330.06
347.763	328.06
347.99	314.06
348.218	330.06
348.445	323.06
348.673	319.06
348.9	322.06
349.128	317.06
349.355	295.06
349.583	291.06
349.81	290.06
350.037	304.06
350.265	298.06
350.492	305.06
350.72	295.06
350.947	288.06
351.174	321.06
351.402	326.06
351.629	294.06
351.856	301.06
352.083	301.06
352.311	330.06
352.538	293.06
352.765	324.06
352.992	310.06
353.22	321.06
353.447	311.06
353.674	306.06
353.901	292.06
354.128	292.06
354.355	289.06
354.583	298.06
354.81	306.06
355.037	301.06
355.264	298.06
355.491	295.06
355.718	284.06
355.945	277.06
356.172	299.06
356.399	298.06
356.626	285.06
356.853	281.06
357.08	292.06
357.307	287.06
357.534	286.06
357.761	298.06
357.988	296.06
358.215	277.06
358.441	286.06
358.668	316.06
358.895	285.06
359.122	290.06
359.349	294.06
359.576	313.06
359.802	322.06
360.029	342.06
360.256	361.06
360.483	337.06
360.709	297.06
360.936	297.06
361.163	309.06
361.39	318.06
361.616	308.06
361.843	300.06
362.07	293.06
362.296	309.06
362.523	297.06
362.749	314.06
362.976	300.06
363.203	306.06
363.429	290.06
363.656	307.06
363.882	283.06
364.109	294.06
364.335	294.06
364.562	298.06
364.788	284.06
365.015	292.06
365.241	291.06
365.468	305.06
365.694	282.06
365.92	305.06
366.147	292.06
366.373	300.06
366.599	290.06
366.826	286.06
367.052	298.06
367.278	291.06
367.505	289.06
367.731	308.06
367.957	290.06
368.184	270.06
368.41	296.06
368.636	304.06
368.862	309.06
369.089	310.06
369.315	295.06
369.541	297.06
369.767	299.06
369.993	295.06
370.219	269.06
370.445	296.06
370.672	285.06
370.898	297.06
371.124	276.06
371.35	300.06
371.576	284.06
371.802	277.06
372.028	299.06
372.254	283.06
372.48	296.06
372.706	274.06
372.932	329.06
373.158	292.06
373.384	310.06
373.61	290.06
373.835	304.06
374.061	296.06
374.287	292.06
374.513	296.06
374.739	302.06
374.965	307.06
375.191	315.06
375.416	296.06
375.642	309.06
375.868	296.06
376.094	294.06
376.319	307.06
376.545	289.06
376.771	280.06
376.997	287.06
377.222	291.06
377.448	284.06
377.674	292.06
377.899	300.06
378.125	297.06
378.35	292.06
378.576	294.06
378.802	291.06
379.027	295.06
379.253	308.06
379.478	302.06
379.704	298.06
379.929	289.06
380.155	294.06
380.38	288.06
380.606	299.06
380.831	304.06
381.057	290.06
381.282	292.06
381.507	321.06
381.733	294.06
381.958	301.06
382.184	300.06
382.409	307.06
382.634	302.06
382.86	288.06
383.085	304.06
383.31	306.06
383.535	313.06
383.761	296.06
383.986	300.06
384.211	303.06
384.436	307.06
384.662	312.06
384.887	308.06
385.112	329.06
385.337	316.06
385.562	308.06
385.787	302.06
386.013	318.06
386.238	329.06
386.463	315.06
386.688	313.06
386.913	322.06
387.138	312.06
387.363	317.06
387.588	313.06
387.813	302.06
388.038	315.06
388.263	310.06
388.488	333.06
388.713	309.06
388.938	330.06
389.163	298.06
389.387	302.06
389.612	316.06
389.837	286.06
390.062	302.06
390.287	323.06
390.512	322.06
390.736	290.06
390.961	295.06
391.186	306.06
391.411	313.06
391.636	315.06
391.86	308.06
392.085	314.06
392.31	292.06
392.534	312.06
392.759	322.06
392.984	321.06
393.208	331.06
393.433	343.06
393.658	356.06
393.882	310.06
394.107	310.06
394.331	321.06
394.556	312.06
394.78	319.06
395.005	317.06
395.229	314.06
395.454	332.06
395.678	325.06
395.903	324.06
396.127	340.06
396.352	340.06
396.576	326.06
396.801	341.06
397.025	348.06
397.249	334.06
397.474	326.06
397.698	321.06
397.922	335.06
398.147	365.06
398.371	337.06
398.595	342.06
398.82	332.06
399.044	341.06
399.268	344.06
399.492	363.06
399.717	388.06
399.941	397.06
400.165	437.06
400.389	444.06
400.613	394.06
400.837	377.06
401.062	332.06
401.286	337.06
401.51	337.06
401.734	346.06
401.958	357.06
402.182	356.06
402.406	361.06
402.63	365.06
402.854	347.06
403.078	351.06
403.302	328.06
403.526	346.06
403.75	361.06
403.974	354.06
404.198	353.06
404.422	349.06
404.645	360.06
404.869	352.06
405.093	379.06
405.317	378.06
405.541	417.06
405.765	366.06
405.988	381.06
406.212	364.06
406.436	403.06
406.66	397.06
406.883	388.06
407.107	392.06
407.331	413.06
407.555	472.06
407.778	479.06
408.002	423.06
408.226	408.06
408.449	397.06
408.673	417.06
408.896	413.06
409.12	448.06
409.344	427.06
409.567	393.06
409.791	375.06
410.014	363.06
410.238	350.06
410.461	361.06
410.685	373.06
410.908	373.06
411.132	418.06
411.355	410.06
411.578	409.06
411.802	381.06
412.025	364.06
412.249	359.06
412.472	355.06
412.695	343.06
412.919	349.06
413.142	352.06
413.365	343.06
413.589	348.06
413.812	333.06
414.035	340.06
414.258	336.06
414.482	336.06
414.705	352.06
414.928	328.06
415.151	334.06
415.374	337.06
415.597	346.06
415.821	319.06
416.044	325.06
416.267	352.06
416.49	355.06
416.713	318.06
416.936	350.06
417.159	321.06
417.382	325.06
417.605	358.06
417.828	358.06
418.051	366.06
418.274	338.06
418.497	334.06
418.72	345.06
418.943	336.06
419.166	339.06
419.389	372.06
419.611	352.06
419.834	343.06
420.057	354.06
420.28	368.06
420.503	349.06
420.726	338.06
420.948	349.06
421.171	385.06
421.394	412.06
421.617	363.06
421.839	352.06
422.062	373.06
422.285	362.06
422.507	390.06
422.73	464.06
422.953	437.06
423.175	399.06
423.398	377.06
423.621	370.06
423.843	374.06
424.066	418.06
424.288	403.06
424.511	415.06
424.733	427.06
424.956	509.06
425.178	492.06
425.401	485.06
425.623	493.06
425.846	428.06
426.068	394.06
426.291	396.06
426.513	387.06
426.735	402.06
426.958	433.06
427.18	493.06
427.402	567.06
427.625	640.06
427.847	566.06
428.069	460.06
428.292	448.06
428.514	380.06
428.736	374.06
428.958	381.06
429.181	365.06
429.403	365.06
429.625	360.06
429.847	390.06
430.069	442.06
430.292	451.06
430.514	374.06
430.736	372.06
430.958	362.06
431.18	356.06
431.402	365.06
431.624	344.06
431.846	350.06
432.068	344.06
432.29	344.06
432.512	347.06
432.734	354.06
432.956	368.06
433.178	370.06
433.4	352.06
433.622	352.06
433.844	364.06
434.066	359.06
434.287	342.06
434.509	349.06
434.731	369.06
434.953	355.06
435.175	374.06
435.397	388.06
435.618	387.06
435.84	436.06
436.062	489.06
436.284	543.06
436.505	456.06
436.727	406.06
436.949	384.06
437.17	374.06
437.392	372.06
437.614	376.06
437.835	397.06
438.057	454.06
438.278	555.06
438.5	537.06
438.721	610.06
438.943	555.06
439.165	469.06
439.386	420.06
439.608	404.06
439.829	392.06
440.05	404.06
440.272	444.06
440.493	414.06
440.715	393.06
440.936	377.06
441.158	358.06
441.379	360.06
441.6	356.06
441.822	379.06
442.043	414.06
442.264	471.06
442.486	530.06
442.707	443.06
442.928	416.06
443.149	411.06
443.371	413.06
443.592	470.06
443.813	511.06
444.034	548.06
444.255	488.06
444.476	413.06
444.698	377.06
444.919	385.06
445.14	516.06
445.361	444.06
445.582	441.06
445.803	460.06
446.024	518.06
446.245	557.06
446.466	515.06
446.687	424.06
446.908	384.06
447.129	368.06
447.35	366.06
447.571	361.06
447.792	375.06
448.013	372.06
448.234	403.06
448.455	434.06
448.675	531.06
448.896	573.06
449.117	504.06
449.338	493.06
449.559	556.06
449.779	590.06
450	478.06
450.221	401.06
450.442	354.06
450.662	361.06
450.883	358.06
451.104	358.06
451.324	366.06
451.545	352.06
451.766	332.06
451.986	328.06
452.207	324.06
452.428	338.06
452.648	320.06
452.869	325.06
453.089	343.06
453.31	354.06
453.53	320.06
453.751	329.06
453.971	340.06
454.192	348.06
454.412	340.06
454.633	318.06
454.853	329.06
455.073	316.06
455.294	361.06
455.514	397.06
455.734	382.06
455.955	331.06
456.175	333.06
456.395	310.06
456.616	313.06
456.836	328.06
457.056	307.06
457.276	314.06
457.497	311.06
457.717	320.06
457.937	297.06
458.157	341.06
458.377	348.06
458.598	344.06
458.818	380.06
459.038	440.06
459.258	449.06
459.478	376.06
459.698	347.06
459.918	332.06
460.138	353.06
460.358	329.06
460.578	365.06
460.798	350.06
461.018	370.06
461.238	342.06
461.458	337.06
461.678	351.06
461.898	332.06
462.118	338.06
462.338	338.06
462.558	355.06
462.777	359.06
462.997	361.06
463.217	369.06
463.437	358.06
463.657	361.06
463.876	353.06
464.096	364.06
464.316	358.06
464.536	371.06
464.755	372.06
464.975	371.06
465.195	389.06
465.414	433.06
465.634	393.06
465.854	374.06
466.073	371.06
466.293	356.06
466.512	338.06
466.732	317.06
466.951	322.06
467.171	320.06
467.391	331.06
467.61	318.06
467.829	354.06
468.049	326.06
468.268	338.06
468.488	332.06
468.707	326.06
468.927	314.06
469.146	305.06
469.365	322.06
469.585	327.06
469.804	336.06
470.023	342.06
470.243	341.06
470.462	346.06
470.681	337.06
470.901	355.06
471.12	340.06
471.339	345.06
471.558	346.06
471.777	341.06
471.997	320.06
472.216	334.06
472.435	331.06
472.654	340.06
472.873	347.06
473.092	344.06
473.311	329.06
473.53	339.06
473.749	332.06
473.968	370.06
474.187	451.06
474.406	455.06
474.625	382.06
474.844	333.06
475.063	357.06
475.282	338.06
475.501	340.06
475.72	351.06
475.939	358.06
476.158	344.06
476.377	357.06
476.596	354.06
476.814	362.06
477.033	360.06
477.252	349.06
477.471	374.06
477.69	360.06
477.908	376.06
478.127	373.06
478.346	349.06
478.564	376.06
478.783	357.06
479.002	378.06
479.22	386.06
479.439	387.06
479.658	398.06
479.876	419.06
480.095	410.06
480.313	417.06
480.532	417.06
480.751	393.06
480.969	397.06
481.188	412.06
481.406	402.06
481.624	413.06
481.843	395.06
482.061	416.06
482.28	412.06
482.498	393.06
482.717	393.06
482.935	403.06
483.153	403.06
483.372	408.06
483.59	402.06
483.808	387.06
484.027	382.06
484.245	405.06
484.463	414.06
484.681	429.06
484.9	417.06
485.118	406.06
485.336	416.06
485.554	407.06
485.772	379.06
485.99	417.06
486.209	394.06
486.427	416.06
486.645	424.06
486.863	430.06
487.081	422.06
487.299	424.06
487.517	417.06
487.735	440.06
487.953	421.06
488.171	423.06
488.389	427.06
488.607	434.06
488.825	436.06
489.043	430.06
489.261	447.06
489.479	441.06
489.696	415.06
489.914	428.06
490.132	441.06
490.35	441.06
490.568	450.06
490.786	459.06
491.003	465.06
491.221	475.06
491.439	461.06
491.657	473.06
491.874	477.06
492.092	480.06
492.31	470.06
492.527	480.06
492.745	486.06
492.963	490.06
493.18	499.06
493.398	496.06
493.615	494.06
493.833	503.06
494.05	481.06
494.268	498.06
494.485	492.06
494.703	512.06
494.92	515.06
495.138	497.06
495.355	503.06
495.573	504.06
495.79	508.06
496.008	520.06
496.225	498.06
496.442	504.06
496.66	515.06
496.877	498.06
497.094	517.06
497.312	504.06
497.529	532.06
497.746	519.06
497.963	521.06
498.181	555.06
498.398	532.06
498.615	560.06
498.832	535.06
499.049	563.06
499.267	567.06
499.484	579.06
499.701	587.06
499.918	616.06
500.135	607.06
500.352	661.06
500.569	646.06
500.786	616.06
501.003	657.06
501.22	640.06
501.437	626.06
501.654	601.06
501.871	610.06
502.088	585.06
502.305	584.06
502.522	553.06
502.739	551.06
502.956	556.06
503.172	526.06
503.389	514.06
503.606	529.06
503.823	540.06
504.04	524.06
504.256	509.06
504.473	500.06
504.69	502.06
504.907	532.06
505.123	493.06
505.34	509.06
505.557	512.06
505.773	511.06
505.99	496.06
506.207	487.06
506.423	500.06
506.64	486.06
506.856	487.06
507.073	476.06
507.289	475.06
507.506	488.06
507.722	487.06
507.939	497.06
508.155	480.06
508.372	489.06
508.588	457.06
508.805	475.06
509.021	453.06
509.238	467.06
509.454	478.06
509.67	489.06
509.887	472.06
510.103	471.06
510.319	470.06
510.536	546.06
510.752	934.06
510.968	714.06
511.184	511.06
511.401	467.06
511.617	445.06
511.833	432.06
512.049	439.06
512.265	428.06
512.481	443.06
512.698	438.06
512.914	445.06
513.13	450.06
513.346	439.06
513.562	457.06
513.778	449.06
513.994	434.06
514.21	436.06
514.426	499.06
514.642	503.06
514.858	501.06
515.074	542.06
515.29	618.06
515.506	936.06
515.721	797.06
515.937	534.06
516.153	497.06
516.369	464.06
516.585	454.06
516.801	466.06
517.016	460.06
517.232	461.06
517.448	470.06
517.664	461.06
517.879	432.06
518.095	427.06
518.311	439.06
518.527	449.06
518.742	428.06
518.958	430.06
519.173	443.06
519.389	445.06
519.605	430.06
519.82	449.06
520.036	437.06
520.251	449.06
520.467	485.06
520.682	509.06
520.898	504.06
521.113	477.06
521.329	532.06
521.544	589.06
521.76	715.06
521.975	1216.06
522.19	1224.06
522.406	651.06
522.621	511.06
522.836	460.06
523.052	434.06
523.267	422.06
523.482	410.06
523.698	427.06
523.913	425.06
524.128	406.06
524.343	406.06
524.559	410.06
524.774	394.06
524.989	415.06
525.204	399.06
525.419	401.06
525.634	382.06
525.849	393.06
526.064	384.06
526.28	371.06
526.495	398.06
526.71	372.06
526.925	368.06
527.14	353.06
527.355	359.06
527.57	371.06
527.785	392.06
527.999	376.06
528.214	372.06
528.429	373.06
528.644	363.06
528.859	358.06
529.074	371.06
529.289	377.06
529.503	430.06
529.718	421.06
529.933	376.06
530.148	381.06
530.363	375.06
530.577	360.06
530.792	373.06
531.007	354.06
531.221	356.06
531.436	365.06
531.651	385.06
531.865	372.06
532.08	355.06
532.295	361.06
532.509	356.06
532.724	350.06
532.938	353.06
533.153	372.06
533.367	330.06
533.582	336.06
533.796	357.06
534.011	351.06
534.225	342.06
534.44	339.06
534.654	333.06
534.868	347.06
535.083	351.06
535.297	356.06
535.511	352.06
535.726	365.06
535.94	359.06
536.154	374.06
536.369	352.06
536.583	358.06
536.797	349.06
537.011	357.06
537.225	343.06
537.44	332.06
537.654	357.06
537.868	338.06
538.082	338.06
538.296	342.06
538.51	330.06
538.724	329.06
538.938	348.06
539.153	339.06
539.367	368.06
539.581	347.06
539.795	351.06
540.009	339.06
540.222	341.06
540.436	332.06
540.65	354.06
540.864	338.06
541.078	350.06
541.292	350.06
541.506	331.06
541.72	340.06
541.934	323.06
542.147	314.06
542.361	335.06
542.575	336.06
542.789	338.06
543.002	321.06
543.216	341.06
543.43	352.06
543.644	342.06
543.857	348.06
544.071	338.06
544.285	358.06
544.498	334.06
544.712	354.06
544.925	324.06
545.139	326.06
545.352	357.06
545.566	326.06
545.779	328.06
545.993	332.06
546.206	333.06
546.42	332.06
546.633	348.06
546.847	316.06
547.06	336.06
547.274	329.06
547.487	328.06
547.7	311.06
547.914	322.06
548.127	331.06
548.34	339.06
548.554	315.06
548.767	320.06
548.98	328.06
549.193	322.06
549.407	319.06
549.62	334.06
549.833	323.06
550.046	325.06
550.259	323.06
550.473	326.06
550.686	332.06
550.899	315.06
551.112	336.06
551.325	316.06
551.538	326.06
551.751	318.06
551.964	294.06
552.177	318.06
552.39	309.06
552.603	331.06
552.816	335.06
553.029	318.06
553.242	326.06
553.455	343.06
553.667	349.06
553.88	341.06
554.093	333.06
554.306	319.06
554.519	337.06
554.732	324.06
554.944	330.06
555.157	322.06
555.37	312.06
555.583	330.06
555.795	306.06
556.008	298.06
556.221	297.06
556.433	304.06
556.646	299.06
556.859	301.06
557.071	304.06
557.284	308.06
557.496	299.06
557.709	290.06
557.921	291.06
558.134	300.06
558.346	298.06
558.559	274.06
558.771	310.06
558.984	270.06
559.196	299.06
559.409	279.06
559.621	295.06
559.833	284.06
560.046	290.06
560.258	296.06
560.47	290.06
560.683	297.06
560.895	293.06
561.107	289.06
561.32	293.06
561.532	300.06
561.744	296.06
561.956	285.06
562.168	284.06
562.381	293.06
562.593	284.06
562.805	274.06
563.017	298.06
563.229	297.06
563.441	287.06
563.653	301.06
563.865	290.06
564.077	293.06
564.289	291.06
564.501	296.06
564.713	317.06
564.925	327.06
565.137	316.06
565.349	315.06
565.561	320.06
565.773	310.06
565.985	318.06
566.197	326.06
566.408	316.06
566.62	306.06
566.832	325.06
567.044	337.06
567.255	337.06
567.467	329.06
567.679	317.06
567.891	326.06
568.102	349.06
568.314	328.06
568.526	341.06
568.737	340.06
568.949	296.06
569.161	324.06
569.372	304.06
569.584	306.06
569.795	287.06
570.007	304.06
570.218	325.06
570.43	308.06
570.641	301.06
570.853	292.06
571.064	288.06
571.276	265.06
571.487	277.06
571.698	279.06
571.91	292.06
572.121	273.06
572.333	280.06
572.544	280.06
572.755	270.06
572.966	266.06
573.178	279.06
573.389	263.06
573.6	281.06
573.811	264.06
574.023	267.06
574.234	265.06
574.445	248.06
574.656	260.06
574.867	253.06
575.078	257.06
575.289	270.06
575.501	261.06
575.712	242.06
575.923	269.06
576.134	268.06
576.345	265.06
576.556	254.06
576.767	245.06
576.978	259.06
577.188	258.06
577.399	227.06
577.61	238.06
577.821	249.06
578.032	243.06
578.243	285.06
578.454	438.06
578.665	332.06
578.875	254.06
579.086	230.06
579.297	240.06
579.508	231.06
579.718	244.06
579.929	236.06
580.14	247.06
580.35	229.06
580.561	237.06
580.772	239.06
580.982	237.06
581.193	221.06
581.403	241.06
581.614	238.06
581.825	222.06
582.035	228.06
582.246	243.06
582.456	245.06
582.667	259.06
582.877	240.06
583.087	254.06
583.298	235.06
583.508	230.06
583.719	220.06
583.929	246.06
584.139	234.06
584.35	239.06
584.56	235.06
584.77	244.06
584.981	231.06
585.191	226.06
585.401	225.06
585.611	226.06
585.821	221.06
586.032	238.06
586.242	249.06
586.452	246.06
586.662	217.06
586.872	225.06
587.082	218.06
587.292	234.06
587.502	248.06
587.713	234.06
587.923	236.06
588.133	227.06
588.343	235.06
588.553	243.06
588.762	245.06
588.972	254.06
589.182	364.06
589.392	342.06
589.602	269.06
589.812	354.06
590.022	297.06
590.232	241.06
590.441	223.06
590.651	245.06
590.861	219.06
591.071	241.06
591.281	228.06
591.49	240.06
591.7	234.06
591.91	226.06
592.119	210.06
592.329	234.06
592.539	231.06
592.748	230.06
592.958	234.06
593.167	230.06
593.377	252.06
593.587	257.06
593.796	236.06
594.006	246.06
594.215	245.06
594.424	232.06
594.634	224.06
594.843	234.06
595.053	243.06
595.262	234.06
595.472	221.06
595.681	221.06
595.89	203.06
596.1	236.06
596.309	242.06
596.518	224.06
596.727	221.06
596.937	227.06
597.146	221.06
597.355	217.06
597.564	204.06
597.774	210.06
597.983	217.06
598.192	212.06
598.401	201.06
598.61	204.06
598.819	232.06
599.028	212.06
599.237	206.06
599.446	208.06
599.655	212.06
599.864	208.06
600.073	218.06
600.282	198.06
600.491	220.06
600.7	221.06
600.909	205.06
601.118	208.06
601.327	196.06
601.536	187.06
601.745	203.06
601.953	204.06
602.162	193.06
602.371	199.06
602.58	189.06
602.789	217.06
602.997	210.06
603.206	209.06
603.415	219.06
603.623	214.06
603.832	185.06
604.041	196.06
604.249	196.06
604.458	201.06
604.666	185.06
604.875	201.06
605.084	184.06
605.292	198.06
605.501	205.06
605.709	193.06
605.918	190.06
606.126	194.06
606.334	189.06
606.543	205.06
606.751	183.06
606.96	197.06
607.168	215.06
607.376	195.06
607.585	192.06
607.793	210.06
608.001	208.06
608.21	194.06
608.418	188.06
608.626	192.06
608.834	197.06
609.043	178.06
609.251	197.06
609.459	208.06
609.667	186.06
609.875	181.06
610.083	183.06
610.291	206.06
610.499	204.06
610.707	203.06
610.916	197.06
611.124	208.06
611.332	217.06
611.54	192.06
611.748	204.06
611.955	219.06
612.163	188.06
612.371	186.06
612.579	195.06
612.787	188.06
612.995	185.06
613.203	192.06
613.411	189.06
613.618	197.06
613.826	188.06
614.034	185.06
614.242	191.06
614.449	205.06
614.657	191.06
614.865	194.06
615.072	199.06
615.28	195.06
615.488	188.06
615.695	200.06
615.903	185.06
616.111	206.06
616.318	203.06
616.526	204.06
616.733	182.06
616.941	190.06
617.148	185.06
617.356	180.06
617.563	185.06
617.771	185.06
617.978	184.06
618.185	181.06
618.393	176.06
618.6	188.06
618.807	198.06
619.015	179.06
619.222	183.06
619.429	186.06
619.637	179.06
619.844	188.06
620.051	171.06
620.258	180.06
620.466	175.06
620.673	184.06
620.88	157.06
621.087	170.06
621.294	194.06
621.501	168.06
621.708	181.06
621.915	187.06
622.122	195.06
622.329	169.06
622.536	174.06
622.743	173.06
622.95	173.06
623.157	178.06
623.364	187.06
623.571	174.06
623.778	177.06
623.985	180.06
624.192	184.06
624.399	174.06
624.606	193.06
624.812	166.06
625.019	182.06
625.226	178.06
625.433	180.06
625.639	171.06
625.846	157.06
626.053	164.06
626.259	166.06
626.466	171.06
626.673	163.06
626.879	159.06
627.086	155.06
627.293	163.06
627.499	169.06
627.706	165.06
627.912	166.06
628.119	178.06
628.325	178.06
628.532	173.06
628.738	170.06
628.945	155.06
629.151	157.06
629.357	151.06
629.564	154.06
629.77	168.06
629.976	161.06
630.183	152.06
630.389	172.06
630.595	170.06
630.802	169.06
631.008	169.06
631.214	168.06
631.42	154.06
631.627	155.06
631.833	175.06
632.039	166.06
632.245	167.06
632.451	164.06
632.657	157.06
632.863	156.06
633.069	165.06
633.275	151.06
633.481	162.06
633.688	149.06
633.893	168.06
634.099	163.06
634.305	158.06
634.511	164.06
634.717	141.06
634.923	147.06
635.129	160.06
635.335	148.06
635.541	155.06
635.747	170.06
635.952	146.06
636.158	140.06
636.364	154.06
636.57	149.06
636.775	140.06
636.981	158.06
637.187	150.06
637.392	155.06
637.598	157.06
637.804	169.06
638.009	140.06
638.215	142.06
638.421	145.06
638.626	150.06
638.832	154.06
639.037	128.06
639.243	153.06
639.448	150.06
639.654	154.06
639.859	141.06
640.065	160.06
640.27	145.06
640.475	150.06
640.681	153.06
640.886	144.06
641.091	150.06
641.297	149.06
641.502	166.06
641.707	138.06
641.913	147.06
642.118	134.06
642.323	142.06
642.528	145.06
642.733	130.06
642.939	154.06
643.144	131.06
643.349	140.06
643.554	148.06
643.759	133.06
643.964	134.06
644.169	140.06
644.374	137.06
644.579	149.06
644.784	139.06
644.989	146.06
645.194	142.06
645.399	127.06
645.604	139.06
645.809	146.06
646.014	141.06
646.219	135.06
646.423	143.06
646.628	140.06
646.833	144.06
647.038	137.06
647.243	155.06
647.447	155.06
647.652	139.06
647.857	137.06
648.062	138.06
648.266	150.06
648.471	142.06
648.676	148.06
648.88	134.06
649.085	145.06
649.289	146.06
649.494	146.06
649.698	145.06
649.903	165.06
650.107	148.06
650.312	146.06
650.516	125.06
650.721	125.06
650.925	145.06
651.13	132.06
651.334	132.06
651.539	133.06
651.743	136.06
651.947	137.06
652.152	141.06
652.356	117.06
652.56	130.06
652.764	137.06
652.969	122.06
653.173	124.06
653.377	131.06
653.581	144.06
653.785	128.06
653.99	131.06
654.194	140.06
654.398	137.06
654.602	133.06
654.806	126.06
655.01	130.06
655.214	139.06
655.418	114.06
655.622	117.06
655.826	113.06
656.03	129.06
656.234	113.06
656.438	140.06
656.642	142.06
656.846	131.06
657.049	127.06
657.253	135.06
657.457	119.06
657.661	113.06
657.865	104.06
658.068	90.06
658.272	101.06
658.476	99.06
658.68	112.06
658.883	94.06
659.087	90.06
659.291	113.06
659.494	89.06
659.698	91.06
659.901	94.06
660.105	92.06
660.309	95.06
660.512	100.06
660.716	83.06
660.919	91.06
661.123	92.06
661.326	87.06
661.53	81.06
661.733	89.06
661.936	87.06
662.14	93.06
662.343	81.06
662.546	83.06
662.75	96.06
662.953	84.06
663.156	85.06
663.36	90.06
663.563	89.06
663.766	84.06
663.969	82.06
664.173	84.06
664.376	89.06
664.579	75.06
664.782	81.06
664.985	82.06
665.188	77.06
665.391	66.06
665.594	82.06
665.797	84.06
666	88.06
666.203	81.06
666.406	96.06
666.609	78.06
666.812	73.06
667.015	82.06
667.218	82.06
667.421	74.06
667.624	77.06
667.827	85.06
668.03	78.06
668.232	85.06
668.435	84.06
668.638	78.06
668.841	82.06
669.043	82.06
669.246	84.06
669.449	73.06
669.651	79.06
669.854	78.06
670.057	75.06
670.259	70.06
670.462	78.06
670.665	93.06
670.867	73.06
671.07	82.06
671.272	82.06
671.475	76.06
671.677	96.06
671.88	77.06
672.082	74.06
672.284	104.06
672.487	93.06
672.689	81.06
672.892	79.06
