Data from 1986.PennyLincolnUp.Lamp.En5.5.200Scan.071819.P2_HRD10591_17-09-43-974.txt Node
Date: Thu Jul 18 17:09:43 EDT 2019
User: cochatt
Spectrometer: HR+D1059
Trigger mode: 1
Integration Time (sec): 1.000000E-1
Scans to average: 1
Electric dark correction enabled: true
Nonlinearity correction enabled: false
Boxcar width: 0
XAxis mode: Wavelengths
Number of Pixels in Spectrum: 2048
>>>>>Begin Spectral Data<<<<<
223.165	8.69
223.4	8.69
223.635	8.69
223.869	-14.31
224.104	-29.31
224.338	-16.31
224.573	-4.31
224.808	-5.31
225.042	-8.31
225.277	-12.31
225.511	-16.31
225.746	-3.31
225.98	5.69
226.215	3.69
226.449	8.69
226.683	20.69
226.918	30.69
227.152	31.69
227.387	24.69
227.621	32.69
227.856	55.69
228.09	51.69
228.324	45.69
228.559	56.69
228.793	67.69
229.027	85.69
229.262	97.69
229.496	89.69
229.73	119.69
229.964	131.69
230.199	116.69
230.433	112.69
230.667	104.69
230.901	114.69
231.136	97.69
231.37	91.69
231.604	103.69
231.838	98.69
232.072	106.69
232.306	102.69
232.541	90.69
232.775	112.69
233.009	112.69
233.243	114.69
233.477	101.69
233.711	123.69
233.945	98.69
234.179	108.69
234.413	113.69
234.647	102.69
234.881	108.69
235.115	85.69
235.349	111.69
235.583	109.69
235.817	94.69
236.051	123.69
236.285	125.69
236.519	112.69
236.753	130.69
236.987	133.69
237.221	170.69
237.455	206.69
237.689	173.69
237.922	129.69
238.156	123.69
238.39	111.69
238.624	119.69
238.858	114.69
239.091	116.69
239.325	125.69
239.559	131.69
239.793	110.69
240.027	129.69
240.26	126.69
240.494	138.69
240.728	147.69
240.961	118.69
241.195	122.69
241.429	134.69
241.662	116.69
241.896	114.69
242.13	131.69
242.363	121.69
242.597	140.69
242.83	116.69
243.064	136.69
243.298	123.69
243.531	130.69
243.765	136.69
243.998	126.69
244.232	133.69
244.465	144.69
244.699	137.69
244.932	139.69
245.166	122.69
245.399	119.69
245.633	140.69
245.866	134.69
246.099	128.69
246.333	123.69
246.566	134.69
246.8	145.69
247.033	129.69
247.266	135.69
247.5	146.69
247.733	167.69
247.966	157.69
248.2	157.69
248.433	156.69
248.666	159.69
248.899	161.69
249.133	175.69
249.366	201.69
249.599	168.69
249.832	159.69
250.066	168.69
250.299	149.69
250.532	168.69
250.765	177.69
250.998	204.69
251.231	207.69
251.465	179.69
251.698	195.69
251.931	194.69
252.164	177.69
252.397	169.69
252.63	171.69
252.863	192.69
253.096	203.69
253.329	198.69
253.562	209.69
253.795	212.69
254.028	181.69
254.261	208.69
254.494	205.69
254.727	237.69
254.96	239.69
255.193	238.69
255.426	232.69
255.659	211.69
255.892	211.69
256.124	180.69
256.357	204.69
256.59	192.69
256.823	172.69
257.056	199.69
257.289	202.69
257.521	204.69
257.754	181.69
257.987	189.69
258.22	194.69
258.452	172.69
258.685	188.69
258.918	187.69
259.151	184.69
259.383	203.69
259.616	195.69
259.849	219.69
260.081	205.69
260.314	220.69
260.547	235.69
260.779	209.69
261.012	213.69
261.244	195.69
261.477	196.69
261.71	183.69
261.942	200.69
262.175	211.69
262.407	209.69
262.64	199.69
262.872	205.69
263.105	189.69
263.337	181.69
263.57	194.69
263.802	195.69
264.035	188.69
264.267	190.69
264.499	190.69
264.732	196.69
264.964	201.69
265.197	188.69
265.429	186.69
265.661	196.69
265.894	188.69
266.126	183.69
266.358	187.69
266.591	192.69
266.823	191.69
267.055	198.69
267.287	209.69
267.52	202.69
267.752	189.69
267.984	205.69
268.216	217.69
268.448	202.69
268.681	206.69
268.913	212.69
269.145	211.69
269.377	220.69
269.609	256.69
269.841	247.69
270.073	228.69
270.306	241.69
270.538	265.69
270.77	257.69
271.002	280.69
271.234	257.69
271.466	263.69
271.698	277.69
271.93	274.69
272.162	293.69
272.394	274.69
272.626	267.69
272.858	235.69
273.09	251.69
273.322	267.69
273.553	245.69
273.785	234.69
274.017	206.69
274.249	234.69
274.481	231.69
274.713	217.69
274.945	231.69
275.176	229.69
275.408	239.69
275.64	249.69
275.872	229.69
276.104	231.69
276.335	241.69
276.567	220.69
276.799	256.69
277.031	273.69
277.262	268.69
277.494	257.69
277.726	245.69
277.957	248.69
278.189	253.69
278.421	233.69
278.652	221.69
278.884	209.69
279.115	220.69
279.347	218.69
279.579	231.69
279.81	220.69
280.042	239.69
280.273	231.69
280.505	226.69
280.736	239.69
280.968	215.69
281.199	226.69
281.431	221.69
281.662	223.69
281.894	236.69
282.125	224.69
282.356	243.69
282.588	257.69
282.819	253.69
283.051	243.69
283.282	237.69
283.513	242.69
283.745	220.69
283.976	235.69
284.207	273.69
284.439	236.69
284.67	227.69
284.901	231.69
285.132	245.69
285.364	230.69
285.595	241.69
285.826	231.69
286.057	228.69
286.288	225.69
286.52	220.69
286.751	234.69
286.982	233.69
287.213	235.69
287.444	246.69
287.675	227.69
287.906	234.69
288.138	244.69
288.369	247.69
288.6	249.69
288.831	235.69
289.062	251.69
289.293	229.69
289.524	249.69
289.755	240.69
289.986	248.69
290.217	233.69
290.448	260.69
290.679	243.69
290.91	251.69
291.141	220.69
291.371	236.69
291.602	239.69
291.833	259.69
292.064	226.69
292.295	234.69
292.526	219.69
292.757	225.69
292.987	251.69
293.218	229.69
293.449	242.69
293.68	247.69
293.91	249.69
294.141	245.69
294.372	244.69
294.603	222.69
294.833	225.69
295.064	229.69
295.295	225.69
295.525	246.69
295.756	262.69
295.987	253.69
296.217	264.69
296.448	283.69
296.679	248.69
296.909	235.69
297.14	259.69
297.37	232.69
297.601	230.69
297.831	239.69
298.062	257.69
298.292	243.69
298.523	246.69
298.753	261.69
298.984	259.69
299.214	247.69
299.445	229.69
299.675	253.69
299.905	245.69
300.136	258.69
300.366	259.69
300.597	249.69
300.827	264.69
301.057	261.69
301.288	275.69
301.518	268.69
301.748	255.69
301.979	264.69
302.209	268.69
302.439	256.69
302.669	278.69
302.9	261.69
303.13	264.69
303.36	277.69
303.59	286.69
303.82	265.69
304.051	283.69
304.281	256.69
304.511	242.69
304.741	235.69
304.971	252.69
305.201	263.69
305.431	251.69
305.661	247.69
305.891	260.69
306.121	278.69
306.352	287.69
306.582	265.69
306.812	289.69
307.042	277.69
307.272	264.69
307.502	275.69
307.731	278.69
307.961	275.69
308.191	268.69
308.421	277.69
308.651	255.69
308.881	271.69
309.111	293.69
309.341	285.69
309.571	268.69
309.8	297.69
310.03	303.69
310.26	297.69
310.49	294.69
310.72	312.69
310.949	319.69
311.179	312.69
311.409	321.69
311.639	326.69
311.868	312.69
312.098	314.69
312.328	315.69
312.557	323.69
312.787	347.69
313.017	334.69
313.246	316.69
313.476	309.69
313.706	301.69
313.935	332.69
314.165	308.69
314.394	333.69
314.624	336.69
314.853	316.69
315.083	319.69
315.312	323.69
315.542	299.69
315.771	294.69
316.001	302.69
316.23	295.69
316.46	301.69
316.689	300.69
316.919	317.69
317.148	312.69
317.377	306.69
317.607	316.69
317.836	322.69
318.065	311.69
318.295	311.69
318.524	298.69
318.753	303.69
318.983	308.69
319.212	312.69
319.441	306.69
319.67	299.69
319.9	305.69
320.129	310.69
320.358	303.69
320.587	295.69
320.816	327.69
321.046	326.69
321.275	338.69
321.504	339.69
321.733	351.69
321.962	322.69
322.191	348.69
322.42	355.69
322.649	372.69
322.878	377.69
323.108	365.69
323.337	391.69
323.566	412.69
323.795	440.69
324.024	480.69
324.253	575.69
324.482	828.69
324.71	1233.69
324.939	1768.69
325.168	1531.69
325.397	832.69
325.626	563.69
325.855	459.69
326.084	439.69
326.313	396.69
326.542	416.69
326.77	470.69
326.999	533.69
327.228	725.69
327.457	1093.69
327.686	1321.69
327.914	909.69
328.143	600.69
328.372	524.69
328.6	491.69
328.829	468.69
329.058	467.69
329.287	498.69
329.515	456.69
329.744	415.69
329.972	395.69
330.201	385.69
330.43	420.69
330.658	459.69
330.887	502.69
331.115	477.69
331.344	426.69
331.572	376.69
331.801	392.69
332.03	380.69
332.258	384.69
332.486	388.69
332.715	373.69
332.943	365.69
333.172	351.69
333.4	356.69
333.629	352.69
333.857	359.69
334.085	349.69
334.314	344.69
334.542	354.69
334.771	342.69
334.999	351.69
335.227	360.69
335.455	360.69
335.684	355.69
335.912	353.69
336.14	341.69
336.369	347.69
336.597	359.69
336.825	355.69
337.053	331.69
337.281	346.69
337.51	344.69
337.738	343.69
337.966	340.69
338.194	346.69
338.422	348.69
338.65	357.69
338.878	345.69
339.106	339.69
339.334	359.69
339.562	353.69
339.79	344.69
340.018	311.69
340.246	339.69
340.474	342.69
340.702	351.69
340.93	352.69
341.158	342.69
341.386	326.69
341.614	343.69
341.842	343.69
342.07	356.69
342.298	335.69
342.526	335.69
342.754	334.69
342.981	336.69
343.209	339.69
343.437	345.69
343.665	343.69
343.893	333.69
344.12	359.69
344.348	337.69
344.576	357.69
344.804	351.69
345.031	341.69
345.259	368.69
345.487	355.69
345.714	352.69
345.942	336.69
346.17	344.69
346.397	340.69
346.625	333.69
346.853	356.69
347.08	335.69
347.308	353.69
347.535	339.69
347.763	339.69
347.99	348.69
348.218	331.69
348.445	358.69
348.673	343.69
348.9	348.69
349.128	317.69
349.355	316.69
349.583	336.69
349.81	327.69
350.037	336.69
350.265	327.69
350.492	342.69
350.72	324.69
350.947	331.69
351.174	335.69
351.402	350.69
351.629	340.69
351.856	326.69
352.083	328.69
352.311	356.69
352.538	341.69
352.765	347.69
352.992	357.69
353.22	336.69
353.447	352.69
353.674	327.69
353.901	312.69
354.128	308.69
354.355	323.69
354.583	304.69
354.81	325.69
355.037	314.69
355.264	325.69
355.491	313.69
355.718	298.69
355.945	293.69
356.172	308.69
356.399	316.69
356.626	295.69
356.853	300.69
357.08	314.69
357.307	308.69
357.534	317.69
357.761	310.69
357.988	300.69
358.215	311.69
358.441	303.69
358.668	323.69
358.895	310.69
359.122	323.69
359.349	322.69
359.576	326.69
359.802	351.69
360.029	391.69
360.256	379.69
360.483	354.69
360.709	325.69
360.936	328.69
361.163	350.69
361.39	349.69
361.616	333.69
361.843	336.69
362.07	328.69
362.296	336.69
362.523	325.69
362.749	342.69
362.976	307.69
363.203	324.69
363.429	309.69
363.656	307.69
363.882	319.69
364.109	314.69
364.335	311.69
364.562	336.69
364.788	322.69
365.015	316.69
365.241	314.69
365.468	336.69
365.694	329.69
365.92	313.69
366.147	311.69
366.373	323.69
366.599	307.69
366.826	299.69
367.052	320.69
367.278	321.69
367.505	311.69
367.731	329.69
367.957	333.69
368.184	319.69
368.41	347.69
368.636	320.69
368.862	330.69
369.089	311.69
369.315	318.69
369.541	339.69
369.767	325.69
369.993	317.69
370.219	309.69
370.445	303.69
370.672	322.69
370.898	316.69
371.124	336.69
371.35	322.69
371.576	327.69
371.802	313.69
372.028	330.69
372.254	308.69
372.48	302.69
372.706	300.69
372.932	307.69
373.158	315.69
373.384	322.69
373.61	331.69
373.835	312.69
374.061	325.69
374.287	327.69
374.513	322.69
374.739	330.69
374.965	318.69
375.191	313.69
375.416	329.69
375.642	315.69
375.868	319.69
376.094	322.69
376.319	315.69
376.545	311.69
376.771	319.69
376.997	303.69
377.222	316.69
377.448	327.69
377.674	303.69
377.899	305.69
378.125	313.69
378.35	322.69
378.576	319.69
378.802	321.69
379.027	312.69
379.253	312.69
379.478	301.69
379.704	319.69
379.929	316.69
380.155	326.69
380.38	317.69
380.606	297.69
380.831	331.69
381.057	311.69
381.282	325.69
381.507	327.69
381.733	317.69
381.958	316.69
382.184	328.69
382.409	311.69
382.634	325.69
382.86	292.69
383.085	327.69
383.31	341.69
383.535	325.69
383.761	341.69
383.986	332.69
384.211	338.69
384.436	331.69
384.662	324.69
384.887	335.69
385.112	340.69
385.337	333.69
385.562	321.69
385.787	331.69
386.013	332.69
386.238	345.69
386.463	362.69
386.688	352.69
386.913	342.69
387.138	321.69
387.363	329.69
387.588	325.69
387.813	330.69
388.038	315.69
388.263	323.69
388.488	334.69
388.713	347.69
388.938	344.69
389.163	331.69
389.387	352.69
389.612	332.69
389.837	325.69
390.062	330.69
390.287	335.69
390.512	319.69
390.736	338.69
390.961	333.69
391.186	326.69
391.411	337.69
391.636	320.69
391.86	333.69
392.085	333.69
392.31	353.69
392.534	332.69
392.759	361.69
392.984	333.69
393.208	335.69
393.433	354.69
393.658	352.69
393.882	339.69
394.107	328.69
394.331	348.69
394.556	328.69
394.78	328.69
395.005	317.69
395.229	333.69
395.454	336.69
395.678	335.69
395.903	355.69
396.127	383.69
396.352	375.69
396.576	349.69
396.801	330.69
397.025	341.69
397.249	356.69
397.474	373.69
397.698	356.69
397.922	342.69
398.147	367.69
398.371	375.69
398.595	361.69
398.82	363.69
399.044	383.69
399.268	371.69
399.492	406.69
399.717	411.69
399.941	441.69
400.165	451.69
400.389	459.69
400.613	410.69
400.837	399.69
401.062	376.69
401.286	389.69
401.51	385.69
401.734	381.69
401.958	368.69
402.182	387.69
402.406	371.69
402.63	377.69
402.854	380.69
403.078	380.69
403.302	374.69
403.526	389.69
403.75	384.69
403.974	384.69
404.198	380.69
404.422	377.69
404.645	405.69
404.869	394.69
405.093	386.69
405.317	405.69
405.541	425.69
405.765	433.69
405.988	401.69
406.212	409.69
406.436	443.69
406.66	457.69
406.883	417.69
407.107	423.69
407.331	460.69
407.555	514.69
407.778	524.69
408.002	467.69
408.226	440.69
408.449	426.69
408.673	442.69
408.896	460.69
409.12	471.69
409.344	460.69
409.567	429.69
409.791	395.69
410.014	393.69
410.238	385.69
410.461	376.69
410.685	395.69
410.908	392.69
411.132	430.69
411.355	463.69
411.578	439.69
411.802	379.69
412.025	375.69
412.249	389.69
412.472	377.69
412.695	391.69
412.919	375.69
413.142	380.69
413.365	388.69
413.589	379.69
413.812	365.69
414.035	377.69
414.258	374.69
414.482	344.69
414.705	376.69
414.928	359.69
415.151	364.69
415.374	352.69
415.597	351.69
415.821	351.69
416.044	364.69
416.267	395.69
416.49	367.69
416.713	380.69
416.936	365.69
417.159	363.69
417.382	359.69
417.605	367.69
417.828	377.69
418.051	382.69
418.274	370.69
418.497	377.69
418.72	369.69
418.943	376.69
419.166	391.69
419.389	387.69
419.611	383.69
419.834	377.69
420.057	395.69
420.28	379.69
420.503	376.69
420.726	397.69
420.948	404.69
421.171	452.69
421.394	449.69
421.617	414.69
421.839	395.69
422.062	389.69
422.285	417.69
422.507	447.69
422.73	520.69
422.953	480.69
423.175	433.69
423.398	385.69
423.621	409.69
423.843	442.69
424.066	428.69
424.288	419.69
424.511	445.69
424.733	500.69
424.956	546.69
425.178	512.69
425.401	520.69
425.623	558.69
425.846	462.69
426.068	429.69
426.291	440.69
426.513	434.69
426.735	408.69
426.958	469.69
427.18	515.69
427.402	635.69
427.625	700.69
427.847	629.69
428.069	531.69
428.292	483.69
428.514	427.69
428.736	408.69
428.958	403.69
429.181	401.69
429.403	396.69
429.625	407.69
429.847	427.69
430.069	500.69
430.292	482.69
430.514	415.69
430.736	393.69
430.958	402.69
431.18	378.69
431.402	375.69
431.624	373.69
431.846	367.69
432.068	359.69
432.29	367.69
432.512	375.69
432.734	390.69
432.956	355.69
433.178	391.69
433.4	381.69
433.622	359.69
433.844	385.69
434.066	383.69
434.287	378.69
434.509	369.69
434.731	367.69
434.953	406.69
435.175	408.69
435.397	446.69
435.618	429.69
435.84	460.69
436.062	547.69
436.284	600.69
436.505	506.69
436.727	468.69
436.949	409.69
437.17	391.69
437.392	404.69
437.614	414.69
437.835	451.69
438.057	514.69
438.278	594.69
438.5	604.69
438.721	641.69
438.943	625.69
439.165	494.69
439.386	449.69
439.608	443.69
439.829	460.69
440.05	474.69
440.272	502.69
440.493	466.69
440.715	437.69
440.936	406.69
441.158	394.69
441.379	383.69
441.6	417.69
441.822	434.69
442.043	460.69
442.264	538.69
442.486	547.69
442.707	469.69
442.928	450.69
443.149	447.69
443.371	456.69
443.592	490.69
443.813	566.69
444.034	627.69
444.255	518.69
444.476	459.69
444.698	427.69
444.919	433.69
445.14	530.69
445.361	480.69
445.582	470.69
445.803	519.69
446.024	618.69
446.245	605.69
446.466	543.69
446.687	461.69
446.908	451.69
447.129	401.69
447.35	387.69
447.571	403.69
447.792	385.69
448.013	400.69
448.234	422.69
448.455	451.69
448.675	559.69
448.896	621.69
449.117	551.69
449.338	507.69
449.559	630.69
449.779	681.69
450	549.69
450.221	432.69
450.442	425.69
450.662	371.69
450.883	401.69
451.104	415.69
451.324	399.69
451.545	378.69
451.766	372.69
451.986	371.69
452.207	374.69
452.428	349.69
452.648	353.69
452.869	353.69
453.089	369.69
453.31	386.69
453.53	358.69
453.751	349.69
453.971	359.69
454.192	383.69
454.412	361.69
454.633	359.69
454.853	348.69
455.073	331.69
455.294	388.69
455.514	433.69
455.734	437.69
455.955	378.69
456.175	355.69
456.395	337.69
456.616	342.69
456.836	337.69
457.056	341.69
457.276	330.69
457.497	348.69
457.717	323.69
457.937	331.69
458.157	349.69
458.377	344.69
458.598	371.69
458.818	417.69
459.038	472.69
459.258	497.69
459.478	392.69
459.698	385.69
459.918	369.69
460.138	344.69
460.358	355.69
460.578	349.69
460.798	375.69
461.018	367.69
461.238	361.69
461.458	357.69
461.678	375.69
461.898	379.69
462.118	390.69
462.338	375.69
462.558	384.69
462.777	373.69
462.997	379.69
463.217	400.69
463.437	402.69
463.657	383.69
463.876	379.69
464.096	396.69
464.316	390.69
464.536	404.69
464.755	401.69
464.975	398.69
465.195	424.69
465.414	484.69
465.634	425.69
465.854	398.69
466.073	398.69
466.293	355.69
466.512	373.69
466.732	347.69
466.951	354.69
467.171	375.69
467.391	364.69
467.61	358.69
467.829	376.69
468.049	349.69
468.268	351.69
468.488	333.69
468.707	342.69
468.927	378.69
469.146	363.69
469.365	334.69
469.585	352.69
469.804	351.69
470.023	372.69
470.243	375.69
470.462	375.69
470.681	374.69
470.901	371.69
471.12	367.69
471.339	343.69
471.558	367.69
471.777	359.69
471.997	379.69
472.216	348.69
472.435	354.69
472.654	349.69
472.873	363.69
473.092	357.69
473.311	368.69
473.53	371.69
473.749	361.69
473.968	405.69
474.187	524.69
474.406	523.69
474.625	424.69
474.844	381.69
475.063	369.69
475.282	369.69
475.501	364.69
475.72	367.69
475.939	371.69
476.158	380.69
476.377	383.69
476.596	375.69
476.814	379.69
477.033	385.69
477.252	376.69
477.471	398.69
477.69	382.69
477.908	387.69
478.127	395.69
478.346	413.69
478.564	394.69
478.783	407.69
479.002	409.69
479.22	412.69
479.439	403.69
479.658	425.69
479.876	432.69
480.095	421.69
480.313	469.69
480.532	428.69
480.751	446.69
480.969	447.69
481.188	438.69
481.406	438.69
481.624	440.69
481.843	424.69
482.061	416.69
482.28	422.69
482.498	423.69
482.717	407.69
482.935	431.69
483.153	439.69
483.372	409.69
483.59	434.69
483.808	431.69
484.027	441.69
484.245	419.69
484.463	443.69
484.681	408.69
484.9	435.69
485.118	445.69
485.336	454.69
485.554	458.69
485.772	440.69
485.99	415.69
486.209	449.69
486.427	457.69
486.645	450.69
486.863	497.69
487.081	467.69
487.299	471.69
487.517	459.69
487.735	463.69
487.953	440.69
488.171	455.69
488.389	488.69
488.607	469.69
488.825	472.69
489.043	483.69
489.261	484.69
489.479	444.69
489.696	466.69
489.914	476.69
490.132	491.69
490.35	488.69
490.568	493.69
490.786	495.69
491.003	496.69
491.221	512.69
491.439	508.69
491.657	520.69
491.874	531.69
492.092	525.69
492.31	514.69
492.527	523.69
492.745	524.69
492.963	530.69
493.18	546.69
493.398	541.69
493.615	544.69
493.833	535.69
494.05	555.69
494.268	536.69
494.485	539.69
494.703	540.69
494.92	552.69
495.138	552.69
495.355	552.69
495.573	565.69
495.79	551.69
496.008	546.69
496.225	547.69
496.442	556.69
496.66	549.69
496.877	555.69
497.094	560.69
497.312	563.69
497.529	569.69
497.746	571.69
497.963	573.69
498.181	574.69
498.398	599.69
498.615	593.69
498.832	594.69
499.049	609.69
499.267	626.69
499.484	651.69
499.701	628.69
499.918	654.69
500.135	659.69
500.352	682.69
500.569	681.69
500.786	689.69
501.003	704.69
501.22	682.69
501.437	661.69
501.654	674.69
501.871	675.69
502.088	656.69
502.305	629.69
502.522	610.69
502.739	597.69
502.956	613.69
503.172	584.69
503.389	593.69
503.606	572.69
503.823	588.69
504.04	598.69
504.256	553.69
504.473	543.69
504.69	572.69
504.907	543.69
505.123	542.69
505.34	538.69
505.557	559.69
505.773	545.69
505.99	542.69
506.207	549.69
506.423	555.69
506.64	547.69
506.856	518.69
507.073	544.69
507.289	531.69
507.506	535.69
507.722	539.69
507.939	567.69
508.155	529.69
508.372	541.69
508.588	509.69
508.805	518.69
509.021	512.69
509.238	508.69
509.454	529.69
509.67	513.69
509.887	511.69
510.103	539.69
510.319	529.69
510.536	609.69
510.752	1000.69
510.968	823.69
511.184	542.69
511.401	493.69
511.617	491.69
511.833	481.69
512.049	483.69
512.265	492.69
512.481	485.69
512.698	484.69
512.914	477.69
513.13	511.69
513.346	488.69
513.562	486.69
513.778	483.69
513.994	481.69
514.21	480.69
514.426	513.69
514.642	583.69
514.858	573.69
515.074	599.69
515.29	776.69
515.506	1122.69
515.721	922.69
515.937	587.69
516.153	534.69
516.369	519.69
516.585	513.69
516.801	500.69
517.016	487.69
517.232	488.69
517.448	493.69
517.664	505.69
517.879	504.69
518.095	493.69
518.311	511.69
518.527	471.69
518.742	509.69
518.958	485.69
519.173	488.69
519.389	472.69
519.605	486.69
519.82	481.69
520.036	509.69
520.251	502.69
520.467	561.69
520.682	529.69
520.898	543.69
521.113	547.69
521.329	609.69
521.544	676.69
521.76	843.69
521.975	1466.69
522.19	1430.69
522.406	788.69
522.621	569.69
522.836	507.69
523.052	488.69
523.267	483.69
523.482	464.69
523.698	431.69
523.913	466.69
524.128	449.69
524.343	445.69
524.559	431.69
524.774	412.69
524.989	425.69
525.204	435.69
525.419	435.69
525.634	441.69
525.849	431.69
526.064	407.69
526.28	392.69
526.495	381.69
526.71	416.69
526.925	405.69
527.14	388.69
527.355	400.69
527.57	403.69
527.785	393.69
527.999	381.69
528.214	424.69
528.429	413.69
528.644	397.69
528.859	403.69
529.074	407.69
529.289	408.69
529.503	480.69
529.718	477.69
529.933	419.69
530.148	420.69
530.363	397.69
530.577	415.69
530.792	385.69
531.007	378.69
531.221	361.69
531.436	363.69
531.651	383.69
531.865	389.69
532.08	379.69
532.295	375.69
532.509	382.69
532.724	372.69
532.938	385.69
533.153	368.69
533.367	375.69
533.582	380.69
533.796	376.69
534.011	382.69
534.225	375.69
534.44	397.69
534.654	379.69
534.868	377.69
535.083	368.69
535.297	383.69
535.511	396.69
535.726	394.69
535.94	387.69
536.154	377.69
536.369	350.69
536.583	387.69
536.797	379.69
537.011	371.69
537.225	368.69
537.44	363.69
537.654	381.69
537.868	377.69
538.082	392.69
538.296	372.69
538.51	369.69
538.724	378.69
538.938	360.69
539.153	364.69
539.367	396.69
539.581	373.69
539.795	377.69
540.009	359.69
540.222	354.69
540.436	375.69
540.65	381.69
540.864	370.69
541.078	368.69
541.292	387.69
541.506	379.69
541.72	385.69
541.934	373.69
542.147	363.69
542.361	360.69
542.575	360.69
542.789	354.69
543.002	355.69
543.216	353.69
543.43	374.69
543.644	373.69
543.857	366.69
544.071	373.69
544.285	364.69
544.498	373.69
544.712	364.69
544.925	367.69
545.139	371.69
545.352	367.69
545.566	351.69
545.779	359.69
545.993	334.69
546.206	369.69
546.42	337.69
546.633	370.69
546.847	335.69
547.06	343.69
547.274	369.69
547.487	365.69
547.7	340.69
547.914	343.69
548.127	342.69
548.34	351.69
548.554	345.69
548.767	335.69
548.98	350.69
549.193	354.69
549.407	351.69
549.62	364.69
549.833	331.69
550.046	347.69
550.259	345.69
550.473	343.69
550.686	345.69
550.899	352.69
551.112	336.69
551.325	350.69
551.538	341.69
551.751	338.69
551.964	341.69
552.177	335.69
552.39	341.69
552.603	357.69
552.816	339.69
553.029	327.69
553.242	320.69
553.455	328.69
553.667	364.69
553.88	377.69
554.093	337.69
554.306	333.69
554.519	329.69
554.732	328.69
554.944	340.69
555.157	340.69
555.37	331.69
555.583	325.69
555.795	334.69
556.008	326.69
556.221	332.69
556.433	331.69
556.646	325.69
556.859	342.69
557.071	332.69
557.284	326.69
557.496	314.69
557.709	324.69
557.921	317.69
558.134	313.69
558.346	318.69
558.559	307.69
558.771	303.69
558.984	343.69
559.196	319.69
559.409	319.69
559.621	319.69
559.833	310.69
560.046	326.69
560.258	317.69
560.47	312.69
560.683	313.69
560.895	297.69
561.107	334.69
561.32	303.69
561.532	304.69
561.744	311.69
561.956	296.69
562.168	304.69
562.381	313.69
562.593	305.69
562.805	318.69
563.017	305.69
563.229	306.69
563.441	313.69
563.653	309.69
563.865	327.69
564.077	318.69
564.289	320.69
564.501	341.69
564.713	311.69
564.925	316.69
565.137	332.69
565.349	327.69
565.561	328.69
565.773	333.69
565.985	327.69
566.197	339.69
566.408	333.69
566.62	351.69
566.832	360.69
567.044	357.69
567.255	347.69
567.467	385.69
567.679	346.69
567.891	361.69
568.102	371.69
568.314	364.69
568.526	353.69
568.737	360.69
568.949	339.69
569.161	331.69
569.372	346.69
569.584	316.69
569.795	308.69
570.007	321.69
570.218	351.69
570.43	349.69
570.641	331.69
570.853	307.69
571.064	296.69
571.276	296.69
571.487	285.69
571.698	314.69
571.91	293.69
572.121	305.69
572.333	285.69
572.544	307.69
572.755	273.69
572.966	276.69
573.178	274.69
573.389	304.69
573.6	271.69
573.811	273.69
574.023	286.69
574.234	275.69
574.445	259.69
574.656	268.69
574.867	271.69
575.078	264.69
575.289	263.69
575.501	290.69
575.712	259.69
575.923	257.69
576.134	282.69
576.345	259.69
576.556	281.69
576.767	273.69
576.978	268.69
577.188	272.69
577.399	260.69
577.61	257.69
577.821	263.69
578.032	259.69
578.243	304.69
578.454	489.69
578.665	385.69
578.875	281.69
579.086	264.69
579.297	251.69
579.508	262.69
579.718	262.69
579.929	261.69
580.14	253.69
580.35	234.69
580.561	245.69
580.772	252.69
580.982	253.69
581.193	275.69
581.403	244.69
581.614	250.69
581.825	256.69
582.035	258.69
582.246	244.69
582.456	265.69
582.667	260.69
582.877	258.69
583.087	247.69
583.298	253.69
583.508	248.69
583.719	249.69
583.929	254.69
584.139	237.69
584.35	253.69
584.56	239.69
584.77	253.69
584.981	230.69
585.191	251.69
585.401	243.69
585.611	253.69
585.821	263.69
586.032	258.69
586.242	263.69
586.452	225.69
586.662	231.69
586.872	243.69
587.082	242.69
587.292	245.69
587.502	222.69
587.713	235.69
587.923	234.69
588.133	236.69
588.343	252.69
588.553	244.69
588.762	240.69
588.972	264.69
589.182	325.69
589.392	327.69
589.602	253.69
589.812	308.69
590.022	275.69
590.232	247.69
590.441	220.69
590.651	236.69
590.861	237.69
591.071	228.69
591.281	243.69
591.49	234.69
591.7	234.69
591.91	237.69
592.119	240.69
592.329	234.69
592.539	224.69
592.748	238.69
592.958	241.69
593.167	243.69
593.377	243.69
593.587	259.69
593.796	254.69
594.006	244.69
594.215	247.69
594.424	240.69
594.634	240.69
594.843	233.69
595.053	247.69
595.262	247.69
595.472	224.69
595.681	235.69
595.89	225.69
596.1	217.69
596.309	227.69
596.518	230.69
596.727	227.69
596.937	230.69
597.146	228.69
597.355	205.69
597.564	210.69
597.774	231.69
597.983	213.69
598.192	229.69
598.401	218.69
598.61	225.69
598.819	215.69
599.028	215.69
599.237	205.69
599.446	203.69
599.655	220.69
599.864	214.69
600.073	218.69
600.282	212.69
600.491	219.69
600.7	202.69
600.909	217.69
601.118	195.69
601.327	216.69
601.536	206.69
601.745	226.69
601.953	201.69
602.162	204.69
602.371	216.69
602.58	197.69
602.789	196.69
602.997	222.69
603.206	216.69
603.415	212.69
603.623	192.69
603.832	209.69
604.041	205.69
604.249	200.69
604.458	199.69
604.666	212.69
604.875	202.69
605.084	202.69
605.292	221.69
605.501	220.69
605.709	196.69
605.918	200.69
606.126	212.69
606.334	194.69
606.543	198.69
606.751	202.69
606.96	199.69
607.168	213.69
607.376	193.69
607.585	215.69
607.793	212.69
608.001	205.69
608.21	202.69
608.418	209.69
608.626	195.69
608.834	189.69
609.043	214.69
609.251	195.69
609.459	197.69
609.667	204.69
609.875	189.69
610.083	191.69
610.291	196.69
610.499	200.69
610.707	204.69
610.916	209.69
611.124	217.69
611.332	197.69
611.54	202.69
611.748	208.69
611.955	190.69
612.163	199.69
612.371	198.69
612.579	205.69
612.787	203.69
612.995	195.69
613.203	199.69
613.411	191.69
613.618	208.69
613.826	187.69
614.034	199.69
614.242	192.69
614.449	206.69
614.657	186.69
614.865	181.69
615.072	185.69
615.28	190.69
615.488	201.69
615.695	189.69
615.903	205.69
616.111	195.69
616.318	192.69
616.526	184.69
616.733	192.69
616.941	198.69
617.148	200.69
617.356	203.69
617.563	180.69
617.771	207.69
617.978	204.69
618.185	215.69
618.393	195.69
618.6	194.69
618.807	187.69
619.015	200.69
619.222	187.69
619.429	185.69
619.637	185.69
619.844	192.69
620.051	191.69
620.258	190.69
620.466	198.69
620.673	184.69
620.88	187.69
621.087	170.69
621.294	195.69
621.501	204.69
621.708	197.69
621.915	179.69
622.122	185.69
622.329	181.69
622.536	202.69
622.743	174.69
622.95	187.69
623.157	172.69
623.364	215.69
623.571	187.69
623.778	172.69
623.985	183.69
624.192	180.69
624.399	175.69
624.606	177.69
624.812	177.69
625.019	175.69
625.226	173.69
625.433	179.69
625.639	187.69
625.846	186.69
626.053	171.69
626.259	185.69
626.466	175.69
626.673	176.69
626.879	171.69
627.086	172.69
627.293	189.69
627.499	169.69
627.706	165.69
627.912	163.69
628.119	168.69
628.325	183.69
628.532	175.69
628.738	185.69
628.945	182.69
629.151	179.69
629.357	160.69
629.564	177.69
629.77	179.69
629.976	168.69
630.183	179.69
630.389	170.69
630.595	177.69
630.802	175.69
631.008	171.69
631.214	170.69
631.42	160.69
631.627	165.69
631.833	162.69
632.039	163.69
632.245	155.69
632.451	155.69
632.657	164.69
632.863	161.69
633.069	159.69
633.275	159.69
633.481	156.69
633.688	151.69
633.893	186.69
634.099	163.69
634.305	151.69
634.511	157.69
634.717	150.69
634.923	138.69
635.129	159.69
635.335	153.69
635.541	172.69
635.747	160.69
635.952	149.69
636.158	150.69
636.364	170.69
636.57	145.69
636.775	145.69
636.981	162.69
637.187	153.69
637.392	165.69
637.598	163.69
637.804	160.69
638.009	159.69
638.215	153.69
638.421	153.69
638.626	163.69
638.832	153.69
639.037	157.69
639.243	157.69
639.448	158.69
639.654	156.69
639.859	141.69
640.065	140.69
640.27	148.69
640.475	158.69
640.681	153.69
640.886	146.69
641.091	165.69
641.297	154.69
641.502	145.69
641.707	162.69
641.913	159.69
642.118	154.69
642.323	141.69
642.528	147.69
642.733	149.69
642.939	147.69
643.144	144.69
643.349	148.69
643.554	140.69
643.759	137.69
643.964	136.69
644.169	141.69
644.374	138.69
644.579	145.69
644.784	157.69
644.989	137.69
645.194	173.69
645.399	139.69
645.604	138.69
645.809	158.69
646.014	150.69
646.219	140.69
646.423	152.69
646.628	147.69
646.833	156.69
647.038	131.69
647.243	133.69
647.447	129.69
647.652	146.69
647.857	145.69
648.062	139.69
648.266	159.69
648.471	147.69
648.676	153.69
648.88	147.69
649.085	141.69
649.289	147.69
649.494	155.69
649.698	161.69
649.903	163.69
650.107	170.69
650.312	139.69
650.516	149.69
650.721	144.69
650.925	133.69
651.13	140.69
651.334	139.69
651.539	135.69
651.743	141.69
651.947	146.69
652.152	145.69
652.356	134.69
652.56	149.69
652.764	134.69
652.969	143.69
653.173	147.69
653.377	136.69
653.581	127.69
653.785	131.69
653.99	144.69
654.194	133.69
654.398	122.69
654.602	123.69
654.806	130.69
655.01	118.69
655.214	127.69
655.418	133.69
655.622	120.69
655.826	121.69
656.03	120.69
656.234	112.69
656.438	131.69
656.642	117.69
656.846	111.69
657.049	116.69
657.253	120.69
657.457	116.69
657.661	103.69
657.865	113.69
658.068	112.69
658.272	100.69
658.476	108.69
658.68	94.69
658.883	83.69
659.087	100.69
659.291	98.69
659.494	86.69
659.698	96.69
659.901	97.69
660.105	83.69
660.309	95.69
660.512	89.69
660.716	108.69
660.919	98.69
661.123	83.69
661.326	97.69
661.53	91.69
661.733	89.69
661.936	79.69
662.14	83.69
662.343	89.69
662.546	83.69
662.75	82.69
662.953	73.69
663.156	82.69
663.36	85.69
663.563	73.69
663.766	76.69
663.969	89.69
664.173	88.69
664.376	83.69
664.579	71.69
664.782	69.69
664.985	74.69
665.188	85.69
665.391	86.69
665.594	91.69
665.797	77.69
666	81.69
666.203	87.69
666.406	80.69
666.609	81.69
666.812	80.69
667.015	87.69
667.218	66.69
667.421	87.69
667.624	74.69
667.827	66.69
668.03	74.69
668.232	93.69
668.435	93.69
668.638	82.69
668.841	61.69
669.043	71.69
669.246	70.69
669.449	76.69
669.651	82.69
669.854	81.69
670.057	82.69
670.259	79.69
670.462	86.69
670.665	83.69
670.867	81.69
671.07	90.69
671.272	104.69
671.475	84.69
671.677	87.69
671.88	79.69
672.082	73.69
672.284	78.69
672.487	87.69
672.689	87.69
672.892	84.69
