Data from 1986.PennyLincolnUp.Lamp.En5.5.200Scan.071819.P1_HRD10591_17-08-32-974.txt Node
Date: Thu Jul 18 17:08:32 EDT 2019
User: cochatt
Spectrometer: HR+D1059
Trigger mode: 1
Integration Time (sec): 1.000000E-1
Scans to average: 1
Electric dark correction enabled: true
Nonlinearity correction enabled: false
Boxcar width: 0
XAxis mode: Wavelengths
Number of Pixels in Spectrum: 2048
>>>>>Begin Spectral Data<<<<<
223.165	-7.12
223.4	-7.12
223.635	-7.12
223.869	-31.12
224.104	-24.12
224.338	-29.12
224.573	-19.12
224.808	-18.12
225.042	-12.12
225.277	-3.12
225.511	3.88
225.746	6.88
225.98	16.88
226.215	24.88
226.449	16.88
226.683	28.88
226.918	20.88
227.152	24.88
227.387	45.88
227.621	41.88
227.856	37.88
228.09	54.88
228.324	59.88
228.559	57.88
228.793	64.88
229.027	81.88
229.262	75.88
229.496	98.88
229.73	88.88
229.964	118.88
230.199	101.88
230.433	105.88
230.667	102.88
230.901	99.88
231.136	92.88
231.37	131.88
231.604	97.88
231.838	106.88
232.072	101.88
232.306	129.88
232.541	103.88
232.775	102.88
233.009	108.88
233.243	113.88
233.477	118.88
233.711	112.88
233.945	102.88
234.179	93.88
234.413	103.88
234.647	111.88
234.881	109.88
235.115	110.88
235.349	105.88
235.583	108.88
235.817	111.88
236.051	111.88
236.285	112.88
236.519	115.88
236.753	119.88
236.987	105.88
237.221	135.88
237.455	161.88
237.689	134.88
237.922	125.88
238.156	117.88
238.39	117.88
238.624	126.88
238.858	112.88
239.091	108.88
239.325	97.88
239.559	116.88
239.793	121.88
240.027	127.88
240.26	116.88
240.494	121.88
240.728	127.88
240.961	144.88
241.195	123.88
241.429	137.88
241.662	115.88
241.896	111.88
242.13	112.88
242.363	126.88
242.597	123.88
242.83	109.88
243.064	118.88
243.298	129.88
243.531	120.88
243.765	109.88
243.998	127.88
244.232	146.88
244.465	111.88
244.699	118.88
244.932	136.88
245.166	133.88
245.399	140.88
245.633	120.88
245.866	130.88
246.099	135.88
246.333	129.88
246.566	120.88
246.8	134.88
247.033	142.88
247.266	147.88
247.5	127.88
247.733	135.88
247.966	148.88
248.2	139.88
248.433	135.88
248.666	130.88
248.899	151.88
249.133	163.88
249.366	167.88
249.599	177.88
249.832	141.88
250.066	147.88
250.299	159.88
250.532	156.88
250.765	164.88
250.998	174.88
251.231	165.88
251.465	159.88
251.698	165.88
251.931	168.88
252.164	174.88
252.397	156.88
252.63	169.88
252.863	170.88
253.096	163.88
253.329	181.88
253.562	179.88
253.795	179.88
254.028	185.88
254.261	169.88
254.494	191.88
254.727	202.88
254.96	210.88
255.193	166.88
255.426	183.88
255.659	176.88
255.892	185.88
256.124	171.88
256.357	170.88
256.59	181.88
256.823	171.88
257.056	167.88
257.289	159.88
257.521	158.88
257.754	171.88
257.987	178.88
258.22	155.88
258.452	190.88
258.685	153.88
258.918	158.88
259.151	181.88
259.383	168.88
259.616	174.88
259.849	165.88
260.081	186.88
260.314	199.88
260.547	210.88
260.779	197.88
261.012	201.88
261.244	179.88
261.477	176.88
261.71	192.88
261.942	192.88
262.175	180.88
262.407	173.88
262.64	173.88
262.872	171.88
263.105	171.88
263.337	171.88
263.57	195.88
263.802	160.88
264.035	192.88
264.267	164.88
264.499	182.88
264.732	175.88
264.964	177.88
265.197	183.88
265.429	183.88
265.661	180.88
265.894	183.88
266.126	183.88
266.358	188.88
266.591	178.88
266.823	175.88
267.055	179.88
267.287	185.88
267.52	203.88
267.752	181.88
267.984	198.88
268.216	189.88
268.448	186.88
268.681	207.88
268.913	208.88
269.145	207.88
269.377	212.88
269.609	217.88
269.841	220.88
270.073	215.88
270.306	216.88
270.538	228.88
270.77	228.88
271.002	253.88
271.234	213.88
271.466	245.88
271.698	219.88
271.93	243.88
272.162	239.88
272.394	243.88
272.626	247.88
272.858	222.88
273.09	193.88
273.322	209.88
273.553	224.88
273.785	214.88
274.017	188.88
274.249	216.88
274.481	209.88
274.713	199.88
274.945	217.88
275.176	213.88
275.408	217.88
275.64	205.88
275.872	215.88
276.104	201.88
276.335	213.88
276.567	225.88
276.799	216.88
277.031	240.88
277.262	253.88
277.494	249.88
277.726	230.88
277.957	239.88
278.189	237.88
278.421	220.88
278.652	214.88
278.884	237.88
279.115	217.88
279.347	215.88
279.579	225.88
279.81	213.88
280.042	208.88
280.273	217.88
280.505	204.88
280.736	220.88
280.968	231.88
281.199	224.88
281.431	225.88
281.662	213.88
281.894	212.88
282.125	221.88
282.356	241.88
282.588	247.88
282.819	269.88
283.051	217.88
283.282	211.88
283.513	240.88
283.745	240.88
283.976	236.88
284.207	221.88
284.439	222.88
284.67	221.88
284.901	228.88
285.132	238.88
285.364	234.88
285.595	238.88
285.826	226.88
286.057	243.88
286.288	241.88
286.52	224.88
286.751	235.88
286.982	234.88
287.213	235.88
287.444	234.88
287.675	231.88
287.906	247.88
288.138	244.88
288.369	238.88
288.6	215.88
288.831	240.88
289.062	232.88
289.293	235.88
289.524	235.88
289.755	252.88
289.986	251.88
290.217	248.88
290.448	236.88
290.679	231.88
290.91	244.88
291.141	227.88
291.371	252.88
291.602	247.88
291.833	225.88
292.064	238.88
292.295	244.88
292.526	231.88
292.757	264.88
292.987	253.88
293.218	248.88
293.449	241.88
293.68	241.88
293.91	247.88
294.141	245.88
294.372	228.88
294.603	225.88
294.833	239.88
295.064	243.88
295.295	253.88
295.525	251.88
295.756	249.88
295.987	233.88
296.217	256.88
296.448	271.88
296.679	250.88
296.909	253.88
297.14	236.88
297.37	238.88
297.601	240.88
297.831	248.88
298.062	252.88
298.292	248.88
298.523	257.88
298.753	235.88
298.984	253.88
299.214	259.88
299.445	236.88
299.675	265.88
299.905	268.88
300.136	270.88
300.366	244.88
300.597	261.88
300.827	262.88
301.057	268.88
301.288	279.88
301.518	277.88
301.748	268.88
301.979	267.88
302.209	270.88
302.439	266.88
302.669	284.88
302.9	284.88
303.13	280.88
303.36	281.88
303.59	266.88
303.82	267.88
304.051	285.88
304.281	261.88
304.511	285.88
304.741	263.88
304.971	269.88
305.201	283.88
305.431	255.88
305.661	282.88
305.891	260.88
306.121	281.88
306.352	274.88
306.582	283.88
306.812	269.88
307.042	286.88
307.272	271.88
307.502	268.88
307.731	267.88
307.961	279.88
308.191	274.88
308.421	270.88
308.651	278.88
308.881	273.88
309.111	277.88
309.341	280.88
309.571	289.88
309.8	290.88
310.03	310.88
310.26	293.88
310.49	301.88
310.72	318.88
310.949	290.88
311.179	317.88
311.409	304.88
311.639	304.88
311.868	310.88
312.098	312.88
312.328	309.88
312.557	306.88
312.787	336.88
313.017	330.88
313.246	303.88
313.476	296.88
313.706	313.88
313.935	317.88
314.165	298.88
314.394	315.88
314.624	314.88
314.853	309.88
315.083	318.88
315.312	316.88
315.542	302.88
315.771	300.88
316.001	309.88
316.23	290.88
316.46	309.88
316.689	310.88
316.919	301.88
317.148	309.88
317.377	317.88
317.607	312.88
317.836	312.88
318.065	312.88
318.295	320.88
318.524	297.88
318.753	313.88
318.983	315.88
319.212	297.88
319.441	301.88
319.67	307.88
319.9	317.88
320.129	309.88
320.358	308.88
320.587	305.88
320.816	309.88
321.046	328.88
321.275	334.88
321.504	313.88
321.733	315.88
321.962	353.88
322.191	332.88
322.42	338.88
322.649	344.88
322.878	352.88
323.108	342.88
323.337	366.88
323.566	380.88
323.795	382.88
324.024	429.88
324.253	499.88
324.482	657.88
324.71	987.88
324.939	1364.88
325.168	1112.88
325.397	636.88
325.626	460.88
325.855	394.88
326.084	364.88
326.313	345.88
326.542	377.88
326.77	425.88
326.999	474.88
327.228	627.88
327.457	883.88
327.686	1036.88
327.914	717.88
328.143	480.88
328.372	475.88
328.6	432.88
328.829	419.88
329.058	413.88
329.287	432.88
329.515	412.88
329.744	395.88
329.972	393.88
330.201	419.88
330.43	452.88
330.658	462.88
330.887	429.88
331.115	449.88
331.344	412.88
331.572	385.88
331.801	373.88
332.03	375.88
332.258	370.88
332.486	368.88
332.715	368.88
332.943	373.88
333.172	383.88
333.4	366.88
333.629	379.88
333.857	382.88
334.085	395.88
334.314	420.88
334.542	438.88
334.771	472.88
334.999	415.88
335.227	389.88
335.455	378.88
335.684	377.88
335.912	357.88
336.14	361.88
336.369	365.88
336.597	361.88
336.825	349.88
337.053	358.88
337.281	349.88
337.51	345.88
337.738	352.88
337.966	352.88
338.194	360.88
338.422	351.88
338.65	341.88
338.878	359.88
339.106	360.88
339.334	346.88
339.562	360.88
339.79	346.88
340.018	361.88
340.246	332.88
340.474	355.88
340.702	361.88
340.93	355.88
341.158	342.88
341.386	347.88
341.614	345.88
341.842	331.88
342.07	327.88
342.298	328.88
342.526	327.88
342.754	314.88
342.981	331.88
343.209	337.88
343.437	331.88
343.665	344.88
343.893	348.88
344.12	358.88
344.348	366.88
344.576	344.88
344.804	348.88
345.031	355.88
345.259	368.88
345.487	326.88
345.714	346.88
345.942	323.88
346.17	336.88
346.397	317.88
346.625	344.88
346.853	341.88
347.08	338.88
347.308	312.88
347.535	346.88
347.763	339.88
347.99	333.88
348.218	317.88
348.445	343.88
348.673	332.88
348.9	318.88
349.128	328.88
349.355	320.88
349.583	321.88
349.81	329.88
350.037	316.88
350.265	322.88
350.492	310.88
350.72	315.88
350.947	322.88
351.174	320.88
351.402	332.88
351.629	324.88
351.856	333.88
352.083	334.88
352.311	348.88
352.538	323.88
352.765	352.88
352.992	313.88
353.22	324.88
353.447	327.88
353.674	319.88
353.901	321.88
354.128	302.88
354.355	303.88
354.583	319.88
354.81	304.88
355.037	313.88
355.264	305.88
355.491	323.88
355.718	314.88
355.945	316.88
356.172	310.88
356.399	313.88
356.626	304.88
356.853	301.88
357.08	320.88
357.307	312.88
357.534	298.88
357.761	312.88
357.988	313.88
358.215	323.88
358.441	318.88
358.668	308.88
358.895	293.88
359.122	318.88
359.349	331.88
359.576	318.88
359.802	317.88
360.029	349.88
360.256	357.88
360.483	340.88
360.709	319.88
360.936	314.88
361.163	341.88
361.39	309.88
361.616	322.88
361.843	326.88
362.07	323.88
362.296	337.88
362.523	328.88
362.749	334.88
362.976	332.88
363.203	331.88
363.429	302.88
363.656	312.88
363.882	311.88
364.109	300.88
364.335	316.88
364.562	323.88
364.788	310.88
365.015	294.88
365.241	312.88
365.468	325.88
365.694	317.88
365.92	308.88
366.147	305.88
366.373	311.88
366.599	311.88
366.826	291.88
367.052	318.88
367.278	311.88
367.505	305.88
367.731	323.88
367.957	315.88
368.184	312.88
368.41	296.88
368.636	338.88
368.862	316.88
369.089	320.88
369.315	326.88
369.541	315.88
369.767	299.88
369.993	327.88
370.219	303.88
370.445	313.88
370.672	312.88
370.898	325.88
371.124	308.88
371.35	310.88
371.576	292.88
371.802	329.88
372.028	338.88
372.254	319.88
372.48	320.88
372.706	307.88
372.932	319.88
373.158	321.88
373.384	325.88
373.61	317.88
373.835	326.88
374.061	330.88
374.287	327.88
374.513	323.88
374.739	333.88
374.965	315.88
375.191	307.88
375.416	319.88
375.642	330.88
375.868	317.88
376.094	341.88
376.319	315.88
376.545	300.88
376.771	315.88
376.997	328.88
377.222	314.88
377.448	326.88
377.674	314.88
377.899	301.88
378.125	320.88
378.35	327.88
378.576	321.88
378.802	319.88
379.027	313.88
379.253	316.88
379.478	315.88
379.704	310.88
379.929	311.88
380.155	331.88
380.38	296.88
380.606	308.88
380.831	342.88
381.057	312.88
381.282	316.88
381.507	305.88
381.733	311.88
381.958	318.88
382.184	318.88
382.409	313.88
382.634	313.88
382.86	320.88
383.085	327.88
383.31	325.88
383.535	318.88
383.761	319.88
383.986	316.88
384.211	308.88
384.436	334.88
384.662	328.88
384.887	335.88
385.112	336.88
385.337	344.88
385.562	349.88
385.787	355.88
386.013	367.88
386.238	344.88
386.463	345.88
386.688	329.88
386.913	344.88
387.138	338.88
387.363	347.88
387.588	353.88
387.813	354.88
388.038	349.88
388.263	344.88
388.488	337.88
388.713	336.88
388.938	351.88
389.163	334.88
389.387	328.88
389.612	342.88
389.837	343.88
390.062	341.88
390.287	337.88
390.512	349.88
390.736	335.88
390.961	345.88
391.186	353.88
391.411	353.88
391.636	346.88
391.86	351.88
392.085	340.88
392.31	343.88
392.534	374.88
392.759	355.88
392.984	340.88
393.208	349.88
393.433	369.88
393.658	343.88
393.882	346.88
394.107	378.88
394.331	347.88
394.556	326.88
394.78	359.88
395.005	340.88
395.229	352.88
395.454	340.88
395.678	362.88
395.903	395.88
396.127	365.88
396.352	368.88
396.576	362.88
396.801	385.88
397.025	367.88
397.249	367.88
397.474	381.88
397.698	362.88
397.922	381.88
398.147	395.88
398.371	390.88
398.595	405.88
398.82	385.88
399.044	389.88
399.268	416.88
399.492	439.88
399.717	479.88
399.941	491.88
400.165	514.88
400.389	488.88
400.613	448.88
400.837	393.88
401.062	412.88
401.286	413.88
401.51	393.88
401.734	406.88
401.958	408.88
402.182	395.88
402.406	413.88
402.63	410.88
402.854	405.88
403.078	439.88
403.302	420.88
403.526	405.88
403.75	411.88
403.974	418.88
404.198	423.88
404.422	424.88
404.645	421.88
404.869	420.88
405.093	430.88
405.317	461.88
405.541	447.88
405.765	453.88
405.988	443.88
406.212	424.88
406.436	450.88
406.66	453.88
406.883	464.88
407.107	466.88
407.331	477.88
407.555	522.88
407.778	525.88
408.002	508.88
408.226	474.88
408.449	445.88
408.673	432.88
408.896	472.88
409.12	488.88
409.344	449.88
409.567	429.88
409.791	428.88
410.014	423.88
410.238	423.88
410.461	428.88
410.685	445.88
410.908	427.88
411.132	435.88
411.355	464.88
411.578	479.88
411.802	419.88
412.025	450.88
412.249	419.88
412.472	417.88
412.695	437.88
412.919	433.88
413.142	414.88
413.365	402.88
413.589	426.88
413.812	394.88
414.035	412.88
414.258	393.88
414.482	419.88
414.705	424.88
414.928	407.88
415.151	401.88
415.374	400.88
415.597	403.88
415.821	395.88
416.044	404.88
416.267	398.88
416.49	417.88
416.713	415.88
416.936	395.88
417.159	398.88
417.382	395.88
417.605	396.88
417.828	414.88
418.051	432.88
418.274	427.88
418.497	401.88
418.72	402.88
418.943	410.88
419.166	416.88
419.389	421.88
419.611	426.88
419.834	421.88
420.057	435.88
420.28	429.88
420.503	402.88
420.726	399.88
420.948	432.88
421.171	439.88
421.394	477.88
421.617	446.88
421.839	436.88
422.062	423.88
422.285	415.88
422.507	482.88
422.73	513.88
422.953	500.88
423.175	448.88
423.398	452.88
423.621	429.88
423.843	452.88
424.066	437.88
424.288	464.88
424.511	436.88
424.733	499.88
424.956	523.88
425.178	503.88
425.401	505.88
425.623	519.88
425.846	462.88
426.068	446.88
426.291	445.88
426.513	428.88
426.735	460.88
426.958	480.88
427.18	517.88
427.402	584.88
427.625	643.88
427.847	579.88
428.069	490.88
428.292	466.88
428.514	423.88
428.736	420.88
428.958	433.88
429.181	399.88
429.403	424.88
429.625	412.88
429.847	439.88
430.069	487.88
430.292	451.88
430.514	425.88
430.736	405.88
430.958	376.88
431.18	383.88
431.402	410.88
431.624	397.88
431.846	379.88
432.068	392.88
432.29	407.88
432.512	383.88
432.734	426.88
432.956	377.88
433.178	408.88
433.4	402.88
433.622	413.88
433.844	387.88
434.066	375.88
434.287	404.88
434.509	401.88
434.731	417.88
434.953	426.88
435.175	425.88
435.397	441.88
435.618	446.88
435.84	468.88
436.062	492.88
436.284	549.88
436.505	459.88
436.727	443.88
436.949	435.88
437.17	432.88
437.392	410.88
437.614	443.88
437.835	416.88
438.057	494.88
438.278	537.88
438.5	527.88
438.721	567.88
438.943	554.88
439.165	468.88
439.386	441.88
439.608	439.88
439.829	428.88
440.05	473.88
440.272	481.88
440.493	468.88
440.715	437.88
440.936	452.88
441.158	402.88
441.379	407.88
441.6	412.88
441.822	444.88
442.043	471.88
442.264	532.88
442.486	543.88
442.707	461.88
442.928	453.88
443.149	438.88
443.371	464.88
443.592	493.88
443.813	529.88
444.034	575.88
444.255	520.88
444.476	467.88
444.698	455.88
444.919	456.88
445.14	556.88
445.361	496.88
445.582	493.88
445.803	519.88
446.024	566.88
446.245	548.88
446.466	524.88
446.687	445.88
446.908	439.88
447.129	417.88
447.35	428.88
447.571	395.88
447.792	404.88
448.013	402.88
448.234	421.88
448.455	455.88
448.675	517.88
448.896	582.88
449.117	489.88
449.338	473.88
449.559	535.88
449.779	588.88
450	488.88
450.221	430.88
450.442	428.88
450.662	393.88
450.883	421.88
451.104	390.88
451.324	380.88
451.545	375.88
451.766	384.88
451.986	349.88
452.207	369.88
452.428	354.88
452.648	376.88
452.869	357.88
453.089	378.88
453.31	378.88
453.53	387.88
453.751	377.88
453.971	384.88
454.192	391.88
454.412	383.88
454.633	363.88
454.853	372.88
455.073	368.88
455.294	360.88
455.514	414.88
455.734	413.88
455.955	370.88
456.175	347.88
456.395	359.88
456.616	357.88
456.836	337.88
457.056	356.88
457.276	348.88
457.497	347.88
457.717	374.88
457.937	355.88
458.157	352.88
458.377	374.88
458.598	380.88
458.818	432.88
459.038	465.88
459.258	472.88
459.478	404.88
459.698	388.88
459.918	386.88
460.138	387.88
460.358	390.88
460.578	407.88
460.798	407.88
461.018	411.88
461.238	418.88
461.458	401.88
461.678	390.88
461.898	404.88
462.118	401.88
462.338	435.88
462.558	435.88
462.777	437.88
462.997	452.88
463.217	461.88
463.437	450.88
463.657	423.88
463.876	422.88
464.096	442.88
464.316	427.88
464.536	409.88
464.755	445.88
464.975	462.88
465.195	439.88
465.414	511.88
465.634	433.88
465.854	411.88
466.073	389.88
466.293	400.88
466.512	381.88
466.732	381.88
466.951	392.88
467.171	389.88
467.391	389.88
467.61	390.88
467.829	389.88
468.049	397.88
468.268	404.88
468.488	379.88
468.707	387.88
468.927	374.88
469.146	367.88
469.365	382.88
469.585	373.88
469.804	384.88
470.023	392.88
470.243	400.88
470.462	408.88
470.681	399.88
470.901	423.88
471.12	400.88
471.339	371.88
471.558	387.88
471.777	388.88
471.997	396.88
472.216	403.88
472.435	474.88
472.654	432.88
472.873	391.88
473.092	389.88
473.311	380.88
473.53	403.88
473.749	406.88
473.968	412.88
474.187	477.88
474.406	461.88
474.625	425.88
474.844	397.88
475.063	381.88
475.282	394.88
475.501	401.88
475.72	399.88
475.939	391.88
476.158	378.88
476.377	397.88
476.596	398.88
476.814	386.88
477.033	382.88
477.252	412.88
477.471	405.88
477.69	410.88
477.908	425.88
478.127	423.88
478.346	418.88
478.564	437.88
478.783	439.88
479.002	434.88
479.22	425.88
479.439	441.88
479.658	468.88
479.876	463.88
480.095	483.88
480.313	480.88
480.532	466.88
480.751	476.88
480.969	486.88
481.188	594.88
481.406	621.88
481.624	495.88
481.843	492.88
482.061	460.88
482.28	457.88
482.498	435.88
482.717	460.88
482.935	448.88
483.153	450.88
483.372	456.88
483.59	456.88
483.808	435.88
484.027	435.88
484.245	464.88
484.463	469.88
484.681	480.88
484.9	470.88
485.118	444.88
485.336	468.88
485.554	467.88
485.772	475.88
485.99	442.88
486.209	454.88
486.427	450.88
486.645	473.88
486.863	484.88
487.081	485.88
487.299	491.88
487.517	484.88
487.735	484.88
487.953	488.88
488.171	490.88
488.389	476.88
488.607	479.88
488.825	483.88
489.043	466.88
489.261	492.88
489.479	487.88
489.696	462.88
489.914	498.88
490.132	492.88
490.35	513.88
490.568	492.88
490.786	492.88
491.003	501.88
491.221	523.88
491.439	516.88
491.657	527.88
491.874	548.88
492.092	539.88
492.31	548.88
492.527	536.88
492.745	533.88
492.963	556.88
493.18	547.88
493.398	546.88
493.615	545.88
493.833	547.88
494.05	542.88
494.268	565.88
494.485	566.88
494.703	530.88
494.92	569.88
495.138	551.88
495.355	563.88
495.573	539.88
495.79	541.88
496.008	557.88
496.225	541.88
496.442	550.88
496.66	538.88
496.877	545.88
497.094	560.88
497.312	545.88
497.529	557.88
497.746	569.88
497.963	582.88
498.181	583.88
498.398	612.88
498.615	613.88
498.832	630.88
499.049	643.88
499.267	683.88
499.484	676.88
499.701	707.88
499.918	724.88
500.135	786.88
500.352	812.88
500.569	844.88
500.786	851.88
501.003	816.88
501.22	798.88
501.437	783.88
501.654	721.88
501.871	733.88
502.088	668.88
502.305	643.88
502.522	635.88
502.739	628.88
502.956	577.88
503.172	579.88
503.389	585.88
503.606	569.88
503.823	563.88
504.04	592.88
504.256	571.88
504.473	558.88
504.69	559.88
504.907	553.88
505.123	547.88
505.34	553.88
505.557	548.88
505.773	540.88
505.99	515.88
506.207	525.88
506.423	528.88
506.64	520.88
506.856	539.88
507.073	497.88
507.289	507.88
507.506	521.88
507.722	509.88
507.939	515.88
508.155	496.88
508.372	497.88
508.588	496.88
508.805	482.88
509.021	487.88
509.238	500.88
509.454	519.88
509.67	492.88
509.887	486.88
510.103	476.88
510.319	491.88
510.536	569.88
510.752	936.88
510.968	747.88
511.184	496.88
511.401	481.88
511.617	479.88
511.833	465.88
512.049	469.88
512.265	468.88
512.481	457.88
512.698	486.88
512.914	449.88
513.13	441.88
513.346	451.88
513.562	486.88
513.778	457.88
513.994	452.88
514.21	484.88
514.426	494.88
514.642	540.88
514.858	551.88
515.074	579.88
515.29	647.88
515.506	931.88
515.721	799.88
515.937	552.88
516.153	492.88
516.369	496.88
516.585	503.88
516.801	485.88
517.016	490.88
517.232	486.88
517.448	496.88
517.664	487.88
517.879	499.88
518.095	494.88
518.311	505.88
518.527	471.88
518.742	496.88
518.958	472.88
519.173	467.88
519.389	480.88
519.605	471.88
519.82	468.88
520.036	465.88
520.251	505.88
520.467	491.88
520.682	494.88
520.898	498.88
521.113	491.88
521.329	557.88
521.544	567.88
521.76	704.88
521.975	1204.88
522.19	1199.88
522.406	685.88
522.621	525.88
522.836	471.88
523.052	461.88
523.267	438.88
523.482	421.88
523.698	413.88
523.913	417.88
524.128	416.88
524.343	401.88
524.559	407.88
524.774	397.88
524.989	419.88
525.204	419.88
525.419	423.88
525.634	405.88
525.849	406.88
526.064	399.88
526.28	409.88
526.495	391.88
526.71	382.88
526.925	404.88
527.14	389.88
527.355	389.88
527.57	397.88
527.785	400.88
527.999	395.88
528.214	382.88
528.429	393.88
528.644	384.88
528.859	390.88
529.074	423.88
529.289	414.88
529.503	453.88
529.718	458.88
529.933	426.88
530.148	405.88
530.363	402.88
530.577	412.88
530.792	382.88
531.007	381.88
531.221	390.88
531.436	396.88
531.651	397.88
531.865	378.88
532.08	373.88
532.295	381.88
532.509	381.88
532.724	380.88
532.938	382.88
533.153	365.88
533.367	376.88
533.582	380.88
533.796	372.88
534.011	360.88
534.225	356.88
534.44	363.88
534.654	379.88
534.868	392.88
535.083	369.88
535.297	353.88
535.511	358.88
535.726	367.88
535.94	367.88
536.154	376.88
536.369	378.88
536.583	360.88
536.797	383.88
537.011	374.88
537.225	353.88
537.44	363.88
537.654	376.88
537.868	355.88
538.082	360.88
538.296	354.88
538.51	350.88
538.724	355.88
538.938	368.88
539.153	368.88
539.367	377.88
539.581	387.88
539.795	369.88
540.009	346.88
540.222	369.88
540.436	379.88
540.65	362.88
540.864	366.88
541.078	356.88
541.292	377.88
541.506	359.88
541.72	361.88
541.934	385.88
542.147	381.88
542.361	374.88
542.575	356.88
542.789	369.88
543.002	368.88
543.216	377.88
543.43	375.88
543.644	373.88
543.857	363.88
544.071	357.88
544.285	358.88
544.498	352.88
544.712	355.88
544.925	357.88
545.139	351.88
545.352	361.88
545.566	348.88
545.779	342.88
545.993	355.88
546.206	371.88
546.42	373.88
546.633	354.88
546.847	352.88
547.06	356.88
547.274	365.88
547.487	367.88
547.7	352.88
547.914	366.88
548.127	346.88
548.34	380.88
548.554	359.88
548.767	341.88
548.98	356.88
549.193	348.88
549.407	356.88
549.62	338.88
549.833	360.88
550.046	356.88
550.259	350.88
550.473	341.88
550.686	346.88
550.899	337.88
551.112	338.88
551.325	360.88
551.538	327.88
551.751	343.88
551.964	355.88
552.177	353.88
552.39	332.88
552.603	343.88
552.816	352.88
553.029	340.88
553.242	347.88
553.455	341.88
553.667	355.88
553.88	356.88
554.093	362.88
554.306	361.88
554.519	337.88
554.732	334.88
554.944	336.88
555.157	318.88
555.37	338.88
555.583	347.88
555.795	329.88
556.008	315.88
556.221	308.88
556.433	331.88
556.646	305.88
556.859	315.88
557.071	310.88
557.284	319.88
557.496	318.88
557.709	308.88
557.921	313.88
558.134	321.88
558.346	321.88
558.559	315.88
558.771	324.88
558.984	309.88
559.196	315.88
559.409	317.88
559.621	300.88
559.833	307.88
560.046	309.88
560.258	291.88
560.47	301.88
560.683	307.88
560.895	327.88
561.107	311.88
561.32	309.88
561.532	319.88
561.744	309.88
561.956	331.88
562.168	300.88
562.381	318.88
562.593	324.88
562.805	333.88
563.017	316.88
563.229	311.88
563.441	305.88
563.653	315.88
563.865	298.88
564.077	308.88
564.289	302.88
564.501	306.88
564.713	319.88
564.925	314.88
565.137	318.88
565.349	337.88
565.561	335.88
565.773	349.88
565.985	352.88
566.197	332.88
566.408	359.88
566.62	396.88
566.832	368.88
567.044	371.88
567.255	399.88
567.467	377.88
567.679	397.88
567.891	431.88
568.102	397.88
568.314	393.88
568.526	369.88
568.737	375.88
568.949	370.88
569.161	362.88
569.372	337.88
569.584	322.88
569.795	321.88
570.007	319.88
570.218	350.88
570.43	341.88
570.641	323.88
570.853	302.88
571.064	302.88
571.276	315.88
571.487	302.88
571.698	293.88
571.91	290.88
572.121	287.88
572.333	271.88
572.544	260.88
572.755	265.88
572.966	276.88
573.178	294.88
573.389	277.88
573.6	289.88
573.811	273.88
574.023	263.88
574.234	266.88
574.445	261.88
574.656	266.88
574.867	247.88
575.078	266.88
575.289	263.88
575.501	264.88
575.712	270.88
575.923	261.88
576.134	268.88
576.345	232.88
576.556	265.88
576.767	275.88
576.978	272.88
577.188	267.88
577.399	251.88
577.61	253.88
577.821	261.88
578.032	249.88
578.243	284.88
578.454	438.88
578.665	337.88
578.875	268.88
579.086	259.88
579.297	252.88
579.508	248.88
579.718	266.88
579.929	243.88
580.14	254.88
580.35	252.88
580.561	253.88
580.772	260.88
580.982	248.88
581.193	227.88
581.403	227.88
581.614	225.88
581.825	235.88
582.035	246.88
582.246	235.88
582.456	236.88
582.667	235.88
582.877	244.88
583.087	241.88
583.298	255.88
583.508	224.88
583.719	235.88
583.929	244.88
584.139	255.88
584.35	247.88
584.56	235.88
584.77	237.88
584.981	236.88
585.191	245.88
585.401	242.88
585.611	244.88
585.821	240.88
586.032	222.88
586.242	215.88
586.452	236.88
586.662	241.88
586.872	220.88
587.082	229.88
587.292	220.88
587.502	225.88
587.713	236.88
587.923	245.88
588.133	245.88
588.343	222.88
588.553	241.88
588.762	231.88
588.972	249.88
589.182	251.88
589.392	266.88
589.602	237.88
589.812	252.88
590.022	261.88
590.232	234.88
590.441	215.88
590.651	239.88
590.861	247.88
591.071	253.88
591.281	235.88
591.49	232.88
591.7	233.88
591.91	245.88
592.119	233.88
592.329	240.88
592.539	238.88
592.748	254.88
592.958	254.88
593.167	255.88
593.377	238.88
593.587	273.88
593.796	245.88
594.006	273.88
594.215	268.88
594.424	251.88
594.634	255.88
594.843	241.88
595.053	247.88
595.262	236.88
595.472	213.88
595.681	224.88
595.89	216.88
596.1	223.88
596.309	219.88
596.518	216.88
596.727	221.88
596.937	216.88
597.146	223.88
597.355	215.88
597.564	218.88
597.774	220.88
597.983	234.88
598.192	233.88
598.401	222.88
598.61	188.88
598.819	219.88
599.028	205.88
599.237	208.88
599.446	207.88
599.655	220.88
599.864	223.88
600.073	214.88
600.282	217.88
600.491	213.88
600.7	218.88
600.909	212.88
601.118	223.88
601.327	204.88
601.536	217.88
601.745	193.88
601.953	195.88
602.162	220.88
602.371	215.88
602.58	207.88
602.789	216.88
602.997	198.88
603.206	199.88
603.415	215.88
603.623	192.88
603.832	193.88
604.041	202.88
604.249	194.88
604.458	200.88
604.666	186.88
604.875	206.88
605.084	209.88
605.292	214.88
605.501	193.88
605.709	202.88
605.918	206.88
606.126	213.88
606.334	198.88
606.543	205.88
606.751	213.88
606.96	199.88
607.168	186.88
607.376	198.88
607.585	191.88
607.793	208.88
608.001	192.88
608.21	188.88
608.418	212.88
608.626	186.88
608.834	196.88
609.043	197.88
609.251	200.88
609.459	192.88
609.667	203.88
609.875	183.88
610.083	191.88
610.291	182.88
610.499	197.88
610.707	195.88
610.916	203.88
611.124	212.88
611.332	214.88
611.54	217.88
611.748	215.88
611.955	180.88
612.163	196.88
612.371	203.88
612.579	203.88
612.787	211.88
612.995	205.88
613.203	192.88
613.411	186.88
613.618	192.88
613.826	181.88
614.034	189.88
614.242	203.88
614.449	201.88
614.657	191.88
614.865	189.88
615.072	181.88
615.28	199.88
615.488	176.88
615.695	189.88
615.903	193.88
616.111	184.88
616.318	206.88
616.526	182.88
616.733	190.88
616.941	204.88
617.148	190.88
617.356	222.88
617.563	189.88
617.771	193.88
617.978	186.88
618.185	176.88
618.393	176.88
618.6	175.88
618.807	199.88
619.015	190.88
619.222	194.88
619.429	192.88
619.637	189.88
619.844	196.88
620.051	183.88
620.258	187.88
620.466	182.88
620.673	179.88
620.88	181.88
621.087	188.88
621.294	183.88
621.501	196.88
621.708	184.88
621.915	176.88
622.122	174.88
622.329	189.88
622.536	201.88
622.743	173.88
622.95	182.88
623.157	185.88
623.364	188.88
623.571	160.88
623.778	168.88
623.985	159.88
624.192	158.88
624.399	175.88
624.606	183.88
624.812	173.88
625.019	166.88
625.226	169.88
625.433	182.88
625.639	174.88
625.846	190.88
626.053	176.88
626.259	173.88
626.466	187.88
626.673	169.88
626.879	170.88
627.086	165.88
627.293	169.88
627.499	153.88
627.706	181.88
627.912	158.88
628.119	182.88
628.325	168.88
628.532	163.88
628.738	164.88
628.945	168.88
629.151	187.88
629.357	181.88
629.564	164.88
629.77	152.88
629.976	163.88
630.183	165.88
630.389	175.88
630.595	166.88
630.802	151.88
631.008	163.88
631.214	163.88
631.42	182.88
631.627	169.88
631.833	163.88
632.039	164.88
632.245	177.88
632.451	156.88
632.657	149.88
632.863	152.88
633.069	148.88
633.275	151.88
633.481	153.88
633.688	168.88
633.893	167.88
634.099	155.88
634.305	146.88
634.511	156.88
634.717	168.88
634.923	151.88
635.129	155.88
635.335	161.88
635.541	183.88
635.747	144.88
635.952	150.88
636.158	158.88
636.364	150.88
636.57	172.88
636.775	166.88
636.981	156.88
637.187	172.88
637.392	149.88
637.598	143.88
637.804	157.88
638.009	143.88
638.215	161.88
638.421	158.88
638.626	149.88
638.832	160.88
639.037	148.88
639.243	148.88
639.448	157.88
639.654	151.88
639.859	153.88
640.065	157.88
640.27	160.88
640.475	132.88
640.681	147.88
640.886	161.88
641.091	141.88
641.297	159.88
641.502	137.88
641.707	148.88
641.913	153.88
642.118	164.88
642.323	144.88
642.528	139.88
642.733	139.88
642.939	151.88
643.144	156.88
643.349	155.88
643.554	150.88
643.759	139.88
643.964	143.88
644.169	145.88
644.374	139.88
644.579	142.88
644.784	150.88
644.989	154.88
645.194	153.88
645.399	156.88
645.604	148.88
645.809	160.88
646.014	152.88
646.219	135.88
646.423	135.88
646.628	144.88
646.833	154.88
647.038	121.88
647.243	145.88
647.447	153.88
647.652	136.88
647.857	118.88
648.062	158.88
648.266	144.88
648.471	156.88
648.676	146.88
648.88	159.88
649.085	157.88
649.289	146.88
649.494	148.88
649.698	163.88
649.903	150.88
650.107	167.88
650.312	149.88
650.516	133.88
650.721	140.88
650.925	133.88
651.13	133.88
651.334	144.88
651.539	143.88
651.743	131.88
651.947	152.88
652.152	140.88
652.356	116.88
652.56	125.88
652.764	125.88
652.969	143.88
653.173	124.88
653.377	127.88
653.581	137.88
653.785	121.88
653.99	136.88
654.194	117.88
654.398	111.88
654.602	121.88
654.806	119.88
655.01	133.88
655.214	138.88
655.418	119.88
655.622	111.88
655.826	133.88
656.03	121.88
656.234	131.88
656.438	135.88
656.642	130.88
656.846	126.88
657.049	127.88
657.253	121.88
657.457	100.88
657.661	117.88
657.865	99.88
658.068	111.88
658.272	111.88
658.476	107.88
658.68	113.88
658.883	116.88
659.087	117.88
659.291	101.88
659.494	110.88
659.698	105.88
659.901	110.88
660.105	100.88
660.309	94.88
660.512	89.88
660.716	84.88
660.919	105.88
661.123	98.88
661.326	99.88
661.53	91.88
661.733	93.88
661.936	78.88
662.14	85.88
662.343	89.88
662.546	76.88
662.75	93.88
662.953	87.88
663.156	82.88
663.36	89.88
663.563	93.88
663.766	93.88
663.969	93.88
664.173	76.88
664.376	92.88
664.579	90.88
664.782	86.88
664.985	96.88
665.188	82.88
665.391	92.88
665.594	93.88
665.797	93.88
666	85.88
666.203	90.88
666.406	79.88
666.609	83.88
666.812	90.88
667.015	81.88
667.218	90.88
667.421	75.88
667.624	96.88
667.827	91.88
668.03	88.88
668.232	86.88
668.435	103.88
668.638	89.88
668.841	85.88
669.043	82.88
669.246	91.88
669.449	90.88
669.651	88.88
669.854	96.88
670.057	91.88
670.259	84.88
670.462	77.88
670.665	91.88
670.867	80.88
671.07	87.88
671.272	89.88
671.475	104.88
671.677	93.88
671.88	89.88
672.082	83.88
672.284	88.88
672.487	76.88
672.689	84.88
672.892	101.88
