Data from 1986.PennyLincolnUp.Lamp.En5.5.200Scan.071819.P2_HRD10591_17-10-19-974.txt Node
Date: Thu Jul 18 17:10:19 EDT 2019
User: cochatt
Spectrometer: HR+D1059
Trigger mode: 1
Integration Time (sec): 1.000000E-1
Scans to average: 1
Electric dark correction enabled: true
Nonlinearity correction enabled: false
Boxcar width: 0
XAxis mode: Wavelengths
Number of Pixels in Spectrum: 2048
>>>>>Begin Spectral Data<<<<<
223.165	-14.31
223.4	-14.31
223.635	-14.31
223.869	-11.31
224.104	-8.31
224.338	-23.31
224.573	-21.31
224.808	-19.31
225.042	-7.31
225.277	7.69
225.511	-9.31
225.746	-6.31
225.98	5.69
226.215	10.69
226.449	4.69
226.683	26.69
226.918	28.69
227.152	36.69
227.387	42.69
227.621	39.69
227.856	41.69
228.09	40.69
228.324	51.69
228.559	57.69
228.793	61.69
229.027	86.69
229.262	102.69
229.496	113.69
229.73	129.69
229.964	152.69
230.199	129.69
230.433	117.69
230.667	126.69
230.901	127.69
231.136	116.69
231.37	104.69
231.604	113.69
231.838	101.69
232.072	104.69
232.306	102.69
232.541	101.69
232.775	122.69
233.009	126.69
233.243	114.69
233.477	122.69
233.711	113.69
233.945	107.69
234.179	113.69
234.413	109.69
234.647	119.69
234.881	107.69
235.115	111.69
235.349	125.69
235.583	121.69
235.817	122.69
236.051	118.69
236.285	99.69
236.519	123.69
236.753	134.69
236.987	127.69
237.221	174.69
237.455	219.69
237.689	213.69
237.922	143.69
238.156	140.69
238.39	107.69
238.624	133.69
238.858	125.69
239.091	117.69
239.325	120.69
239.559	123.69
239.793	121.69
240.027	136.69
240.26	155.69
240.494	171.69
240.728	163.69
240.961	140.69
241.195	145.69
241.429	136.69
241.662	135.69
241.896	137.69
242.13	125.69
242.363	136.69
242.597	130.69
242.83	123.69
243.064	139.69
243.298	137.69
243.531	130.69
243.765	130.69
243.998	128.69
244.232	149.69
244.465	133.69
244.699	143.69
244.932	137.69
245.166	145.69
245.399	147.69
245.633	147.69
245.866	139.69
246.099	140.69
246.333	133.69
246.566	136.69
246.8	146.69
247.033	157.69
247.266	154.69
247.5	164.69
247.733	169.69
247.966	172.69
248.2	169.69
248.433	170.69
248.666	181.69
248.899	202.69
249.133	213.69
249.366	212.69
249.599	186.69
249.832	181.69
250.066	194.69
250.299	180.69
250.532	199.69
250.765	211.69
250.998	240.69
251.231	221.69
251.465	222.69
251.698	202.69
251.931	198.69
252.164	194.69
252.397	212.69
252.63	206.69
252.863	211.69
253.096	220.69
253.329	241.69
253.562	232.69
253.795	230.69
254.028	223.69
254.261	221.69
254.494	226.69
254.727	266.69
254.96	281.69
255.193	282.69
255.426	250.69
255.659	226.69
255.892	234.69
256.124	244.69
256.357	221.69
256.59	235.69
256.823	219.69
257.056	214.69
257.289	214.69
257.521	197.69
257.754	201.69
257.987	221.69
258.22	194.69
258.452	227.69
258.685	216.69
258.918	213.69
259.151	189.69
259.383	222.69
259.616	218.69
259.849	224.69
260.081	236.69
260.314	260.69
260.547	255.69
260.779	261.69
261.012	230.69
261.244	218.69
261.477	214.69
261.71	220.69
261.942	244.69
262.175	242.69
262.407	221.69
262.64	197.69
262.872	202.69
263.105	210.69
263.337	219.69
263.57	208.69
263.802	202.69
264.035	191.69
264.267	210.69
264.499	218.69
264.732	210.69
264.964	197.69
265.197	206.69
265.429	200.69
265.661	203.69
265.894	206.69
266.126	222.69
266.358	209.69
266.591	216.69
266.823	207.69
267.055	224.69
267.287	217.69
267.52	207.69
267.752	195.69
267.984	225.69
268.216	219.69
268.448	216.69
268.681	234.69
268.913	230.69
269.145	251.69
269.377	268.69
269.609	265.69
269.841	240.69
270.073	278.69
270.306	288.69
270.538	309.69
270.77	303.69
271.002	315.69
271.234	291.69
271.466	291.69
271.698	301.69
271.93	338.69
272.162	318.69
272.394	314.69
272.626	308.69
272.858	290.69
273.09	263.69
273.322	255.69
273.553	271.69
273.785	268.69
274.017	239.69
274.249	253.69
274.481	274.69
274.713	267.69
274.945	246.69
275.176	265.69
275.408	258.69
275.64	243.69
275.872	255.69
276.104	250.69
276.335	238.69
276.567	249.69
276.799	277.69
277.031	297.69
277.262	309.69
277.494	286.69
277.726	291.69
277.957	294.69
278.189	261.69
278.421	243.69
278.652	254.69
278.884	247.69
279.115	248.69
279.347	268.69
279.579	264.69
279.81	235.69
280.042	237.69
280.273	255.69
280.505	251.69
280.736	237.69
280.968	237.69
281.199	234.69
281.431	234.69
281.662	236.69
281.894	237.69
282.125	253.69
282.356	276.69
282.588	272.69
282.819	297.69
283.051	266.69
283.282	249.69
283.513	246.69
283.745	255.69
283.976	268.69
284.207	260.69
284.439	262.69
284.67	257.69
284.901	245.69
285.132	253.69
285.364	247.69
285.595	251.69
285.826	261.69
286.057	242.69
286.288	251.69
286.52	260.69
286.751	271.69
286.982	244.69
287.213	261.69
287.444	266.69
287.675	256.69
287.906	265.69
288.138	268.69
288.369	285.69
288.6	270.69
288.831	271.69
289.062	278.69
289.293	270.69
289.524	259.69
289.755	250.69
289.986	269.69
290.217	265.69
290.448	257.69
290.679	258.69
290.91	254.69
291.141	258.69
291.371	273.69
291.602	252.69
291.833	250.69
292.064	263.69
292.295	263.69
292.526	262.69
292.757	265.69
292.987	243.69
293.218	252.69
293.449	257.69
293.68	265.69
293.91	251.69
294.141	255.69
294.372	234.69
294.603	257.69
294.833	238.69
295.064	270.69
295.295	256.69
295.525	261.69
295.756	254.69
295.987	289.69
296.217	313.69
296.448	311.69
296.679	278.69
296.909	266.69
297.14	262.69
297.37	261.69
297.601	281.69
297.831	265.69
298.062	269.69
298.292	247.69
298.523	282.69
298.753	288.69
298.984	271.69
299.214	268.69
299.445	274.69
299.675	280.69
299.905	275.69
300.136	273.69
300.366	284.69
300.597	297.69
300.827	293.69
301.057	289.69
301.288	291.69
301.518	283.69
301.748	277.69
301.979	295.69
302.209	291.69
302.439	276.69
302.669	292.69
302.9	282.69
303.13	290.69
303.36	294.69
303.59	300.69
303.82	317.69
304.051	307.69
304.281	299.69
304.511	261.69
304.741	289.69
304.971	280.69
305.201	298.69
305.431	289.69
305.661	287.69
305.891	296.69
306.121	291.69
306.352	306.69
306.582	307.69
306.812	312.69
307.042	298.69
307.272	301.69
307.502	295.69
307.731	289.69
307.961	283.69
308.191	306.69
308.421	283.69
308.651	310.69
308.881	305.69
309.111	292.69
309.341	323.69
309.571	317.69
309.8	338.69
310.03	340.69
310.26	332.69
310.49	341.69
310.72	370.69
310.949	361.69
311.179	379.69
311.409	346.69
311.639	330.69
311.868	343.69
312.098	360.69
312.328	369.69
312.557	353.69
312.787	386.69
313.017	381.69
313.246	364.69
313.476	355.69
313.706	362.69
313.935	351.69
314.165	370.69
314.394	381.69
314.624	369.69
314.853	344.69
315.083	313.69
315.312	341.69
315.542	347.69
315.771	329.69
316.001	356.69
316.23	335.69
316.46	324.69
316.689	337.69
316.919	336.69
317.148	351.69
317.377	348.69
317.607	339.69
317.836	347.69
318.065	351.69
318.295	342.69
318.524	329.69
318.753	349.69
318.983	340.69
319.212	353.69
319.441	335.69
319.67	348.69
319.9	339.69
320.129	347.69
320.358	347.69
320.587	347.69
320.816	345.69
321.046	364.69
321.275	371.69
321.504	372.69
321.733	366.69
321.962	375.69
322.191	382.69
322.42	410.69
322.649	441.69
322.878	447.69
323.108	451.69
323.337	465.69
323.566	481.69
323.795	564.69
324.024	599.69
324.253	742.69
324.482	1024.69
324.71	1532.69
324.939	2220.69
325.168	1977.69
325.397	1065.69
325.626	693.69
325.855	585.69
326.084	509.69
326.313	499.69
326.542	510.69
326.77	549.69
326.999	668.69
327.228	904.69
327.457	1378.69
327.686	1679.69
327.914	1143.69
328.143	745.69
328.372	638.69
328.6	593.69
328.829	578.69
329.058	580.69
329.287	568.69
329.515	563.69
329.744	502.69
329.972	495.69
330.201	506.69
330.43	539.69
330.658	566.69
330.887	618.69
331.115	603.69
331.344	521.69
331.572	458.69
331.801	445.69
332.03	450.69
332.258	442.69
332.486	411.69
332.715	428.69
332.943	403.69
333.172	407.69
333.4	413.69
333.629	397.69
333.857	405.69
334.085	426.69
334.314	415.69
334.542	435.69
334.771	436.69
334.999	426.69
335.227	399.69
335.455	378.69
335.684	382.69
335.912	410.69
336.14	411.69
336.369	380.69
336.597	413.69
336.825	398.69
337.053	390.69
337.281	388.69
337.51	397.69
337.738	383.69
337.966	365.69
338.194	385.69
338.422	413.69
338.65	389.69
338.878	379.69
339.106	358.69
339.334	349.69
339.562	383.69
339.79	375.69
340.018	380.69
340.246	385.69
340.474	389.69
340.702	393.69
340.93	380.69
341.158	365.69
341.386	379.69
341.614	374.69
341.842	363.69
342.07	370.69
342.298	388.69
342.526	351.69
342.754	345.69
342.981	363.69
343.209	351.69
343.437	359.69
343.665	357.69
343.893	360.69
344.12	366.69
344.348	350.69
344.576	382.69
344.804	387.69
345.031	389.69
345.259	409.69
345.487	393.69
345.714	392.69
345.942	391.69
346.17	370.69
346.397	353.69
346.625	370.69
346.853	387.69
347.08	401.69
347.308	386.69
347.535	390.69
347.763	394.69
347.99	385.69
348.218	394.69
348.445	397.69
348.673	390.69
348.9	397.69
349.128	349.69
349.355	371.69
349.583	348.69
349.81	353.69
350.037	367.69
350.265	372.69
350.492	369.69
350.72	371.69
350.947	373.69
351.174	366.69
351.402	379.69
351.629	378.69
351.856	388.69
352.083	394.69
352.311	400.69
352.538	394.69
352.765	403.69
352.992	390.69
353.22	374.69
353.447	366.69
353.674	373.69
353.901	369.69
354.128	359.69
354.355	360.69
354.583	338.69
354.81	361.69
355.037	330.69
355.264	338.69
355.491	319.69
355.718	333.69
355.945	346.69
356.172	312.69
356.399	339.69
356.626	332.69
356.853	351.69
357.08	335.69
357.307	332.69
357.534	321.69
357.761	330.69
357.988	332.69
358.215	333.69
358.441	338.69
358.668	333.69
358.895	346.69
359.122	359.69
359.349	355.69
359.576	381.69
359.802	412.69
360.029	437.69
360.256	457.69
360.483	417.69
360.709	380.69
360.936	389.69
361.163	353.69
361.39	372.69
361.616	380.69
361.843	359.69
362.07	361.69
362.296	364.69
362.523	381.69
362.749	372.69
362.976	354.69
363.203	371.69
363.429	343.69
363.656	348.69
363.882	335.69
364.109	355.69
364.335	364.69
364.562	356.69
364.788	329.69
365.015	364.69
365.241	353.69
365.468	360.69
365.694	354.69
365.92	342.69
366.147	329.69
366.373	354.69
366.599	353.69
366.826	330.69
367.052	337.69
367.278	326.69
367.505	346.69
367.731	343.69
367.957	345.69
368.184	343.69
368.41	354.69
368.636	358.69
368.862	363.69
369.089	351.69
369.315	351.69
369.541	336.69
369.767	349.69
369.993	348.69
370.219	342.69
370.445	337.69
370.672	326.69
370.898	334.69
371.124	336.69
371.35	341.69
371.576	345.69
371.802	342.69
372.028	344.69
372.254	351.69
372.48	328.69
372.706	343.69
372.932	328.69
373.158	335.69
373.384	339.69
373.61	338.69
373.835	342.69
374.061	354.69
374.287	346.69
374.513	346.69
374.739	325.69
374.965	325.69
375.191	329.69
375.416	318.69
375.642	329.69
375.868	359.69
376.094	346.69
376.319	352.69
376.545	328.69
376.771	331.69
376.997	338.69
377.222	328.69
377.448	327.69
377.674	311.69
377.899	321.69
378.125	323.69
378.35	335.69
378.576	339.69
378.802	330.69
379.027	323.69
379.253	324.69
379.478	323.69
379.704	351.69
379.929	329.69
380.155	334.69
380.38	334.69
380.606	342.69
380.831	339.69
381.057	348.69
381.282	325.69
381.507	329.69
381.733	343.69
381.958	335.69
382.184	356.69
382.409	354.69
382.634	326.69
382.86	333.69
383.085	357.69
383.31	331.69
383.535	337.69
383.761	336.69
383.986	348.69
384.211	333.69
384.436	346.69
384.662	340.69
384.887	364.69
385.112	327.69
385.337	347.69
385.562	339.69
385.787	358.69
386.013	352.69
386.238	359.69
386.463	358.69
386.688	357.69
386.913	350.69
387.138	376.69
387.363	355.69
387.588	351.69
387.813	344.69
388.038	345.69
388.263	348.69
388.488	330.69
388.713	345.69
388.938	343.69
389.163	342.69
389.387	335.69
389.612	340.69
389.837	342.69
390.062	350.69
390.287	347.69
390.512	356.69
390.736	333.69
390.961	345.69
391.186	359.69
391.411	356.69
391.636	344.69
391.86	353.69
392.085	347.69
392.31	361.69
392.534	357.69
392.759	355.69
392.984	348.69
393.208	334.69
393.433	350.69
393.658	361.69
393.882	355.69
394.107	352.69
394.331	351.69
394.556	353.69
394.78	349.69
395.005	337.69
395.229	338.69
395.454	364.69
395.678	359.69
395.903	378.69
396.127	370.69
396.352	366.69
396.576	371.69
396.801	362.69
397.025	353.69
397.249	360.69
397.474	351.69
397.698	375.69
397.922	377.69
398.147	389.69
398.371	406.69
398.595	389.69
398.82	390.69
399.044	390.69
399.268	413.69
399.492	389.69
399.717	403.69
399.941	449.69
400.165	467.69
400.389	501.69
400.613	457.69
400.837	413.69
401.062	403.69
401.286	384.69
401.51	395.69
401.734	397.69
401.958	386.69
402.182	382.69
402.406	441.69
402.63	422.69
402.854	395.69
403.078	414.69
403.302	384.69
403.526	413.69
403.75	425.69
403.974	409.69
404.198	397.69
404.422	404.69
404.645	421.69
404.869	420.69
405.093	440.69
405.317	460.69
405.541	485.69
405.765	466.69
405.988	446.69
406.212	445.69
406.436	473.69
406.66	454.69
406.883	444.69
407.107	473.69
407.331	521.69
407.555	563.69
407.778	569.69
408.002	507.69
408.226	470.69
408.449	452.69
408.673	457.69
408.896	490.69
409.12	527.69
409.344	478.69
409.567	441.69
409.791	424.69
410.014	426.69
410.238	404.69
410.461	403.69
410.685	433.69
410.908	428.69
411.132	450.69
411.355	497.69
411.578	462.69
411.802	431.69
412.025	401.69
412.249	425.69
412.472	413.69
412.695	424.69
412.919	413.69
413.142	417.69
413.365	389.69
413.589	398.69
413.812	373.69
414.035	382.69
414.258	366.69
414.482	405.69
414.705	407.69
414.928	398.69
415.151	380.69
415.374	372.69
415.597	376.69
415.821	380.69
416.044	387.69
416.267	395.69
416.49	395.69
416.713	391.69
416.936	383.69
417.159	400.69
417.382	405.69
417.605	391.69
417.828	404.69
418.051	412.69
418.274	416.69
418.497	393.69
418.72	391.69
418.943	397.69
419.166	402.69
419.389	405.69
419.611	406.69
419.834	401.69
420.057	413.69
420.28	413.69
420.503	419.69
420.726	417.69
420.948	433.69
421.171	464.69
421.394	506.69
421.617	419.69
421.839	408.69
422.062	401.69
422.285	426.69
422.507	500.69
422.73	554.69
422.953	540.69
423.175	476.69
423.398	436.69
423.621	443.69
423.843	449.69
424.066	468.69
424.288	472.69
424.511	483.69
424.733	537.69
424.956	574.69
425.178	569.69
425.401	573.69
425.623	563.69
425.846	497.69
426.068	481.69
426.291	458.69
426.513	479.69
426.735	475.69
426.958	521.69
427.18	580.69
427.402	708.69
427.625	779.69
427.847	697.69
428.069	623.69
428.292	549.69
428.514	460.69
428.736	467.69
428.958	444.69
429.181	455.69
429.403	421.69
429.625	472.69
429.847	465.69
430.069	519.69
430.292	548.69
430.514	430.69
430.736	434.69
430.958	411.69
431.18	403.69
431.402	415.69
431.624	398.69
431.846	387.69
432.068	394.69
432.29	403.69
432.512	393.69
432.734	419.69
432.956	405.69
433.178	418.69
433.4	405.69
433.622	394.69
433.844	389.69
434.066	386.69
434.287	402.69
434.509	406.69
434.731	412.69
434.953	411.69
435.175	435.69
435.397	472.69
435.618	459.69
435.84	514.69
436.062	580.69
436.284	642.69
436.505	557.69
436.727	482.69
436.949	469.69
437.17	430.69
437.392	421.69
437.614	453.69
437.835	484.69
438.057	565.69
438.278	675.69
438.5	660.69
438.721	716.69
438.943	682.69
439.165	533.69
439.386	471.69
439.608	495.69
439.829	495.69
440.05	495.69
440.272	546.69
440.493	519.69
440.715	478.69
440.936	469.69
441.158	425.69
441.379	430.69
441.6	447.69
441.822	458.69
442.043	496.69
442.264	596.69
442.486	621.69
442.707	514.69
442.928	486.69
443.149	499.69
443.371	488.69
443.592	566.69
443.813	628.69
444.034	687.69
444.255	563.69
444.476	518.69
444.698	467.69
444.919	453.69
445.14	559.69
445.361	527.69
445.582	516.69
445.803	586.69
446.024	670.69
446.245	679.69
446.466	593.69
446.687	531.69
446.908	493.69
447.129	462.69
447.35	454.69
447.571	459.69
447.792	421.69
448.013	433.69
448.234	460.69
448.455	525.69
448.675	596.69
448.896	696.69
449.117	625.69
449.338	573.69
449.559	661.69
449.779	759.69
450	594.69
450.221	514.69
450.442	447.69
450.662	447.69
450.883	448.69
451.104	472.69
451.324	443.69
451.545	444.69
451.766	411.69
451.986	387.69
452.207	398.69
452.428	398.69
452.648	396.69
452.869	409.69
453.089	393.69
453.31	442.69
453.53	401.69
453.751	405.69
453.971	385.69
454.192	420.69
454.412	412.69
454.633	396.69
454.853	396.69
455.073	375.69
455.294	421.69
455.514	492.69
455.734	462.69
455.955	384.69
456.175	377.69
456.395	362.69
456.616	347.69
456.836	372.69
457.056	361.69
457.276	364.69
457.497	370.69
457.717	373.69
457.937	358.69
458.157	385.69
458.377	381.69
458.598	426.69
458.818	475.69
459.038	537.69
459.258	554.69
459.478	462.69
459.698	433.69
459.918	413.69
460.138	402.69
460.358	395.69
460.578	398.69
460.798	398.69
461.018	392.69
461.238	389.69
461.458	387.69
461.678	378.69
461.898	389.69
462.118	382.69
462.338	387.69
462.558	405.69
462.777	398.69
462.997	399.69
463.217	414.69
463.437	422.69
463.657	399.69
463.876	390.69
464.096	404.69
464.316	396.69
464.536	419.69
464.755	419.69
464.975	453.69
465.195	483.69
465.414	563.69
465.634	503.69
465.854	441.69
466.073	426.69
466.293	386.69
466.512	397.69
466.732	387.69
466.951	397.69
467.171	409.69
467.391	379.69
467.61	425.69
467.829	407.69
468.049	407.69
468.268	396.69
468.488	395.69
468.707	373.69
468.927	372.69
469.146	389.69
469.365	394.69
469.585	373.69
469.804	379.69
470.023	411.69
470.243	414.69
470.462	401.69
470.681	411.69
470.901	417.69
471.12	385.69
471.339	396.69
471.558	403.69
471.777	398.69
471.997	391.69
472.216	384.69
472.435	418.69
472.654	392.69
472.873	397.69
473.092	399.69
473.311	388.69
473.53	387.69
473.749	405.69
473.968	431.69
474.187	547.69
474.406	584.69
474.625	479.69
474.844	409.69
475.063	409.69
475.282	404.69
475.501	400.69
475.72	405.69
475.939	403.69
476.158	397.69
476.377	397.69
476.596	405.69
476.814	393.69
477.033	424.69
477.252	436.69
477.471	409.69
477.69	412.69
477.908	418.69
478.127	427.69
478.346	419.69
478.564	436.69
478.783	433.69
479.002	432.69
479.22	443.69
479.439	464.69
479.658	468.69
479.876	475.69
480.095	485.69
480.313	509.69
480.532	497.69
480.751	476.69
480.969	482.69
481.188	499.69
481.406	550.69
481.624	497.69
481.843	480.69
482.061	447.69
482.28	468.69
482.498	469.69
482.717	479.69
482.935	469.69
483.153	476.69
483.372	441.69
483.59	463.69
483.808	462.69
484.027	459.69
484.245	473.69
484.463	469.69
484.681	477.69
484.9	466.69
485.118	465.69
485.336	457.69
485.554	455.69
485.772	468.69
485.99	492.69
486.209	493.69
486.427	483.69
486.645	502.69
486.863	515.69
487.081	501.69
487.299	494.69
487.517	493.69
487.735	508.69
487.953	491.69
488.171	485.69
488.389	490.69
488.607	519.69
488.825	520.69
489.043	526.69
489.261	536.69
489.479	515.69
489.696	513.69
489.914	527.69
490.132	533.69
490.35	519.69
490.568	525.69
490.786	543.69
491.003	542.69
491.221	562.69
491.439	555.69
491.657	579.69
491.874	581.69
492.092	575.69
492.31	609.69
492.527	597.69
492.745	585.69
492.963	585.69
493.18	584.69
493.398	619.69
493.615	594.69
493.833	591.69
494.05	598.69
494.268	613.69
494.485	604.69
494.703	590.69
494.92	615.69
495.138	591.69
495.355	590.69
495.573	620.69
495.79	635.69
496.008	621.69
496.225	609.69
496.442	611.69
496.66	621.69
496.877	599.69
497.094	612.69
497.312	607.69
497.529	603.69
497.746	623.69
497.963	629.69
498.181	645.69
498.398	647.69
498.615	644.69
498.832	673.69
499.049	666.69
499.267	661.69
499.484	677.69
499.701	702.69
499.918	678.69
500.135	725.69
500.352	715.69
500.569	740.69
500.786	743.69
501.003	726.69
501.22	723.69
501.437	700.69
501.654	718.69
501.871	716.69
502.088	698.69
502.305	666.69
502.522	663.69
502.739	653.69
502.956	627.69
503.172	616.69
503.389	620.69
503.606	638.69
503.823	641.69
504.04	619.69
504.256	608.69
504.473	619.69
504.69	619.69
504.907	622.69
505.123	615.69
505.34	582.69
505.557	583.69
505.773	603.69
505.99	600.69
506.207	592.69
506.423	590.69
506.64	599.69
506.856	589.69
507.073	599.69
507.289	613.69
507.506	596.69
507.722	602.69
507.939	622.69
508.155	628.69
508.372	590.69
508.588	575.69
508.805	548.69
509.021	581.69
509.238	591.69
509.454	602.69
509.67	584.69
509.887	586.69
510.103	578.69
510.319	613.69
510.536	682.69
510.752	1197.69
510.968	1035.69
511.184	630.69
511.401	601.69
511.617	577.69
511.833	555.69
512.049	556.69
512.265	559.69
512.481	563.69
512.698	545.69
512.914	538.69
513.13	554.69
513.346	539.69
513.562	537.69
513.778	546.69
513.994	539.69
514.21	573.69
514.426	610.69
514.642	668.69
514.858	677.69
515.074	739.69
515.29	924.69
515.506	1435.69
515.721	1155.69
515.937	684.69
516.153	636.69
516.369	623.69
516.585	589.69
516.801	565.69
517.016	549.69
517.232	540.69
517.448	553.69
517.664	553.69
517.879	558.69
518.095	552.69
518.311	551.69
518.527	543.69
518.742	551.69
518.958	552.69
519.173	543.69
519.389	524.69
519.605	517.69
519.82	531.69
520.036	554.69
520.251	592.69
520.467	598.69
520.682	634.69
520.898	637.69
521.113	655.69
521.329	705.69
521.544	851.69
521.76	1115.69
521.975	1959.69
522.19	1914.69
522.406	996.69
522.621	688.69
522.836	634.69
523.052	573.69
523.267	534.69
523.482	526.69
523.698	524.69
523.913	525.69
524.128	510.69
524.343	504.69
524.559	477.69
524.774	471.69
524.989	469.69
525.204	498.69
525.419	494.69
525.634	465.69
525.849	457.69
526.064	457.69
526.28	447.69
526.495	441.69
526.71	456.69
526.925	435.69
527.14	441.69
527.355	458.69
527.57	434.69
527.785	428.69
527.999	436.69
528.214	426.69
528.429	447.69
528.644	423.69
528.859	440.69
529.074	461.69
529.289	473.69
529.503	582.69
529.718	534.69
529.933	475.69
530.148	459.69
530.363	430.69
530.577	434.69
530.792	427.69
531.007	415.69
531.221	423.69
531.436	411.69
531.651	430.69
531.865	412.69
532.08	421.69
532.295	408.69
532.509	411.69
532.724	410.69
532.938	420.69
533.153	408.69
533.367	408.69
533.582	425.69
533.796	413.69
534.011	406.69
534.225	406.69
534.44	378.69
534.654	416.69
534.868	403.69
535.083	417.69
535.297	405.69
535.511	414.69
535.726	422.69
535.94	413.69
536.154	417.69
536.369	421.69
536.583	404.69
536.797	409.69
537.011	378.69
537.225	409.69
537.44	397.69
537.654	387.69
537.868	402.69
538.082	393.69
538.296	396.69
538.51	385.69
538.724	378.69
538.938	387.69
539.153	399.69
539.367	398.69
539.581	426.69
539.795	398.69
540.009	396.69
540.222	394.69
540.436	413.69
540.65	388.69
540.864	407.69
541.078	414.69
541.292	407.69
541.506	395.69
541.72	383.69
541.934	393.69
542.147	372.69
542.361	373.69
542.575	397.69
542.789	372.69
543.002	390.69
543.216	402.69
543.43	387.69
543.644	386.69
543.857	405.69
544.071	403.69
544.285	402.69
544.498	372.69
544.712	390.69
544.925	375.69
545.139	379.69
545.352	366.69
545.566	382.69
545.779	371.69
545.993	386.69
546.206	387.69
546.42	375.69
546.633	366.69
546.847	356.69
547.06	360.69
547.274	369.69
547.487	379.69
547.7	362.69
547.914	372.69
548.127	369.69
548.34	372.69
548.554	362.69
548.767	356.69
548.98	350.69
549.193	352.69
549.407	341.69
549.62	379.69
549.833	373.69
550.046	369.69
550.259	371.69
550.473	362.69
550.686	367.69
550.899	362.69
551.112	363.69
551.325	371.69
551.538	361.69
551.751	351.69
551.964	360.69
552.177	369.69
552.39	366.69
552.603	369.69
552.816	347.69
553.029	355.69
553.242	380.69
553.455	377.69
553.667	355.69
553.88	400.69
554.093	383.69
554.306	354.69
554.519	379.69
554.732	371.69
554.944	353.69
555.157	351.69
555.37	360.69
555.583	354.69
555.795	351.69
556.008	340.69
556.221	341.69
556.433	329.69
556.646	348.69
556.859	328.69
557.071	347.69
557.284	321.69
557.496	333.69
557.709	319.69
557.921	335.69
558.134	329.69
558.346	324.69
558.559	329.69
558.771	339.69
558.984	323.69
559.196	317.69
559.409	319.69
559.621	312.69
559.833	300.69
560.046	323.69
560.258	327.69
560.47	328.69
560.683	313.69
560.895	331.69
561.107	310.69
561.32	315.69
561.532	330.69
561.744	340.69
561.956	319.69
562.168	323.69
562.381	316.69
562.593	329.69
562.805	331.69
563.017	333.69
563.229	325.69
563.441	327.69
563.653	342.69
563.865	314.69
564.077	341.69
564.289	314.69
564.501	342.69
564.713	337.69
564.925	335.69
565.137	340.69
565.349	331.69
565.561	330.69
565.773	350.69
565.985	337.69
566.197	321.69
566.408	336.69
566.62	354.69
566.832	348.69
567.044	361.69
567.255	364.69
567.467	366.69
567.679	373.69
567.891	361.69
568.102	346.69
568.314	363.69
568.526	339.69
568.737	356.69
568.949	343.69
569.161	329.69
569.372	315.69
569.584	338.69
569.795	321.69
570.007	347.69
570.218	390.69
570.43	364.69
570.641	311.69
570.853	311.69
571.064	302.69
571.276	310.69
571.487	316.69
571.698	295.69
571.91	300.69
572.121	296.69
572.333	307.69
572.544	289.69
572.755	297.69
572.966	295.69
573.178	313.69
573.389	285.69
573.6	273.69
573.811	301.69
574.023	291.69
574.234	280.69
574.445	299.69
574.656	268.69
574.867	292.69
575.078	290.69
575.289	305.69
575.501	288.69
575.712	275.69
575.923	271.69
576.134	290.69
576.345	273.69
576.556	277.69
576.767	281.69
576.978	268.69
577.188	291.69
577.399	283.69
577.61	270.69
577.821	275.69
578.032	278.69
578.243	320.69
578.454	611.69
578.665	407.69
578.875	301.69
579.086	286.69
579.297	279.69
579.508	284.69
579.718	279.69
579.929	282.69
580.14	263.69
580.35	257.69
580.561	281.69
580.772	267.69
580.982	265.69
581.193	263.69
581.403	262.69
581.614	270.69
581.825	258.69
582.035	245.69
582.246	247.69
582.456	263.69
582.667	262.69
582.877	261.69
583.087	258.69
583.298	244.69
583.508	257.69
583.719	256.69
583.929	242.69
584.139	261.69
584.35	255.69
584.56	234.69
584.77	265.69
584.981	261.69
585.191	265.69
585.401	247.69
585.611	273.69
585.821	246.69
586.032	259.69
586.242	245.69
586.452	245.69
586.662	257.69
586.872	245.69
587.082	264.69
587.292	257.69
587.502	279.69
587.713	251.69
587.923	248.69
588.133	254.69
588.343	255.69
588.553	239.69
588.762	244.69
588.972	251.69
589.182	281.69
589.392	271.69
589.602	247.69
589.812	274.69
590.022	279.69
590.232	244.69
590.441	238.69
590.651	249.69
590.861	230.69
591.071	245.69
591.281	251.69
591.49	262.69
591.7	245.69
591.91	254.69
592.119	255.69
592.329	231.69
592.539	245.69
592.748	241.69
592.958	254.69
593.167	254.69
593.377	250.69
593.587	252.69
593.796	263.69
594.006	238.69
594.215	242.69
594.424	233.69
594.634	243.69
594.843	253.69
595.053	234.69
595.262	248.69
595.472	242.69
595.681	237.69
595.89	239.69
596.1	224.69
596.309	246.69
596.518	244.69
596.727	222.69
596.937	251.69
597.146	244.69
597.355	241.69
597.564	231.69
597.774	217.69
597.983	222.69
598.192	220.69
598.401	231.69
598.61	206.69
598.819	220.69
599.028	221.69
599.237	221.69
599.446	213.69
599.655	237.69
599.864	221.69
600.073	220.69
600.282	223.69
600.491	220.69
600.7	225.69
600.909	207.69
601.118	222.69
601.327	212.69
601.536	219.69
601.745	220.69
601.953	227.69
602.162	203.69
602.371	200.69
602.58	220.69
602.789	225.69
602.997	237.69
603.206	216.69
603.415	198.69
603.623	228.69
603.832	220.69
604.041	232.69
604.249	207.69
604.458	222.69
604.666	214.69
604.875	221.69
605.084	204.69
605.292	218.69
605.501	205.69
605.709	222.69
605.918	204.69
606.126	216.69
606.334	207.69
606.543	222.69
606.751	204.69
606.96	223.69
607.168	203.69
607.376	217.69
607.585	217.69
607.793	213.69
608.001	198.69
608.21	213.69
608.418	207.69
608.626	197.69
608.834	219.69
609.043	209.69
609.251	201.69
609.459	206.69
609.667	229.69
609.875	213.69
610.083	216.69
610.291	207.69
610.499	188.69
610.707	206.69
610.916	209.69
611.124	211.69
611.332	209.69
611.54	212.69
611.748	195.69
611.955	206.69
612.163	204.69
612.371	214.69
612.579	205.69
612.787	204.69
612.995	202.69
613.203	212.69
613.411	213.69
613.618	207.69
613.826	198.69
614.034	204.69
614.242	196.69
614.449	201.69
614.657	198.69
614.865	202.69
615.072	215.69
615.28	199.69
615.488	196.69
615.695	212.69
615.903	199.69
616.111	212.69
616.318	213.69
616.526	219.69
616.733	203.69
616.941	220.69
617.148	199.69
617.356	197.69
617.563	206.69
617.771	211.69
617.978	209.69
618.185	191.69
618.393	196.69
618.6	189.69
618.807	190.69
619.015	211.69
619.222	201.69
619.429	218.69
619.637	197.69
619.844	170.69
620.051	184.69
620.258	183.69
620.466	190.69
620.673	191.69
620.88	183.69
621.087	189.69
621.294	217.69
621.501	174.69
621.708	196.69
621.915	203.69
622.122	196.69
622.329	198.69
622.536	180.69
622.743	206.69
622.95	205.69
623.157	188.69
623.364	183.69
623.571	201.69
623.778	179.69
623.985	201.69
624.192	186.69
624.399	193.69
624.606	188.69
624.812	210.69
625.019	190.69
625.226	192.69
625.433	183.69
625.639	182.69
625.846	171.69
626.053	172.69
626.259	183.69
626.466	203.69
626.673	175.69
626.879	181.69
627.086	188.69
627.293	192.69
627.499	189.69
627.706	185.69
627.912	195.69
628.119	174.69
628.325	187.69
628.532	169.69
628.738	180.69
628.945	183.69
629.151	169.69
629.357	172.69
629.564	178.69
629.77	174.69
629.976	171.69
630.183	170.69
630.389	165.69
630.595	189.69
630.802	161.69
631.008	175.69
631.214	168.69
631.42	174.69
631.627	172.69
631.833	179.69
632.039	172.69
632.245	158.69
632.451	178.69
632.657	172.69
632.863	170.69
633.069	166.69
633.275	158.69
633.481	160.69
633.688	153.69
633.893	169.69
634.099	165.69
634.305	163.69
634.511	174.69
634.717	153.69
634.923	155.69
635.129	163.69
635.335	166.69
635.541	164.69
635.747	182.69
635.952	163.69
636.158	155.69
636.364	169.69
636.57	185.69
636.775	158.69
636.981	168.69
637.187	158.69
637.392	153.69
637.598	158.69
637.804	156.69
638.009	151.69
638.215	142.69
638.421	160.69
638.626	143.69
638.832	152.69
639.037	158.69
639.243	157.69
639.448	152.69
639.654	165.69
639.859	146.69
640.065	143.69
640.27	164.69
640.475	154.69
640.681	164.69
640.886	154.69
641.091	159.69
641.297	157.69
641.502	152.69
641.707	150.69
641.913	139.69
642.118	139.69
642.323	150.69
642.528	147.69
642.733	137.69
642.939	162.69
643.144	143.69
643.349	155.69
643.554	159.69
643.759	150.69
643.964	134.69
644.169	134.69
644.374	151.69
644.579	151.69
644.784	153.69
644.989	146.69
645.194	148.69
645.399	142.69
645.604	143.69
645.809	158.69
646.014	142.69
646.219	149.69
646.423	148.69
646.628	160.69
646.833	158.69
647.038	153.69
647.243	139.69
647.447	149.69
647.652	127.69
647.857	142.69
648.062	153.69
648.266	141.69
648.471	147.69
648.676	151.69
648.88	142.69
649.085	157.69
649.289	139.69
649.494	150.69
649.698	170.69
649.903	168.69
650.107	162.69
650.312	158.69
650.516	142.69
650.721	135.69
650.925	148.69
651.13	144.69
651.334	135.69
651.539	136.69
651.743	141.69
651.947	133.69
652.152	134.69
652.356	141.69
652.56	137.69
652.764	128.69
652.969	113.69
653.173	137.69
653.377	135.69
653.581	125.69
653.785	126.69
653.99	116.69
654.194	115.69
654.398	112.69
654.602	120.69
654.806	127.69
655.01	124.69
655.214	144.69
655.418	119.69
655.622	120.69
655.826	124.69
656.03	125.69
656.234	127.69
656.438	110.69
656.642	127.69
656.846	119.69
657.049	111.69
657.253	120.69
657.457	120.69
657.661	106.69
657.865	87.69
658.068	113.69
658.272	105.69
658.476	102.69
658.68	117.69
658.883	92.69
659.087	102.69
659.291	94.69
659.494	101.69
659.698	95.69
659.901	100.69
660.105	81.69
660.309	91.69
660.512	94.69
660.716	95.69
660.919	108.69
661.123	77.69
661.326	94.69
661.53	87.69
661.733	99.69
661.936	89.69
662.14	74.69
662.343	84.69
662.546	78.69
662.75	95.69
662.953	96.69
663.156	80.69
663.36	92.69
663.563	72.69
663.766	85.69
663.969	77.69
664.173	87.69
664.376	87.69
664.579	92.69
664.782	86.69
664.985	82.69
665.188	83.69
665.391	77.69
665.594	87.69
665.797	86.69
666	83.69
666.203	91.69
666.406	88.69
666.609	83.69
666.812	83.69
667.015	76.69
667.218	87.69
667.421	74.69
667.624	90.69
667.827	79.69
668.03	82.69
668.232	86.69
668.435	88.69
668.638	72.69
668.841	84.69
669.043	83.69
669.246	78.69
669.449	83.69
669.651	87.69
669.854	80.69
670.057	71.69
670.259	83.69
670.462	77.69
670.665	91.69
670.867	87.69
671.07	85.69
671.272	88.69
671.475	93.69
671.677	74.69
671.88	73.69
672.082	81.69
672.284	82.69
672.487	84.69
672.689	89.69
672.892	75.69
