Data from 1986.PennyLincolnUp.Lamp.En5.5.200Scan.071819.P2_HRD10591_17-10-05-973.txt Node
Date: Thu Jul 18 17:10:05 EDT 2019
User: cochatt
Spectrometer: HR+D1059
Trigger mode: 1
Integration Time (sec): 1.000000E-1
Scans to average: 1
Electric dark correction enabled: true
Nonlinearity correction enabled: false
Boxcar width: 0
XAxis mode: Wavelengths
Number of Pixels in Spectrum: 2048
>>>>>Begin Spectral Data<<<<<
223.165	-16.94
223.4	-16.94
223.635	-16.94
223.869	-26.94
224.104	-1.94
224.338	-22.94
224.573	-27.94
224.808	3.06
225.042	-6.94
225.277	-4.94
225.511	5.06
225.746	7.06
225.98	8.06
226.215	9.06
226.449	15.06
226.683	15.06
226.918	22.06
227.152	24.06
227.387	30.06
227.621	44.06
227.856	51.06
228.09	48.06
228.324	57.06
228.559	48.06
228.793	79.06
229.027	92.06
229.262	118.06
229.496	104.06
229.73	123.06
229.964	165.06
230.199	143.06
230.433	107.06
230.667	120.06
230.901	116.06
231.136	109.06
231.37	112.06
231.604	115.06
231.838	123.06
232.072	106.06
232.306	115.06
232.541	125.06
232.775	124.06
233.009	105.06
233.243	123.06
233.477	115.06
233.711	125.06
233.945	110.06
234.179	121.06
234.413	127.06
234.647	116.06
234.881	124.06
235.115	108.06
235.349	122.06
235.583	127.06
235.817	125.06
236.051	121.06
236.285	133.06
236.519	127.06
236.753	132.06
236.987	131.06
237.221	175.06
237.455	243.06
237.689	187.06
237.922	144.06
238.156	139.06
238.39	127.06
238.624	126.06
238.858	121.06
239.091	133.06
239.325	138.06
239.559	121.06
239.793	134.06
240.027	135.06
240.26	143.06
240.494	155.06
240.728	165.06
240.961	151.06
241.195	124.06
241.429	145.06
241.662	135.06
241.896	127.06
242.13	126.06
242.363	128.06
242.597	131.06
242.83	138.06
243.064	128.06
243.298	129.06
243.531	138.06
243.765	135.06
243.998	140.06
244.232	146.06
244.465	144.06
244.699	156.06
244.932	137.06
245.166	140.06
245.399	149.06
245.633	139.06
245.866	155.06
246.099	156.06
246.333	150.06
246.566	151.06
246.8	148.06
247.033	140.06
247.266	159.06
247.5	163.06
247.733	163.06
247.966	171.06
248.2	175.06
248.433	179.06
248.666	169.06
248.899	182.06
249.133	208.06
249.366	215.06
249.599	203.06
249.832	198.06
250.066	183.06
250.299	182.06
250.532	177.06
250.765	189.06
250.998	214.06
251.231	230.06
251.465	220.06
251.698	202.06
251.931	215.06
252.164	199.06
252.397	196.06
252.63	207.06
252.863	205.06
253.096	226.06
253.329	241.06
253.562	227.06
253.795	227.06
254.028	224.06
254.261	209.06
254.494	231.06
254.727	259.06
254.96	294.06
255.193	274.06
255.426	273.06
255.659	235.06
255.892	242.06
256.124	216.06
256.357	220.06
256.59	220.06
256.823	222.06
257.056	188.06
257.289	221.06
257.521	207.06
257.754	204.06
257.987	201.06
258.22	224.06
258.452	219.06
258.685	226.06
258.918	220.06
259.151	208.06
259.383	208.06
259.616	230.06
259.849	217.06
260.081	226.06
260.314	239.06
260.547	261.06
260.779	246.06
261.012	247.06
261.244	240.06
261.477	228.06
261.71	228.06
261.942	223.06
262.175	245.06
262.407	235.06
262.64	220.06
262.872	225.06
263.105	202.06
263.337	208.06
263.57	221.06
263.802	213.06
264.035	204.06
264.267	203.06
264.499	193.06
264.732	216.06
264.964	212.06
265.197	197.06
265.429	212.06
265.661	204.06
265.894	210.06
266.126	227.06
266.358	211.06
266.591	212.06
266.823	213.06
267.055	222.06
267.287	218.06
267.52	226.06
267.752	217.06
267.984	207.06
268.216	215.06
268.448	209.06
268.681	232.06
268.913	258.06
269.145	248.06
269.377	274.06
269.609	275.06
269.841	251.06
270.073	256.06
270.306	287.06
270.538	315.06
270.77	318.06
271.002	309.06
271.234	300.06
271.466	291.06
271.698	311.06
271.93	329.06
272.162	319.06
272.394	287.06
272.626	299.06
272.858	284.06
273.09	279.06
273.322	275.06
273.553	259.06
273.785	260.06
274.017	249.06
274.249	273.06
274.481	264.06
274.713	263.06
274.945	249.06
275.176	260.06
275.408	245.06
275.64	252.06
275.872	235.06
276.104	264.06
276.335	258.06
276.567	255.06
276.799	287.06
277.031	296.06
277.262	310.06
277.494	324.06
277.726	301.06
277.957	291.06
278.189	275.06
278.421	261.06
278.652	270.06
278.884	272.06
279.115	260.06
279.347	250.06
279.579	238.06
279.81	234.06
280.042	245.06
280.273	262.06
280.505	255.06
280.736	262.06
280.968	239.06
281.199	273.06
281.431	258.06
281.662	252.06
281.894	248.06
282.125	272.06
282.356	279.06
282.588	276.06
282.819	291.06
283.051	275.06
283.282	260.06
283.513	257.06
283.745	256.06
283.976	252.06
284.207	273.06
284.439	249.06
284.67	256.06
284.901	271.06
285.132	257.06
285.364	265.06
285.595	277.06
285.826	252.06
286.057	266.06
286.288	268.06
286.52	252.06
286.751	263.06
286.982	266.06
287.213	237.06
287.444	260.06
287.675	271.06
287.906	279.06
288.138	277.06
288.369	280.06
288.6	265.06
288.831	294.06
289.062	261.06
289.293	280.06
289.524	263.06
289.755	254.06
289.986	273.06
290.217	278.06
290.448	273.06
290.679	267.06
290.91	265.06
291.141	246.06
291.371	257.06
291.602	246.06
291.833	256.06
292.064	270.06
292.295	267.06
292.526	273.06
292.757	274.06
292.987	259.06
293.218	274.06
293.449	263.06
293.68	275.06
293.91	265.06
294.141	286.06
294.372	255.06
294.603	260.06
294.833	271.06
295.064	263.06
295.295	280.06
295.525	279.06
295.756	281.06
295.987	272.06
296.217	301.06
296.448	316.06
296.679	297.06
296.909	263.06
297.14	285.06
297.37	269.06
297.601	267.06
297.831	278.06
298.062	265.06
298.292	285.06
298.523	278.06
298.753	269.06
298.984	257.06
299.214	276.06
299.445	287.06
299.675	286.06
299.905	282.06
300.136	273.06
300.366	254.06
300.597	302.06
300.827	281.06
301.057	289.06
301.288	291.06
301.518	282.06
301.748	287.06
301.979	285.06
302.209	300.06
302.439	299.06
302.669	303.06
302.9	303.06
303.13	300.06
303.36	317.06
303.59	284.06
303.82	320.06
304.051	298.06
304.281	296.06
304.511	312.06
304.741	290.06
304.971	293.06
305.201	297.06
305.431	296.06
305.661	280.06
305.891	316.06
306.121	301.06
306.352	300.06
306.582	326.06
306.812	301.06
307.042	307.06
307.272	321.06
307.502	320.06
307.731	316.06
307.961	298.06
308.191	307.06
308.421	309.06
308.651	302.06
308.881	318.06
309.111	317.06
309.341	330.06
309.571	315.06
309.8	327.06
310.03	336.06
310.26	330.06
310.49	352.06
310.72	352.06
310.949	355.06
311.179	380.06
311.409	363.06
311.639	338.06
311.868	340.06
312.098	340.06
312.328	348.06
312.557	363.06
312.787	382.06
313.017	389.06
313.246	369.06
313.476	357.06
313.706	363.06
313.935	360.06
314.165	364.06
314.394	373.06
314.624	394.06
314.853	359.06
315.083	354.06
315.312	333.06
315.542	342.06
315.771	327.06
316.001	359.06
316.23	360.06
316.46	327.06
316.689	338.06
316.919	356.06
317.148	367.06
317.377	335.06
317.607	333.06
317.836	346.06
318.065	354.06
318.295	355.06
318.524	355.06
318.753	341.06
318.983	362.06
319.212	342.06
319.441	342.06
319.67	366.06
319.9	363.06
320.129	357.06
320.358	360.06
320.587	357.06
320.816	359.06
321.046	365.06
321.275	377.06
321.504	381.06
321.733	380.06
321.962	358.06
322.191	407.06
322.42	407.06
322.649	415.06
322.878	413.06
323.108	442.06
323.337	457.06
323.566	508.06
323.795	538.06
324.024	579.06
324.253	697.06
324.482	998.06
324.71	1527.06
324.939	2172.06
325.168	1947.06
325.397	985.06
325.626	665.06
325.855	550.06
326.084	507.06
326.313	500.06
326.542	513.06
326.77	541.06
326.999	644.06
327.228	915.06
327.457	1356.06
327.686	1679.06
327.914	1155.06
328.143	732.06
328.372	628.06
328.6	590.06
328.829	572.06
329.058	568.06
329.287	588.06
329.515	535.06
329.744	499.06
329.972	483.06
330.201	489.06
330.43	499.06
330.658	541.06
330.887	574.06
331.115	606.06
331.344	501.06
331.572	472.06
331.801	467.06
332.03	459.06
332.258	439.06
332.486	417.06
332.715	404.06
332.943	400.06
333.172	400.06
333.4	397.06
333.629	413.06
333.857	442.06
334.085	415.06
334.314	439.06
334.542	401.06
334.771	417.06
334.999	406.06
335.227	392.06
335.455	394.06
335.684	384.06
335.912	395.06
336.14	371.06
336.369	401.06
336.597	405.06
336.825	418.06
337.053	390.06
337.281	379.06
337.51	367.06
337.738	393.06
337.966	399.06
338.194	376.06
338.422	390.06
338.65	396.06
338.878	383.06
339.106	374.06
339.334	396.06
339.562	374.06
339.79	375.06
340.018	368.06
340.246	379.06
340.474	400.06
340.702	391.06
340.93	371.06
341.158	367.06
341.386	399.06
341.614	373.06
341.842	391.06
342.07	389.06
342.298	392.06
342.526	354.06
342.754	371.06
342.981	375.06
343.209	379.06
343.437	362.06
343.665	355.06
343.893	395.06
344.12	379.06
344.348	377.06
344.576	386.06
344.804	390.06
345.031	401.06
345.259	405.06
345.487	392.06
345.714	392.06
345.942	395.06
346.17	380.06
346.397	358.06
346.625	384.06
346.853	366.06
347.08	370.06
347.308	383.06
347.535	397.06
347.763	391.06
347.99	401.06
348.218	379.06
348.445	387.06
348.673	392.06
348.9	370.06
349.128	385.06
349.355	366.06
349.583	342.06
349.81	366.06
350.037	361.06
350.265	364.06
350.492	368.06
350.72	346.06
350.947	385.06
351.174	371.06
351.402	405.06
351.629	388.06
351.856	374.06
352.083	389.06
352.311	411.06
352.538	398.06
352.765	387.06
352.992	376.06
353.22	393.06
353.447	372.06
353.674	373.06
353.901	365.06
354.128	351.06
354.355	350.06
354.583	336.06
354.81	349.06
355.037	336.06
355.264	349.06
355.491	349.06
355.718	349.06
355.945	341.06
356.172	353.06
356.399	348.06
356.626	330.06
356.853	328.06
357.08	357.06
357.307	329.06
357.534	334.06
357.761	347.06
357.988	336.06
358.215	329.06
358.441	349.06
358.668	344.06
358.895	350.06
359.122	381.06
359.349	372.06
359.576	391.06
359.802	398.06
360.029	441.06
360.256	428.06
360.483	423.06
360.709	384.06
360.936	367.06
361.163	378.06
361.39	383.06
361.616	365.06
361.843	375.06
362.07	380.06
362.296	380.06
362.523	379.06
362.749	383.06
362.976	374.06
363.203	361.06
363.429	343.06
363.656	357.06
363.882	369.06
364.109	348.06
364.335	352.06
364.562	356.06
364.788	342.06
365.015	345.06
365.241	349.06
365.468	356.06
365.694	366.06
365.92	355.06
366.147	358.06
366.373	355.06
366.599	362.06
366.826	324.06
367.052	319.06
367.278	340.06
367.505	373.06
367.731	377.06
367.957	347.06
368.184	332.06
368.41	344.06
368.636	375.06
368.862	401.06
369.089	371.06
369.315	361.06
369.541	350.06
369.767	347.06
369.993	353.06
370.219	344.06
370.445	338.06
370.672	345.06
370.898	338.06
371.124	353.06
371.35	335.06
371.576	344.06
371.802	344.06
372.028	335.06
372.254	339.06
372.48	348.06
372.706	331.06
372.932	341.06
373.158	358.06
373.384	343.06
373.61	352.06
373.835	359.06
374.061	329.06
374.287	352.06
374.513	361.06
374.739	357.06
374.965	345.06
375.191	350.06
375.416	342.06
375.642	351.06
375.868	347.06
376.094	345.06
376.319	335.06
376.545	334.06
376.771	337.06
376.997	339.06
377.222	332.06
377.448	336.06
377.674	333.06
377.899	332.06
378.125	337.06
378.35	345.06
378.576	347.06
378.802	345.06
379.027	336.06
379.253	335.06
379.478	333.06
379.704	337.06
379.929	324.06
380.155	326.06
380.38	335.06
380.606	338.06
380.831	335.06
381.057	349.06
381.282	349.06
381.507	315.06
381.733	344.06
381.958	355.06
382.184	344.06
382.409	362.06
382.634	359.06
382.86	331.06
383.085	350.06
383.31	347.06
383.535	346.06
383.761	349.06
383.986	350.06
384.211	341.06
384.436	346.06
384.662	356.06
384.887	343.06
385.112	359.06
385.337	359.06
385.562	359.06
385.787	348.06
386.013	364.06
386.238	367.06
386.463	377.06
386.688	375.06
386.913	374.06
387.138	371.06
387.363	359.06
387.588	378.06
387.813	381.06
388.038	347.06
388.263	366.06
388.488	371.06
388.713	368.06
388.938	363.06
389.163	372.06
389.387	355.06
389.612	339.06
389.837	347.06
390.062	333.06
390.287	364.06
390.512	348.06
390.736	362.06
390.961	348.06
391.186	358.06
391.411	356.06
391.636	355.06
391.86	381.06
392.085	386.06
392.31	367.06
392.534	349.06
392.759	381.06
392.984	361.06
393.208	362.06
393.433	385.06
393.658	344.06
393.882	348.06
394.107	373.06
394.331	351.06
394.556	341.06
394.78	371.06
395.005	368.06
395.229	368.06
395.454	363.06
395.678	366.06
395.903	381.06
396.127	395.06
396.352	395.06
396.576	395.06
396.801	377.06
397.025	350.06
397.249	367.06
397.474	377.06
397.698	371.06
397.922	385.06
398.147	405.06
398.371	403.06
398.595	372.06
398.82	378.06
399.044	375.06
399.268	410.06
399.492	427.06
399.717	422.06
399.941	461.06
400.165	488.06
400.389	476.06
400.613	463.06
400.837	424.06
401.062	425.06
401.286	410.06
401.51	408.06
401.734	397.06
401.958	405.06
402.182	409.06
402.406	447.06
402.63	437.06
402.854	401.06
403.078	404.06
403.302	407.06
403.526	414.06
403.75	424.06
403.974	414.06
404.198	427.06
404.422	413.06
404.645	417.06
404.869	427.06
405.093	437.06
405.317	459.06
405.541	487.06
405.765	465.06
405.988	435.06
406.212	448.06
406.436	484.06
406.66	495.06
406.883	451.06
407.107	481.06
407.331	527.06
407.555	559.06
407.778	583.06
408.002	530.06
408.226	484.06
408.449	451.06
408.673	475.06
408.896	486.06
409.12	521.06
409.344	521.06
409.567	479.06
409.791	425.06
410.014	420.06
410.238	419.06
410.461	430.06
410.685	413.06
410.908	414.06
411.132	467.06
411.355	513.06
411.578	483.06
411.802	433.06
412.025	420.06
412.249	400.06
412.472	415.06
412.695	420.06
412.919	415.06
413.142	421.06
413.365	381.06
413.589	428.06
413.812	389.06
414.035	378.06
414.258	385.06
414.482	401.06
414.705	396.06
414.928	360.06
415.151	372.06
415.374	376.06
415.597	393.06
415.821	384.06
416.044	410.06
416.267	384.06
416.49	395.06
416.713	391.06
416.936	382.06
417.159	393.06
417.382	405.06
417.605	408.06
417.828	433.06
418.051	417.06
418.274	423.06
418.497	404.06
418.72	407.06
418.943	397.06
419.166	403.06
419.389	407.06
419.611	421.06
419.834	424.06
420.057	428.06
420.28	443.06
420.503	410.06
420.726	430.06
420.948	432.06
421.171	472.06
421.394	503.06
421.617	451.06
421.839	424.06
422.062	435.06
422.285	436.06
422.507	511.06
422.73	543.06
422.953	529.06
423.175	478.06
423.398	455.06
423.621	452.06
423.843	459.06
424.066	459.06
424.288	466.06
424.511	489.06
424.733	535.06
424.956	627.06
425.178	579.06
425.401	560.06
425.623	626.06
425.846	529.06
426.068	483.06
426.291	457.06
426.513	474.06
426.735	500.06
426.958	515.06
427.18	598.06
427.402	699.06
427.625	779.06
427.847	697.06
428.069	583.06
428.292	516.06
428.514	480.06
428.736	470.06
428.958	462.06
429.181	439.06
429.403	451.06
429.625	460.06
429.847	485.06
430.069	563.06
430.292	521.06
430.514	460.06
430.736	441.06
430.958	451.06
431.18	407.06
431.402	414.06
431.624	407.06
431.846	400.06
432.068	397.06
432.29	400.06
432.512	407.06
432.734	401.06
432.956	410.06
433.178	440.06
433.4	426.06
433.622	416.06
433.844	409.06
434.066	420.06
434.287	385.06
434.509	417.06
434.731	429.06
434.953	420.06
435.175	415.06
435.397	475.06
435.618	460.06
435.84	509.06
436.062	586.06
436.284	631.06
436.505	553.06
436.727	477.06
436.949	459.06
437.17	449.06
437.392	436.06
437.614	456.06
437.835	497.06
438.057	585.06
438.278	662.06
438.5	671.06
438.721	722.06
438.943	707.06
439.165	569.06
439.386	507.06
439.608	511.06
439.829	495.06
440.05	523.06
440.272	558.06
440.493	527.06
440.715	477.06
440.936	469.06
441.158	447.06
441.379	445.06
441.6	459.06
441.822	475.06
442.043	526.06
442.264	571.06
442.486	631.06
442.707	558.06
442.928	503.06
443.149	512.06
443.371	519.06
443.592	565.06
443.813	637.06
444.034	679.06
444.255	555.06
444.476	509.06
444.698	486.06
444.919	480.06
445.14	546.06
445.361	507.06
445.582	521.06
445.803	584.06
446.024	677.06
446.245	698.06
446.466	634.06
446.687	555.06
446.908	511.06
447.129	461.06
447.35	458.06
447.571	463.06
447.792	442.06
448.013	463.06
448.234	472.06
448.455	505.06
448.675	615.06
448.896	736.06
449.117	638.06
449.338	558.06
449.559	671.06
449.779	768.06
450	615.06
450.221	511.06
450.442	466.06
450.662	437.06
450.883	448.06
451.104	469.06
451.324	479.06
451.545	440.06
451.766	423.06
451.986	427.06
452.207	380.06
452.428	411.06
452.648	414.06
452.869	398.06
453.089	394.06
453.31	429.06
453.53	408.06
453.751	430.06
453.971	411.06
454.192	422.06
454.412	393.06
454.633	393.06
454.853	384.06
455.073	391.06
455.294	414.06
455.514	491.06
455.734	472.06
455.955	405.06
456.175	381.06
456.395	376.06
456.616	368.06
456.836	375.06
457.056	367.06
457.276	343.06
457.497	374.06
457.717	359.06
457.937	381.06
458.157	374.06
458.377	392.06
458.598	392.06
458.818	466.06
459.038	550.06
459.258	557.06
459.478	469.06
459.698	407.06
459.918	418.06
460.138	407.06
460.358	406.06
460.578	383.06
460.798	392.06
461.018	414.06
461.238	389.06
461.458	397.06
461.678	407.06
461.898	381.06
462.118	391.06
462.338	426.06
462.558	414.06
462.777	409.06
462.997	413.06
463.217	437.06
463.437	411.06
463.657	414.06
463.876	397.06
464.096	411.06
464.316	409.06
464.536	429.06
464.755	425.06
464.975	461.06
465.195	484.06
465.414	566.06
465.634	490.06
465.854	439.06
466.073	428.06
466.293	409.06
466.512	391.06
466.732	398.06
466.951	393.06
467.171	400.06
467.391	399.06
467.61	409.06
467.829	412.06
468.049	392.06
468.268	403.06
468.488	375.06
468.707	373.06
468.927	385.06
469.146	383.06
469.365	375.06
469.585	379.06
469.804	405.06
470.023	408.06
470.243	417.06
470.462	414.06
470.681	425.06
470.901	436.06
471.12	409.06
471.339	417.06
471.558	390.06
471.777	411.06
471.997	411.06
472.216	399.06
472.435	404.06
472.654	406.06
472.873	384.06
473.092	377.06
473.311	402.06
473.53	383.06
473.749	420.06
473.968	450.06
474.187	559.06
474.406	589.06
474.625	483.06
474.844	429.06
475.063	421.06
475.282	404.06
475.501	405.06
475.72	406.06
475.939	391.06
476.158	428.06
476.377	412.06
476.596	417.06
476.814	448.06
477.033	439.06
477.252	429.06
477.471	433.06
477.69	427.06
477.908	443.06
478.127	430.06
478.346	409.06
478.564	424.06
478.783	426.06
479.002	452.06
479.22	429.06
479.439	471.06
479.658	484.06
479.876	489.06
480.095	485.06
480.313	504.06
480.532	505.06
480.751	468.06
480.969	495.06
481.188	522.06
481.406	515.06
481.624	515.06
481.843	483.06
482.061	471.06
482.28	493.06
482.498	494.06
482.717	481.06
482.935	453.06
483.153	476.06
483.372	472.06
483.59	472.06
483.808	474.06
484.027	490.06
484.245	480.06
484.463	470.06
484.681	486.06
484.9	470.06
485.118	480.06
485.336	493.06
485.554	475.06
485.772	479.06
485.99	478.06
486.209	487.06
486.427	488.06
486.645	486.06
486.863	517.06
487.081	523.06
487.299	517.06
487.517	502.06
487.735	513.06
487.953	477.06
488.171	505.06
488.389	526.06
488.607	515.06
488.825	517.06
489.043	508.06
489.261	491.06
489.479	504.06
489.696	519.06
489.914	518.06
490.132	533.06
490.35	539.06
490.568	555.06
490.786	559.06
491.003	540.06
491.221	563.06
491.439	575.06
491.657	570.06
491.874	596.06
492.092	591.06
492.31	587.06
492.527	587.06
492.745	613.06
492.963	613.06
493.18	599.06
493.398	615.06
493.615	600.06
493.833	637.06
494.05	623.06
494.268	601.06
494.485	633.06
494.703	604.06
494.92	605.06
495.138	607.06
495.355	616.06
495.573	608.06
495.79	611.06
496.008	603.06
496.225	596.06
496.442	626.06
496.66	635.06
496.877	613.06
497.094	635.06
497.312	610.06
497.529	608.06
497.746	617.06
497.963	626.06
498.181	641.06
498.398	650.06
498.615	658.06
498.832	661.06
499.049	683.06
499.267	658.06
499.484	667.06
499.701	682.06
499.918	726.06
500.135	733.06
500.352	734.06
500.569	733.06
500.786	734.06
501.003	728.06
501.22	718.06
501.437	765.06
501.654	741.06
501.871	772.06
502.088	723.06
502.305	705.06
502.522	699.06
502.739	665.06
502.956	639.06
503.172	622.06
503.389	619.06
503.606	655.06
503.823	647.06
504.04	626.06
504.256	637.06
504.473	612.06
504.69	624.06
504.907	598.06
505.123	607.06
505.34	599.06
505.557	598.06
505.773	618.06
505.99	599.06
506.207	604.06
506.423	622.06
506.64	600.06
506.856	589.06
507.073	596.06
507.289	605.06
507.506	578.06
507.722	594.06
507.939	624.06
508.155	608.06
508.372	557.06
508.588	582.06
508.805	585.06
509.021	591.06
509.238	595.06
509.454	609.06
509.67	593.06
509.887	591.06
510.103	574.06
510.319	587.06
510.536	705.06
510.752	1249.06
510.968	1012.06
511.184	633.06
511.401	586.06
511.617	553.06
511.833	560.06
512.049	557.06
512.265	552.06
512.481	541.06
512.698	569.06
512.914	545.06
513.13	548.06
513.346	527.06
513.562	543.06
513.778	551.06
513.994	563.06
514.21	557.06
514.426	621.06
514.642	635.06
514.858	694.06
515.074	734.06
515.29	874.06
515.506	1397.06
515.721	1153.06
515.937	726.06
516.153	631.06
516.369	594.06
516.585	560.06
516.801	558.06
517.016	564.06
517.232	547.06
517.448	550.06
517.664	559.06
517.879	565.06
518.095	548.06
518.311	541.06
518.527	546.06
518.742	555.06
518.958	548.06
519.173	549.06
519.389	555.06
519.605	544.06
519.82	560.06
520.036	572.06
520.251	609.06
520.467	625.06
520.682	618.06
520.898	608.06
521.113	663.06
521.329	724.06
521.544	821.06
521.76	1062.06
521.975	1929.06
522.19	1866.06
522.406	931.06
522.621	676.06
522.836	603.06
523.052	551.06
523.267	529.06
523.482	515.06
523.698	502.06
523.913	527.06
524.128	521.06
524.343	500.06
524.559	485.06
524.774	467.06
524.989	477.06
525.204	497.06
525.419	497.06
525.634	483.06
525.849	453.06
526.064	461.06
526.28	477.06
526.495	447.06
526.71	434.06
526.925	453.06
527.14	441.06
527.355	453.06
527.57	444.06
527.785	443.06
527.999	455.06
528.214	447.06
528.429	438.06
528.644	451.06
528.859	423.06
529.074	449.06
529.289	500.06
529.503	555.06
529.718	536.06
529.933	517.06
530.148	492.06
530.363	450.06
530.577	432.06
530.792	417.06
531.007	427.06
531.221	429.06
531.436	448.06
531.651	427.06
531.865	427.06
532.08	424.06
532.295	427.06
532.509	419.06
532.724	409.06
532.938	409.06
533.153	417.06
533.367	409.06
533.582	426.06
533.796	426.06
534.011	403.06
534.225	430.06
534.44	399.06
534.654	395.06
534.868	414.06
535.083	425.06
535.297	415.06
535.511	437.06
535.726	411.06
535.94	447.06
536.154	430.06
536.369	407.06
536.583	424.06
536.797	417.06
537.011	375.06
537.225	416.06
537.44	396.06
537.654	396.06
537.868	421.06
538.082	407.06
538.296	402.06
538.51	399.06
538.724	416.06
538.938	417.06
539.153	404.06
539.367	432.06
539.581	423.06
539.795	417.06
540.009	393.06
540.222	406.06
540.436	413.06
540.65	414.06
540.864	419.06
541.078	425.06
541.292	400.06
541.506	396.06
541.72	406.06
541.934	385.06
542.147	417.06
542.361	414.06
542.575	396.06
542.789	391.06
543.002	402.06
543.216	410.06
543.43	389.06
543.644	402.06
543.857	405.06
544.071	401.06
544.285	401.06
544.498	388.06
544.712	392.06
544.925	411.06
545.139	409.06
545.352	377.06
545.566	359.06
545.779	370.06
545.993	389.06
546.206	387.06
546.42	384.06
546.633	375.06
546.847	368.06
547.06	366.06
547.274	384.06
547.487	376.06
547.7	381.06
547.914	391.06
548.127	346.06
548.34	373.06
548.554	377.06
548.767	375.06
548.98	352.06
549.193	370.06
549.407	365.06
549.62	379.06
549.833	360.06
550.046	359.06
550.259	357.06
550.473	387.06
550.686	361.06
550.899	359.06
551.112	362.06
551.325	372.06
551.538	377.06
551.751	355.06
551.964	356.06
552.177	360.06
552.39	374.06
552.603	377.06
552.816	357.06
553.029	387.06
553.242	387.06
553.455	365.06
553.667	381.06
553.88	392.06
554.093	383.06
554.306	374.06
554.519	377.06
554.732	359.06
554.944	361.06
555.157	373.06
555.37	347.06
555.583	355.06
555.795	375.06
556.008	335.06
556.221	352.06
556.433	362.06
556.646	342.06
556.859	361.06
557.071	374.06
557.284	351.06
557.496	346.06
557.709	347.06
557.921	342.06
558.134	354.06
558.346	344.06
558.559	315.06
558.771	333.06
558.984	340.06
559.196	335.06
559.409	334.06
559.621	321.06
559.833	355.06
560.046	339.06
560.258	333.06
560.47	345.06
560.683	334.06
560.895	332.06
561.107	330.06
561.32	343.06
561.532	329.06
561.744	336.06
561.956	345.06
562.168	329.06
562.381	320.06
562.593	320.06
562.805	340.06
563.017	342.06
563.229	339.06
563.441	344.06
563.653	339.06
563.865	333.06
564.077	334.06
564.289	350.06
564.501	344.06
564.713	351.06
564.925	349.06
565.137	357.06
565.349	364.06
565.561	361.06
565.773	337.06
565.985	362.06
566.197	351.06
566.408	352.06
566.62	396.06
566.832	365.06
567.044	366.06
567.255	401.06
567.467	377.06
567.679	379.06
567.891	377.06
568.102	387.06
568.314	362.06
568.526	358.06
568.737	353.06
568.949	364.06
569.161	349.06
569.372	333.06
569.584	340.06
569.795	334.06
570.007	371.06
570.218	406.06
570.43	373.06
570.641	357.06
570.853	353.06
571.064	300.06
571.276	320.06
571.487	313.06
571.698	329.06
571.91	312.06
572.121	329.06
572.333	316.06
572.544	309.06
572.755	303.06
572.966	303.06
573.178	308.06
573.389	304.06
573.6	309.06
573.811	302.06
574.023	304.06
574.234	283.06
574.445	291.06
574.656	286.06
574.867	311.06
575.078	303.06
575.289	319.06
575.501	296.06
575.712	297.06
575.923	287.06
576.134	276.06
576.345	309.06
576.556	301.06
576.767	284.06
576.978	302.06
577.188	301.06
577.399	274.06
577.61	276.06
577.821	279.06
578.032	296.06
578.243	341.06
578.454	614.06
578.665	429.06
578.875	318.06
579.086	287.06
579.297	285.06
579.508	285.06
579.718	280.06
579.929	294.06
580.14	274.06
580.35	280.06
580.561	285.06
580.772	269.06
580.982	255.06
581.193	261.06
581.403	272.06
581.614	258.06
581.825	280.06
582.035	259.06
582.246	293.06
582.456	283.06
582.667	279.06
582.877	281.06
583.087	283.06
583.298	278.06
583.508	264.06
583.719	254.06
583.929	255.06
584.139	284.06
584.35	260.06
584.56	249.06
584.77	272.06
584.981	268.06
585.191	276.06
585.401	258.06
585.611	263.06
585.821	280.06
586.032	255.06
586.242	265.06
586.452	264.06
586.662	259.06
586.872	265.06
587.082	253.06
587.292	255.06
587.502	239.06
587.713	261.06
587.923	257.06
588.133	272.06
588.343	268.06
588.553	240.06
588.762	273.06
588.972	264.06
589.182	303.06
589.392	299.06
589.602	278.06
589.812	307.06
590.022	268.06
590.232	245.06
590.441	251.06
590.651	266.06
590.861	254.06
591.071	256.06
591.281	261.06
591.49	262.06
591.7	266.06
591.91	263.06
592.119	267.06
592.329	258.06
592.539	271.06
592.748	261.06
592.958	252.06
593.167	263.06
593.377	266.06
593.587	266.06
593.796	269.06
594.006	256.06
594.215	272.06
594.424	270.06
594.634	247.06
594.843	267.06
595.053	254.06
595.262	261.06
595.472	250.06
595.681	263.06
595.89	247.06
596.1	248.06
596.309	240.06
596.518	263.06
596.727	244.06
596.937	237.06
597.146	223.06
597.355	225.06
597.564	228.06
597.774	251.06
597.983	240.06
598.192	237.06
598.401	239.06
598.61	236.06
598.819	236.06
599.028	226.06
599.237	233.06
599.446	231.06
599.655	232.06
599.864	222.06
600.073	228.06
600.282	228.06
600.491	230.06
600.7	232.06
600.909	231.06
601.118	225.06
601.327	240.06
601.536	237.06
601.745	244.06
601.953	217.06
602.162	228.06
602.371	222.06
602.58	215.06
602.789	233.06
602.997	211.06
603.206	233.06
603.415	227.06
603.623	218.06
603.832	217.06
604.041	224.06
604.249	224.06
604.458	233.06
604.666	221.06
604.875	225.06
605.084	223.06
605.292	229.06
605.501	229.06
605.709	213.06
605.918	215.06
606.126	225.06
606.334	208.06
606.543	236.06
606.751	219.06
606.96	219.06
607.168	220.06
607.376	221.06
607.585	217.06
607.793	227.06
608.001	220.06
608.21	214.06
608.418	207.06
608.626	220.06
608.834	217.06
609.043	225.06
609.251	225.06
609.459	217.06
609.667	220.06
609.875	212.06
610.083	227.06
610.291	235.06
610.499	210.06
610.707	213.06
610.916	215.06
611.124	230.06
611.332	222.06
611.54	205.06
611.748	223.06
611.955	214.06
612.163	204.06
612.371	213.06
612.579	212.06
612.787	213.06
612.995	215.06
613.203	215.06
613.411	191.06
613.618	190.06
613.826	215.06
614.034	208.06
614.242	217.06
614.449	212.06
614.657	204.06
614.865	208.06
615.072	216.06
615.28	218.06
615.488	221.06
615.695	221.06
615.903	214.06
616.111	216.06
616.318	225.06
616.526	220.06
616.733	222.06
616.941	227.06
617.148	219.06
617.356	200.06
617.563	208.06
617.771	228.06
617.978	227.06
618.185	206.06
618.393	209.06
618.6	202.06
618.807	211.06
619.015	208.06
619.222	197.06
619.429	214.06
619.637	201.06
619.844	201.06
620.051	200.06
620.258	201.06
620.466	203.06
620.673	190.06
620.88	205.06
621.087	197.06
621.294	191.06
621.501	193.06
621.708	204.06
621.915	204.06
622.122	201.06
622.329	186.06
622.536	218.06
622.743	210.06
622.95	188.06
623.157	189.06
623.364	188.06
623.571	210.06
623.778	199.06
623.985	203.06
624.192	185.06
624.399	208.06
624.606	201.06
624.812	188.06
625.019	185.06
625.226	188.06
625.433	191.06
625.639	174.06
625.846	188.06
626.053	177.06
626.259	191.06
626.466	184.06
626.673	173.06
626.879	181.06
627.086	194.06
627.293	196.06
627.499	186.06
627.706	207.06
627.912	186.06
628.119	184.06
628.325	188.06
628.532	191.06
628.738	190.06
628.945	191.06
629.151	166.06
629.357	171.06
629.564	173.06
629.77	172.06
629.976	186.06
630.183	185.06
630.389	173.06
630.595	191.06
630.802	188.06
631.008	190.06
631.214	193.06
631.42	174.06
631.627	170.06
631.833	189.06
632.039	179.06
632.245	173.06
632.451	172.06
632.657	178.06
632.863	179.06
633.069	173.06
633.275	165.06
633.481	160.06
633.688	168.06
633.893	176.06
634.099	155.06
634.305	166.06
634.511	174.06
634.717	176.06
634.923	158.06
635.129	166.06
635.335	177.06
635.541	158.06
635.747	149.06
635.952	179.06
636.158	149.06
636.364	152.06
636.57	173.06
636.775	183.06
636.981	151.06
637.187	154.06
637.392	157.06
637.598	172.06
637.804	171.06
638.009	172.06
638.215	145.06
638.421	160.06
638.626	173.06
638.832	156.06
639.037	159.06
639.243	160.06
639.448	161.06
639.654	166.06
639.859	157.06
640.065	165.06
640.27	169.06
640.475	159.06
640.681	157.06
640.886	159.06
641.091	168.06
641.297	165.06
641.502	146.06
641.707	149.06
641.913	158.06
642.118	151.06
642.323	138.06
642.528	152.06
642.733	143.06
642.939	145.06
643.144	144.06
643.349	152.06
643.554	151.06
643.759	147.06
643.964	164.06
644.169	150.06
644.374	176.06
644.579	159.06
644.784	151.06
644.989	165.06
645.194	167.06
645.399	153.06
645.604	146.06
645.809	163.06
646.014	143.06
646.219	143.06
646.423	137.06
646.628	148.06
646.833	154.06
647.038	154.06
647.243	143.06
647.447	166.06
647.652	157.06
647.857	145.06
648.062	143.06
648.266	162.06
648.471	159.06
648.676	144.06
648.88	150.06
649.085	164.06
649.289	151.06
649.494	144.06
649.698	170.06
649.903	170.06
650.107	158.06
650.312	162.06
650.516	157.06
650.721	156.06
650.925	153.06
651.13	149.06
651.334	145.06
651.539	147.06
651.743	139.06
651.947	122.06
652.152	144.06
652.356	121.06
652.56	127.06
652.764	125.06
652.969	133.06
653.173	135.06
653.377	123.06
653.581	120.06
653.785	132.06
653.99	133.06
654.194	135.06
654.398	132.06
654.602	131.06
654.806	134.06
655.01	137.06
655.214	121.06
655.418	138.06
655.622	128.06
655.826	125.06
656.03	122.06
656.234	123.06
656.438	132.06
656.642	139.06
656.846	119.06
657.049	127.06
657.253	125.06
657.457	125.06
657.661	115.06
657.865	126.06
658.068	115.06
658.272	104.06
658.476	104.06
658.68	108.06
658.883	87.06
659.087	93.06
659.291	113.06
659.494	109.06
659.698	107.06
659.901	105.06
660.105	103.06
660.309	86.06
660.512	88.06
660.716	98.06
660.919	82.06
661.123	89.06
661.326	91.06
661.53	94.06
661.733	81.06
661.936	90.06
662.14	94.06
662.343	90.06
662.546	99.06
662.75	89.06
662.953	84.06
663.156	94.06
663.36	91.06
663.563	90.06
663.766	101.06
663.969	87.06
664.173	71.06
664.376	92.06
664.579	94.06
664.782	93.06
664.985	84.06
665.188	84.06
665.391	77.06
665.594	79.06
665.797	88.06
666	83.06
666.203	81.06
666.406	81.06
666.609	79.06
666.812	81.06
667.015	78.06
667.218	87.06
667.421	78.06
667.624	89.06
667.827	74.06
668.03	71.06
668.232	77.06
668.435	86.06
668.638	87.06
668.841	84.06
669.043	77.06
669.246	91.06
669.449	80.06
669.651	72.06
669.854	80.06
670.057	89.06
670.259	75.06
670.462	93.06
670.665	73.06
670.867	103.06
671.07	100.06
671.272	70.06
671.475	87.06
671.677	65.06
671.88	86.06
672.082	78.06
672.284	57.06
672.487	92.06
672.689	79.06
672.892	70.06
