Data from 1987.PennyLincolnUp.Lamp.En5.5.200Scan.071819.P2_HRD10591_17-15-46-971.txt Node
Date: Thu Jul 18 17:15:46 EDT 2019
User: cochatt
Spectrometer: HR+D1059
Trigger mode: 1
Integration Time (sec): 1.000000E-1
Scans to average: 1
Electric dark correction enabled: true
Nonlinearity correction enabled: false
Boxcar width: 0
XAxis mode: Wavelengths
Number of Pixels in Spectrum: 2048
>>>>>Begin Spectral Data<<<<<
223.165	-11.94
223.4	-11.94
223.635	-11.94
223.869	-13.94
224.104	-22.94
224.338	-5.94
224.573	-10.94
224.808	-11.94
225.042	-8.94
225.277	-19.94
225.511	1.06
225.746	8.06
225.98	7.06
226.215	-5.94
226.449	19.06
226.683	21.06
226.918	22.06
227.152	34.06
227.387	36.06
227.621	45.06
227.856	41.06
228.09	56.06
228.324	50.06
228.559	60.06
228.793	70.06
229.027	93.06
229.262	106.06
229.496	108.06
229.73	144.06
229.964	162.06
230.199	153.06
230.433	133.06
230.667	127.06
230.901	116.06
231.136	114.06
231.37	111.06
231.604	100.06
231.838	123.06
232.072	100.06
232.306	120.06
232.541	129.06
232.775	121.06
233.009	123.06
233.243	115.06
233.477	107.06
233.711	120.06
233.945	111.06
234.179	118.06
234.413	113.06
234.647	120.06
234.881	112.06
235.115	134.06
235.349	133.06
235.583	132.06
235.817	119.06
236.051	129.06
236.285	142.06
236.519	128.06
236.753	133.06
236.987	156.06
237.221	204.06
237.455	268.06
237.689	208.06
237.922	161.06
238.156	146.06
238.39	132.06
238.624	109.06
238.858	132.06
239.091	132.06
239.325	120.06
239.559	125.06
239.793	115.06
240.027	136.06
240.26	152.06
240.494	178.06
240.728	158.06
240.961	148.06
241.195	154.06
241.429	141.06
241.662	137.06
241.896	135.06
242.13	136.06
242.363	136.06
242.597	134.06
242.83	129.06
243.064	136.06
243.298	147.06
243.531	138.06
243.765	144.06
243.998	142.06
244.232	132.06
244.465	138.06
244.699	140.06
244.932	144.06
245.166	134.06
245.399	140.06
245.633	152.06
245.866	146.06
246.099	127.06
246.333	138.06
246.566	148.06
246.8	140.06
247.033	163.06
247.266	168.06
247.5	155.06
247.733	155.06
247.966	155.06
248.2	156.06
248.433	175.06
248.666	159.06
248.899	186.06
249.133	196.06
249.366	211.06
249.599	199.06
249.832	180.06
250.066	179.06
250.299	160.06
250.532	179.06
250.765	193.06
250.998	219.06
251.231	217.06
251.465	218.06
251.698	212.06
251.931	203.06
252.164	191.06
252.397	198.06
252.63	188.06
252.863	200.06
253.096	210.06
253.329	227.06
253.562	239.06
253.795	208.06
254.028	228.06
254.261	220.06
254.494	236.06
254.727	245.06
254.96	283.06
255.193	281.06
255.426	263.06
255.659	245.06
255.892	226.06
256.124	200.06
256.357	211.06
256.59	206.06
256.823	206.06
257.056	197.06
257.289	190.06
257.521	200.06
257.754	204.06
257.987	203.06
258.22	206.06
258.452	200.06
258.685	189.06
258.918	197.06
259.151	194.06
259.383	206.06
259.616	220.06
259.849	213.06
260.081	226.06
260.314	255.06
260.547	255.06
260.779	248.06
261.012	243.06
261.244	242.06
261.477	220.06
261.71	208.06
261.942	244.06
262.175	247.06
262.407	226.06
262.64	206.06
262.872	210.06
263.105	208.06
263.337	218.06
263.57	195.06
263.802	206.06
264.035	195.06
264.267	171.06
264.499	183.06
264.732	202.06
264.964	199.06
265.197	199.06
265.429	200.06
265.661	197.06
265.894	197.06
266.126	180.06
266.358	187.06
266.591	199.06
266.823	202.06
267.055	199.06
267.287	211.06
267.52	203.06
267.752	220.06
267.984	208.06
268.216	216.06
268.448	204.06
268.681	212.06
268.913	220.06
269.145	237.06
269.377	252.06
269.609	235.06
269.841	255.06
270.073	270.06
270.306	266.06
270.538	291.06
270.77	313.06
271.002	314.06
271.234	292.06
271.466	297.06
271.698	320.06
271.93	299.06
272.162	286.06
272.394	291.06
272.626	301.06
272.858	286.06
273.09	271.06
273.322	267.06
273.553	246.06
273.785	254.06
274.017	238.06
274.249	259.06
274.481	224.06
274.713	251.06
274.945	250.06
275.176	241.06
275.408	226.06
275.64	247.06
275.872	238.06
276.104	233.06
276.335	230.06
276.567	262.06
276.799	258.06
277.031	285.06
277.262	296.06
277.494	296.06
277.726	286.06
277.957	264.06
278.189	265.06
278.421	247.06
278.652	262.06
278.884	236.06
279.115	242.06
279.347	239.06
279.579	221.06
279.81	226.06
280.042	227.06
280.273	222.06
280.505	226.06
280.736	223.06
280.968	227.06
281.199	220.06
281.431	227.06
281.662	219.06
281.894	226.06
282.125	226.06
282.356	257.06
282.588	280.06
282.819	283.06
283.051	244.06
283.282	239.06
283.513	239.06
283.745	222.06
283.976	244.06
284.207	238.06
284.439	249.06
284.67	246.06
284.901	234.06
285.132	232.06
285.364	218.06
285.595	217.06
285.826	216.06
286.057	228.06
286.288	223.06
286.52	237.06
286.751	222.06
286.982	232.06
287.213	231.06
287.444	232.06
287.675	249.06
287.906	262.06
288.138	244.06
288.369	224.06
288.6	268.06
288.831	246.06
289.062	253.06
289.293	225.06
289.524	223.06
289.755	255.06
289.986	251.06
290.217	243.06
290.448	239.06
290.679	253.06
290.91	223.06
291.141	218.06
291.371	243.06
291.602	235.06
291.833	236.06
292.064	226.06
292.295	232.06
292.526	252.06
292.757	233.06
292.987	245.06
293.218	238.06
293.449	247.06
293.68	238.06
293.91	226.06
294.141	227.06
294.372	245.06
294.603	222.06
294.833	248.06
295.064	233.06
295.295	238.06
295.525	243.06
295.756	258.06
295.987	248.06
296.217	276.06
296.448	287.06
296.679	262.06
296.909	253.06
297.14	237.06
297.37	246.06
297.601	254.06
297.831	252.06
298.062	257.06
298.292	246.06
298.523	239.06
298.753	253.06
298.984	247.06
299.214	248.06
299.445	268.06
299.675	262.06
299.905	264.06
300.136	268.06
300.366	252.06
300.597	279.06
300.827	264.06
301.057	277.06
301.288	277.06
301.518	267.06
301.748	259.06
301.979	270.06
302.209	262.06
302.439	265.06
302.669	283.06
302.9	276.06
303.13	267.06
303.36	254.06
303.59	280.06
303.82	274.06
304.051	267.06
304.281	263.06
304.511	257.06
304.741	270.06
304.971	263.06
305.201	266.06
305.431	245.06
305.661	268.06
305.891	271.06
306.121	270.06
306.352	294.06
306.582	298.06
306.812	279.06
307.042	280.06
307.272	272.06
307.502	280.06
307.731	291.06
307.961	257.06
308.191	274.06
308.421	291.06
308.651	303.06
308.881	306.06
309.111	296.06
309.341	292.06
309.571	309.06
309.8	322.06
310.03	327.06
310.26	350.06
310.49	340.06
310.72	350.06
310.949	367.06
311.179	386.06
311.409	356.06
311.639	354.06
311.868	330.06
312.098	353.06
312.328	359.06
312.557	383.06
312.787	406.06
313.017	391.06
313.246	353.06
313.476	343.06
313.706	341.06
313.935	344.06
314.165	365.06
314.394	360.06
314.624	373.06
314.853	363.06
315.083	334.06
315.312	333.06
315.542	330.06
315.771	324.06
316.001	323.06
316.23	328.06
316.46	334.06
316.689	302.06
316.919	341.06
317.148	365.06
317.377	360.06
317.607	351.06
317.836	346.06
318.065	332.06
318.295	326.06
318.524	323.06
318.753	301.06
318.983	320.06
319.212	334.06
319.441	348.06
319.67	354.06
319.9	347.06
320.129	334.06
320.358	334.06
320.587	342.06
320.816	364.06
321.046	378.06
321.275	355.06
321.504	378.06
321.733	360.06
321.962	374.06
322.191	394.06
322.42	403.06
322.649	440.06
322.878	444.06
323.108	462.06
323.337	512.06
323.566	521.06
323.795	584.06
324.024	675.06
324.253	822.06
324.482	1205.06
324.71	1861.06
324.939	2638.06
325.168	2321.06
325.397	1292.06
325.626	827.06
325.855	661.06
326.084	556.06
326.313	543.06
326.542	552.06
326.77	601.06
326.999	741.06
327.228	1045.06
327.457	1633.06
327.686	2004.06
327.914	1355.06
328.143	882.06
328.372	729.06
328.6	653.06
328.829	662.06
329.058	654.06
329.287	638.06
329.515	591.06
329.744	536.06
329.972	516.06
330.201	490.06
330.43	556.06
330.658	602.06
330.887	666.06
331.115	662.06
331.344	549.06
331.572	504.06
331.801	479.06
332.03	494.06
332.258	452.06
332.486	402.06
332.715	400.06
332.943	382.06
333.172	380.06
333.4	402.06
333.629	412.06
333.857	436.06
334.085	415.06
334.314	396.06
334.542	367.06
334.771	406.06
334.999	391.06
335.227	394.06
335.455	380.06
335.684	391.06
335.912	381.06
336.14	356.06
336.369	370.06
336.597	396.06
336.825	383.06
337.053	396.06
337.281	386.06
337.51	359.06
337.738	375.06
337.966	375.06
338.194	377.06
338.422	373.06
338.65	383.06
338.878	364.06
339.106	363.06
339.334	384.06
339.562	367.06
339.79	360.06
340.018	375.06
340.246	373.06
340.474	388.06
340.702	379.06
340.93	375.06
341.158	378.06
341.386	376.06
341.614	378.06
341.842	361.06
342.07	378.06
342.298	364.06
342.526	366.06
342.754	363.06
342.981	338.06
343.209	347.06
343.437	327.06
343.665	346.06
343.893	343.06
344.12	338.06
344.348	349.06
344.576	397.06
344.804	373.06
345.031	400.06
345.259	411.06
345.487	397.06
345.714	384.06
345.942	384.06
346.17	352.06
346.397	373.06
346.625	364.06
346.853	361.06
347.08	376.06
347.308	374.06
347.535	374.06
347.763	389.06
347.99	374.06
348.218	389.06
348.445	404.06
348.673	413.06
348.9	383.06
349.128	363.06
349.355	357.06
349.583	347.06
349.81	368.06
350.037	361.06
350.265	356.06
350.492	327.06
350.72	354.06
350.947	365.06
351.174	397.06
351.402	391.06
351.629	379.06
351.856	372.06
352.083	423.06
352.311	418.06
352.538	419.06
352.765	410.06
352.992	375.06
353.22	377.06
353.447	358.06
353.674	389.06
353.901	365.06
354.128	335.06
354.355	341.06
354.583	320.06
354.81	325.06
355.037	331.06
355.264	326.06
355.491	324.06
355.718	314.06
355.945	324.06
356.172	323.06
356.399	313.06
356.626	335.06
356.853	333.06
357.08	334.06
357.307	343.06
357.534	299.06
357.761	322.06
357.988	340.06
358.215	337.06
358.441	326.06
358.668	328.06
358.895	355.06
359.122	351.06
359.349	337.06
359.576	377.06
359.802	410.06
360.029	460.06
360.256	467.06
360.483	430.06
360.709	393.06
360.936	387.06
361.163	378.06
361.39	385.06
361.616	404.06
361.843	359.06
362.07	386.06
362.296	379.06
362.523	387.06
362.749	363.06
362.976	371.06
363.203	364.06
363.429	357.06
363.656	359.06
363.882	364.06
364.109	364.06
364.335	344.06
364.562	351.06
364.788	367.06
365.015	337.06
365.241	364.06
365.468	339.06
365.694	351.06
365.92	378.06
366.147	356.06
366.373	353.06
366.599	361.06
366.826	368.06
367.052	362.06
367.278	357.06
367.505	344.06
367.731	341.06
367.957	335.06
368.184	343.06
368.41	355.06
368.636	364.06
368.862	365.06
369.089	368.06
369.315	356.06
369.541	344.06
369.767	330.06
369.993	349.06
370.219	339.06
370.445	331.06
370.672	333.06
370.898	314.06
371.124	332.06
371.35	351.06
371.576	349.06
371.802	320.06
372.028	316.06
372.254	324.06
372.48	340.06
372.706	337.06
372.932	320.06
373.158	306.06
373.384	341.06
373.61	353.06
373.835	353.06
374.061	343.06
374.287	340.06
374.513	340.06
374.739	333.06
374.965	327.06
375.191	341.06
375.416	325.06
375.642	330.06
375.868	348.06
376.094	329.06
376.319	322.06
376.545	320.06
376.771	319.06
376.997	307.06
377.222	307.06
377.448	321.06
377.674	319.06
377.899	322.06
378.125	320.06
378.35	316.06
378.576	346.06
378.802	340.06
379.027	341.06
379.253	334.06
379.478	333.06
379.704	339.06
379.929	336.06
380.155	340.06
380.38	334.06
380.606	323.06
380.831	331.06
381.057	326.06
381.282	349.06
381.507	341.06
381.733	325.06
381.958	344.06
382.184	342.06
382.409	329.06
382.634	316.06
382.86	325.06
383.085	340.06
383.31	330.06
383.535	330.06
383.761	319.06
383.986	327.06
384.211	332.06
384.436	347.06
384.662	335.06
384.887	344.06
385.112	340.06
385.337	319.06
385.562	348.06
385.787	349.06
386.013	356.06
386.238	361.06
386.463	367.06
386.688	366.06
386.913	352.06
387.138	346.06
387.363	335.06
387.588	330.06
387.813	348.06
388.038	345.06
388.263	342.06
388.488	346.06
388.713	354.06
388.938	354.06
389.163	358.06
389.387	343.06
389.612	339.06
389.837	347.06
390.062	341.06
390.287	349.06
390.512	334.06
390.736	321.06
390.961	343.06
391.186	349.06
391.411	363.06
391.636	362.06
391.86	345.06
392.085	367.06
392.31	374.06
392.534	350.06
392.759	361.06
392.984	348.06
393.208	345.06
393.433	342.06
393.658	355.06
393.882	334.06
394.107	325.06
394.331	340.06
394.556	347.06
394.78	341.06
395.005	355.06
395.229	351.06
395.454	359.06
395.678	363.06
395.903	367.06
396.127	386.06
396.352	402.06
396.576	361.06
396.801	381.06
397.025	366.06
397.249	356.06
397.474	350.06
397.698	373.06
397.922	384.06
398.147	383.06
398.371	399.06
398.595	378.06
398.82	377.06
399.044	394.06
399.268	392.06
399.492	399.06
399.717	404.06
399.941	453.06
400.165	479.06
400.389	495.06
400.613	437.06
400.837	428.06
401.062	414.06
401.286	422.06
401.51	400.06
401.734	401.06
401.958	391.06
402.182	413.06
402.406	443.06
402.63	426.06
402.854	395.06
403.078	393.06
403.302	402.06
403.526	420.06
403.75	441.06
403.974	431.06
404.198	410.06
404.422	416.06
404.645	439.06
404.869	431.06
405.093	455.06
405.317	475.06
405.541	479.06
405.765	487.06
405.988	449.06
406.212	470.06
406.436	490.06
406.66	504.06
406.883	479.06
407.107	493.06
407.331	536.06
407.555	576.06
407.778	559.06
408.002	565.06
408.226	500.06
408.449	475.06
408.673	475.06
408.896	510.06
409.12	538.06
409.344	504.06
409.567	441.06
409.791	462.06
410.014	428.06
410.238	432.06
410.461	429.06
410.685	443.06
410.908	463.06
411.132	485.06
411.355	524.06
411.578	516.06
411.802	455.06
412.025	426.06
412.249	427.06
412.472	440.06
412.695	447.06
412.919	419.06
413.142	410.06
413.365	381.06
413.589	411.06
413.812	399.06
414.035	378.06
414.258	406.06
414.482	402.06
414.705	394.06
414.928	383.06
415.151	378.06
415.374	397.06
415.597	374.06
415.821	372.06
416.044	396.06
416.267	403.06
416.49	410.06
416.713	403.06
416.936	407.06
417.159	407.06
417.382	395.06
417.605	417.06
417.828	405.06
418.051	437.06
418.274	429.06
418.497	412.06
418.72	406.06
418.943	412.06
419.166	407.06
419.389	434.06
419.611	438.06
419.834	419.06
420.057	422.06
420.28	432.06
420.503	419.06
420.726	427.06
420.948	443.06
421.171	495.06
421.394	543.06
421.617	466.06
421.839	443.06
422.062	440.06
422.285	466.06
422.507	527.06
422.73	585.06
422.953	547.06
423.175	485.06
423.398	490.06
423.621	450.06
423.843	490.06
424.066	502.06
424.288	485.06
424.511	514.06
424.733	562.06
424.956	639.06
425.178	635.06
425.401	626.06
425.623	640.06
425.846	566.06
426.068	531.06
426.291	501.06
426.513	523.06
426.735	512.06
426.958	576.06
427.18	638.06
427.402	762.06
427.625	818.06
427.847	800.06
428.069	664.06
428.292	586.06
428.514	514.06
428.736	499.06
428.958	477.06
429.181	465.06
429.403	489.06
429.625	486.06
429.847	500.06
430.069	587.06
430.292	602.06
430.514	498.06
430.736	453.06
430.958	476.06
431.18	453.06
431.402	420.06
431.624	422.06
431.846	443.06
432.068	443.06
432.29	428.06
432.512	430.06
432.734	449.06
432.956	434.06
433.178	441.06
433.4	488.06
433.622	455.06
433.844	428.06
434.066	425.06
434.287	435.06
434.509	421.06
434.731	432.06
434.953	427.06
435.175	463.06
435.397	510.06
435.618	496.06
435.84	567.06
436.062	646.06
436.284	711.06
436.505	592.06
436.727	543.06
436.949	502.06
437.17	498.06
437.392	495.06
437.614	501.06
437.835	563.06
438.057	648.06
438.278	744.06
438.5	748.06
438.721	781.06
438.943	734.06
439.165	610.06
439.386	552.06
439.608	536.06
439.829	534.06
440.05	587.06
440.272	616.06
440.493	584.06
440.715	539.06
440.936	516.06
441.158	466.06
441.379	480.06
441.6	489.06
441.822	511.06
442.043	554.06
442.264	638.06
442.486	673.06
442.707	574.06
442.928	536.06
443.149	535.06
443.371	568.06
443.592	613.06
443.813	681.06
444.034	717.06
444.255	605.06
444.476	551.06
444.698	524.06
444.919	499.06
445.14	604.06
445.361	558.06
445.582	543.06
445.803	608.06
446.024	726.06
446.245	753.06
446.466	677.06
446.687	578.06
446.908	514.06
447.129	513.06
447.35	487.06
447.571	491.06
447.792	480.06
448.013	485.06
448.234	524.06
448.455	585.06
448.675	664.06
448.896	772.06
449.117	661.06
449.338	636.06
449.559	720.06
449.779	795.06
450	674.06
450.221	549.06
450.442	510.06
450.662	511.06
450.883	514.06
451.104	540.06
451.324	518.06
451.545	502.06
451.766	452.06
451.986	453.06
452.207	429.06
452.428	440.06
452.648	460.06
452.869	438.06
453.089	439.06
453.31	460.06
453.53	449.06
453.751	420.06
453.971	459.06
454.192	478.06
454.412	472.06
454.633	437.06
454.853	444.06
455.073	430.06
455.294	475.06
455.514	512.06
455.734	518.06
455.955	422.06
456.175	409.06
456.395	387.06
456.616	377.06
456.836	370.06
457.056	397.06
457.276	384.06
457.497	377.06
457.717	387.06
457.937	391.06
458.157	403.06
458.377	427.06
458.598	467.06
458.818	540.06
459.038	646.06
459.258	628.06
459.478	525.06
459.698	478.06
459.918	458.06
460.138	422.06
460.358	437.06
460.578	430.06
460.798	434.06
461.018	420.06
461.238	435.06
461.458	424.06
461.678	436.06
461.898	408.06
462.118	400.06
462.338	419.06
462.558	413.06
462.777	425.06
462.997	427.06
463.217	426.06
463.437	438.06
463.657	441.06
463.876	420.06
464.096	449.06
464.316	435.06
464.536	447.06
464.755	441.06
464.975	495.06
465.195	545.06
465.414	698.06
465.634	580.06
465.854	499.06
466.073	472.06
466.293	454.06
466.512	460.06
466.732	410.06
466.951	424.06
467.171	431.06
467.391	421.06
467.61	445.06
467.829	446.06
468.049	431.06
468.268	422.06
468.488	434.06
468.707	405.06
468.927	418.06
469.146	390.06
469.365	418.06
469.585	411.06
469.804	431.06
470.023	440.06
470.243	441.06
470.462	441.06
470.681	474.06
470.901	456.06
471.12	445.06
471.339	435.06
471.558	439.06
471.777	412.06
471.997	406.06
472.216	439.06
472.435	411.06
472.654	422.06
472.873	419.06
473.092	442.06
473.311	418.06
473.53	451.06
473.749	452.06
473.968	488.06
474.187	609.06
474.406	622.06
474.625	509.06
474.844	470.06
475.063	420.06
475.282	436.06
475.501	441.06
475.72	451.06
475.939	439.06
476.158	445.06
476.377	450.06
476.596	438.06
476.814	456.06
477.033	461.06
477.252	452.06
477.471	475.06
477.69	466.06
477.908	455.06
478.127	470.06
478.346	447.06
478.564	457.06
478.783	474.06
479.002	477.06
479.22	485.06
479.439	524.06
479.658	539.06
479.876	548.06
480.095	537.06
480.313	558.06
480.532	565.06
480.751	538.06
480.969	523.06
481.188	541.06
481.406	558.06
481.624	528.06
481.843	524.06
482.061	519.06
482.28	493.06
482.498	494.06
482.717	490.06
482.935	531.06
483.153	505.06
483.372	498.06
483.59	516.06
483.808	494.06
484.027	500.06
484.245	517.06
484.463	512.06
484.681	513.06
484.9	516.06
485.118	519.06
485.336	495.06
485.554	533.06
485.772	528.06
485.99	550.06
486.209	532.06
486.427	536.06
486.645	556.06
486.863	575.06
487.081	595.06
487.299	564.06
487.517	565.06
487.735	570.06
487.953	558.06
488.171	552.06
488.389	543.06
488.607	554.06
488.825	540.06
489.043	536.06
489.261	572.06
489.479	558.06
489.696	564.06
489.914	559.06
490.132	619.06
490.35	583.06
490.568	591.06
490.786	583.06
491.003	613.06
491.221	621.06
491.439	630.06
491.657	642.06
491.874	644.06
492.092	645.06
492.31	624.06
492.527	635.06
492.745	647.06
492.963	636.06
493.18	671.06
493.398	684.06
493.615	651.06
493.833	678.06
494.05	652.06
494.268	683.06
494.485	656.06
494.703	647.06
494.92	668.06
495.138	661.06
495.355	660.06
495.573	674.06
495.79	669.06
496.008	685.06
496.225	663.06
496.442	664.06
496.66	682.06
496.877	673.06
497.094	668.06
497.312	696.06
497.529	685.06
497.746	684.06
497.963	718.06
498.181	714.06
498.398	713.06
498.615	736.06
498.832	725.06
499.049	692.06
499.267	738.06
499.484	735.06
499.701	767.06
499.918	754.06
500.135	778.06
500.352	764.06
500.569	784.06
500.786	780.06
501.003	808.06
501.22	765.06
501.437	794.06
501.654	803.06
501.871	803.06
502.088	771.06
502.305	758.06
502.522	744.06
502.739	734.06
502.956	717.06
503.172	707.06
503.389	713.06
503.606	707.06
503.823	718.06
504.04	713.06
504.256	702.06
504.473	677.06
504.69	653.06
504.907	684.06
505.123	677.06
505.34	655.06
505.557	665.06
505.773	679.06
505.99	673.06
506.207	686.06
506.423	670.06
506.64	645.06
506.856	671.06
507.073	674.06
507.289	641.06
507.506	674.06
507.722	682.06
507.939	705.06
508.155	681.06
508.372	667.06
508.588	667.06
508.805	672.06
509.021	677.06
509.238	670.06
509.454	676.06
509.67	678.06
509.887	674.06
510.103	671.06
510.319	685.06
510.536	839.06
510.752	1523.06
510.968	1290.06
511.184	742.06
511.401	666.06
511.617	652.06
511.833	629.06
512.049	634.06
512.265	629.06
512.481	633.06
512.698	606.06
512.914	624.06
513.13	622.06
513.346	635.06
513.562	634.06
513.778	653.06
513.994	669.06
514.21	696.06
514.426	736.06
514.642	804.06
514.858	837.06
515.074	912.06
515.29	1162.06
515.506	1809.06
515.721	1466.06
515.937	891.06
516.153	774.06
516.369	735.06
516.585	685.06
516.801	666.06
517.016	650.06
517.232	654.06
517.448	649.06
517.664	649.06
517.879	639.06
518.095	639.06
518.311	629.06
518.527	637.06
518.742	639.06
518.958	619.06
519.173	650.06
519.389	654.06
519.605	664.06
519.82	647.06
520.036	691.06
520.251	726.06
520.467	742.06
520.682	781.06
520.898	792.06
521.113	861.06
521.329	935.06
521.544	1065.06
521.76	1482.06
521.975	2458.06
522.19	2469.06
522.406	1264.06
522.621	891.06
522.836	756.06
523.052	722.06
523.267	661.06
523.482	650.06
523.698	634.06
523.913	628.06
524.128	632.06
524.343	607.06
524.559	571.06
524.774	562.06
524.989	553.06
525.204	569.06
525.419	584.06
525.634	537.06
525.849	529.06
526.064	529.06
526.28	516.06
526.495	520.06
526.71	516.06
526.925	495.06
527.14	498.06
527.355	505.06
527.57	483.06
527.785	492.06
527.999	489.06
528.214	502.06
528.429	494.06
528.644	479.06
528.859	486.06
529.074	534.06
529.289	534.06
529.503	666.06
529.718	653.06
529.933	559.06
530.148	551.06
530.363	527.06
530.577	477.06
530.792	482.06
531.007	484.06
531.221	488.06
531.436	479.06
531.651	475.06
531.865	467.06
532.08	470.06
532.295	464.06
532.509	450.06
532.724	480.06
532.938	456.06
533.153	458.06
533.367	447.06
533.582	455.06
533.796	434.06
534.011	473.06
534.225	436.06
534.44	435.06
534.654	449.06
534.868	460.06
535.083	477.06
535.297	454.06
535.511	467.06
535.726	476.06
535.94	483.06
536.154	458.06
536.369	464.06
536.583	455.06
536.797	466.06
537.011	455.06
537.225	450.06
537.44	429.06
537.654	458.06
537.868	447.06
538.082	437.06
538.296	447.06
538.51	446.06
538.724	444.06
538.938	431.06
539.153	436.06
539.367	466.06
539.581	472.06
539.795	464.06
540.009	432.06
540.222	425.06
540.436	445.06
540.65	409.06
540.864	446.06
541.078	463.06
541.292	450.06
541.506	434.06
541.72	429.06
541.934	436.06
542.147	418.06
542.361	400.06
542.575	418.06
542.789	430.06
543.002	456.06
543.216	461.06
543.43	456.06
543.644	442.06
543.857	414.06
544.071	409.06
544.285	433.06
544.498	441.06
544.712	418.06
544.925	406.06
545.139	438.06
545.352	419.06
545.566	421.06
545.779	411.06
545.993	415.06
546.206	437.06
546.42	413.06
546.633	399.06
546.847	397.06
547.06	391.06
547.274	387.06
547.487	399.06
547.7	386.06
547.914	400.06
548.127	406.06
548.34	394.06
548.554	400.06
548.767	395.06
548.98	391.06
549.193	418.06
549.407	381.06
549.62	400.06
549.833	391.06
550.046	402.06
550.259	388.06
550.473	386.06
550.686	411.06
550.899	400.06
551.112	409.06
551.325	390.06
551.538	406.06
551.751	377.06
551.964	386.06
552.177	389.06
552.39	376.06
552.603	393.06
552.816	391.06
553.029	385.06
553.242	386.06
553.455	412.06
553.667	393.06
553.88	416.06
554.093	426.06
554.306	412.06
554.519	394.06
554.732	381.06
554.944	367.06
555.157	378.06
555.37	404.06
555.583	396.06
555.795	387.06
556.008	373.06
556.221	379.06
556.433	373.06
556.646	376.06
556.859	375.06
557.071	386.06
557.284	377.06
557.496	349.06
557.709	349.06
557.921	339.06
558.134	350.06
558.346	359.06
558.559	364.06
558.771	342.06
558.984	348.06
559.196	367.06
559.409	351.06
559.621	334.06
559.833	364.06
560.046	345.06
560.258	335.06
560.47	350.06
560.683	364.06
560.895	375.06
561.107	352.06
561.32	349.06
561.532	357.06
561.744	358.06
561.956	349.06
562.168	366.06
562.381	356.06
562.593	363.06
562.805	370.06
563.017	364.06
563.229	334.06
563.441	360.06
563.653	368.06
563.865	342.06
564.077	349.06
564.289	351.06
564.501	340.06
564.713	334.06
564.925	356.06
565.137	374.06
565.349	373.06
565.561	372.06
565.773	377.06
565.985	376.06
566.197	363.06
566.408	388.06
566.62	390.06
566.832	363.06
567.044	398.06
567.255	386.06
567.467	392.06
567.679	384.06
567.891	393.06
568.102	379.06
568.314	387.06
568.526	362.06
568.737	370.06
568.949	346.06
569.161	372.06
569.372	353.06
569.584	335.06
569.795	380.06
570.007	367.06
570.218	438.06
570.43	414.06
570.641	345.06
570.853	338.06
571.064	342.06
571.276	333.06
571.487	334.06
571.698	334.06
571.91	329.06
572.121	331.06
572.333	327.06
572.544	312.06
572.755	318.06
572.966	322.06
573.178	326.06
573.389	329.06
573.6	310.06
573.811	317.06
574.023	330.06
574.234	306.06
574.445	306.06
574.656	291.06
574.867	318.06
575.078	293.06
575.289	319.06
575.501	316.06
575.712	293.06
575.923	290.06
576.134	303.06
576.345	288.06
576.556	303.06
576.767	301.06
576.978	299.06
577.188	295.06
577.399	314.06
577.61	298.06
577.821	312.06
578.032	306.06
578.243	363.06
578.454	710.06
578.665	508.06
578.875	323.06
579.086	306.06
579.297	294.06
579.508	297.06
579.718	298.06
579.929	281.06
580.14	287.06
580.35	288.06
580.561	288.06
580.772	271.06
580.982	285.06
581.193	279.06
581.403	261.06
581.614	299.06
581.825	267.06
582.035	294.06
582.246	289.06
582.456	276.06
582.667	266.06
582.877	284.06
583.087	286.06
583.298	290.06
583.508	279.06
583.719	282.06
583.929	293.06
584.139	256.06
584.35	272.06
584.56	275.06
584.77	271.06
584.981	284.06
585.191	272.06
585.401	274.06
585.611	280.06
585.821	295.06
586.032	284.06
586.242	282.06
586.452	290.06
586.662	272.06
586.872	265.06
587.082	264.06
587.292	280.06
587.502	269.06
587.713	277.06
587.923	262.06
588.133	269.06
588.343	276.06
588.553	271.06
588.762	272.06
588.972	270.06
589.182	295.06
589.392	282.06
589.602	284.06
589.812	263.06
590.022	274.06
590.232	261.06
590.441	280.06
590.651	268.06
590.861	262.06
591.071	259.06
591.281	265.06
591.49	265.06
591.7	276.06
591.91	255.06
592.119	261.06
592.329	263.06
592.539	291.06
592.748	262.06
592.958	276.06
593.167	253.06
593.377	248.06
593.587	279.06
593.796	261.06
594.006	273.06
594.215	262.06
594.424	259.06
594.634	269.06
594.843	247.06
595.053	262.06
595.262	259.06
595.472	262.06
595.681	269.06
595.89	272.06
596.1	279.06
596.309	249.06
596.518	261.06
596.727	256.06
596.937	249.06
597.146	243.06
597.355	258.06
597.564	239.06
597.774	265.06
597.983	265.06
598.192	243.06
598.401	260.06
598.61	243.06
598.819	241.06
599.028	242.06
599.237	241.06
599.446	249.06
599.655	240.06
599.864	247.06
600.073	241.06
600.282	235.06
600.491	218.06
600.7	231.06
600.909	238.06
601.118	246.06
601.327	245.06
601.536	229.06
601.745	222.06
601.953	240.06
602.162	237.06
602.371	243.06
602.58	245.06
602.789	227.06
602.997	205.06
603.206	227.06
603.415	239.06
603.623	229.06
603.832	220.06
604.041	231.06
604.249	231.06
604.458	239.06
604.666	225.06
604.875	214.06
605.084	243.06
605.292	230.06
605.501	207.06
605.709	234.06
605.918	223.06
606.126	228.06
606.334	227.06
606.543	246.06
606.751	244.06
606.96	226.06
607.168	198.06
607.376	210.06
607.585	219.06
607.793	221.06
608.001	222.06
608.21	226.06
608.418	226.06
608.626	234.06
608.834	218.06
609.043	211.06
609.251	212.06
609.459	208.06
609.667	205.06
609.875	227.06
610.083	236.06
610.291	206.06
610.499	221.06
610.707	221.06
610.916	205.06
611.124	226.06
611.332	229.06
611.54	216.06
611.748	222.06
611.955	225.06
612.163	239.06
612.371	215.06
612.579	214.06
612.787	217.06
612.995	211.06
613.203	222.06
613.411	221.06
613.618	217.06
613.826	225.06
614.034	220.06
614.242	206.06
614.449	207.06
614.657	214.06
614.865	210.06
615.072	209.06
615.28	227.06
615.488	203.06
615.695	213.06
615.903	217.06
616.111	235.06
616.318	212.06
616.526	203.06
616.733	212.06
616.941	221.06
617.148	223.06
617.356	198.06
617.563	216.06
617.771	214.06
617.978	203.06
618.185	230.06
618.393	198.06
618.6	200.06
618.807	199.06
619.015	220.06
619.222	215.06
619.429	207.06
619.637	213.06
619.844	215.06
620.051	212.06
620.258	195.06
620.466	200.06
620.673	202.06
620.88	194.06
621.087	200.06
621.294	203.06
621.501	199.06
621.708	223.06
621.915	204.06
622.122	196.06
622.329	200.06
622.536	211.06
622.743	196.06
622.95	217.06
623.157	202.06
623.364	205.06
623.571	195.06
623.778	205.06
623.985	201.06
624.192	189.06
624.399	202.06
624.606	197.06
624.812	192.06
625.019	196.06
625.226	190.06
625.433	206.06
625.639	191.06
625.846	196.06
626.053	202.06
626.259	196.06
626.466	194.06
626.673	202.06
626.879	223.06
627.086	197.06
627.293	196.06
627.499	186.06
627.706	183.06
627.912	193.06
628.119	175.06
628.325	208.06
628.532	179.06
628.738	189.06
628.945	194.06
629.151	185.06
629.357	190.06
629.564	184.06
629.77	191.06
629.976	203.06
630.183	172.06
630.389	171.06
630.595	180.06
630.802	176.06
631.008	182.06
631.214	187.06
631.42	172.06
631.627	201.06
631.833	178.06
632.039	168.06
632.245	186.06
632.451	169.06
632.657	168.06
632.863	176.06
633.069	184.06
633.275	168.06
633.481	164.06
633.688	181.06
633.893	192.06
634.099	168.06
634.305	167.06
634.511	186.06
634.717	154.06
634.923	182.06
635.129	166.06
635.335	178.06
635.541	167.06
635.747	180.06
635.952	170.06
636.158	157.06
636.364	162.06
636.57	169.06
636.775	184.06
636.981	165.06
637.187	175.06
637.392	156.06
637.598	154.06
637.804	172.06
638.009	159.06
638.215	169.06
638.421	174.06
638.626	169.06
638.832	159.06
639.037	164.06
639.243	164.06
639.448	158.06
639.654	159.06
639.859	158.06
640.065	167.06
640.27	174.06
640.475	157.06
640.681	169.06
640.886	179.06
641.091	167.06
641.297	160.06
641.502	165.06
641.707	167.06
641.913	163.06
642.118	154.06
642.323	161.06
642.528	150.06
642.733	147.06
642.939	163.06
643.144	165.06
643.349	164.06
643.554	160.06
643.759	162.06
643.964	140.06
644.169	162.06
644.374	154.06
644.579	163.06
644.784	155.06
644.989	148.06
645.194	171.06
645.399	171.06
645.604	163.06
645.809	160.06
646.014	155.06
646.219	149.06
646.423	140.06
646.628	160.06
646.833	151.06
647.038	165.06
647.243	155.06
647.447	152.06
647.652	159.06
647.857	166.06
648.062	177.06
648.266	160.06
648.471	166.06
648.676	181.06
648.88	167.06
649.085	172.06
649.289	166.06
649.494	164.06
649.698	183.06
649.903	164.06
650.107	155.06
650.312	163.06
650.516	167.06
650.721	150.06
650.925	146.06
651.13	141.06
651.334	142.06
651.539	146.06
651.743	153.06
651.947	138.06
652.152	134.06
652.356	130.06
652.56	140.06
652.764	136.06
652.969	128.06
653.173	136.06
653.377	130.06
653.581	134.06
653.785	133.06
653.99	130.06
654.194	120.06
654.398	136.06
654.602	131.06
654.806	140.06
655.01	132.06
655.214	135.06
655.418	133.06
655.622	129.06
655.826	113.06
656.03	116.06
656.234	114.06
656.438	124.06
656.642	133.06
656.846	106.06
657.049	103.06
657.253	117.06
657.457	110.06
657.661	126.06
657.865	118.06
658.068	93.06
658.272	104.06
658.476	93.06
658.68	88.06
658.883	101.06
659.087	103.06
659.291	84.06
659.494	101.06
659.698	105.06
659.901	94.06
660.105	94.06
660.309	94.06
660.512	99.06
660.716	91.06
660.919	98.06
661.123	87.06
661.326	94.06
661.53	94.06
661.733	93.06
661.936	88.06
662.14	84.06
662.343	100.06
662.546	96.06
662.75	98.06
662.953	88.06
663.156	82.06
663.36	101.06
663.563	91.06
663.766	88.06
663.969	68.06
664.173	80.06
664.376	80.06
664.579	93.06
664.782	76.06
664.985	67.06
665.188	81.06
665.391	94.06
665.594	87.06
665.797	90.06
666	96.06
666.203	94.06
666.406	96.06
666.609	95.06
666.812	90.06
667.015	103.06
667.218	90.06
667.421	89.06
667.624	79.06
667.827	88.06
668.03	76.06
668.232	65.06
668.435	84.06
668.638	79.06
668.841	88.06
669.043	73.06
669.246	92.06
669.449	79.06
669.651	97.06
669.854	82.06
670.057	91.06
670.259	76.06
670.462	84.06
670.665	89.06
670.867	80.06
671.07	88.06
671.272	86.06
671.475	105.06
671.677	75.06
671.88	78.06
672.082	78.06
672.284	87.06
672.487	67.06
672.689	82.06
672.892	83.06
