Data from 1987.PennyLincolnUp.Lamp.En5.5.200Scan.071819.P2_HRD10591_17-16-05-972.txt Node
Date: Thu Jul 18 17:16:05 EDT 2019
User: cochatt
Spectrometer: HR+D1059
Trigger mode: 1
Integration Time (sec): 1.000000E-1
Scans to average: 1
Electric dark correction enabled: true
Nonlinearity correction enabled: false
Boxcar width: 0
XAxis mode: Wavelengths
Number of Pixels in Spectrum: 2048
>>>>>Begin Spectral Data<<<<<
223.165	-14.62
223.4	-14.62
223.635	-14.62
223.869	-18.62
224.104	-11.62
224.338	-7.62
224.573	-2.62
224.808	-19.62
225.042	-26.62
225.277	-14.62
225.511	-4.62
225.746	18.38
225.98	15.38
226.215	17.38
226.449	5.38
226.683	21.38
226.918	26.38
227.152	16.38
227.387	34.38
227.621	33.38
227.856	44.38
228.09	58.38
228.324	60.38
228.559	65.38
228.793	82.38
229.027	97.38
229.262	110.38
229.496	130.38
229.73	150.38
229.964	174.38
230.199	145.38
230.433	114.38
230.667	130.38
230.901	121.38
231.136	128.38
231.37	112.38
231.604	111.38
231.838	106.38
232.072	121.38
232.306	110.38
232.541	113.38
232.775	122.38
233.009	108.38
233.243	109.38
233.477	114.38
233.711	123.38
233.945	116.38
234.179	105.38
234.413	107.38
234.647	109.38
234.881	99.38
235.115	106.38
235.349	126.38
235.583	118.38
235.817	129.38
236.051	135.38
236.285	119.38
236.519	131.38
236.753	139.38
236.987	163.38
237.221	211.38
237.455	265.38
237.689	204.38
237.922	150.38
238.156	145.38
238.39	121.38
238.624	131.38
238.858	131.38
239.091	131.38
239.325	122.38
239.559	127.38
239.793	129.38
240.027	131.38
240.26	129.38
240.494	174.38
240.728	145.38
240.961	149.38
241.195	134.38
241.429	153.38
241.662	134.38
241.896	123.38
242.13	130.38
242.363	130.38
242.597	118.38
242.83	130.38
243.064	149.38
243.298	138.38
243.531	134.38
243.765	125.38
243.998	133.38
244.232	121.38
244.465	145.38
244.699	142.38
244.932	133.38
245.166	137.38
245.399	136.38
245.633	139.38
245.866	144.38
246.099	152.38
246.333	141.38
246.566	155.38
246.8	162.38
247.033	156.38
247.266	143.38
247.5	162.38
247.733	162.38
247.966	167.38
248.2	179.38
248.433	155.38
248.666	182.38
248.899	181.38
249.133	206.38
249.366	206.38
249.599	205.38
249.832	191.38
250.066	197.38
250.299	170.38
250.532	179.38
250.765	195.38
250.998	197.38
251.231	220.38
251.465	218.38
251.698	214.38
251.931	201.38
252.164	185.38
252.397	198.38
252.63	203.38
252.863	201.38
253.096	203.38
253.329	254.38
253.562	243.38
253.795	222.38
254.028	216.38
254.261	223.38
254.494	262.38
254.727	239.38
254.96	274.38
255.193	292.38
255.426	251.38
255.659	247.38
255.892	218.38
256.124	220.38
256.357	219.38
256.59	218.38
256.823	214.38
257.056	201.38
257.289	211.38
257.521	192.38
257.754	209.38
257.987	208.38
258.22	202.38
258.452	197.38
258.685	180.38
258.918	196.38
259.151	185.38
259.383	215.38
259.616	216.38
259.849	201.38
260.081	227.38
260.314	253.38
260.547	253.38
260.779	232.38
261.012	223.38
261.244	230.38
261.477	223.38
261.71	212.38
261.942	237.38
262.175	240.38
262.407	238.38
262.64	225.38
262.872	209.38
263.105	194.38
263.337	199.38
263.57	205.38
263.802	198.38
264.035	193.38
264.267	191.38
264.499	187.38
264.732	193.38
264.964	200.38
265.197	199.38
265.429	197.38
265.661	196.38
265.894	197.38
266.126	208.38
266.358	181.38
266.591	188.38
266.823	211.38
267.055	198.38
267.287	211.38
267.52	217.38
267.752	186.38
267.984	198.38
268.216	199.38
268.448	207.38
268.681	222.38
268.913	243.38
269.145	248.38
269.377	275.38
269.609	266.38
269.841	241.38
270.073	265.38
270.306	283.38
270.538	309.38
270.77	309.38
271.002	294.38
271.234	276.38
271.466	284.38
271.698	312.38
271.93	314.38
272.162	324.38
272.394	315.38
272.626	308.38
272.858	267.38
273.09	237.38
273.322	263.38
273.553	249.38
273.785	242.38
274.017	239.38
274.249	225.38
274.481	231.38
274.713	243.38
274.945	246.38
275.176	238.38
275.408	246.38
275.64	232.38
275.872	230.38
276.104	251.38
276.335	252.38
276.567	255.38
276.799	290.38
277.031	297.38
277.262	322.38
277.494	299.38
277.726	286.38
277.957	280.38
278.189	262.38
278.421	249.38
278.652	238.38
278.884	257.38
279.115	231.38
279.347	238.38
279.579	237.38
279.81	239.38
280.042	230.38
280.273	238.38
280.505	252.38
280.736	234.38
280.968	228.38
281.199	218.38
281.431	231.38
281.662	234.38
281.894	223.38
282.125	233.38
282.356	271.38
282.588	271.38
282.819	302.38
283.051	269.38
283.282	220.38
283.513	249.38
283.745	218.38
283.976	239.38
284.207	232.38
284.439	240.38
284.67	225.38
284.901	243.38
285.132	238.38
285.364	229.38
285.595	220.38
285.826	227.38
286.057	248.38
286.288	228.38
286.52	214.38
286.751	245.38
286.982	248.38
287.213	245.38
287.444	238.38
287.675	235.38
287.906	259.38
288.138	250.38
288.369	262.38
288.6	276.38
288.831	259.38
289.062	231.38
289.293	254.38
289.524	244.38
289.755	224.38
289.986	240.38
290.217	241.38
290.448	214.38
290.679	241.38
290.91	233.38
291.141	236.38
291.371	247.38
291.602	232.38
291.833	253.38
292.064	232.38
292.295	240.38
292.526	230.38
292.757	236.38
292.987	227.38
293.218	242.38
293.449	258.38
293.68	235.38
293.91	229.38
294.141	237.38
294.372	234.38
294.603	228.38
294.833	228.38
295.064	241.38
295.295	231.38
295.525	259.38
295.756	252.38
295.987	265.38
296.217	281.38
296.448	302.38
296.679	259.38
296.909	265.38
297.14	265.38
297.37	259.38
297.601	233.38
297.831	236.38
298.062	246.38
298.292	239.38
298.523	262.38
298.753	252.38
298.984	238.38
299.214	250.38
299.445	262.38
299.675	245.38
299.905	261.38
300.136	273.38
300.366	268.38
300.597	253.38
300.827	260.38
301.057	249.38
301.288	274.38
301.518	283.38
301.748	270.38
301.979	273.38
302.209	273.38
302.439	290.38
302.669	282.38
302.9	286.38
303.13	250.38
303.36	282.38
303.59	274.38
303.82	275.38
304.051	282.38
304.281	270.38
304.511	269.38
304.741	263.38
304.971	270.38
305.201	270.38
305.431	290.38
305.661	278.38
305.891	278.38
306.121	290.38
306.352	293.38
306.582	288.38
306.812	294.38
307.042	290.38
307.272	269.38
307.502	279.38
307.731	282.38
307.961	267.38
308.191	294.38
308.421	309.38
308.651	280.38
308.881	282.38
309.111	294.38
309.341	306.38
309.571	323.38
309.8	322.38
310.03	341.38
310.26	363.38
310.49	354.38
310.72	364.38
310.949	372.38
311.179	397.38
311.409	359.38
311.639	345.38
311.868	354.38
312.098	350.38
312.328	370.38
312.557	393.38
312.787	407.38
313.017	400.38
313.246	385.38
313.476	361.38
313.706	333.38
313.935	362.38
314.165	371.38
314.394	387.38
314.624	372.38
314.853	358.38
315.083	350.38
315.312	327.38
315.542	326.38
315.771	328.38
316.001	319.38
316.23	332.38
316.46	333.38
316.689	326.38
316.919	323.38
317.148	335.38
317.377	365.38
317.607	342.38
317.836	356.38
318.065	333.38
318.295	316.38
318.524	329.38
318.753	322.38
318.983	319.38
319.212	316.38
319.441	340.38
319.67	367.38
319.9	343.38
320.129	344.38
320.358	349.38
320.587	353.38
320.816	375.38
321.046	371.38
321.275	370.38
321.504	366.38
321.733	367.38
321.962	394.38
322.191	414.38
322.42	439.38
322.649	458.38
322.878	470.38
323.108	474.38
323.337	525.38
323.566	571.38
323.795	610.38
324.024	673.38
324.253	859.38
324.482	1268.38
324.71	1966.38
324.939	2721.38
325.168	2428.38
325.397	1326.38
325.626	838.38
325.855	673.38
326.084	569.38
326.313	547.38
326.542	569.38
326.77	641.38
326.999	779.38
327.228	1096.38
327.457	1713.38
327.686	2111.38
327.914	1461.38
328.143	890.38
328.372	739.38
328.6	694.38
328.829	671.38
329.058	666.38
329.287	701.38
329.515	620.38
329.744	553.38
329.972	538.38
330.201	531.38
330.43	558.38
330.658	606.38
330.887	698.38
331.115	683.38
331.344	546.38
331.572	494.38
331.801	498.38
332.03	515.38
332.258	458.38
332.486	419.38
332.715	413.38
332.943	406.38
333.172	393.38
333.4	401.38
333.629	389.38
333.857	391.38
334.085	405.38
334.314	382.38
334.542	406.38
334.771	412.38
334.999	409.38
335.227	407.38
335.455	397.38
335.684	385.38
335.912	376.38
336.14	382.38
336.369	398.38
336.597	387.38
336.825	400.38
337.053	396.38
337.281	363.38
337.51	373.38
337.738	387.38
337.966	381.38
338.194	391.38
338.422	397.38
338.65	391.38
338.878	373.38
339.106	354.38
339.334	373.38
339.562	377.38
339.79	382.38
340.018	377.38
340.246	378.38
340.474	394.38
340.702	386.38
340.93	373.38
341.158	359.38
341.386	363.38
341.614	404.38
341.842	386.38
342.07	369.38
342.298	381.38
342.526	373.38
342.754	363.38
342.981	347.38
343.209	366.38
343.437	362.38
343.665	349.38
343.893	341.38
344.12	359.38
344.348	349.38
344.576	357.38
344.804	390.38
345.031	425.38
345.259	411.38
345.487	414.38
345.714	393.38
345.942	398.38
346.17	357.38
346.397	378.38
346.625	385.38
346.853	362.38
347.08	367.38
347.308	408.38
347.535	396.38
347.763	421.38
347.99	399.38
348.218	392.38
348.445	403.38
348.673	402.38
348.9	374.38
349.128	367.38
349.355	357.38
349.583	341.38
349.81	372.38
350.037	353.38
350.265	361.38
350.492	350.38
350.72	358.38
350.947	372.38
351.174	381.38
351.402	416.38
351.629	413.38
351.856	389.38
352.083	411.38
352.311	422.38
352.538	427.38
352.765	429.38
352.992	401.38
353.22	401.38
353.447	383.38
353.674	372.38
353.901	366.38
354.128	362.38
354.355	369.38
354.583	362.38
354.81	346.38
355.037	328.38
355.264	339.38
355.491	327.38
355.718	328.38
355.945	319.38
356.172	327.38
356.399	337.38
356.626	341.38
356.853	314.38
357.08	337.38
357.307	349.38
357.534	319.38
357.761	343.38
357.988	336.38
358.215	335.38
358.441	351.38
358.668	333.38
358.895	343.38
359.122	372.38
359.349	364.38
359.576	386.38
359.802	425.38
360.029	470.38
360.256	493.38
360.483	449.38
360.709	401.38
360.936	390.38
361.163	391.38
361.39	384.38
361.616	400.38
361.843	380.38
362.07	369.38
362.296	410.38
362.523	381.38
362.749	378.38
362.976	350.38
363.203	361.38
363.429	375.38
363.656	380.38
363.882	355.38
364.109	348.38
364.335	342.38
364.562	341.38
364.788	358.38
365.015	353.38
365.241	353.38
365.468	366.38
365.694	371.38
365.92	365.38
366.147	371.38
366.373	356.38
366.599	346.38
366.826	337.38
367.052	357.38
367.278	363.38
367.505	387.38
367.731	348.38
367.957	339.38
368.184	352.38
368.41	361.38
368.636	377.38
368.862	374.38
369.089	379.38
369.315	348.38
369.541	341.38
369.767	336.38
369.993	346.38
370.219	332.38
370.445	338.38
370.672	338.38
370.898	330.38
371.124	323.38
371.35	357.38
371.576	345.38
371.802	321.38
372.028	329.38
372.254	337.38
372.48	329.38
372.706	322.38
372.932	345.38
373.158	343.38
373.384	333.38
373.61	328.38
373.835	327.38
374.061	335.38
374.287	350.38
374.513	345.38
374.739	332.38
374.965	348.38
375.191	332.38
375.416	332.38
375.642	347.38
375.868	339.38
376.094	327.38
376.319	327.38
376.545	326.38
376.771	328.38
376.997	335.38
377.222	336.38
377.448	329.38
377.674	335.38
377.899	335.38
378.125	311.38
378.35	307.38
378.576	328.38
378.802	319.38
379.027	337.38
379.253	339.38
379.478	322.38
379.704	314.38
379.929	334.38
380.155	333.38
380.38	333.38
380.606	352.38
380.831	336.38
381.057	332.38
381.282	333.38
381.507	339.38
381.733	335.38
381.958	340.38
382.184	328.38
382.409	335.38
382.634	341.38
382.86	335.38
383.085	332.38
383.31	332.38
383.535	335.38
383.761	344.38
383.986	330.38
384.211	309.38
384.436	349.38
384.662	335.38
384.887	341.38
385.112	324.38
385.337	359.38
385.562	350.38
385.787	344.38
386.013	374.38
386.238	362.38
386.463	371.38
386.688	349.38
386.913	363.38
387.138	359.38
387.363	361.38
387.588	346.38
387.813	348.38
388.038	342.38
388.263	345.38
388.488	350.38
388.713	352.38
388.938	360.38
389.163	360.38
389.387	356.38
389.612	359.38
389.837	341.38
390.062	360.38
390.287	342.38
390.512	346.38
390.736	358.38
390.961	353.38
391.186	332.38
391.411	345.38
391.636	359.38
391.86	358.38
392.085	370.38
392.31	360.38
392.534	335.38
392.759	358.38
392.984	345.38
393.208	357.38
393.433	358.38
393.658	363.38
393.882	350.38
394.107	347.38
394.331	372.38
394.556	341.38
394.78	360.38
395.005	371.38
395.229	351.38
395.454	369.38
395.678	390.38
395.903	375.38
396.127	397.38
396.352	391.38
396.576	364.38
396.801	392.38
397.025	370.38
397.249	377.38
397.474	361.38
397.698	374.38
397.922	401.38
398.147	408.38
398.371	420.38
398.595	388.38
398.82	409.38
399.044	406.38
399.268	395.38
399.492	411.38
399.717	446.38
399.941	462.38
400.165	502.38
400.389	487.38
400.613	463.38
400.837	453.38
401.062	408.38
401.286	419.38
401.51	401.38
401.734	407.38
401.958	408.38
402.182	409.38
402.406	431.38
402.63	430.38
402.854	437.38
403.078	437.38
403.302	424.38
403.526	421.38
403.75	428.38
403.974	409.38
404.198	417.38
404.422	434.38
404.645	427.38
404.869	432.38
405.093	457.38
405.317	475.38
405.541	490.38
405.765	485.38
405.988	462.38
406.212	468.38
406.436	483.38
406.66	526.38
406.883	500.38
407.107	524.38
407.331	547.38
407.555	595.38
407.778	599.38
408.002	538.38
408.226	487.38
408.449	490.38
408.673	499.38
408.896	523.38
409.12	557.38
409.344	495.38
409.567	458.38
409.791	452.38
410.014	440.38
410.238	455.38
410.461	439.38
410.685	446.38
410.908	439.38
411.132	483.38
411.355	522.38
411.578	516.38
411.802	458.38
412.025	446.38
412.249	422.38
412.472	422.38
412.695	438.38
412.919	447.38
413.142	408.38
413.365	408.38
413.589	400.38
413.812	425.38
414.035	414.38
414.258	394.38
414.482	406.38
414.705	397.38
414.928	395.38
415.151	393.38
415.374	395.38
415.597	385.38
415.821	405.38
416.044	405.38
416.267	415.38
416.49	411.38
416.713	395.38
416.936	388.38
417.159	422.38
417.382	421.38
417.605	394.38
417.828	419.38
418.051	443.38
418.274	428.38
418.497	415.38
418.72	411.38
418.943	423.38
419.166	437.38
419.389	448.38
419.611	425.38
419.834	415.38
420.057	438.38
420.28	425.38
420.503	437.38
420.726	449.38
420.948	440.38
421.171	515.38
421.394	541.38
421.617	490.38
421.839	459.38
422.062	452.38
422.285	485.38
422.507	537.38
422.73	609.38
422.953	565.38
423.175	500.38
423.398	476.38
423.621	487.38
423.843	504.38
424.066	499.38
424.288	499.38
424.511	530.38
424.733	564.38
424.956	663.38
425.178	654.38
425.401	650.38
425.623	673.38
425.846	567.38
426.068	535.38
426.291	516.38
426.513	491.38
426.735	501.38
426.958	575.38
427.18	645.38
427.402	789.38
427.625	835.38
427.847	798.38
428.069	691.38
428.292	598.38
428.514	565.38
428.736	526.38
428.958	490.38
429.181	491.38
429.403	481.38
429.625	481.38
429.847	549.38
430.069	615.38
430.292	599.38
430.514	524.38
430.736	466.38
430.958	455.38
431.18	443.38
431.402	458.38
431.624	443.38
431.846	441.38
432.068	421.38
432.29	427.38
432.512	435.38
432.734	451.38
432.956	430.38
433.178	449.38
433.4	459.38
433.622	458.38
433.844	420.38
434.066	437.38
434.287	433.38
434.509	421.38
434.731	448.38
434.953	459.38
435.175	460.38
435.397	493.38
435.618	517.38
435.84	531.38
436.062	659.38
436.284	726.38
436.505	616.38
436.727	535.38
436.949	515.38
437.17	472.38
437.392	477.38
437.614	500.38
437.835	547.38
438.057	678.38
438.278	763.38
438.5	753.38
438.721	807.38
438.943	772.38
439.165	628.38
439.386	579.38
439.608	556.38
439.829	579.38
440.05	611.38
440.272	656.38
440.493	598.38
440.715	541.38
440.936	520.38
441.158	477.38
441.379	500.38
441.6	509.38
441.822	542.38
442.043	575.38
442.264	673.38
442.486	712.38
442.707	611.38
442.928	579.38
443.149	569.38
443.371	587.38
443.592	611.38
443.813	679.38
444.034	753.38
444.255	649.38
444.476	532.38
444.698	531.38
444.919	515.38
445.14	600.38
445.361	575.38
445.582	580.38
445.803	646.38
446.024	760.38
446.245	773.38
446.466	675.38
446.687	607.38
446.908	575.38
447.129	533.38
447.35	502.38
447.571	505.38
447.792	498.38
448.013	515.38
448.234	532.38
448.455	564.38
448.675	684.38
448.896	774.38
449.117	677.38
449.338	650.38
449.559	748.38
449.779	831.38
450	679.38
450.221	568.38
450.442	517.38
450.662	490.38
450.883	498.38
451.104	555.38
451.324	538.38
451.545	509.38
451.766	468.38
451.986	463.38
452.207	423.38
452.428	422.38
452.648	435.38
452.869	454.38
453.089	462.38
453.31	487.38
453.53	468.38
453.751	462.38
453.971	457.38
454.192	506.38
454.412	471.38
454.633	457.38
454.853	447.38
455.073	430.38
455.294	482.38
455.514	538.38
455.734	521.38
455.955	447.38
456.175	440.38
456.395	407.38
456.616	397.38
456.836	407.38
457.056	408.38
457.276	391.38
457.497	385.38
457.717	390.38
457.937	402.38
458.157	414.38
458.377	421.38
458.598	452.38
458.818	552.38
459.038	671.38
459.258	657.38
459.478	536.38
459.698	486.38
459.918	445.38
460.138	447.38
460.358	440.38
460.578	427.38
460.798	431.38
461.018	435.38
461.238	436.38
461.458	419.38
461.678	405.38
461.898	410.38
462.118	399.38
462.338	430.38
462.558	419.38
462.777	423.38
462.997	413.38
463.217	451.38
463.437	434.38
463.657	424.38
463.876	440.38
464.096	437.38
464.316	444.38
464.536	461.38
464.755	453.38
464.975	488.38
465.195	570.38
465.414	713.38
465.634	585.38
465.854	535.38
466.073	494.38
466.293	476.38
466.512	433.38
466.732	442.38
466.951	439.38
467.171	424.38
467.391	435.38
467.61	445.38
467.829	471.38
468.049	452.38
468.268	438.38
468.488	426.38
468.707	411.38
468.927	417.38
469.146	386.38
469.365	409.38
469.585	415.38
469.804	422.38
470.023	433.38
470.243	435.38
470.462	456.38
470.681	477.38
470.901	478.38
471.12	457.38
471.339	447.38
471.558	438.38
471.777	445.38
471.997	410.38
472.216	439.38
472.435	445.38
472.654	441.38
472.873	431.38
473.092	408.38
473.311	417.38
473.53	449.38
473.749	457.38
473.968	493.38
474.187	608.38
474.406	635.38
474.625	521.38
474.844	474.38
475.063	458.38
475.282	442.38
475.501	453.38
475.72	452.38
475.939	458.38
476.158	455.38
476.377	447.38
476.596	458.38
476.814	457.38
477.033	472.38
477.252	477.38
477.471	447.38
477.69	463.38
477.908	457.38
478.127	457.38
478.346	485.38
478.564	487.38
478.783	473.38
479.002	470.38
479.22	469.38
479.439	518.38
479.658	533.38
479.876	551.38
480.095	540.38
480.313	559.38
480.532	555.38
480.751	545.38
480.969	534.38
481.188	543.38
481.406	554.38
481.624	551.38
481.843	549.38
482.061	517.38
482.28	497.38
482.498	516.38
482.717	547.38
482.935	510.38
483.153	524.38
483.372	509.38
483.59	513.38
483.808	520.38
484.027	501.38
484.245	506.38
484.463	526.38
484.681	517.38
484.9	525.38
485.118	532.38
485.336	498.38
485.554	520.38
485.772	549.38
485.99	551.38
486.209	558.38
486.427	545.38
486.645	577.38
486.863	595.38
487.081	598.38
487.299	571.38
487.517	563.38
487.735	548.38
487.953	561.38
488.171	546.38
488.389	570.38
488.607	574.38
488.825	583.38
489.043	550.38
489.261	556.38
489.479	569.38
489.696	593.38
489.914	577.38
490.132	577.38
490.35	595.38
490.568	606.38
490.786	632.38
491.003	614.38
491.221	661.38
491.439	645.38
491.657	622.38
491.874	642.38
492.092	637.38
492.31	674.38
492.527	656.38
492.745	666.38
492.963	664.38
493.18	675.38
493.398	661.38
493.615	670.38
493.833	663.38
494.05	685.38
494.268	670.38
494.485	643.38
494.703	669.38
494.92	685.38
495.138	684.38
495.355	684.38
495.573	699.38
495.79	657.38
496.008	679.38
496.225	666.38
496.442	689.38
496.66	689.38
496.877	701.38
497.094	663.38
497.312	687.38
497.529	703.38
497.746	698.38
497.963	709.38
498.181	730.38
498.398	732.38
498.615	717.38
498.832	723.38
499.049	749.38
499.267	750.38
499.484	755.38
499.701	757.38
499.918	741.38
500.135	780.38
500.352	772.38
500.569	777.38
500.786	793.38
501.003	802.38
501.22	813.38
501.437	794.38
501.654	801.38
501.871	840.38
502.088	813.38
502.305	803.38
502.522	747.38
502.739	737.38
502.956	721.38
503.172	736.38
503.389	725.38
503.606	741.38
503.823	706.38
504.04	730.38
504.256	720.38
504.473	696.38
504.69	679.38
504.907	693.38
505.123	683.38
505.34	656.38
505.557	661.38
505.773	667.38
505.99	691.38
506.207	683.38
506.423	653.38
506.64	677.38
506.856	670.38
507.073	701.38
507.289	685.38
507.506	693.38
507.722	694.38
507.939	763.38
508.155	697.38
508.372	705.38
508.588	697.38
508.805	695.38
509.021	641.38
509.238	689.38
509.454	698.38
509.67	703.38
509.887	661.38
510.103	674.38
510.319	712.38
510.536	834.38
510.752	1604.38
510.968	1301.38
511.184	742.38
511.401	686.38
511.617	667.38
511.833	651.38
512.049	628.38
512.265	643.38
512.481	635.38
512.698	652.38
512.914	654.38
513.13	646.38
513.346	649.38
513.562	652.38
513.778	673.38
513.994	674.38
514.21	691.38
514.426	743.38
514.642	839.38
514.858	908.38
515.074	929.38
515.29	1222.38
515.506	1866.38
515.721	1495.38
515.937	925.38
516.153	803.38
516.369	753.38
516.585	722.38
516.801	684.38
517.016	659.38
517.232	660.38
517.448	656.38
517.664	647.38
517.879	657.38
518.095	657.38
518.311	655.38
518.527	649.38
518.742	645.38
518.958	620.38
519.173	639.38
519.389	651.38
519.605	648.38
519.82	689.38
520.036	719.38
520.251	729.38
520.467	785.38
520.682	755.38
520.898	805.38
521.113	857.38
521.329	959.38
521.544	1123.38
521.76	1539.38
521.975	2564.38
522.19	2561.38
522.406	1285.38
522.621	906.38
522.836	791.38
523.052	700.38
523.267	685.38
523.482	653.38
523.698	635.38
523.913	618.38
524.128	609.38
524.343	602.38
524.559	582.38
524.774	582.38
524.989	562.38
525.204	557.38
525.419	556.38
525.634	574.38
525.849	541.38
526.064	553.38
526.28	529.38
526.495	521.38
526.71	531.38
526.925	511.38
527.14	515.38
527.355	514.38
527.57	523.38
527.785	494.38
527.999	505.38
528.214	483.38
528.429	500.38
528.644	504.38
528.859	525.38
529.074	506.38
529.289	539.38
529.503	683.38
529.718	665.38
529.933	573.38
530.148	539.38
530.363	527.38
530.577	511.38
530.792	495.38
531.007	497.38
531.221	488.38
531.436	486.38
531.651	482.38
531.865	483.38
532.08	463.38
532.295	494.38
532.509	473.38
532.724	481.38
532.938	473.38
533.153	463.38
533.367	467.38
533.582	453.38
533.796	443.38
534.011	468.38
534.225	445.38
534.44	453.38
534.654	455.38
534.868	452.38
535.083	458.38
535.297	446.38
535.511	486.38
535.726	495.38
535.94	481.38
536.154	456.38
536.369	463.38
536.583	470.38
536.797	439.38
537.011	442.38
537.225	442.38
537.44	445.38
537.654	438.38
537.868	462.38
538.082	445.38
538.296	453.38
538.51	463.38
538.724	455.38
538.938	435.38
539.153	444.38
539.367	473.38
539.581	481.38
539.795	452.38
540.009	455.38
540.222	450.38
540.436	461.38
540.65	413.38
540.864	454.38
541.078	445.38
541.292	459.38
541.506	469.38
541.72	452.38
541.934	439.38
542.147	448.38
542.361	453.38
542.575	428.38
542.789	430.38
543.002	440.38
543.216	433.38
543.43	447.38
543.644	456.38
543.857	439.38
544.071	435.38
544.285	455.38
544.498	436.38
544.712	430.38
544.925	432.38
545.139	411.38
545.352	413.38
545.566	403.38
545.779	421.38
545.993	413.38
546.206	397.38
546.42	415.38
546.633	413.38
546.847	412.38
547.06	414.38
547.274	378.38
547.487	405.38
547.7	391.38
547.914	405.38
548.127	417.38
548.34	426.38
548.554	409.38
548.767	393.38
548.98	409.38
549.193	405.38
549.407	394.38
549.62	417.38
549.833	408.38
550.046	407.38
550.259	396.38
550.473	359.38
550.686	403.38
550.899	381.38
551.112	400.38
551.325	409.38
551.538	395.38
551.751	390.38
551.964	389.38
552.177	369.38
552.39	388.38
552.603	381.38
552.816	407.38
553.029	373.38
553.242	399.38
553.455	392.38
553.667	423.38
553.88	428.38
554.093	415.38
554.306	437.38
554.519	393.38
554.732	393.38
554.944	405.38
555.157	389.38
555.37	386.38
555.583	372.38
555.795	385.38
556.008	374.38
556.221	379.38
556.433	366.38
556.646	355.38
556.859	353.38
557.071	370.38
557.284	373.38
557.496	385.38
557.709	364.38
557.921	347.38
558.134	352.38
558.346	341.38
558.559	362.38
558.771	355.38
558.984	364.38
559.196	369.38
559.409	351.38
559.621	364.38
559.833	343.38
560.046	347.38
560.258	361.38
560.47	349.38
560.683	350.38
560.895	368.38
561.107	356.38
561.32	382.38
561.532	368.38
561.744	379.38
561.956	362.38
562.168	352.38
562.381	350.38
562.593	358.38
562.805	358.38
563.017	379.38
563.229	348.38
563.441	356.38
563.653	338.38
563.865	357.38
564.077	336.38
564.289	356.38
564.501	365.38
564.713	350.38
564.925	367.38
565.137	393.38
565.349	377.38
565.561	378.38
565.773	376.38
565.985	382.38
566.197	374.38
566.408	382.38
566.62	390.38
566.832	369.38
567.044	409.38
567.255	399.38
567.467	387.38
567.679	400.38
567.891	413.38
568.102	394.38
568.314	387.38
568.526	383.38
568.737	371.38
568.949	359.38
569.161	375.38
569.372	357.38
569.584	355.38
569.795	370.38
570.007	365.38
570.218	445.38
570.43	439.38
570.641	356.38
570.853	345.38
571.064	354.38
571.276	329.38
571.487	324.38
571.698	345.38
571.91	323.38
572.121	317.38
572.333	338.38
572.544	330.38
572.755	328.38
572.966	324.38
573.178	299.38
573.389	329.38
573.6	327.38
573.811	322.38
574.023	298.38
574.234	327.38
574.445	307.38
574.656	315.38
574.867	315.38
575.078	298.38
575.289	301.38
575.501	312.38
575.712	298.38
575.923	308.38
576.134	291.38
576.345	308.38
576.556	309.38
576.767	328.38
576.978	291.38
577.188	306.38
577.399	303.38
577.61	286.38
577.821	319.38
578.032	314.38
578.243	363.38
578.454	746.38
578.665	532.38
578.875	333.38
579.086	310.38
579.297	294.38
579.508	277.38
579.718	284.38
579.929	289.38
580.14	289.38
580.35	302.38
580.561	288.38
580.772	290.38
580.982	285.38
581.193	287.38
581.403	277.38
581.614	277.38
581.825	282.38
582.035	296.38
582.246	296.38
582.456	293.38
582.667	262.38
582.877	280.38
583.087	268.38
583.298	292.38
583.508	297.38
583.719	293.38
583.929	271.38
584.139	275.38
584.35	278.38
584.56	282.38
584.77	278.38
584.981	249.38
585.191	278.38
585.401	289.38
585.611	291.38
585.821	264.38
586.032	261.38
586.242	265.38
586.452	267.38
586.662	260.38
586.872	282.38
587.082	281.38
587.292	260.38
587.502	270.38
587.713	292.38
587.923	260.38
588.133	266.38
588.343	284.38
588.553	284.38
588.762	276.38
588.972	291.38
589.182	265.38
589.392	277.38
589.602	271.38
589.812	297.38
590.022	282.38
590.232	259.38
590.441	279.38
590.651	280.38
590.861	279.38
591.071	262.38
591.281	279.38
591.49	255.38
591.7	267.38
591.91	278.38
592.119	251.38
592.329	267.38
592.539	268.38
592.748	289.38
592.958	273.38
593.167	268.38
593.377	260.38
593.587	254.38
593.796	270.38
594.006	280.38
594.215	281.38
594.424	254.38
594.634	269.38
594.843	283.38
595.053	277.38
595.262	259.38
595.472	255.38
595.681	254.38
595.89	246.38
596.1	264.38
596.309	247.38
596.518	252.38
596.727	262.38
596.937	257.38
597.146	247.38
597.355	256.38
597.564	249.38
597.774	248.38
597.983	241.38
598.192	249.38
598.401	260.38
598.61	247.38
598.819	238.38
599.028	235.38
599.237	255.38
599.446	238.38
599.655	255.38
599.864	241.38
600.073	229.38
600.282	242.38
600.491	256.38
600.7	230.38
600.909	243.38
601.118	257.38
601.327	234.38
601.536	223.38
601.745	235.38
601.953	260.38
602.162	253.38
602.371	246.38
602.58	228.38
602.789	249.38
602.997	233.38
603.206	252.38
603.415	246.38
603.623	223.38
603.832	236.38
604.041	231.38
604.249	217.38
604.458	223.38
604.666	248.38
604.875	225.38
605.084	214.38
605.292	221.38
605.501	233.38
605.709	228.38
605.918	210.38
606.126	224.38
606.334	233.38
606.543	225.38
606.751	234.38
606.96	216.38
607.168	226.38
607.376	237.38
607.585	221.38
607.793	227.38
608.001	241.38
608.21	248.38
608.418	233.38
608.626	215.38
608.834	213.38
609.043	237.38
609.251	219.38
609.459	221.38
609.667	219.38
609.875	231.38
610.083	238.38
610.291	244.38
610.499	220.38
610.707	223.38
610.916	220.38
611.124	231.38
611.332	223.38
611.54	219.38
611.748	226.38
611.955	218.38
612.163	220.38
612.371	218.38
612.579	214.38
612.787	211.38
612.995	218.38
613.203	216.38
613.411	233.38
613.618	218.38
613.826	218.38
614.034	233.38
614.242	201.38
614.449	225.38
614.657	217.38
614.865	194.38
615.072	225.38
615.28	206.38
615.488	213.38
615.695	229.38
615.903	219.38
616.111	221.38
616.318	207.38
616.526	214.38
616.733	211.38
616.941	221.38
617.148	209.38
617.356	201.38
617.563	205.38
617.771	203.38
617.978	218.38
618.185	212.38
618.393	203.38
618.6	221.38
618.807	213.38
619.015	218.38
619.222	217.38
619.429	225.38
619.637	222.38
619.844	209.38
620.051	218.38
620.258	201.38
620.466	207.38
620.673	204.38
620.88	202.38
621.087	197.38
621.294	202.38
621.501	215.38
621.708	201.38
621.915	215.38
622.122	201.38
622.329	201.38
622.536	217.38
622.743	195.38
622.95	215.38
623.157	207.38
623.364	196.38
623.571	206.38
623.778	215.38
623.985	205.38
624.192	215.38
624.399	201.38
624.606	185.38
624.812	188.38
625.019	202.38
625.226	211.38
625.433	214.38
625.639	193.38
625.846	196.38
626.053	192.38
626.259	208.38
626.466	207.38
626.673	203.38
626.879	196.38
627.086	194.38
627.293	206.38
627.499	201.38
627.706	211.38
627.912	201.38
628.119	180.38
628.325	196.38
628.532	189.38
628.738	179.38
628.945	194.38
629.151	202.38
629.357	201.38
629.564	184.38
629.77	201.38
629.976	173.38
630.183	177.38
630.389	157.38
630.595	184.38
630.802	178.38
631.008	185.38
631.214	180.38
631.42	172.38
631.627	193.38
631.833	181.38
632.039	176.38
632.245	184.38
632.451	166.38
632.657	175.38
632.863	171.38
633.069	167.38
633.275	177.38
633.481	172.38
633.688	181.38
633.893	177.38
634.099	174.38
634.305	161.38
634.511	167.38
634.717	174.38
634.923	179.38
635.129	168.38
635.335	195.38
635.541	184.38
635.747	170.38
635.952	172.38
636.158	169.38
636.364	163.38
636.57	161.38
636.775	162.38
636.981	155.38
637.187	175.38
637.392	163.38
637.598	166.38
637.804	168.38
638.009	166.38
638.215	162.38
638.421	164.38
638.626	161.38
638.832	172.38
639.037	162.38
639.243	156.38
639.448	167.38
639.654	174.38
639.859	159.38
640.065	160.38
640.27	177.38
640.475	165.38
640.681	168.38
640.886	146.38
641.091	170.38
641.297	167.38
641.502	161.38
641.707	156.38
641.913	159.38
642.118	163.38
642.323	169.38
642.528	163.38
642.733	167.38
642.939	154.38
643.144	157.38
643.349	155.38
643.554	156.38
643.759	158.38
643.964	154.38
644.169	164.38
644.374	145.38
644.579	159.38
644.784	154.38
644.989	156.38
645.194	138.38
645.399	155.38
645.604	156.38
645.809	164.38
646.014	152.38
646.219	155.38
646.423	154.38
646.628	174.38
646.833	158.38
647.038	146.38
647.243	160.38
647.447	158.38
647.652	151.38
647.857	157.38
648.062	159.38
648.266	159.38
648.471	152.38
648.676	145.38
648.88	173.38
649.085	154.38
649.289	161.38
649.494	168.38
649.698	170.38
649.903	187.38
650.107	172.38
650.312	158.38
650.516	157.38
650.721	150.38
650.925	136.38
651.13	144.38
651.334	137.38
651.539	145.38
651.743	138.38
651.947	155.38
652.152	150.38
652.356	135.38
652.56	126.38
652.764	113.38
652.969	135.38
653.173	136.38
653.377	129.38
653.581	138.38
653.785	141.38
653.99	123.38
654.194	135.38
654.398	141.38
654.602	125.38
654.806	123.38
655.01	139.38
655.214	134.38
655.418	129.38
655.622	127.38
655.826	123.38
656.03	130.38
656.234	121.38
656.438	125.38
656.642	121.38
656.846	122.38
657.049	117.38
657.253	110.38
657.457	115.38
657.661	95.38
657.865	111.38
658.068	111.38
658.272	108.38
658.476	121.38
658.68	113.38
658.883	91.38
659.087	88.38
659.291	95.38
659.494	118.38
659.698	105.38
659.901	94.38
660.105	92.38
660.309	84.38
660.512	82.38
660.716	101.38
660.919	95.38
661.123	100.38
661.326	99.38
661.53	92.38
661.733	87.38
661.936	91.38
662.14	97.38
662.343	91.38
662.546	89.38
662.75	80.38
662.953	80.38
663.156	73.38
663.36	74.38
663.563	81.38
663.766	92.38
663.969	84.38
664.173	76.38
664.376	91.38
664.579	92.38
664.782	69.38
664.985	85.38
665.188	88.38
665.391	86.38
665.594	82.38
665.797	105.38
666	93.38
666.203	93.38
666.406	76.38
666.609	69.38
666.812	85.38
667.015	78.38
667.218	78.38
667.421	85.38
667.624	71.38
667.827	74.38
668.03	67.38
668.232	73.38
668.435	81.38
668.638	82.38
668.841	85.38
669.043	86.38
669.246	63.38
669.449	84.38
669.651	89.38
669.854	80.38
670.057	90.38
670.259	89.38
670.462	86.38
670.665	88.38
670.867	95.38
671.07	74.38
671.272	72.38
671.475	77.38
671.677	89.38
671.88	83.38
672.082	97.38
672.284	82.38
672.487	81.38
672.689	73.38
672.892	67.38
