Data from 1987.PennyLincolnUp.Lamp.En5.5.200Scan.071819.P2_HRD10591_17-15-16-970.txt Node
Date: Thu Jul 18 17:15:16 EDT 2019
User: cochatt
Spectrometer: HR+D1059
Trigger mode: 1
Integration Time (sec): 1.000000E-1
Scans to average: 1
Electric dark correction enabled: true
Nonlinearity correction enabled: false
Boxcar width: 0
XAxis mode: Wavelengths
Number of Pixels in Spectrum: 2048
>>>>>Begin Spectral Data<<<<<
223.165	-3.94
223.4	-3.94
223.635	-3.94
223.869	-16.94
224.104	-35.94
224.338	-14.94
224.573	-10.94
224.808	-5.94
225.042	-4.94
225.277	-3.94
225.511	-9.94
225.746	-0.94
225.98	11.06
226.215	7.06
226.449	15.06
226.683	29.06
226.918	17.06
227.152	29.06
227.387	25.06
227.621	37.06
227.856	42.06
228.09	45.06
228.324	73.06
228.559	54.06
228.793	79.06
229.027	100.06
229.262	132.06
229.496	124.06
229.73	153.06
229.964	173.06
230.199	135.06
230.433	113.06
230.667	139.06
230.901	126.06
231.136	123.06
231.37	109.06
231.604	126.06
231.838	109.06
232.072	110.06
232.306	122.06
232.541	108.06
232.775	120.06
233.009	118.06
233.243	119.06
233.477	110.06
233.711	115.06
233.945	116.06
234.179	123.06
234.413	110.06
234.647	111.06
234.881	121.06
235.115	107.06
235.349	111.06
235.583	126.06
235.817	121.06
236.051	136.06
236.285	134.06
236.519	127.06
236.753	125.06
236.987	141.06
237.221	204.06
237.455	272.06
237.689	213.06
237.922	171.06
238.156	122.06
238.39	141.06
238.624	125.06
238.858	111.06
239.091	117.06
239.325	119.06
239.559	125.06
239.793	136.06
240.027	132.06
240.26	147.06
240.494	166.06
240.728	155.06
240.961	154.06
241.195	151.06
241.429	151.06
241.662	128.06
241.896	126.06
242.13	131.06
242.363	132.06
242.597	120.06
242.83	140.06
243.064	130.06
243.298	134.06
243.531	108.06
243.765	114.06
243.998	121.06
244.232	152.06
244.465	147.06
244.699	137.06
244.932	123.06
245.166	131.06
245.399	149.06
245.633	139.06
245.866	143.06
246.099	141.06
246.333	150.06
246.566	139.06
246.8	135.06
247.033	143.06
247.266	145.06
247.5	148.06
247.733	174.06
247.966	173.06
248.2	157.06
248.433	177.06
248.666	170.06
248.899	179.06
249.133	216.06
249.366	216.06
249.599	196.06
249.832	180.06
250.066	169.06
250.299	189.06
250.532	181.06
250.765	186.06
250.998	213.06
251.231	220.06
251.465	210.06
251.698	194.06
251.931	202.06
252.164	194.06
252.397	196.06
252.63	198.06
252.863	203.06
253.096	213.06
253.329	225.06
253.562	238.06
253.795	222.06
254.028	217.06
254.261	199.06
254.494	225.06
254.727	245.06
254.96	277.06
255.193	267.06
255.426	251.06
255.659	230.06
255.892	231.06
256.124	236.06
256.357	236.06
256.59	212.06
256.823	201.06
257.056	218.06
257.289	194.06
257.521	201.06
257.754	204.06
257.987	195.06
258.22	199.06
258.452	200.06
258.685	201.06
258.918	191.06
259.151	185.06
259.383	191.06
259.616	186.06
259.849	212.06
260.081	240.06
260.314	251.06
260.547	243.06
260.779	241.06
261.012	233.06
261.244	235.06
261.477	235.06
261.71	219.06
261.942	219.06
262.175	218.06
262.407	230.06
262.64	224.06
262.872	205.06
263.105	187.06
263.337	191.06
263.57	197.06
263.802	207.06
264.035	192.06
264.267	200.06
264.499	213.06
264.732	193.06
264.964	193.06
265.197	198.06
265.429	191.06
265.661	200.06
265.894	199.06
266.126	181.06
266.358	186.06
266.591	187.06
266.823	202.06
267.055	207.06
267.287	211.06
267.52	188.06
267.752	195.06
267.984	232.06
268.216	204.06
268.448	214.06
268.681	219.06
268.913	211.06
269.145	243.06
269.377	257.06
269.609	272.06
269.841	266.06
270.073	253.06
270.306	273.06
270.538	287.06
270.77	287.06
271.002	285.06
271.234	291.06
271.466	309.06
271.698	311.06
271.93	320.06
272.162	313.06
272.394	318.06
272.626	308.06
272.858	261.06
273.09	251.06
273.322	253.06
273.553	247.06
273.785	237.06
274.017	243.06
274.249	233.06
274.481	253.06
274.713	241.06
274.945	228.06
275.176	230.06
275.408	235.06
275.64	231.06
275.872	236.06
276.104	229.06
276.335	245.06
276.567	234.06
276.799	264.06
277.031	279.06
277.262	302.06
277.494	307.06
277.726	301.06
277.957	275.06
278.189	255.06
278.421	228.06
278.652	253.06
278.884	249.06
279.115	238.06
279.347	237.06
279.579	249.06
279.81	238.06
280.042	224.06
280.273	247.06
280.505	243.06
280.736	211.06
280.968	228.06
281.199	224.06
281.431	227.06
281.662	215.06
281.894	211.06
282.125	232.06
282.356	242.06
282.588	284.06
282.819	303.06
283.051	263.06
283.282	230.06
283.513	233.06
283.745	213.06
283.976	235.06
284.207	248.06
284.439	239.06
284.67	222.06
284.901	235.06
285.132	233.06
285.364	228.06
285.595	220.06
285.826	227.06
286.057	227.06
286.288	238.06
286.52	248.06
286.751	215.06
286.982	237.06
287.213	243.06
287.444	232.06
287.675	259.06
287.906	252.06
288.138	264.06
288.369	269.06
288.6	272.06
288.831	264.06
289.062	245.06
289.293	272.06
289.524	243.06
289.755	238.06
289.986	257.06
290.217	241.06
290.448	247.06
290.679	250.06
290.91	245.06
291.141	238.06
291.371	262.06
291.602	250.06
291.833	242.06
292.064	223.06
292.295	244.06
292.526	245.06
292.757	241.06
292.987	225.06
293.218	225.06
293.449	247.06
293.68	255.06
293.91	231.06
294.141	234.06
294.372	250.06
294.603	231.06
294.833	247.06
295.064	234.06
295.295	241.06
295.525	223.06
295.756	259.06
295.987	246.06
296.217	307.06
296.448	313.06
296.679	254.06
296.909	229.06
297.14	248.06
297.37	261.06
297.601	230.06
297.831	233.06
298.062	253.06
298.292	254.06
298.523	248.06
298.753	247.06
298.984	253.06
299.214	257.06
299.445	243.06
299.675	259.06
299.905	264.06
300.136	268.06
300.366	249.06
300.597	250.06
300.827	248.06
301.057	261.06
301.288	285.06
301.518	246.06
301.748	263.06
301.979	261.06
302.209	264.06
302.439	285.06
302.669	272.06
302.9	246.06
303.13	245.06
303.36	293.06
303.59	291.06
303.82	286.06
304.051	285.06
304.281	268.06
304.511	265.06
304.741	283.06
304.971	248.06
305.201	261.06
305.431	250.06
305.661	257.06
305.891	258.06
306.121	290.06
306.352	292.06
306.582	298.06
306.812	282.06
307.042	282.06
307.272	260.06
307.502	279.06
307.731	275.06
307.961	280.06
308.191	271.06
308.421	271.06
308.651	283.06
308.881	282.06
309.111	291.06
309.341	283.06
309.571	297.06
309.8	318.06
310.03	333.06
310.26	340.06
310.49	348.06
310.72	370.06
310.949	379.06
311.179	403.06
311.409	346.06
311.639	345.06
311.868	356.06
312.098	348.06
312.328	334.06
312.557	366.06
312.787	393.06
313.017	390.06
313.246	349.06
313.476	354.06
313.706	319.06
313.935	352.06
314.165	363.06
314.394	372.06
314.624	351.06
314.853	357.06
315.083	363.06
315.312	346.06
315.542	338.06
315.771	311.06
316.001	321.06
316.23	300.06
316.46	312.06
316.689	312.06
316.919	329.06
317.148	342.06
317.377	362.06
317.607	348.06
317.836	347.06
318.065	333.06
318.295	325.06
318.524	332.06
318.753	314.06
318.983	328.06
319.212	341.06
319.441	335.06
319.67	360.06
319.9	345.06
320.129	334.06
320.358	328.06
320.587	330.06
320.816	351.06
321.046	366.06
321.275	357.06
321.504	375.06
321.733	367.06
321.962	387.06
322.191	407.06
322.42	420.06
322.649	443.06
322.878	460.06
323.108	463.06
323.337	521.06
323.566	526.06
323.795	605.06
324.024	645.06
324.253	832.06
324.482	1239.06
324.71	1886.06
324.939	2681.06
325.168	2318.06
325.397	1269.06
325.626	805.06
325.855	621.06
326.084	558.06
326.313	560.06
326.542	557.06
326.77	619.06
326.999	750.06
327.228	1019.06
327.457	1638.06
327.686	1992.06
327.914	1383.06
328.143	866.06
328.372	748.06
328.6	676.06
328.829	622.06
329.058	635.06
329.287	669.06
329.515	619.06
329.744	527.06
329.972	483.06
330.201	511.06
330.43	552.06
330.658	620.06
330.887	661.06
331.115	639.06
331.344	531.06
331.572	477.06
331.801	469.06
332.03	480.06
332.258	433.06
332.486	440.06
332.715	395.06
332.943	383.06
333.172	382.06
333.4	387.06
333.629	399.06
333.857	410.06
334.085	409.06
334.314	389.06
334.542	381.06
334.771	403.06
334.999	393.06
335.227	390.06
335.455	371.06
335.684	359.06
335.912	377.06
336.14	368.06
336.369	383.06
336.597	382.06
336.825	396.06
337.053	393.06
337.281	379.06
337.51	350.06
337.738	361.06
337.966	377.06
338.194	393.06
338.422	378.06
338.65	373.06
338.878	378.06
339.106	362.06
339.334	396.06
339.562	377.06
339.79	364.06
340.018	354.06
340.246	378.06
340.474	381.06
340.702	375.06
340.93	355.06
341.158	363.06
341.386	362.06
341.614	382.06
341.842	373.06
342.07	363.06
342.298	370.06
342.526	347.06
342.754	356.06
342.981	359.06
343.209	327.06
343.437	367.06
343.665	366.06
343.893	382.06
344.12	383.06
344.348	359.06
344.576	362.06
344.804	391.06
345.031	408.06
345.259	410.06
345.487	401.06
345.714	393.06
345.942	361.06
346.17	364.06
346.397	357.06
346.625	395.06
346.853	360.06
347.08	371.06
347.308	385.06
347.535	390.06
347.763	390.06
347.99	370.06
348.218	391.06
348.445	394.06
348.673	395.06
348.9	386.06
349.128	365.06
349.355	362.06
349.583	345.06
349.81	332.06
350.037	363.06
350.265	385.06
350.492	362.06
350.72	357.06
350.947	359.06
351.174	381.06
351.402	385.06
351.629	384.06
351.856	379.06
352.083	399.06
352.311	409.06
352.538	415.06
352.765	408.06
352.992	400.06
353.22	410.06
353.447	380.06
353.674	382.06
353.901	346.06
354.128	354.06
354.355	345.06
354.583	354.06
354.81	346.06
355.037	352.06
355.264	321.06
355.491	326.06
355.718	337.06
355.945	324.06
356.172	309.06
356.399	315.06
356.626	340.06
356.853	328.06
357.08	318.06
357.307	313.06
357.534	304.06
357.761	332.06
357.988	327.06
358.215	323.06
358.441	329.06
358.668	334.06
358.895	348.06
359.122	334.06
359.349	373.06
359.576	395.06
359.802	403.06
360.029	451.06
360.256	498.06
360.483	429.06
360.709	388.06
360.936	391.06
361.163	378.06
361.39	386.06
361.616	404.06
361.843	393.06
362.07	385.06
362.296	387.06
362.523	377.06
362.749	366.06
362.976	353.06
363.203	371.06
363.429	372.06
363.656	353.06
363.882	349.06
364.109	351.06
364.335	339.06
364.562	364.06
364.788	341.06
365.015	357.06
365.241	356.06
365.468	376.06
365.694	375.06
365.92	363.06
366.147	358.06
366.373	335.06
366.599	348.06
366.826	341.06
367.052	326.06
367.278	359.06
367.505	344.06
367.731	358.06
367.957	356.06
368.184	341.06
368.41	347.06
368.636	348.06
368.862	354.06
369.089	353.06
369.315	363.06
369.541	365.06
369.767	361.06
369.993	328.06
370.219	350.06
370.445	338.06
370.672	353.06
370.898	331.06
371.124	308.06
371.35	347.06
371.576	331.06
371.802	317.06
372.028	328.06
372.254	334.06
372.48	309.06
372.706	316.06
372.932	310.06
373.158	331.06
373.384	319.06
373.61	318.06
373.835	347.06
374.061	344.06
374.287	339.06
374.513	323.06
374.739	338.06
374.965	335.06
375.191	327.06
375.416	317.06
375.642	329.06
375.868	331.06
376.094	326.06
376.319	326.06
376.545	336.06
376.771	330.06
376.997	310.06
377.222	331.06
377.448	335.06
377.674	331.06
377.899	337.06
378.125	333.06
378.35	317.06
378.576	339.06
378.802	320.06
379.027	336.06
379.253	340.06
379.478	320.06
379.704	300.06
379.929	328.06
380.155	338.06
380.38	344.06
380.606	345.06
380.831	352.06
381.057	340.06
381.282	324.06
381.507	338.06
381.733	329.06
381.958	325.06
382.184	302.06
382.409	341.06
382.634	307.06
382.86	334.06
383.085	346.06
383.31	319.06
383.535	321.06
383.761	341.06
383.986	321.06
384.211	342.06
384.436	330.06
384.662	346.06
384.887	338.06
385.112	343.06
385.337	323.06
385.562	339.06
385.787	372.06
386.013	355.06
386.238	348.06
386.463	380.06
386.688	340.06
386.913	355.06
387.138	342.06
387.363	358.06
387.588	348.06
387.813	353.06
388.038	361.06
388.263	364.06
388.488	342.06
388.713	336.06
388.938	355.06
389.163	361.06
389.387	376.06
389.612	348.06
389.837	347.06
390.062	353.06
390.287	339.06
390.512	354.06
390.736	351.06
390.961	335.06
391.186	341.06
391.411	353.06
391.636	365.06
391.86	341.06
392.085	357.06
392.31	379.06
392.534	361.06
392.759	375.06
392.984	342.06
393.208	354.06
393.433	366.06
393.658	358.06
393.882	355.06
394.107	358.06
394.331	352.06
394.556	373.06
394.78	347.06
395.005	347.06
395.229	359.06
395.454	375.06
395.678	383.06
395.903	364.06
396.127	382.06
396.352	389.06
396.576	391.06
396.801	364.06
397.025	375.06
397.249	369.06
397.474	362.06
397.698	367.06
397.922	378.06
398.147	405.06
398.371	393.06
398.595	379.06
398.82	394.06
399.044	406.06
399.268	412.06
399.492	397.06
399.717	431.06
399.941	451.06
400.165	481.06
400.389	497.06
400.613	471.06
400.837	439.06
401.062	406.06
401.286	407.06
401.51	388.06
401.734	397.06
401.958	406.06
402.182	398.06
402.406	417.06
402.63	417.06
402.854	427.06
403.078	400.06
403.302	411.06
403.526	425.06
403.75	442.06
403.974	421.06
404.198	397.06
404.422	415.06
404.645	422.06
404.869	419.06
405.093	436.06
405.317	480.06
405.541	502.06
405.765	448.06
405.988	454.06
406.212	478.06
406.436	506.06
406.66	515.06
406.883	473.06
407.107	485.06
407.331	535.06
407.555	602.06
407.778	611.06
408.002	546.06
408.226	480.06
408.449	472.06
408.673	483.06
408.896	507.06
409.12	550.06
409.344	523.06
409.567	461.06
409.791	469.06
410.014	437.06
410.238	425.06
410.461	429.06
410.685	446.06
410.908	437.06
411.132	487.06
411.355	529.06
411.578	493.06
411.802	453.06
412.025	414.06
412.249	433.06
412.472	430.06
412.695	420.06
412.919	430.06
413.142	404.06
413.365	403.06
413.589	419.06
413.812	411.06
414.035	384.06
414.258	415.06
414.482	392.06
414.705	401.06
414.928	392.06
415.151	395.06
415.374	403.06
415.597	393.06
415.821	396.06
416.044	386.06
416.267	392.06
416.49	409.06
416.713	404.06
416.936	409.06
417.159	411.06
417.382	415.06
417.605	415.06
417.828	434.06
418.051	446.06
418.274	437.06
418.497	400.06
418.72	415.06
418.943	412.06
419.166	426.06
419.389	423.06
419.611	439.06
419.834	424.06
420.057	424.06
420.28	435.06
420.503	420.06
420.726	417.06
420.948	446.06
421.171	487.06
421.394	505.06
421.617	461.06
421.839	455.06
422.062	437.06
422.285	454.06
422.507	521.06
422.73	604.06
422.953	589.06
423.175	501.06
423.398	476.06
423.621	474.06
423.843	493.06
424.066	507.06
424.288	507.06
424.511	522.06
424.733	558.06
424.956	643.06
425.178	631.06
425.401	632.06
425.623	653.06
425.846	555.06
426.068	501.06
426.291	499.06
426.513	530.06
426.735	529.06
426.958	579.06
427.18	651.06
427.402	759.06
427.625	844.06
427.847	813.06
428.069	661.06
428.292	573.06
428.514	545.06
428.736	503.06
428.958	491.06
429.181	463.06
429.403	485.06
429.625	476.06
429.847	511.06
430.069	585.06
430.292	554.06
430.514	513.06
430.736	443.06
430.958	469.06
431.18	444.06
431.402	435.06
431.624	433.06
431.846	412.06
432.068	428.06
432.29	426.06
432.512	435.06
432.734	463.06
432.956	443.06
433.178	436.06
433.4	447.06
433.622	431.06
433.844	445.06
434.066	435.06
434.287	442.06
434.509	438.06
434.731	440.06
434.953	462.06
435.175	484.06
435.397	490.06
435.618	513.06
435.84	545.06
436.062	651.06
436.284	691.06
436.505	592.06
436.727	540.06
436.949	501.06
437.17	468.06
437.392	477.06
437.614	502.06
437.835	561.06
438.057	669.06
438.278	765.06
438.5	761.06
438.721	793.06
438.943	775.06
439.165	636.06
439.386	541.06
439.608	552.06
439.829	545.06
440.05	573.06
440.272	617.06
440.493	589.06
440.715	534.06
440.936	518.06
441.158	484.06
441.379	477.06
441.6	495.06
441.822	516.06
442.043	572.06
442.264	648.06
442.486	684.06
442.707	591.06
442.928	541.06
443.149	535.06
443.371	584.06
443.592	600.06
443.813	700.06
444.034	759.06
444.255	623.06
444.476	536.06
444.698	531.06
444.919	497.06
445.14	614.06
445.361	564.06
445.582	547.06
445.803	630.06
446.024	755.06
446.245	747.06
446.466	679.06
446.687	593.06
446.908	547.06
447.129	529.06
447.35	475.06
447.571	487.06
447.792	487.06
448.013	492.06
448.234	524.06
448.455	540.06
448.675	654.06
448.896	800.06
449.117	663.06
449.338	630.06
449.559	736.06
449.779	806.06
450	658.06
450.221	571.06
450.442	492.06
450.662	494.06
450.883	517.06
451.104	560.06
451.324	540.06
451.545	479.06
451.766	483.06
451.986	463.06
452.207	426.06
452.428	424.06
452.648	417.06
452.869	423.06
453.089	451.06
453.31	465.06
453.53	451.06
453.751	436.06
453.971	430.06
454.192	473.06
454.412	478.06
454.633	454.06
454.853	431.06
455.073	424.06
455.294	469.06
455.514	543.06
455.734	553.06
455.955	458.06
456.175	418.06
456.395	411.06
456.616	391.06
456.836	399.06
457.056	389.06
457.276	396.06
457.497	400.06
457.717	384.06
457.937	413.06
458.157	410.06
458.377	412.06
458.598	457.06
458.818	531.06
459.038	649.06
459.258	647.06
459.478	541.06
459.698	471.06
459.918	424.06
460.138	430.06
460.358	424.06
460.578	412.06
460.798	445.06
461.018	430.06
461.238	419.06
461.458	424.06
461.678	409.06
461.898	418.06
462.118	413.06
462.338	418.06
462.558	447.06
462.777	436.06
462.997	436.06
463.217	432.06
463.437	449.06
463.657	450.06
463.876	439.06
464.096	427.06
464.316	439.06
464.536	472.06
464.755	482.06
464.975	470.06
465.195	517.06
465.414	686.06
465.634	597.06
465.854	532.06
466.073	470.06
466.293	437.06
466.512	431.06
466.732	444.06
466.951	421.06
467.171	416.06
467.391	419.06
467.61	431.06
467.829	475.06
468.049	448.06
468.268	415.06
468.488	414.06
468.707	401.06
468.927	435.06
469.146	415.06
469.365	433.06
469.585	419.06
469.804	455.06
470.023	466.06
470.243	447.06
470.462	461.06
470.681	480.06
470.901	469.06
471.12	455.06
471.339	432.06
471.558	444.06
471.777	438.06
471.997	417.06
472.216	421.06
472.435	431.06
472.654	406.06
472.873	431.06
473.092	427.06
473.311	412.06
473.53	418.06
473.749	435.06
473.968	503.06
474.187	605.06
474.406	648.06
474.625	516.06
474.844	481.06
475.063	445.06
475.282	458.06
475.501	455.06
475.72	439.06
475.939	453.06
476.158	455.06
476.377	453.06
476.596	439.06
476.814	475.06
477.033	460.06
477.252	459.06
477.471	441.06
477.69	469.06
477.908	465.06
478.127	479.06
478.346	458.06
478.564	475.06
478.783	476.06
479.002	471.06
479.22	478.06
479.439	495.06
479.658	551.06
479.876	547.06
480.095	539.06
480.313	588.06
480.532	536.06
480.751	522.06
480.969	544.06
481.188	570.06
481.406	547.06
481.624	507.06
481.843	517.06
482.061	515.06
482.28	509.06
482.498	503.06
482.717	492.06
482.935	518.06
483.153	509.06
483.372	513.06
483.59	520.06
483.808	509.06
484.027	518.06
484.245	515.06
484.463	508.06
484.681	510.06
484.9	526.06
485.118	519.06
485.336	527.06
485.554	550.06
485.772	540.06
485.99	546.06
486.209	531.06
486.427	535.06
486.645	561.06
486.863	594.06
487.081	587.06
487.299	592.06
487.517	566.06
487.735	549.06
487.953	559.06
488.171	564.06
488.389	567.06
488.607	589.06
488.825	567.06
489.043	543.06
489.261	570.06
489.479	581.06
489.696	561.06
489.914	561.06
490.132	569.06
490.35	609.06
490.568	595.06
490.786	607.06
491.003	600.06
491.221	611.06
491.439	606.06
491.657	619.06
491.874	633.06
492.092	649.06
492.31	650.06
492.527	653.06
492.745	649.06
492.963	654.06
493.18	665.06
493.398	670.06
493.615	670.06
493.833	652.06
494.05	707.06
494.268	669.06
494.485	665.06
494.703	667.06
494.92	687.06
495.138	688.06
495.355	689.06
495.573	674.06
495.79	677.06
496.008	683.06
496.225	680.06
496.442	681.06
496.66	668.06
496.877	651.06
497.094	678.06
497.312	683.06
497.529	676.06
497.746	684.06
497.963	693.06
498.181	718.06
498.398	737.06
498.615	733.06
498.832	735.06
499.049	734.06
499.267	749.06
499.484	760.06
499.701	771.06
499.918	742.06
500.135	775.06
500.352	802.06
500.569	792.06
500.786	778.06
501.003	776.06
501.22	796.06
501.437	773.06
501.654	790.06
501.871	794.06
502.088	804.06
502.305	791.06
502.522	725.06
502.739	745.06
502.956	699.06
503.172	699.06
503.389	694.06
503.606	717.06
503.823	713.06
504.04	720.06
504.256	708.06
504.473	680.06
504.69	685.06
504.907	699.06
505.123	671.06
505.34	666.06
505.557	660.06
505.773	660.06
505.99	670.06
506.207	682.06
506.423	677.06
506.64	693.06
506.856	690.06
507.073	668.06
507.289	661.06
507.506	691.06
507.722	691.06
507.939	726.06
508.155	708.06
508.372	677.06
508.588	677.06
508.805	639.06
509.021	637.06
509.238	666.06
509.454	696.06
509.67	683.06
509.887	669.06
510.103	669.06
510.319	690.06
510.536	838.06
510.752	1550.06
510.968	1247.06
511.184	743.06
511.401	683.06
511.617	649.06
511.833	659.06
512.049	651.06
512.265	643.06
512.481	628.06
512.698	618.06
512.914	623.06
513.13	640.06
513.346	618.06
513.562	659.06
513.778	639.06
513.994	669.06
514.21	683.06
514.426	728.06
514.642	810.06
514.858	855.06
515.074	913.06
515.29	1161.06
515.506	1837.06
515.721	1435.06
515.937	948.06
516.153	779.06
516.369	732.06
516.585	705.06
516.801	683.06
517.016	671.06
517.232	661.06
517.448	656.06
517.664	642.06
517.879	649.06
518.095	621.06
518.311	634.06
518.527	630.06
518.742	639.06
518.958	645.06
519.173	617.06
519.389	624.06
519.605	645.06
519.82	657.06
520.036	708.06
520.251	725.06
520.467	791.06
520.682	779.06
520.898	797.06
521.113	834.06
521.329	933.06
521.544	1097.06
521.76	1479.06
521.975	2490.06
522.19	2430.06
522.406	1261.06
522.621	886.06
522.836	759.06
523.052	697.06
523.267	667.06
523.482	657.06
523.698	621.06
523.913	604.06
524.128	618.06
524.343	625.06
524.559	577.06
524.774	565.06
524.989	555.06
525.204	561.06
525.419	583.06
525.634	549.06
525.849	542.06
526.064	523.06
526.28	513.06
526.495	529.06
526.71	482.06
526.925	510.06
527.14	495.06
527.355	535.06
527.57	521.06
527.785	526.06
527.999	501.06
528.214	506.06
528.429	493.06
528.644	477.06
528.859	502.06
529.074	505.06
529.289	554.06
529.503	669.06
529.718	659.06
529.933	574.06
530.148	560.06
530.363	533.06
530.577	502.06
530.792	499.06
531.007	476.06
531.221	474.06
531.436	476.06
531.651	483.06
531.865	461.06
532.08	459.06
532.295	469.06
532.509	460.06
532.724	465.06
532.938	468.06
533.153	467.06
533.367	467.06
533.582	452.06
533.796	482.06
534.011	454.06
534.225	453.06
534.44	428.06
534.654	450.06
534.868	465.06
535.083	457.06
535.297	446.06
535.511	488.06
535.726	487.06
535.94	481.06
536.154	463.06
536.369	477.06
536.583	462.06
536.797	443.06
537.011	440.06
537.225	443.06
537.44	453.06
537.654	428.06
537.868	427.06
538.082	459.06
538.296	455.06
538.51	437.06
538.724	454.06
538.938	437.06
539.153	459.06
539.367	486.06
539.581	479.06
539.795	455.06
540.009	455.06
540.222	421.06
540.436	455.06
540.65	453.06
540.864	451.06
541.078	457.06
541.292	453.06
541.506	455.06
541.72	450.06
541.934	446.06
542.147	442.06
542.361	446.06
542.575	417.06
542.789	426.06
543.002	424.06
543.216	437.06
543.43	456.06
543.644	460.06
543.857	447.06
544.071	437.06
544.285	431.06
544.498	445.06
544.712	433.06
544.925	434.06
545.139	422.06
545.352	429.06
545.566	417.06
545.779	419.06
545.993	438.06
546.206	397.06
546.42	401.06
546.633	402.06
546.847	392.06
547.06	418.06
547.274	393.06
547.487	422.06
547.7	395.06
547.914	385.06
548.127	419.06
548.34	392.06
548.554	371.06
548.767	413.06
548.98	415.06
549.193	398.06
549.407	391.06
549.62	412.06
549.833	400.06
550.046	410.06
550.259	391.06
550.473	401.06
550.686	403.06
550.899	390.06
551.112	383.06
551.325	398.06
551.538	380.06
551.751	395.06
551.964	394.06
552.177	393.06
552.39	406.06
552.603	394.06
552.816	385.06
553.029	387.06
553.242	374.06
553.455	401.06
553.667	411.06
553.88	411.06
554.093	438.06
554.306	404.06
554.519	408.06
554.732	402.06
554.944	390.06
555.157	401.06
555.37	387.06
555.583	383.06
555.795	378.06
556.008	393.06
556.221	357.06
556.433	377.06
556.646	375.06
556.859	369.06
557.071	376.06
557.284	371.06
557.496	355.06
557.709	360.06
557.921	356.06
558.134	374.06
558.346	358.06
558.559	374.06
558.771	359.06
558.984	361.06
559.196	382.06
559.409	365.06
559.621	355.06
559.833	363.06
560.046	378.06
560.258	348.06
560.47	359.06
560.683	366.06
560.895	347.06
561.107	359.06
561.32	360.06
561.532	347.06
561.744	367.06
561.956	349.06
562.168	355.06
562.381	353.06
562.593	351.06
562.805	356.06
563.017	350.06
563.229	367.06
563.441	358.06
563.653	348.06
563.865	361.06
564.077	354.06
564.289	345.06
564.501	353.06
564.713	364.06
564.925	381.06
565.137	391.06
565.349	379.06
565.561	362.06
565.773	385.06
565.985	383.06
566.197	393.06
566.408	391.06
566.62	382.06
566.832	370.06
567.044	401.06
567.255	398.06
567.467	399.06
567.679	386.06
567.891	395.06
568.102	393.06
568.314	373.06
568.526	378.06
568.737	361.06
568.949	373.06
569.161	363.06
569.372	365.06
569.584	362.06
569.795	355.06
570.007	364.06
570.218	428.06
570.43	425.06
570.641	369.06
570.853	334.06
571.064	353.06
571.276	340.06
571.487	320.06
571.698	318.06
571.91	328.06
572.121	330.06
572.333	338.06
572.544	305.06
572.755	326.06
572.966	313.06
573.178	343.06
573.389	320.06
573.6	334.06
573.811	315.06
574.023	298.06
574.234	332.06
574.445	319.06
574.656	321.06
574.867	306.06
575.078	315.06
575.289	316.06
575.501	305.06
575.712	291.06
575.923	322.06
576.134	312.06
576.345	309.06
576.556	332.06
576.767	309.06
576.978	306.06
577.188	316.06
577.399	303.06
577.61	307.06
577.821	314.06
578.032	314.06
578.243	385.06
578.454	721.06
578.665	498.06
578.875	334.06
579.086	300.06
579.297	293.06
579.508	301.06
579.718	303.06
579.929	308.06
580.14	294.06
580.35	278.06
580.561	267.06
580.772	283.06
580.982	298.06
581.193	290.06
581.403	279.06
581.614	316.06
581.825	278.06
582.035	279.06
582.246	312.06
582.456	275.06
582.667	287.06
582.877	286.06
583.087	298.06
583.298	285.06
583.508	291.06
583.719	270.06
583.929	278.06
584.139	294.06
584.35	269.06
584.56	277.06
584.77	279.06
584.981	289.06
585.191	285.06
585.401	278.06
585.611	285.06
585.821	294.06
586.032	281.06
586.242	291.06
586.452	285.06
586.662	297.06
586.872	282.06
587.082	297.06
587.292	267.06
587.502	260.06
587.713	297.06
587.923	278.06
588.133	273.06
588.343	268.06
588.553	293.06
588.762	263.06
588.972	283.06
589.182	310.06
589.392	313.06
589.602	301.06
589.812	303.06
590.022	281.06
590.232	266.06
590.441	287.06
590.651	269.06
590.861	268.06
591.071	270.06
591.281	287.06
591.49	261.06
591.7	269.06
591.91	279.06
592.119	275.06
592.329	277.06
592.539	286.06
592.748	294.06
592.958	278.06
593.167	282.06
593.377	259.06
593.587	269.06
593.796	266.06
594.006	271.06
594.215	262.06
594.424	263.06
594.634	265.06
594.843	266.06
595.053	271.06
595.262	266.06
595.472	266.06
595.681	248.06
595.89	262.06
596.1	263.06
596.309	253.06
596.518	264.06
596.727	267.06
596.937	242.06
597.146	259.06
597.355	274.06
597.564	261.06
597.774	255.06
597.983	238.06
598.192	257.06
598.401	235.06
598.61	261.06
598.819	243.06
599.028	236.06
599.237	243.06
599.446	260.06
599.655	250.06
599.864	242.06
600.073	227.06
600.282	244.06
600.491	254.06
600.7	234.06
600.909	216.06
601.118	245.06
601.327	236.06
601.536	228.06
601.745	226.06
601.953	231.06
602.162	245.06
602.371	238.06
602.58	235.06
602.789	241.06
602.997	223.06
603.206	243.06
603.415	231.06
603.623	230.06
603.832	238.06
604.041	237.06
604.249	228.06
604.458	227.06
604.666	215.06
604.875	219.06
605.084	219.06
605.292	224.06
605.501	231.06
605.709	210.06
605.918	219.06
606.126	209.06
606.334	218.06
606.543	226.06
606.751	226.06
606.96	220.06
607.168	219.06
607.376	225.06
607.585	219.06
607.793	214.06
608.001	218.06
608.21	238.06
608.418	226.06
608.626	224.06
608.834	220.06
609.043	213.06
609.251	226.06
609.459	210.06
609.667	217.06
609.875	211.06
610.083	216.06
610.291	212.06
610.499	206.06
610.707	211.06
610.916	200.06
611.124	218.06
611.332	216.06
611.54	228.06
611.748	231.06
611.955	223.06
612.163	222.06
612.371	225.06
612.579	218.06
612.787	215.06
612.995	222.06
613.203	230.06
613.411	218.06
613.618	202.06
613.826	203.06
614.034	228.06
614.242	226.06
614.449	210.06
614.657	202.06
614.865	215.06
615.072	229.06
615.28	221.06
615.488	214.06
615.695	229.06
615.903	213.06
616.111	217.06
616.318	222.06
616.526	203.06
616.733	212.06
616.941	203.06
617.148	211.06
617.356	211.06
617.563	227.06
617.771	212.06
617.978	223.06
618.185	198.06
618.393	212.06
618.6	219.06
618.807	204.06
619.015	203.06
619.222	202.06
619.429	211.06
619.637	211.06
619.844	198.06
620.051	219.06
620.258	203.06
620.466	214.06
620.673	208.06
620.88	200.06
621.087	214.06
621.294	203.06
621.501	202.06
621.708	202.06
621.915	215.06
622.122	216.06
622.329	213.06
622.536	221.06
622.743	209.06
622.95	203.06
623.157	207.06
623.364	208.06
623.571	201.06
623.778	194.06
623.985	196.06
624.192	205.06
624.399	203.06
624.606	204.06
624.812	223.06
625.019	203.06
625.226	209.06
625.433	202.06
625.639	203.06
625.846	193.06
626.053	186.06
626.259	203.06
626.466	191.06
626.673	182.06
626.879	198.06
627.086	210.06
627.293	191.06
627.499	190.06
627.706	198.06
627.912	185.06
628.119	201.06
628.325	186.06
628.532	200.06
628.738	192.06
628.945	210.06
629.151	195.06
629.357	184.06
629.564	207.06
629.77	185.06
629.976	188.06
630.183	187.06
630.389	206.06
630.595	185.06
630.802	192.06
631.008	187.06
631.214	183.06
631.42	190.06
631.627	173.06
631.833	182.06
632.039	174.06
632.245	169.06
632.451	165.06
632.657	179.06
632.863	186.06
633.069	177.06
633.275	186.06
633.481	187.06
633.688	176.06
633.893	174.06
634.099	175.06
634.305	189.06
634.511	175.06
634.717	172.06
634.923	165.06
635.129	154.06
635.335	173.06
635.541	157.06
635.747	181.06
635.952	186.06
636.158	187.06
636.364	171.06
636.57	183.06
636.775	161.06
636.981	168.06
637.187	173.06
637.392	170.06
637.598	166.06
637.804	169.06
638.009	171.06
638.215	167.06
638.421	144.06
638.626	154.06
638.832	162.06
639.037	165.06
639.243	163.06
639.448	158.06
639.654	162.06
639.859	161.06
640.065	178.06
640.27	162.06
640.475	172.06
640.681	169.06
640.886	157.06
641.091	157.06
641.297	172.06
641.502	156.06
641.707	164.06
641.913	149.06
642.118	165.06
642.323	171.06
642.528	171.06
642.733	157.06
642.939	163.06
643.144	153.06
643.349	159.06
643.554	152.06
643.759	171.06
643.964	157.06
644.169	151.06
644.374	143.06
644.579	159.06
644.784	162.06
644.989	145.06
645.194	166.06
645.399	164.06
645.604	155.06
645.809	172.06
646.014	156.06
646.219	140.06
646.423	174.06
646.628	154.06
646.833	149.06
647.038	147.06
647.243	153.06
647.447	143.06
647.652	144.06
647.857	155.06
648.062	150.06
648.266	154.06
648.471	153.06
648.676	150.06
648.88	148.06
649.085	168.06
649.289	149.06
649.494	167.06
649.698	169.06
649.903	179.06
650.107	157.06
650.312	157.06
650.516	154.06
650.721	157.06
650.925	142.06
651.13	159.06
651.334	139.06
651.539	143.06
651.743	146.06
651.947	121.06
652.152	132.06
652.356	142.06
652.56	138.06
652.764	130.06
652.969	128.06
653.173	126.06
653.377	124.06
653.581	132.06
653.785	126.06
653.99	117.06
654.194	122.06
654.398	130.06
654.602	138.06
654.806	135.06
655.01	128.06
655.214	150.06
655.418	139.06
655.622	133.06
655.826	122.06
656.03	118.06
656.234	101.06
656.438	110.06
656.642	113.06
656.846	115.06
657.049	119.06
657.253	125.06
657.457	120.06
657.661	127.06
657.865	112.06
658.068	110.06
658.272	121.06
658.476	109.06
658.68	101.06
658.883	106.06
659.087	110.06
659.291	119.06
659.494	103.06
659.698	106.06
659.901	95.06
660.105	99.06
660.309	95.06
660.512	84.06
660.716	109.06
660.919	93.06
661.123	95.06
661.326	92.06
661.53	78.06
661.733	88.06
661.936	95.06
662.14	87.06
662.343	86.06
662.546	82.06
662.75	78.06
662.953	93.06
663.156	95.06
663.36	84.06
663.563	84.06
663.766	85.06
663.969	74.06
664.173	103.06
664.376	93.06
664.579	94.06
664.782	87.06
664.985	98.06
665.188	80.06
665.391	84.06
665.594	74.06
665.797	70.06
666	65.06
666.203	80.06
666.406	81.06
666.609	94.06
666.812	69.06
667.015	75.06
667.218	76.06
667.421	91.06
667.624	98.06
667.827	76.06
668.03	80.06
668.232	91.06
668.435	84.06
668.638	77.06
668.841	86.06
669.043	90.06
669.246	69.06
669.449	79.06
669.651	77.06
669.854	75.06
670.057	91.06
670.259	80.06
670.462	66.06
670.665	81.06
670.867	73.06
671.07	70.06
671.272	84.06
671.475	85.06
671.677	80.06
671.88	72.06
672.082	88.06
672.284	89.06
672.487	74.06
672.689	76.06
672.892	79.06
