Data from 1987.PennyLincolnUp.Lamp.En5.5.200Scan.071819.P2_HRD10591_17-14-20-971.txt Node
Date: Thu Jul 18 17:14:20 EDT 2019
User: cochatt
Spectrometer: HR+D1059
Trigger mode: 1
Integration Time (sec): 1.000000E-1
Scans to average: 1
Electric dark correction enabled: true
Nonlinearity correction enabled: false
Boxcar width: 0
XAxis mode: Wavelengths
Number of Pixels in Spectrum: 2048
>>>>>Begin Spectral Data<<<<<
223.165	-32.31
223.4	-32.31
223.635	-32.31
223.869	-16.31
224.104	-25.31
224.338	-8.31
224.573	-12.31
224.808	-14.31
225.042	1.69
225.277	-11.31
225.511	5.69
225.746	7.69
225.98	-2.31
226.215	18.69
226.449	11.69
226.683	9.69
226.918	26.69
227.152	40.69
227.387	38.69
227.621	33.69
227.856	36.69
228.09	41.69
228.324	54.69
228.559	71.69
228.793	69.69
229.027	96.69
229.262	111.69
229.496	114.69
229.73	135.69
229.964	163.69
230.199	137.69
230.433	112.69
230.667	127.69
230.901	115.69
231.136	104.69
231.37	115.69
231.604	119.69
231.838	116.69
232.072	109.69
232.306	121.69
232.541	121.69
232.775	118.69
233.009	105.69
233.243	106.69
233.477	103.69
233.711	110.69
233.945	119.69
234.179	117.69
234.413	115.69
234.647	111.69
234.881	109.69
235.115	120.69
235.349	119.69
235.583	121.69
235.817	117.69
236.051	137.69
236.285	122.69
236.519	123.69
236.753	123.69
236.987	132.69
237.221	175.69
237.455	232.69
237.689	194.69
237.922	138.69
238.156	136.69
238.39	124.69
238.624	122.69
238.858	116.69
239.091	110.69
239.325	108.69
239.559	111.69
239.793	97.69
240.027	125.69
240.26	141.69
240.494	172.69
240.728	139.69
240.961	118.69
241.195	139.69
241.429	141.69
241.662	131.69
241.896	121.69
242.13	125.69
242.363	122.69
242.597	119.69
242.83	140.69
243.064	137.69
243.298	126.69
243.531	133.69
243.765	141.69
243.998	123.69
244.232	146.69
244.465	124.69
244.699	133.69
244.932	140.69
245.166	141.69
245.399	131.69
245.633	122.69
245.866	148.69
246.099	143.69
246.333	130.69
246.566	140.69
246.8	125.69
247.033	150.69
247.266	134.69
247.5	133.69
247.733	159.69
247.966	169.69
248.2	164.69
248.433	158.69
248.666	159.69
248.899	176.69
249.133	178.69
249.366	197.69
249.599	195.69
249.832	181.69
250.066	180.69
250.299	168.69
250.532	183.69
250.765	187.69
250.998	197.69
251.231	208.69
251.465	196.69
251.698	184.69
251.931	188.69
252.164	192.69
252.397	189.69
252.63	190.69
252.863	189.69
253.096	190.69
253.329	210.69
253.562	216.69
253.795	213.69
254.028	204.69
254.261	204.69
254.494	211.69
254.727	224.69
254.96	252.69
255.193	263.69
255.426	240.69
255.659	204.69
255.892	203.69
256.124	204.69
256.357	213.69
256.59	192.69
256.823	190.69
257.056	193.69
257.289	187.69
257.521	191.69
257.754	172.69
257.987	177.69
258.22	185.69
258.452	189.69
258.685	172.69
258.918	195.69
259.151	181.69
259.383	190.69
259.616	200.69
259.849	184.69
260.081	216.69
260.314	244.69
260.547	235.69
260.779	224.69
261.012	212.69
261.244	210.69
261.477	204.69
261.71	182.69
261.942	204.69
262.175	227.69
262.407	221.69
262.64	191.69
262.872	194.69
263.105	189.69
263.337	201.69
263.57	192.69
263.802	181.69
264.035	187.69
264.267	179.69
264.499	172.69
264.732	186.69
264.964	182.69
265.197	188.69
265.429	182.69
265.661	179.69
265.894	185.69
266.126	191.69
266.358	193.69
266.591	189.69
266.823	176.69
267.055	196.69
267.287	186.69
267.52	182.69
267.752	190.69
267.984	191.69
268.216	202.69
268.448	196.69
268.681	188.69
268.913	206.69
269.145	218.69
269.377	239.69
269.609	236.69
269.841	225.69
270.073	237.69
270.306	262.69
270.538	275.69
270.77	265.69
271.002	288.69
271.234	259.69
271.466	259.69
271.698	293.69
271.93	293.69
272.162	261.69
272.394	284.69
272.626	267.69
272.858	252.69
273.09	262.69
273.322	235.69
273.553	218.69
273.785	234.69
274.017	224.69
274.249	232.69
274.481	221.69
274.713	226.69
274.945	208.69
275.176	219.69
275.408	230.69
275.64	223.69
275.872	202.69
276.104	214.69
276.335	208.69
276.567	234.69
276.799	253.69
277.031	261.69
277.262	269.69
277.494	270.69
277.726	247.69
277.957	230.69
278.189	243.69
278.421	214.69
278.652	222.69
278.884	223.69
279.115	226.69
279.347	214.69
279.579	217.69
279.81	219.69
280.042	220.69
280.273	200.69
280.505	216.69
280.736	191.69
280.968	211.69
281.199	185.69
281.431	216.69
281.662	213.69
281.894	218.69
282.125	243.69
282.356	227.69
282.588	261.69
282.819	253.69
283.051	222.69
283.282	232.69
283.513	198.69
283.745	220.69
283.976	216.69
284.207	216.69
284.439	225.69
284.67	224.69
284.901	207.69
285.132	230.69
285.364	224.69
285.595	212.69
285.826	216.69
286.057	215.69
286.288	226.69
286.52	211.69
286.751	216.69
286.982	224.69
287.213	196.69
287.444	220.69
287.675	219.69
287.906	236.69
288.138	221.69
288.369	219.69
288.6	224.69
288.831	224.69
289.062	216.69
289.293	224.69
289.524	213.69
289.755	229.69
289.986	222.69
290.217	213.69
290.448	219.69
290.679	219.69
290.91	208.69
291.141	223.69
291.371	232.69
291.602	233.69
291.833	220.69
292.064	242.69
292.295	219.69
292.526	216.69
292.757	234.69
292.987	223.69
293.218	202.69
293.449	204.69
293.68	218.69
293.91	201.69
294.141	222.69
294.372	222.69
294.603	211.69
294.833	222.69
295.064	223.69
295.295	219.69
295.525	201.69
295.756	223.69
295.987	248.69
296.217	273.69
296.448	288.69
296.679	239.69
296.909	231.69
297.14	219.69
297.37	215.69
297.601	218.69
297.831	223.69
298.062	234.69
298.292	225.69
298.523	239.69
298.753	215.69
298.984	235.69
299.214	232.69
299.445	239.69
299.675	239.69
299.905	227.69
300.136	232.69
300.366	235.69
300.597	252.69
300.827	233.69
301.057	244.69
301.288	253.69
301.518	239.69
301.748	242.69
301.979	243.69
302.209	227.69
302.439	242.69
302.669	257.69
302.9	234.69
303.13	247.69
303.36	249.69
303.59	244.69
303.82	255.69
304.051	259.69
304.281	235.69
304.511	244.69
304.741	251.69
304.971	253.69
305.201	242.69
305.431	227.69
305.661	245.69
305.891	233.69
306.121	251.69
306.352	254.69
306.582	259.69
306.812	265.69
307.042	239.69
307.272	245.69
307.502	242.69
307.731	249.69
307.961	255.69
308.191	253.69
308.421	273.69
308.651	256.69
308.881	257.69
309.111	266.69
309.341	273.69
309.571	278.69
309.8	284.69
310.03	290.69
310.26	307.69
310.49	314.69
310.72	324.69
310.949	329.69
311.179	347.69
311.409	335.69
311.639	309.69
311.868	307.69
312.098	303.69
312.328	303.69
312.557	342.69
312.787	344.69
313.017	360.69
313.246	315.69
313.476	294.69
313.706	310.69
313.935	305.69
314.165	329.69
314.394	322.69
314.624	329.69
314.853	332.69
315.083	316.69
315.312	316.69
315.542	294.69
315.771	283.69
316.001	288.69
316.23	290.69
316.46	299.69
316.689	311.69
316.919	305.69
317.148	321.69
317.377	304.69
317.607	328.69
317.836	306.69
318.065	310.69
318.295	328.69
318.524	291.69
318.753	292.69
318.983	278.69
319.212	306.69
319.441	324.69
319.67	305.69
319.9	305.69
320.129	305.69
320.358	322.69
320.587	301.69
320.816	317.69
321.046	336.69
321.275	330.69
321.504	329.69
321.733	327.69
321.962	334.69
322.191	332.69
322.42	373.69
322.649	386.69
322.878	377.69
323.108	421.69
323.337	428.69
323.566	469.69
323.795	503.69
324.024	584.69
324.253	697.69
324.482	989.69
324.71	1547.69
324.939	2136.69
325.168	1941.69
325.397	1051.69
325.626	683.69
325.855	560.69
326.084	503.69
326.313	471.69
326.542	472.69
326.77	539.69
326.999	630.69
327.228	883.69
327.457	1325.69
327.686	1665.69
327.914	1162.69
328.143	735.69
328.372	608.69
328.6	568.69
328.829	542.69
329.058	567.69
329.287	561.69
329.515	488.69
329.744	470.69
329.972	436.69
330.201	455.69
330.43	479.69
330.658	543.69
330.887	560.69
331.115	567.69
331.344	499.69
331.572	441.69
331.801	415.69
332.03	419.69
332.258	409.69
332.486	385.69
332.715	360.69
332.943	365.69
333.172	350.69
333.4	336.69
333.629	363.69
333.857	374.69
334.085	358.69
334.314	363.69
334.542	362.69
334.771	365.69
334.999	361.69
335.227	363.69
335.455	347.69
335.684	343.69
335.912	339.69
336.14	342.69
336.369	347.69
336.597	331.69
336.825	341.69
337.053	335.69
337.281	343.69
337.51	332.69
337.738	348.69
337.966	347.69
338.194	343.69
338.422	359.69
338.65	341.69
338.878	329.69
339.106	340.69
339.334	332.69
339.562	315.69
339.79	349.69
340.018	320.69
340.246	356.69
340.474	338.69
340.702	324.69
340.93	343.69
341.158	344.69
341.386	340.69
341.614	328.69
341.842	336.69
342.07	331.69
342.298	339.69
342.526	332.69
342.754	332.69
342.981	323.69
343.209	313.69
343.437	345.69
343.665	315.69
343.893	316.69
344.12	339.69
344.348	343.69
344.576	347.69
344.804	341.69
345.031	348.69
345.259	374.69
345.487	347.69
345.714	337.69
345.942	333.69
346.17	337.69
346.397	330.69
346.625	325.69
346.853	341.69
347.08	325.69
347.308	347.69
347.535	354.69
347.763	347.69
347.99	351.69
348.218	348.69
348.445	349.69
348.673	359.69
348.9	337.69
349.128	340.69
349.355	324.69
349.583	334.69
349.81	323.69
350.037	321.69
350.265	323.69
350.492	327.69
350.72	313.69
350.947	317.69
351.174	336.69
351.402	352.69
351.629	351.69
351.856	359.69
352.083	356.69
352.311	357.69
352.538	377.69
352.765	381.69
352.992	343.69
353.22	364.69
353.447	338.69
353.674	328.69
353.901	314.69
354.128	314.69
354.355	318.69
354.583	303.69
354.81	319.69
355.037	323.69
355.264	307.69
355.491	305.69
355.718	270.69
355.945	307.69
356.172	298.69
356.399	303.69
356.626	296.69
356.853	299.69
357.08	293.69
357.307	285.69
357.534	316.69
357.761	307.69
357.988	298.69
358.215	298.69
358.441	316.69
358.668	311.69
358.895	316.69
359.122	305.69
359.349	335.69
359.576	343.69
359.802	377.69
360.029	398.69
360.256	404.69
360.483	405.69
360.709	361.69
360.936	321.69
361.163	347.69
361.39	343.69
361.616	356.69
361.843	342.69
362.07	342.69
362.296	336.69
362.523	356.69
362.749	339.69
362.976	334.69
363.203	341.69
363.429	339.69
363.656	339.69
363.882	324.69
364.109	312.69
364.335	304.69
364.562	308.69
364.788	307.69
365.015	306.69
365.241	322.69
365.468	284.69
365.694	330.69
365.92	325.69
366.147	315.69
366.373	323.69
366.599	293.69
366.826	331.69
367.052	308.69
367.278	326.69
367.505	317.69
367.731	331.69
367.957	310.69
368.184	331.69
368.41	322.69
368.636	338.69
368.862	345.69
369.089	328.69
369.315	317.69
369.541	324.69
369.767	320.69
369.993	313.69
370.219	319.69
370.445	320.69
370.672	314.69
370.898	295.69
371.124	300.69
371.35	306.69
371.576	319.69
371.802	296.69
372.028	298.69
372.254	305.69
372.48	298.69
372.706	315.69
372.932	299.69
373.158	312.69
373.384	301.69
373.61	322.69
373.835	295.69
374.061	309.69
374.287	307.69
374.513	307.69
374.739	309.69
374.965	313.69
375.191	317.69
375.416	309.69
375.642	314.69
375.868	305.69
376.094	303.69
376.319	305.69
376.545	297.69
376.771	300.69
376.997	300.69
377.222	308.69
377.448	309.69
377.674	313.69
377.899	301.69
378.125	306.69
378.35	293.69
378.576	297.69
378.802	312.69
379.027	297.69
379.253	311.69
379.478	285.69
379.704	307.69
379.929	297.69
380.155	322.69
380.38	321.69
380.606	333.69
380.831	330.69
381.057	341.69
381.282	309.69
381.507	299.69
381.733	319.69
381.958	303.69
382.184	300.69
382.409	319.69
382.634	297.69
382.86	296.69
383.085	315.69
383.31	307.69
383.535	319.69
383.761	325.69
383.986	308.69
384.211	345.69
384.436	340.69
384.662	338.69
384.887	305.69
385.112	329.69
385.337	338.69
385.562	337.69
385.787	323.69
386.013	326.69
386.238	340.69
386.463	342.69
386.688	315.69
386.913	333.69
387.138	280.69
387.363	325.69
387.588	317.69
387.813	324.69
388.038	327.69
388.263	344.69
388.488	328.69
388.713	333.69
388.938	328.69
389.163	330.69
389.387	333.69
389.612	311.69
389.837	326.69
390.062	341.69
390.287	321.69
390.512	320.69
390.736	326.69
390.961	317.69
391.186	320.69
391.411	321.69
391.636	323.69
391.86	302.69
392.085	324.69
392.31	323.69
392.534	328.69
392.759	321.69
392.984	320.69
393.208	320.69
393.433	352.69
393.658	364.69
393.882	332.69
394.107	327.69
394.331	327.69
394.556	330.69
394.78	323.69
395.005	336.69
395.229	324.69
395.454	341.69
395.678	344.69
395.903	348.69
396.127	388.69
396.352	369.69
396.576	362.69
396.801	343.69
397.025	347.69
397.249	325.69
397.474	350.69
397.698	335.69
397.922	354.69
398.147	377.69
398.371	390.69
398.595	354.69
398.82	360.69
399.044	367.69
399.268	371.69
399.492	382.69
399.717	399.69
399.941	420.69
400.165	434.69
400.389	443.69
400.613	435.69
400.837	396.69
401.062	392.69
401.286	385.69
401.51	369.69
401.734	371.69
401.958	374.69
402.182	381.69
402.406	400.69
402.63	399.69
402.854	370.69
403.078	375.69
403.302	385.69
403.526	426.69
403.75	387.69
403.974	387.69
404.198	375.69
404.422	387.69
404.645	383.69
404.869	397.69
405.093	395.69
405.317	425.69
405.541	477.69
405.765	424.69
405.988	389.69
406.212	428.69
406.436	448.69
406.66	479.69
406.883	445.69
407.107	465.69
407.331	476.69
407.555	568.69
407.778	562.69
408.002	479.69
408.226	449.69
408.449	462.69
408.673	449.69
408.896	464.69
409.12	507.69
409.344	458.69
409.567	434.69
409.791	392.69
410.014	420.69
410.238	394.69
410.461	410.69
410.685	401.69
410.908	422.69
411.132	464.69
411.355	476.69
411.578	475.69
411.802	424.69
412.025	401.69
412.249	385.69
412.472	412.69
412.695	411.69
412.919	407.69
413.142	377.69
413.365	385.69
413.589	372.69
413.812	364.69
414.035	367.69
414.258	373.69
414.482	358.69
414.705	349.69
414.928	355.69
415.151	349.69
415.374	379.69
415.597	348.69
415.821	373.69
416.044	378.69
416.267	391.69
416.49	371.69
416.713	372.69
416.936	393.69
417.159	377.69
417.382	376.69
417.605	386.69
417.828	394.69
418.051	411.69
418.274	371.69
418.497	375.69
418.72	368.69
418.943	396.69
419.166	379.69
419.389	420.69
419.611	409.69
419.834	411.69
420.057	395.69
420.28	388.69
420.503	399.69
420.726	410.69
420.948	426.69
421.171	460.69
421.394	484.69
421.617	443.69
421.839	389.69
422.062	403.69
422.285	429.69
422.507	481.69
422.73	561.69
422.953	548.69
423.175	475.69
423.398	445.69
423.621	457.69
423.843	437.69
424.066	455.69
424.288	435.69
424.511	480.69
424.733	525.69
424.956	607.69
425.178	569.69
425.401	564.69
425.623	575.69
425.846	509.69
426.068	465.69
426.291	487.69
426.513	465.69
426.735	496.69
426.958	517.69
427.18	595.69
427.402	692.69
427.625	800.69
427.847	742.69
428.069	603.69
428.292	543.69
428.514	495.69
428.736	468.69
428.958	470.69
429.181	451.69
429.403	427.69
429.625	443.69
429.847	468.69
430.069	534.69
430.292	534.69
430.514	451.69
430.736	436.69
430.958	436.69
431.18	420.69
431.402	407.69
431.624	387.69
431.846	405.69
432.068	389.69
432.29	403.69
432.512	393.69
432.734	406.69
432.956	405.69
433.178	423.69
433.4	438.69
433.622	393.69
433.844	400.69
434.066	401.69
434.287	392.69
434.509	399.69
434.731	409.69
434.953	424.69
435.175	424.69
435.397	467.69
435.618	486.69
435.84	526.69
436.062	589.69
436.284	643.69
436.505	568.69
436.727	500.69
436.949	478.69
437.17	459.69
437.392	447.69
437.614	458.69
437.835	517.69
438.057	596.69
438.278	669.69
438.5	661.69
438.721	724.69
438.943	703.69
439.165	573.69
439.386	529.69
439.608	510.69
439.829	484.69
440.05	534.69
440.272	554.69
440.493	547.69
440.715	493.69
440.936	453.69
441.158	441.69
441.379	456.69
441.6	445.69
441.822	490.69
442.043	547.69
442.264	595.69
442.486	631.69
442.707	535.69
442.928	503.69
443.149	521.69
443.371	526.69
443.592	551.69
443.813	627.69
444.034	671.69
444.255	567.69
444.476	505.69
444.698	462.69
444.919	459.69
445.14	562.69
445.361	515.69
445.582	531.69
445.803	592.69
446.024	659.69
446.245	684.69
446.466	594.69
446.687	541.69
446.908	486.69
447.129	453.69
447.35	456.69
447.571	449.69
447.792	431.69
448.013	435.69
448.234	493.69
448.455	522.69
448.675	626.69
448.896	696.69
449.117	613.69
449.338	591.69
449.559	683.69
449.779	726.69
450	621.69
450.221	515.69
450.442	488.69
450.662	460.69
450.883	450.69
451.104	481.69
451.324	456.69
451.545	451.69
451.766	421.69
451.986	424.69
452.207	377.69
452.428	388.69
452.648	413.69
452.869	395.69
453.089	416.69
453.31	416.69
453.53	400.69
453.751	404.69
453.971	429.69
454.192	447.69
454.412	434.69
454.633	411.69
454.853	401.69
455.073	394.69
455.294	444.69
455.514	489.69
455.734	467.69
455.955	401.69
456.175	371.69
456.395	377.69
456.616	389.69
456.836	358.69
457.056	359.69
457.276	358.69
457.497	362.69
457.717	355.69
457.937	368.69
458.157	385.69
458.377	379.69
458.598	416.69
458.818	483.69
459.038	566.69
459.258	550.69
459.478	490.69
459.698	431.69
459.918	410.69
460.138	415.69
460.358	381.69
460.578	397.69
460.798	408.69
461.018	398.69
461.238	392.69
461.458	401.69
461.678	365.69
461.898	387.69
462.118	386.69
462.338	390.69
462.558	391.69
462.777	403.69
462.997	417.69
463.217	405.69
463.437	411.69
463.657	388.69
463.876	402.69
464.096	399.69
464.316	387.69
464.536	412.69
464.755	447.69
464.975	417.69
465.195	488.69
465.414	595.69
465.634	507.69
465.854	471.69
466.073	441.69
466.293	421.69
466.512	406.69
466.732	403.69
466.951	378.69
467.171	383.69
467.391	403.69
467.61	413.69
467.829	437.69
468.049	422.69
468.268	401.69
468.488	395.69
468.707	393.69
468.927	395.69
469.146	385.69
469.365	392.69
469.585	388.69
469.804	403.69
470.023	415.69
470.243	409.69
470.462	415.69
470.681	440.69
470.901	415.69
471.12	395.69
471.339	416.69
471.558	394.69
471.777	383.69
471.997	400.69
472.216	389.69
472.435	407.69
472.654	413.69
472.873	403.69
473.092	376.69
473.311	384.69
473.53	395.69
473.749	416.69
473.968	443.69
474.187	570.69
474.406	576.69
474.625	474.69
474.844	437.69
475.063	397.69
475.282	411.69
475.501	421.69
475.72	426.69
475.939	393.69
476.158	409.69
476.377	389.69
476.596	386.69
476.814	419.69
477.033	448.69
477.252	433.69
477.471	423.69
477.69	429.69
477.908	421.69
478.127	438.69
478.346	432.69
478.564	428.69
478.783	430.69
479.002	450.69
479.22	436.69
479.439	464.69
479.658	481.69
479.876	506.69
480.095	474.69
480.313	521.69
480.532	523.69
480.751	490.69
480.969	485.69
481.188	491.69
481.406	485.69
481.624	490.69
481.843	488.69
482.061	482.69
482.28	473.69
482.498	483.69
482.717	454.69
482.935	465.69
483.153	460.69
483.372	458.69
483.59	471.69
483.808	472.69
484.027	484.69
484.245	470.69
484.463	474.69
484.681	488.69
484.9	477.69
485.118	497.69
485.336	467.69
485.554	488.69
485.772	500.69
485.99	492.69
486.209	500.69
486.427	498.69
486.645	507.69
486.863	538.69
487.081	532.69
487.299	536.69
487.517	524.69
487.735	524.69
487.953	490.69
488.171	516.69
488.389	525.69
488.607	512.69
488.825	543.69
489.043	516.69
489.261	521.69
489.479	507.69
489.696	519.69
489.914	541.69
490.132	539.69
490.35	544.69
490.568	563.69
490.786	547.69
491.003	559.69
491.221	567.69
491.439	566.69
491.657	601.69
491.874	586.69
492.092	624.69
492.31	588.69
492.527	608.69
492.745	605.69
492.963	589.69
493.18	562.69
493.398	596.69
493.615	632.69
493.833	616.69
494.05	616.69
494.268	624.69
494.485	637.69
494.703	619.69
494.92	616.69
495.138	610.69
495.355	629.69
495.573	619.69
495.79	629.69
496.008	636.69
496.225	635.69
496.442	641.69
496.66	632.69
496.877	612.69
497.094	643.69
497.312	636.69
497.529	652.69
497.746	639.69
497.963	631.69
498.181	672.69
498.398	687.69
498.615	681.69
498.832	694.69
499.049	674.69
499.267	679.69
499.484	697.69
499.701	685.69
499.918	713.69
500.135	719.69
500.352	737.69
500.569	736.69
500.786	764.69
501.003	741.69
501.22	739.69
501.437	721.69
501.654	715.69
501.871	753.69
502.088	732.69
502.305	691.69
502.522	683.69
502.739	688.69
502.956	635.69
503.172	640.69
503.389	647.69
503.606	658.69
503.823	653.69
504.04	662.69
504.256	648.69
504.473	615.69
504.69	625.69
504.907	613.69
505.123	610.69
505.34	613.69
505.557	617.69
505.773	610.69
505.99	635.69
506.207	609.69
506.423	614.69
506.64	627.69
506.856	632.69
507.073	598.69
507.289	606.69
507.506	618.69
507.722	644.69
507.939	645.69
508.155	653.69
508.372	649.69
508.588	621.69
508.805	622.69
509.021	605.69
509.238	607.69
509.454	603.69
509.67	606.69
509.887	614.69
510.103	623.69
510.319	607.69
510.536	740.69
510.752	1321.69
510.968	1102.69
511.184	689.69
511.401	618.69
511.617	601.69
511.833	585.69
512.049	563.69
512.265	585.69
512.481	587.69
512.698	568.69
512.914	577.69
513.13	584.69
513.346	577.69
513.562	586.69
513.778	601.69
513.994	593.69
514.21	620.69
514.426	623.69
514.642	752.69
514.858	751.69
515.074	804.69
515.29	978.69
515.506	1558.69
515.721	1209.69
515.937	763.69
516.153	693.69
516.369	637.69
516.585	629.69
516.801	619.69
517.016	579.69
517.232	596.69
517.448	611.69
517.664	571.69
517.879	578.69
518.095	572.69
518.311	564.69
518.527	584.69
518.742	568.69
518.958	583.69
519.173	574.69
519.389	562.69
519.605	578.69
519.82	603.69
520.036	604.69
520.251	633.69
520.467	667.69
520.682	704.69
520.898	665.69
521.113	735.69
521.329	800.69
521.544	950.69
521.76	1163.69
521.975	2076.69
522.19	2021.69
522.406	1097.69
522.621	765.69
522.836	662.69
523.052	635.69
523.267	610.69
523.482	586.69
523.698	553.69
523.913	542.69
524.128	550.69
524.343	538.69
524.559	508.69
524.774	515.69
524.989	519.69
525.204	537.69
525.419	523.69
525.634	525.69
525.849	495.69
526.064	485.69
526.28	481.69
526.495	473.69
526.71	479.69
526.925	448.69
527.14	477.69
527.355	475.69
527.57	471.69
527.785	444.69
527.999	449.69
528.214	459.69
528.429	461.69
528.644	468.69
528.859	468.69
529.074	460.69
529.289	485.69
529.503	620.69
529.718	575.69
529.933	507.69
530.148	473.69
530.363	469.69
530.577	476.69
530.792	459.69
531.007	467.69
531.221	450.69
531.436	444.69
531.651	426.69
531.865	455.69
532.08	429.69
532.295	431.69
532.509	424.69
532.724	450.69
532.938	444.69
533.153	425.69
533.367	422.69
533.582	420.69
533.796	436.69
534.011	408.69
534.225	423.69
534.44	430.69
534.654	415.69
534.868	419.69
535.083	412.69
535.297	433.69
535.511	433.69
535.726	458.69
535.94	435.69
536.154	445.69
536.369	432.69
536.583	448.69
536.797	409.69
537.011	403.69
537.225	402.69
537.44	422.69
537.654	415.69
537.868	424.69
538.082	415.69
538.296	418.69
538.51	435.69
538.724	407.69
538.938	405.69
539.153	402.69
539.367	435.69
539.581	432.69
539.795	410.69
540.009	423.69
540.222	416.69
540.436	421.69
540.65	421.69
540.864	408.69
541.078	410.69
541.292	416.69
541.506	412.69
541.72	413.69
541.934	405.69
542.147	413.69
542.361	407.69
542.575	416.69
542.789	404.69
543.002	397.69
543.216	405.69
543.43	411.69
543.644	434.69
543.857	407.69
544.071	413.69
544.285	389.69
544.498	400.69
544.712	411.69
544.925	402.69
545.139	398.69
545.352	381.69
545.566	396.69
545.779	404.69
545.993	406.69
546.206	377.69
546.42	392.69
546.633	373.69
546.847	383.69
547.06	361.69
547.274	377.69
547.487	369.69
547.7	380.69
547.914	356.69
548.127	360.69
548.34	389.69
548.554	387.69
548.767	395.69
548.98	388.69
549.193	385.69
549.407	364.69
549.62	373.69
549.833	372.69
550.046	363.69
550.259	364.69
550.473	364.69
550.686	376.69
550.899	382.69
551.112	365.69
551.325	371.69
551.538	371.69
551.751	372.69
551.964	361.69
552.177	372.69
552.39	367.69
552.603	366.69
552.816	368.69
553.029	355.69
553.242	369.69
553.455	379.69
553.667	393.69
553.88	400.69
554.093	382.69
554.306	375.69
554.519	362.69
554.732	370.69
554.944	364.69
555.157	377.69
555.37	379.69
555.583	360.69
555.795	351.69
556.008	363.69
556.221	330.69
556.433	347.69
556.646	346.69
556.859	354.69
557.071	350.69
557.284	363.69
557.496	345.69
557.709	339.69
557.921	324.69
558.134	346.69
558.346	340.69
558.559	342.69
558.771	348.69
558.984	333.69
559.196	339.69
559.409	328.69
559.621	319.69
559.833	320.69
560.046	329.69
560.258	342.69
560.47	336.69
560.683	343.69
560.895	333.69
561.107	359.69
561.32	326.69
561.532	344.69
561.744	346.69
561.956	339.69
562.168	330.69
562.381	338.69
562.593	328.69
562.805	347.69
563.017	326.69
563.229	321.69
563.441	355.69
563.653	343.69
563.865	330.69
564.077	325.69
564.289	340.69
564.501	339.69
564.713	353.69
564.925	364.69
565.137	373.69
565.349	362.69
565.561	352.69
565.773	340.69
565.985	353.69
566.197	347.69
566.408	351.69
566.62	374.69
566.832	379.69
567.044	389.69
567.255	366.69
567.467	359.69
567.679	360.69
567.891	377.69
568.102	355.69
568.314	351.69
568.526	350.69
568.737	355.69
568.949	356.69
569.161	340.69
569.372	332.69
569.584	332.69
569.795	345.69
570.007	328.69
570.218	415.69
570.43	398.69
570.641	343.69
570.853	311.69
571.064	308.69
571.276	324.69
571.487	307.69
571.698	317.69
571.91	311.69
572.121	320.69
572.333	328.69
572.544	301.69
572.755	322.69
572.966	300.69
573.178	315.69
573.389	306.69
573.6	303.69
573.811	287.69
574.023	306.69
574.234	279.69
574.445	287.69
574.656	287.69
574.867	295.69
575.078	290.69
575.289	286.69
575.501	283.69
575.712	289.69
575.923	282.69
576.134	290.69
576.345	297.69
576.556	291.69
576.767	272.69
576.978	293.69
577.188	291.69
577.399	298.69
577.61	275.69
577.821	293.69
578.032	288.69
578.243	316.69
578.454	659.69
578.665	450.69
578.875	308.69
579.086	279.69
579.297	267.69
579.508	277.69
579.718	277.69
579.929	273.69
580.14	284.69
580.35	285.69
580.561	290.69
580.772	270.69
580.982	281.69
581.193	272.69
581.403	273.69
581.614	281.69
581.825	263.69
582.035	272.69
582.246	269.69
582.456	255.69
582.667	271.69
582.877	270.69
583.087	248.69
583.298	266.69
583.508	283.69
583.719	264.69
583.929	266.69
584.139	264.69
584.35	272.69
584.56	275.69
584.77	277.69
584.981	289.69
585.191	265.69
585.401	263.69
585.611	258.69
585.821	277.69
586.032	259.69
586.242	269.69
586.452	279.69
586.662	269.69
586.872	265.69
587.082	254.69
587.292	246.69
587.502	251.69
587.713	246.69
587.923	250.69
588.133	269.69
588.343	269.69
588.553	269.69
588.762	252.69
588.972	290.69
589.182	378.69
589.392	377.69
589.602	296.69
589.812	339.69
590.022	303.69
590.232	288.69
590.441	268.69
590.651	248.69
590.861	264.69
591.071	249.69
591.281	252.69
591.49	239.69
591.7	259.69
591.91	260.69
592.119	256.69
592.329	261.69
592.539	260.69
592.748	271.69
592.958	247.69
593.167	260.69
593.377	245.69
593.587	261.69
593.796	259.69
594.006	258.69
594.215	265.69
594.424	259.69
594.634	269.69
594.843	263.69
595.053	261.69
595.262	269.69
595.472	235.69
595.681	231.69
595.89	239.69
596.1	233.69
596.309	230.69
596.518	251.69
596.727	247.69
596.937	253.69
597.146	257.69
597.355	236.69
597.564	225.69
597.774	239.69
597.983	219.69
598.192	224.69
598.401	245.69
598.61	219.69
598.819	237.69
599.028	232.69
599.237	223.69
599.446	234.69
599.655	217.69
599.864	225.69
600.073	223.69
600.282	222.69
600.491	234.69
600.7	224.69
600.909	233.69
601.118	224.69
601.327	234.69
601.536	207.69
601.745	227.69
601.953	215.69
602.162	230.69
602.371	209.69
602.58	227.69
602.789	231.69
602.997	235.69
603.206	216.69
603.415	221.69
603.623	209.69
603.832	209.69
604.041	215.69
604.249	196.69
604.458	228.69
604.666	232.69
604.875	211.69
605.084	199.69
605.292	216.69
605.501	234.69
605.709	206.69
605.918	220.69
606.126	207.69
606.334	215.69
606.543	221.69
606.751	226.69
606.96	208.69
607.168	213.69
607.376	230.69
607.585	202.69
607.793	225.69
608.001	215.69
608.21	230.69
608.418	214.69
608.626	210.69
608.834	215.69
609.043	204.69
609.251	221.69
609.459	225.69
609.667	219.69
609.875	188.69
610.083	203.69
610.291	199.69
610.499	206.69
610.707	214.69
610.916	209.69
611.124	195.69
611.332	216.69
611.54	216.69
611.748	213.69
611.955	212.69
612.163	194.69
612.371	215.69
612.579	204.69
612.787	196.69
612.995	200.69
613.203	218.69
613.411	202.69
613.618	214.69
613.826	204.69
614.034	204.69
614.242	204.69
614.449	208.69
614.657	215.69
614.865	209.69
615.072	196.69
615.28	190.69
615.488	191.69
615.695	210.69
615.903	203.69
616.111	194.69
616.318	191.69
616.526	213.69
616.733	208.69
616.941	207.69
617.148	197.69
617.356	206.69
617.563	204.69
617.771	201.69
617.978	187.69
618.185	203.69
618.393	212.69
618.6	198.69
618.807	205.69
619.015	205.69
619.222	204.69
619.429	207.69
619.637	206.69
619.844	189.69
620.051	181.69
620.258	201.69
620.466	193.69
620.673	216.69
620.88	201.69
621.087	207.69
621.294	187.69
621.501	194.69
621.708	212.69
621.915	205.69
622.122	192.69
622.329	202.69
622.536	189.69
622.743	175.69
622.95	207.69
623.157	194.69
623.364	189.69
623.571	195.69
623.778	180.69
623.985	192.69
624.192	194.69
624.399	197.69
624.606	188.69
624.812	195.69
625.019	192.69
625.226	195.69
625.433	212.69
625.639	193.69
625.846	191.69
626.053	178.69
626.259	191.69
626.466	174.69
626.673	178.69
626.879	182.69
627.086	194.69
627.293	192.69
627.499	191.69
627.706	181.69
627.912	172.69
628.119	177.69
628.325	195.69
628.532	177.69
628.738	185.69
628.945	189.69
629.151	180.69
629.357	181.69
629.564	173.69
629.77	178.69
629.976	186.69
630.183	180.69
630.389	194.69
630.595	158.69
630.802	166.69
631.008	192.69
631.214	181.69
631.42	166.69
631.627	185.69
631.833	171.69
632.039	175.69
632.245	175.69
632.451	168.69
632.657	175.69
632.863	167.69
633.069	179.69
633.275	165.69
633.481	178.69
633.688	167.69
633.893	192.69
634.099	156.69
634.305	162.69
634.511	170.69
634.717	178.69
634.923	173.69
635.129	173.69
635.335	160.69
635.541	164.69
635.747	155.69
635.952	162.69
636.158	161.69
636.364	176.69
636.57	173.69
636.775	155.69
636.981	167.69
637.187	168.69
637.392	170.69
637.598	180.69
637.804	165.69
638.009	158.69
638.215	177.69
638.421	159.69
638.626	153.69
638.832	153.69
639.037	161.69
639.243	163.69
639.448	157.69
639.654	158.69
639.859	154.69
640.065	156.69
640.27	165.69
640.475	161.69
640.681	148.69
640.886	158.69
641.091	179.69
641.297	147.69
641.502	166.69
641.707	147.69
641.913	167.69
642.118	155.69
642.323	183.69
642.528	145.69
642.733	153.69
642.939	151.69
643.144	157.69
643.349	158.69
643.554	142.69
643.759	164.69
643.964	155.69
644.169	146.69
644.374	145.69
644.579	159.69
644.784	148.69
644.989	145.69
645.194	147.69
645.399	155.69
645.604	145.69
645.809	156.69
646.014	153.69
646.219	147.69
646.423	129.69
646.628	149.69
646.833	162.69
647.038	144.69
647.243	150.69
647.447	136.69
647.652	147.69
647.857	147.69
648.062	156.69
648.266	141.69
648.471	150.69
648.676	137.69
648.88	151.69
649.085	151.69
649.289	148.69
649.494	163.69
649.698	163.69
649.903	165.69
650.107	142.69
650.312	156.69
650.516	155.69
650.721	141.69
650.925	138.69
651.13	145.69
651.334	149.69
651.539	141.69
651.743	134.69
651.947	136.69
652.152	123.69
652.356	127.69
652.56	143.69
652.764	135.69
652.969	127.69
653.173	129.69
653.377	132.69
653.581	126.69
653.785	128.69
653.99	128.69
654.194	141.69
654.398	132.69
654.602	121.69
654.806	107.69
655.01	123.69
655.214	129.69
655.418	127.69
655.622	137.69
655.826	146.69
656.03	125.69
656.234	128.69
656.438	120.69
656.642	133.69
656.846	127.69
657.049	129.69
657.253	120.69
657.457	111.69
657.661	109.69
657.865	103.69
658.068	125.69
658.272	99.69
658.476	119.69
658.68	103.69
658.883	85.69
659.087	98.69
659.291	93.69
659.494	92.69
659.698	96.69
659.901	92.69
660.105	85.69
660.309	81.69
660.512	80.69
660.716	91.69
660.919	89.69
661.123	93.69
661.326	94.69
661.53	90.69
661.733	96.69
661.936	84.69
662.14	93.69
662.343	83.69
662.546	73.69
662.75	81.69
662.953	75.69
663.156	78.69
663.36	81.69
663.563	78.69
663.766	75.69
663.969	69.69
664.173	87.69
664.376	77.69
664.579	83.69
664.782	81.69
664.985	83.69
665.188	74.69
665.391	81.69
665.594	85.69
665.797	77.69
666	81.69
666.203	91.69
666.406	78.69
666.609	90.69
666.812	96.69
667.015	77.69
667.218	80.69
667.421	82.69
667.624	84.69
667.827	82.69
668.03	85.69
668.232	91.69
668.435	89.69
668.638	80.69
668.841	84.69
669.043	74.69
669.246	79.69
669.449	80.69
669.651	84.69
669.854	68.69
670.057	105.69
670.259	101.69
670.462	87.69
670.665	99.69
670.867	77.69
671.07	88.69
671.272	76.69
671.475	81.69
671.677	87.69
671.88	89.69
672.082	90.69
672.284	91.69
672.487	79.69
672.689	88.69
672.892	88.69
