Data from 1987.PennyLincolnUp.Lamp.En5.5.200Scan.071819.P2_HRD10591_17-14-39-973.txt Node
Date: Thu Jul 18 17:14:39 EDT 2019
User: cochatt
Spectrometer: HR+D1059
Trigger mode: 1
Integration Time (sec): 1.000000E-1
Scans to average: 1
Electric dark correction enabled: true
Nonlinearity correction enabled: false
Boxcar width: 0
XAxis mode: Wavelengths
Number of Pixels in Spectrum: 2048
>>>>>Begin Spectral Data<<<<<
223.165	-14.12
223.4	-14.12
223.635	-14.12
223.869	-18.12
224.104	-28.12
224.338	-14.12
224.573	-25.12
224.808	-19.12
225.042	-15.12
225.277	3.88
225.511	-6.12
225.746	2.88
225.98	-4.12
226.215	25.88
226.449	25.88
226.683	12.88
226.918	40.88
227.152	31.88
227.387	28.88
227.621	39.88
227.856	43.88
228.09	43.88
228.324	37.88
228.559	44.88
228.793	51.88
229.027	91.88
229.262	106.88
229.496	110.88
229.73	142.88
229.964	168.88
230.199	131.88
230.433	125.88
230.667	128.88
230.901	121.88
231.136	109.88
231.37	123.88
231.604	86.88
231.838	102.88
232.072	105.88
232.306	120.88
232.541	107.88
232.775	116.88
233.009	100.88
233.243	106.88
233.477	101.88
233.711	115.88
233.945	114.88
234.179	102.88
234.413	124.88
234.647	122.88
234.881	117.88
235.115	125.88
235.349	115.88
235.583	126.88
235.817	119.88
236.051	121.88
236.285	124.88
236.519	114.88
236.753	128.88
236.987	151.88
237.221	174.88
237.455	221.88
237.689	199.88
237.922	150.88
238.156	129.88
238.39	135.88
238.624	126.88
238.858	128.88
239.091	109.88
239.325	110.88
239.559	122.88
239.793	134.88
240.027	130.88
240.26	140.88
240.494	152.88
240.728	145.88
240.961	136.88
241.195	155.88
241.429	125.88
241.662	126.88
241.896	136.88
242.13	132.88
242.363	123.88
242.597	116.88
242.83	123.88
243.064	125.88
243.298	147.88
243.531	126.88
243.765	136.88
243.998	149.88
244.232	134.88
244.465	140.88
244.699	130.88
244.932	129.88
245.166	124.88
245.399	143.88
245.633	137.88
245.866	140.88
246.099	124.88
246.333	138.88
246.566	137.88
246.8	137.88
247.033	148.88
247.266	135.88
247.5	141.88
247.733	149.88
247.966	178.88
248.2	170.88
248.433	174.88
248.666	177.88
248.899	182.88
249.133	186.88
249.366	196.88
249.599	192.88
249.832	172.88
250.066	194.88
250.299	178.88
250.532	190.88
250.765	180.88
250.998	200.88
251.231	209.88
251.465	199.88
251.698	187.88
251.931	188.88
252.164	195.88
252.397	180.88
252.63	198.88
252.863	200.88
253.096	202.88
253.329	215.88
253.562	203.88
253.795	208.88
254.028	206.88
254.261	194.88
254.494	212.88
254.727	243.88
254.96	270.88
255.193	254.88
255.426	250.88
255.659	216.88
255.892	212.88
256.124	193.88
256.357	194.88
256.59	209.88
256.823	195.88
257.056	197.88
257.289	188.88
257.521	202.88
257.754	197.88
257.987	191.88
258.22	194.88
258.452	193.88
258.685	186.88
258.918	176.88
259.151	192.88
259.383	209.88
259.616	194.88
259.849	203.88
260.081	222.88
260.314	247.88
260.547	243.88
260.779	223.88
261.012	218.88
261.244	217.88
261.477	195.88
261.71	205.88
261.942	197.88
262.175	225.88
262.407	221.88
262.64	184.88
262.872	212.88
263.105	181.88
263.337	192.88
263.57	197.88
263.802	199.88
264.035	207.88
264.267	190.88
264.499	180.88
264.732	186.88
264.964	203.88
265.197	200.88
265.429	179.88
265.661	189.88
265.894	181.88
266.126	188.88
266.358	187.88
266.591	190.88
266.823	196.88
267.055	186.88
267.287	193.88
267.52	189.88
267.752	195.88
267.984	198.88
268.216	192.88
268.448	214.88
268.681	203.88
268.913	216.88
269.145	229.88
269.377	236.88
269.609	246.88
269.841	249.88
270.073	241.88
270.306	258.88
270.538	282.88
270.77	283.88
271.002	266.88
271.234	268.88
271.466	264.88
271.698	298.88
271.93	287.88
272.162	285.88
272.394	310.88
272.626	266.88
272.858	277.88
273.09	252.88
273.322	245.88
273.553	259.88
273.785	244.88
274.017	237.88
274.249	240.88
274.481	241.88
274.713	234.88
274.945	260.88
275.176	235.88
275.408	229.88
275.64	226.88
275.872	217.88
276.104	237.88
276.335	224.88
276.567	212.88
276.799	253.88
277.031	263.88
277.262	277.88
277.494	294.88
277.726	255.88
277.957	268.88
278.189	248.88
278.421	236.88
278.652	221.88
278.884	230.88
279.115	214.88
279.347	220.88
279.579	217.88
279.81	235.88
280.042	215.88
280.273	230.88
280.505	215.88
280.736	213.88
280.968	222.88
281.199	208.88
281.431	208.88
281.662	219.88
281.894	230.88
282.125	220.88
282.356	234.88
282.588	255.88
282.819	276.88
283.051	242.88
283.282	225.88
283.513	233.88
283.745	217.88
283.976	229.88
284.207	237.88
284.439	238.88
284.67	222.88
284.901	211.88
285.132	215.88
285.364	225.88
285.595	226.88
285.826	240.88
286.057	228.88
286.288	222.88
286.52	210.88
286.751	221.88
286.982	218.88
287.213	211.88
287.444	228.88
287.675	224.88
287.906	237.88
288.138	233.88
288.369	242.88
288.6	229.88
288.831	234.88
289.062	220.88
289.293	231.88
289.524	222.88
289.755	229.88
289.986	228.88
290.217	225.88
290.448	229.88
290.679	228.88
290.91	233.88
291.141	210.88
291.371	228.88
291.602	230.88
291.833	222.88
292.064	227.88
292.295	222.88
292.526	214.88
292.757	218.88
292.987	225.88
293.218	214.88
293.449	229.88
293.68	213.88
293.91	226.88
294.141	230.88
294.372	221.88
294.603	235.88
294.833	222.88
295.064	217.88
295.295	228.88
295.525	219.88
295.756	235.88
295.987	239.88
296.217	277.88
296.448	286.88
296.679	251.88
296.909	236.88
297.14	229.88
297.37	217.88
297.601	237.88
297.831	217.88
298.062	228.88
298.292	232.88
298.523	241.88
298.753	242.88
298.984	226.88
299.214	234.88
299.445	235.88
299.675	250.88
299.905	232.88
300.136	222.88
300.366	248.88
300.597	235.88
300.827	246.88
301.057	252.88
301.288	253.88
301.518	248.88
301.748	249.88
301.979	262.88
302.209	277.88
302.439	262.88
302.669	260.88
302.9	252.88
303.13	242.88
303.36	257.88
303.59	259.88
303.82	255.88
304.051	284.88
304.281	262.88
304.511	250.88
304.741	248.88
304.971	262.88
305.201	242.88
305.431	245.88
305.661	242.88
305.891	256.88
306.121	256.88
306.352	269.88
306.582	284.88
306.812	280.88
307.042	272.88
307.272	270.88
307.502	242.88
307.731	268.88
307.961	269.88
308.191	252.88
308.421	278.88
308.651	272.88
308.881	278.88
309.111	280.88
309.341	275.88
309.571	306.88
309.8	315.88
310.03	324.88
310.26	323.88
310.49	319.88
310.72	325.88
310.949	356.88
311.179	355.88
311.409	319.88
311.639	314.88
311.868	306.88
312.098	326.88
312.328	329.88
312.557	340.88
312.787	371.88
313.017	364.88
313.246	335.88
313.476	332.88
313.706	310.88
313.935	322.88
314.165	365.88
314.394	341.88
314.624	348.88
314.853	333.88
315.083	336.88
315.312	313.88
315.542	304.88
315.771	290.88
316.001	297.88
316.23	301.88
316.46	304.88
316.689	299.88
316.919	306.88
317.148	312.88
317.377	325.88
317.607	326.88
317.836	327.88
318.065	327.88
318.295	312.88
318.524	301.88
318.753	290.88
318.983	319.88
319.212	322.88
319.441	313.88
319.67	328.88
319.9	316.88
320.129	311.88
320.358	320.88
320.587	321.88
320.816	321.88
321.046	349.88
321.275	340.88
321.504	334.88
321.733	340.88
321.962	357.88
322.191	370.88
322.42	387.88
322.649	410.88
322.878	397.88
323.108	429.88
323.337	454.88
323.566	507.88
323.795	514.88
324.024	579.88
324.253	763.88
324.482	1090.88
324.71	1657.88
324.939	2336.88
325.168	2057.88
325.397	1150.88
325.626	732.88
325.855	598.88
326.084	534.88
326.313	500.88
326.542	518.88
326.77	561.88
326.999	688.88
327.228	902.88
327.457	1442.88
327.686	1754.88
327.914	1230.88
328.143	781.88
328.372	662.88
328.6	594.88
328.829	562.88
329.058	594.88
329.287	615.88
329.515	538.88
329.744	496.88
329.972	485.88
330.201	484.88
330.43	496.88
330.658	549.88
330.887	605.88
331.115	612.88
331.344	516.88
331.572	454.88
331.801	465.88
332.03	429.88
332.258	426.88
332.486	379.88
332.715	385.88
332.943	384.88
333.172	373.88
333.4	386.88
333.629	362.88
333.857	373.88
334.085	367.88
334.314	357.88
334.542	353.88
334.771	384.88
334.999	372.88
335.227	360.88
335.455	350.88
335.684	374.88
335.912	359.88
336.14	365.88
336.369	367.88
336.597	366.88
336.825	378.88
337.053	360.88
337.281	361.88
337.51	350.88
337.738	360.88
337.966	352.88
338.194	364.88
338.422	362.88
338.65	345.88
338.878	364.88
339.106	335.88
339.334	346.88
339.562	322.88
339.79	340.88
340.018	358.88
340.246	349.88
340.474	354.88
340.702	358.88
340.93	336.88
341.158	338.88
341.386	356.88
341.614	350.88
341.842	346.88
342.07	341.88
342.298	317.88
342.526	342.88
342.754	321.88
342.981	312.88
343.209	310.88
343.437	348.88
343.665	320.88
343.893	343.88
344.12	349.88
344.348	328.88
344.576	358.88
344.804	357.88
345.031	393.88
345.259	383.88
345.487	380.88
345.714	357.88
345.942	338.88
346.17	338.88
346.397	362.88
346.625	334.88
346.853	328.88
347.08	350.88
347.308	354.88
347.535	364.88
347.763	392.88
347.99	372.88
348.218	353.88
348.445	388.88
348.673	375.88
348.9	376.88
349.128	356.88
349.355	331.88
349.583	339.88
349.81	313.88
350.037	340.88
350.265	335.88
350.492	357.88
350.72	346.88
350.947	348.88
351.174	363.88
351.402	387.88
351.629	364.88
351.856	375.88
352.083	370.88
352.311	380.88
352.538	388.88
352.765	373.88
352.992	387.88
353.22	389.88
353.447	377.88
353.674	372.88
353.901	342.88
354.128	320.88
354.355	330.88
354.583	316.88
354.81	304.88
355.037	306.88
355.264	320.88
355.491	304.88
355.718	304.88
355.945	290.88
356.172	308.88
356.399	307.88
356.626	293.88
356.853	309.88
357.08	320.88
357.307	326.88
357.534	305.88
357.761	328.88
357.988	324.88
358.215	319.88
358.441	330.88
358.668	312.88
358.895	321.88
359.122	332.88
359.349	341.88
359.576	356.88
359.802	378.88
360.029	420.88
360.256	438.88
360.483	429.88
360.709	364.88
360.936	374.88
361.163	352.88
361.39	347.88
361.616	348.88
361.843	343.88
362.07	355.88
362.296	369.88
362.523	356.88
362.749	375.88
362.976	363.88
363.203	336.88
363.429	330.88
363.656	320.88
363.882	319.88
364.109	331.88
364.335	341.88
364.562	329.88
364.788	317.88
365.015	313.88
365.241	343.88
365.468	341.88
365.694	350.88
365.92	356.88
366.147	337.88
366.373	322.88
366.599	340.88
366.826	333.88
367.052	320.88
367.278	314.88
367.505	339.88
367.731	321.88
367.957	316.88
368.184	312.88
368.41	336.88
368.636	342.88
368.862	354.88
369.089	340.88
369.315	339.88
369.541	326.88
369.767	340.88
369.993	332.88
370.219	318.88
370.445	334.88
370.672	317.88
370.898	313.88
371.124	317.88
371.35	323.88
371.576	310.88
371.802	332.88
372.028	308.88
372.254	337.88
372.48	323.88
372.706	319.88
372.932	304.88
373.158	319.88
373.384	319.88
373.61	304.88
373.835	314.88
374.061	324.88
374.287	322.88
374.513	287.88
374.739	321.88
374.965	333.88
375.191	321.88
375.416	324.88
375.642	300.88
375.868	320.88
376.094	324.88
376.319	299.88
376.545	301.88
376.771	313.88
376.997	322.88
377.222	306.88
377.448	316.88
377.674	333.88
377.899	338.88
378.125	289.88
378.35	328.88
378.576	315.88
378.802	320.88
379.027	316.88
379.253	324.88
379.478	324.88
379.704	307.88
379.929	318.88
380.155	330.88
380.38	314.88
380.606	321.88
380.831	298.88
381.057	318.88
381.282	328.88
381.507	330.88
381.733	308.88
381.958	324.88
382.184	333.88
382.409	338.88
382.634	332.88
382.86	330.88
383.085	330.88
383.31	316.88
383.535	329.88
383.761	337.88
383.986	325.88
384.211	330.88
384.436	333.88
384.662	317.88
384.887	325.88
385.112	333.88
385.337	329.88
385.562	328.88
385.787	345.88
386.013	353.88
386.238	340.88
386.463	348.88
386.688	345.88
386.913	332.88
387.138	329.88
387.363	334.88
387.588	331.88
387.813	323.88
388.038	315.88
388.263	347.88
388.488	328.88
388.713	335.88
388.938	352.88
389.163	343.88
389.387	346.88
389.612	323.88
389.837	336.88
390.062	330.88
390.287	322.88
390.512	312.88
390.736	334.88
390.961	325.88
391.186	338.88
391.411	337.88
391.636	349.88
391.86	335.88
392.085	330.88
392.31	350.88
392.534	344.88
392.759	333.88
392.984	337.88
393.208	330.88
393.433	356.88
393.658	342.88
393.882	338.88
394.107	333.88
394.331	335.88
394.556	334.88
394.78	316.88
395.005	340.88
395.229	338.88
395.454	322.88
395.678	350.88
395.903	356.88
396.127	384.88
396.352	356.88
396.576	333.88
396.801	346.88
397.025	353.88
397.249	346.88
397.474	346.88
397.698	360.88
397.922	390.88
398.147	370.88
398.371	391.88
398.595	390.88
398.82	357.88
399.044	368.88
399.268	368.88
399.492	388.88
399.717	410.88
399.941	419.88
400.165	450.88
400.389	487.88
400.613	444.88
400.837	406.88
401.062	394.88
401.286	394.88
401.51	392.88
401.734	413.88
401.958	388.88
402.182	388.88
402.406	413.88
402.63	406.88
402.854	395.88
403.078	397.88
403.302	406.88
403.526	429.88
403.75	408.88
403.974	386.88
404.198	392.88
404.422	415.88
404.645	424.88
404.869	417.88
405.093	407.88
405.317	436.88
405.541	477.88
405.765	441.88
405.988	429.88
406.212	438.88
406.436	482.88
406.66	469.88
406.883	431.88
407.107	468.88
407.331	491.88
407.555	562.88
407.778	554.88
408.002	487.88
408.226	471.88
408.449	453.88
408.673	464.88
408.896	498.88
409.12	521.88
409.344	493.88
409.567	440.88
409.791	438.88
410.014	409.88
410.238	402.88
410.461	375.88
410.685	420.88
410.908	437.88
411.132	465.88
411.355	506.88
411.578	457.88
411.802	426.88
412.025	408.88
412.249	404.88
412.472	405.88
412.695	429.88
412.919	418.88
413.142	396.88
413.365	395.88
413.589	401.88
413.812	388.88
414.035	382.88
414.258	366.88
414.482	384.88
414.705	373.88
414.928	366.88
415.151	372.88
415.374	376.88
415.597	392.88
415.821	383.88
416.044	396.88
416.267	395.88
416.49	370.88
416.713	398.88
416.936	377.88
417.159	387.88
417.382	376.88
417.605	403.88
417.828	388.88
418.051	412.88
418.274	429.88
418.497	377.88
418.72	369.88
418.943	384.88
419.166	410.88
419.389	419.88
419.611	416.88
419.834	396.88
420.057	384.88
420.28	424.88
420.503	412.88
420.726	405.88
420.948	455.88
421.171	487.88
421.394	501.88
421.617	449.88
421.839	435.88
422.062	425.88
422.285	449.88
422.507	489.88
422.73	582.88
422.953	586.88
423.175	473.88
423.398	457.88
423.621	452.88
423.843	437.88
424.066	465.88
424.288	461.88
424.511	488.88
424.733	543.88
424.956	617.88
425.178	626.88
425.401	593.88
425.623	596.88
425.846	512.88
426.068	501.88
426.291	502.88
426.513	481.88
426.735	496.88
426.958	530.88
427.18	631.88
427.402	706.88
427.625	819.88
427.847	757.88
428.069	634.88
428.292	549.88
428.514	530.88
428.736	492.88
428.958	454.88
429.181	468.88
429.403	442.88
429.625	444.88
429.847	499.88
430.069	561.88
430.292	553.88
430.514	503.88
430.736	468.88
430.958	432.88
431.18	447.88
431.402	416.88
431.624	403.88
431.846	415.88
432.068	399.88
432.29	439.88
432.512	390.88
432.734	420.88
432.956	425.88
433.178	440.88
433.4	461.88
433.622	445.88
433.844	404.88
434.066	416.88
434.287	399.88
434.509	408.88
434.731	435.88
434.953	418.88
435.175	437.88
435.397	474.88
435.618	472.88
435.84	537.88
436.062	614.88
436.284	650.88
436.505	566.88
436.727	518.88
436.949	485.88
437.17	444.88
437.392	478.88
437.614	491.88
437.835	527.88
438.057	650.88
438.278	713.88
438.5	698.88
438.721	714.88
438.943	714.88
439.165	586.88
439.386	526.88
439.608	543.88
439.829	514.88
440.05	562.88
440.272	569.88
440.493	546.88
440.715	516.88
440.936	467.88
441.158	462.88
441.379	450.88
441.6	482.88
441.822	499.88
442.043	526.88
442.264	617.88
442.486	646.88
442.707	565.88
442.928	510.88
443.149	540.88
443.371	554.88
443.592	570.88
443.813	680.88
444.034	683.88
444.255	585.88
444.476	520.88
444.698	493.88
444.919	506.88
445.14	564.88
445.361	540.88
445.582	562.88
445.803	600.88
446.024	697.88
446.245	684.88
446.466	636.88
446.687	557.88
446.908	518.88
447.129	479.88
447.35	448.88
447.571	459.88
447.792	454.88
448.013	472.88
448.234	493.88
448.455	541.88
448.675	627.88
448.896	706.88
449.117	658.88
449.338	608.88
449.559	709.88
449.779	754.88
450	610.88
450.221	540.88
450.442	489.88
450.662	482.88
450.883	486.88
451.104	503.88
451.324	467.88
451.545	454.88
451.766	450.88
451.986	397.88
452.207	427.88
452.428	408.88
452.648	432.88
452.869	401.88
453.089	430.88
453.31	437.88
453.53	444.88
453.751	400.88
453.971	424.88
454.192	461.88
454.412	444.88
454.633	412.88
454.853	404.88
455.073	410.88
455.294	447.88
455.514	490.88
455.734	476.88
455.955	407.88
456.175	398.88
456.395	399.88
456.616	384.88
456.836	365.88
457.056	366.88
457.276	400.88
457.497	376.88
457.717	363.88
457.937	371.88
458.157	388.88
458.377	393.88
458.598	427.88
458.818	504.88
459.038	575.88
459.258	589.88
459.478	498.88
459.698	436.88
459.918	421.88
460.138	405.88
460.358	405.88
460.578	410.88
460.798	410.88
461.018	429.88
461.238	402.88
461.458	388.88
461.678	417.88
461.898	404.88
462.118	369.88
462.338	400.88
462.558	398.88
462.777	406.88
462.997	401.88
463.217	411.88
463.437	399.88
463.657	398.88
463.876	418.88
464.096	425.88
464.316	425.88
464.536	437.88
464.755	452.88
464.975	463.88
465.195	512.88
465.414	638.88
465.634	535.88
465.854	467.88
466.073	434.88
466.293	432.88
466.512	404.88
466.732	404.88
466.951	412.88
467.171	415.88
467.391	409.88
467.61	439.88
467.829	439.88
468.049	444.88
468.268	405.88
468.488	390.88
468.707	391.88
468.927	378.88
469.146	387.88
469.365	390.88
469.585	383.88
469.804	396.88
470.023	407.88
470.243	418.88
470.462	413.88
470.681	443.88
470.901	434.88
471.12	416.88
471.339	423.88
471.558	407.88
471.777	411.88
471.997	413.88
472.216	391.88
472.435	412.88
472.654	387.88
472.873	406.88
473.092	404.88
473.311	421.88
473.53	418.88
473.749	448.88
473.968	477.88
474.187	568.88
474.406	602.88
474.625	490.88
474.844	436.88
475.063	417.88
475.282	417.88
475.501	426.88
475.72	430.88
475.939	417.88
476.158	443.88
476.377	443.88
476.596	424.88
476.814	422.88
477.033	444.88
477.252	446.88
477.471	438.88
477.69	435.88
477.908	425.88
478.127	411.88
478.346	452.88
478.564	436.88
478.783	445.88
479.002	448.88
479.22	461.88
479.439	480.88
479.658	482.88
479.876	495.88
480.095	493.88
480.313	520.88
480.532	508.88
480.751	497.88
480.969	514.88
481.188	511.88
481.406	513.88
481.624	517.88
481.843	489.88
482.061	492.88
482.28	489.88
482.498	482.88
482.717	496.88
482.935	478.88
483.153	503.88
483.372	473.88
483.59	502.88
483.808	482.88
484.027	480.88
484.245	492.88
484.463	488.88
484.681	488.88
484.9	492.88
485.118	532.88
485.336	487.88
485.554	497.88
485.772	508.88
485.99	505.88
486.209	511.88
486.427	491.88
486.645	523.88
486.863	538.88
487.081	566.88
487.299	533.88
487.517	547.88
487.735	521.88
487.953	532.88
488.171	534.88
488.389	528.88
488.607	541.88
488.825	537.88
489.043	580.88
489.261	554.88
489.479	555.88
489.696	561.88
489.914	552.88
490.132	554.88
490.35	561.88
490.568	572.88
490.786	564.88
491.003	583.88
491.221	592.88
491.439	586.88
491.657	608.88
491.874	614.88
492.092	614.88
492.31	612.88
492.527	595.88
492.745	617.88
492.963	615.88
493.18	611.88
493.398	655.88
493.615	631.88
493.833	626.88
494.05	637.88
494.268	633.88
494.485	631.88
494.703	639.88
494.92	652.88
495.138	666.88
495.355	644.88
495.573	649.88
495.79	637.88
496.008	636.88
496.225	661.88
496.442	637.88
496.66	646.88
496.877	642.88
497.094	660.88
497.312	642.88
497.529	637.88
497.746	646.88
497.963	659.88
498.181	702.88
498.398	700.88
498.615	679.88
498.832	692.88
499.049	712.88
499.267	696.88
499.484	689.88
499.701	735.88
499.918	707.88
500.135	749.88
500.352	751.88
500.569	773.88
500.786	756.88
501.003	756.88
501.22	760.88
501.437	756.88
501.654	739.88
501.871	772.88
502.088	758.88
502.305	747.88
502.522	724.88
502.739	709.88
502.956	700.88
503.172	675.88
503.389	653.88
503.606	682.88
503.823	698.88
504.04	665.88
504.256	663.88
504.473	654.88
504.69	642.88
504.907	643.88
505.123	634.88
505.34	641.88
505.557	622.88
505.773	635.88
505.99	617.88
506.207	650.88
506.423	613.88
506.64	621.88
506.856	628.88
507.073	629.88
507.289	632.88
507.506	625.88
507.722	632.88
507.939	677.88
508.155	648.88
508.372	639.88
508.588	607.88
508.805	628.88
509.021	636.88
509.238	632.88
509.454	648.88
509.67	642.88
509.887	640.88
510.103	637.88
510.319	653.88
510.536	770.88
510.752	1423.88
510.968	1188.88
511.184	691.88
511.401	637.88
511.617	618.88
511.833	598.88
512.049	610.88
512.265	590.88
512.481	592.88
512.698	602.88
512.914	605.88
513.13	595.88
513.346	599.88
513.562	586.88
513.778	619.88
513.994	614.88
514.21	642.88
514.426	660.88
514.642	735.88
514.858	792.88
515.074	852.88
515.29	1078.88
515.506	1644.88
515.721	1309.88
515.937	834.88
516.153	721.88
516.369	682.88
516.585	638.88
516.801	625.88
517.016	628.88
517.232	631.88
517.448	621.88
517.664	600.88
517.879	588.88
518.095	605.88
518.311	583.88
518.527	612.88
518.742	582.88
518.958	589.88
519.173	604.88
519.389	603.88
519.605	619.88
519.82	631.88
520.036	628.88
520.251	664.88
520.467	707.88
520.682	729.88
520.898	730.88
521.113	778.88
521.329	866.88
521.544	966.88
521.76	1313.88
521.975	2237.88
522.19	2130.88
522.406	1136.88
522.621	816.88
522.836	698.88
523.052	657.88
523.267	606.88
523.482	609.88
523.698	570.88
523.913	590.88
524.128	570.88
524.343	552.88
524.559	548.88
524.774	532.88
524.989	517.88
525.204	555.88
525.419	520.88
525.634	524.88
525.849	513.88
526.064	504.88
526.28	499.88
526.495	485.88
526.71	485.88
526.925	460.88
527.14	486.88
527.355	465.88
527.57	456.88
527.785	492.88
527.999	471.88
528.214	467.88
528.429	471.88
528.644	491.88
528.859	505.88
529.074	483.88
529.289	496.88
529.503	627.88
529.718	606.88
529.933	541.88
530.148	511.88
530.363	496.88
530.577	484.88
530.792	472.88
531.007	456.88
531.221	473.88
531.436	450.88
531.651	459.88
531.865	453.88
532.08	458.88
532.295	448.88
532.509	445.88
532.724	442.88
532.938	430.88
533.153	450.88
533.367	442.88
533.582	452.88
533.796	433.88
534.011	445.88
534.225	445.88
534.44	443.88
534.654	416.88
534.868	448.88
535.083	407.88
535.297	440.88
535.511	449.88
535.726	462.88
535.94	457.88
536.154	435.88
536.369	444.88
536.583	417.88
536.797	424.88
537.011	433.88
537.225	440.88
537.44	429.88
537.654	432.88
537.868	429.88
538.082	429.88
538.296	424.88
538.51	416.88
538.724	416.88
538.938	406.88
539.153	425.88
539.367	431.88
539.581	460.88
539.795	420.88
540.009	410.88
540.222	428.88
540.436	438.88
540.65	424.88
540.864	445.88
541.078	441.88
541.292	448.88
541.506	440.88
541.72	422.88
541.934	429.88
542.147	409.88
542.361	403.88
542.575	406.88
542.789	407.88
543.002	420.88
543.216	414.88
543.43	453.88
543.644	425.88
543.857	412.88
544.071	423.88
544.285	436.88
544.498	408.88
544.712	396.88
544.925	408.88
545.139	399.88
545.352	379.88
545.566	408.88
545.779	402.88
545.993	392.88
546.206	376.88
546.42	419.88
546.633	378.88
546.847	390.88
547.06	392.88
547.274	385.88
547.487	399.88
547.7	390.88
547.914	383.88
548.127	394.88
548.34	387.88
548.554	394.88
548.767	381.88
548.98	379.88
549.193	382.88
549.407	355.88
549.62	390.88
549.833	388.88
550.046	374.88
550.259	376.88
550.473	378.88
550.686	364.88
550.899	378.88
551.112	365.88
551.325	380.88
551.538	382.88
551.751	374.88
551.964	373.88
552.177	403.88
552.39	374.88
552.603	382.88
552.816	365.88
553.029	390.88
553.242	368.88
553.455	388.88
553.667	385.88
553.88	388.88
554.093	383.88
554.306	390.88
554.519	364.88
554.732	380.88
554.944	400.88
555.157	360.88
555.37	368.88
555.583	366.88
555.795	380.88
556.008	364.88
556.221	353.88
556.433	368.88
556.646	376.88
556.859	363.88
557.071	349.88
557.284	370.88
557.496	330.88
557.709	340.88
557.921	351.88
558.134	313.88
558.346	354.88
558.559	341.88
558.771	342.88
558.984	334.88
559.196	357.88
559.409	360.88
559.621	330.88
559.833	344.88
560.046	339.88
560.258	340.88
560.47	345.88
560.683	355.88
560.895	346.88
561.107	349.88
561.32	334.88
561.532	373.88
561.744	355.88
561.956	349.88
562.168	344.88
562.381	357.88
562.593	351.88
562.805	334.88
563.017	345.88
563.229	348.88
563.441	338.88
563.653	340.88
563.865	356.88
564.077	337.88
564.289	346.88
564.501	355.88
564.713	352.88
564.925	347.88
565.137	375.88
565.349	365.88
565.561	365.88
565.773	372.88
565.985	360.88
566.197	347.88
566.408	361.88
566.62	374.88
566.832	391.88
567.044	361.88
567.255	378.88
567.467	361.88
567.679	386.88
567.891	388.88
568.102	392.88
568.314	388.88
568.526	368.88
568.737	369.88
568.949	355.88
569.161	346.88
569.372	324.88
569.584	347.88
569.795	339.88
570.007	334.88
570.218	409.88
570.43	386.88
570.641	335.88
570.853	324.88
571.064	308.88
571.276	351.88
571.487	333.88
571.698	326.88
571.91	331.88
572.121	318.88
572.333	325.88
572.544	342.88
572.755	309.88
572.966	322.88
573.178	315.88
573.389	314.88
573.6	315.88
573.811	284.88
574.023	329.88
574.234	297.88
574.445	297.88
574.656	299.88
574.867	294.88
575.078	295.88
575.289	308.88
575.501	304.88
575.712	277.88
575.923	304.88
576.134	295.88
576.345	298.88
576.556	307.88
576.767	306.88
576.978	283.88
577.188	292.88
577.399	290.88
577.61	298.88
577.821	302.88
578.032	300.88
578.243	352.88
578.454	654.88
578.665	476.88
578.875	329.88
579.086	296.88
579.297	270.88
579.508	282.88
579.718	283.88
579.929	277.88
580.14	284.88
580.35	306.88
580.561	291.88
580.772	275.88
580.982	275.88
581.193	264.88
581.403	290.88
581.614	282.88
581.825	282.88
582.035	281.88
582.246	282.88
582.456	258.88
582.667	269.88
582.877	281.88
583.087	279.88
583.298	270.88
583.508	269.88
583.719	264.88
583.929	263.88
584.139	267.88
584.35	293.88
584.56	273.88
584.77	262.88
584.981	267.88
585.191	262.88
585.401	267.88
585.611	260.88
585.821	279.88
586.032	260.88
586.242	265.88
586.452	267.88
586.662	288.88
586.872	269.88
587.082	272.88
587.292	265.88
587.502	266.88
587.713	273.88
587.923	256.88
588.133	244.88
588.343	268.88
588.553	262.88
588.762	271.88
588.972	289.88
589.182	330.88
589.392	347.88
589.602	274.88
589.812	320.88
590.022	301.88
590.232	241.88
590.441	249.88
590.651	257.88
590.861	265.88
591.071	284.88
591.281	273.88
591.49	273.88
591.7	270.88
591.91	258.88
592.119	264.88
592.329	255.88
592.539	270.88
592.748	284.88
592.958	262.88
593.167	269.88
593.377	251.88
593.587	249.88
593.796	264.88
594.006	267.88
594.215	254.88
594.424	252.88
594.634	258.88
594.843	250.88
595.053	270.88
595.262	276.88
595.472	246.88
595.681	258.88
595.89	236.88
596.1	266.88
596.309	243.88
596.518	248.88
596.727	251.88
596.937	244.88
597.146	237.88
597.355	240.88
597.564	234.88
597.774	232.88
597.983	232.88
598.192	236.88
598.401	252.88
598.61	245.88
598.819	237.88
599.028	250.88
599.237	240.88
599.446	235.88
599.655	229.88
599.864	235.88
600.073	226.88
600.282	223.88
600.491	220.88
600.7	240.88
600.909	231.88
601.118	219.88
601.327	239.88
601.536	220.88
601.745	215.88
601.953	208.88
602.162	228.88
602.371	241.88
602.58	237.88
602.789	223.88
602.997	217.88
603.206	236.88
603.415	230.88
603.623	219.88
603.832	234.88
604.041	235.88
604.249	215.88
604.458	203.88
604.666	212.88
604.875	230.88
605.084	222.88
605.292	219.88
605.501	209.88
605.709	227.88
605.918	226.88
606.126	216.88
606.334	213.88
606.543	206.88
606.751	214.88
606.96	214.88
607.168	213.88
607.376	229.88
607.585	224.88
607.793	224.88
608.001	213.88
608.21	213.88
608.418	210.88
608.626	206.88
608.834	221.88
609.043	209.88
609.251	218.88
609.459	213.88
609.667	213.88
609.875	214.88
610.083	212.88
610.291	219.88
610.499	210.88
610.707	223.88
610.916	205.88
611.124	218.88
611.332	232.88
611.54	234.88
611.748	226.88
611.955	217.88
612.163	215.88
612.371	217.88
612.579	182.88
612.787	202.88
612.995	208.88
613.203	229.88
613.411	231.88
613.618	220.88
613.826	208.88
614.034	207.88
614.242	212.88
614.449	208.88
614.657	212.88
614.865	223.88
615.072	203.88
615.28	205.88
615.488	217.88
615.695	214.88
615.903	226.88
616.111	207.88
616.318	226.88
616.526	209.88
616.733	214.88
616.941	210.88
617.148	213.88
617.356	202.88
617.563	220.88
617.771	199.88
617.978	203.88
618.185	206.88
618.393	199.88
618.6	204.88
618.807	205.88
619.015	202.88
619.222	198.88
619.429	203.88
619.637	194.88
619.844	210.88
620.051	193.88
620.258	198.88
620.466	203.88
620.673	185.88
620.88	174.88
621.087	206.88
621.294	189.88
621.501	202.88
621.708	198.88
621.915	202.88
622.122	203.88
622.329	200.88
622.536	215.88
622.743	193.88
622.95	203.88
623.157	199.88
623.364	193.88
623.571	197.88
623.778	210.88
623.985	190.88
624.192	214.88
624.399	188.88
624.606	203.88
624.812	201.88
625.019	184.88
625.226	186.88
625.433	201.88
625.639	179.88
625.846	202.88
626.053	186.88
626.259	190.88
626.466	196.88
626.673	173.88
626.879	170.88
627.086	192.88
627.293	178.88
627.499	192.88
627.706	173.88
627.912	201.88
628.119	193.88
628.325	190.88
628.532	190.88
628.738	168.88
628.945	176.88
629.151	176.88
629.357	187.88
629.564	188.88
629.77	188.88
629.976	185.88
630.183	168.88
630.389	172.88
630.595	189.88
630.802	181.88
631.008	164.88
631.214	184.88
631.42	166.88
631.627	180.88
631.833	176.88
632.039	174.88
632.245	166.88
632.451	178.88
632.657	176.88
632.863	179.88
633.069	165.88
633.275	170.88
633.481	182.88
633.688	168.88
633.893	167.88
634.099	157.88
634.305	177.88
634.511	151.88
634.717	167.88
634.923	171.88
635.129	149.88
635.335	176.88
635.541	180.88
635.747	151.88
635.952	150.88
636.158	168.88
636.364	171.88
636.57	160.88
636.775	169.88
636.981	156.88
637.187	167.88
637.392	154.88
637.598	160.88
637.804	157.88
638.009	173.88
638.215	180.88
638.421	160.88
638.626	179.88
638.832	162.88
639.037	163.88
639.243	160.88
639.448	148.88
639.654	164.88
639.859	164.88
640.065	156.88
640.27	182.88
640.475	148.88
640.681	166.88
640.886	154.88
641.091	141.88
641.297	169.88
641.502	155.88
641.707	148.88
641.913	150.88
642.118	163.88
642.323	157.88
642.528	155.88
642.733	161.88
642.939	169.88
643.144	150.88
643.349	159.88
643.554	152.88
643.759	138.88
643.964	144.88
644.169	169.88
644.374	153.88
644.579	136.88
644.784	168.88
644.989	153.88
645.194	147.88
645.399	148.88
645.604	162.88
645.809	154.88
646.014	147.88
646.219	155.88
646.423	170.88
646.628	166.88
646.833	149.88
647.038	149.88
647.243	154.88
647.447	149.88
647.652	144.88
647.857	145.88
648.062	148.88
648.266	146.88
648.471	162.88
648.676	166.88
648.88	149.88
649.085	130.88
649.289	138.88
649.494	165.88
649.698	163.88
649.903	181.88
650.107	160.88
650.312	156.88
650.516	144.88
650.721	146.88
650.925	152.88
651.13	146.88
651.334	144.88
651.539	141.88
651.743	154.88
651.947	142.88
652.152	122.88
652.356	123.88
652.56	136.88
652.764	140.88
652.969	136.88
653.173	131.88
653.377	129.88
653.581	140.88
653.785	139.88
653.99	127.88
654.194	127.88
654.398	133.88
654.602	126.88
654.806	132.88
655.01	136.88
655.214	129.88
655.418	124.88
655.622	132.88
655.826	120.88
656.03	118.88
656.234	126.88
656.438	137.88
656.642	117.88
656.846	120.88
657.049	119.88
657.253	120.88
657.457	112.88
657.661	123.88
657.865	130.88
658.068	122.88
658.272	116.88
658.476	97.88
658.68	107.88
658.883	99.88
659.087	87.88
659.291	101.88
659.494	106.88
659.698	96.88
659.901	100.88
660.105	117.88
660.309	90.88
660.512	94.88
660.716	100.88
660.919	101.88
661.123	89.88
661.326	90.88
661.53	84.88
661.733	89.88
661.936	88.88
662.14	84.88
662.343	90.88
662.546	91.88
662.75	87.88
662.953	77.88
663.156	84.88
663.36	82.88
663.563	97.88
663.766	96.88
663.969	79.88
664.173	94.88
664.376	89.88
664.579	64.88
664.782	84.88
664.985	76.88
665.188	77.88
665.391	89.88
665.594	77.88
665.797	82.88
666	78.88
666.203	88.88
666.406	80.88
666.609	74.88
666.812	70.88
667.015	83.88
667.218	81.88
667.421	87.88
667.624	82.88
667.827	90.88
668.03	74.88
668.232	72.88
668.435	88.88
668.638	91.88
668.841	85.88
669.043	77.88
669.246	75.88
669.449	80.88
669.651	82.88
669.854	71.88
670.057	84.88
670.259	66.88
670.462	65.88
670.665	80.88
670.867	74.88
671.07	91.88
671.272	88.88
671.475	94.88
671.677	88.88
671.88	92.88
672.082	77.88
672.284	86.88
672.487	71.88
672.689	78.88
672.892	88.88
