Data from 1987.PennyLincolnUp.Lamp.En5.5.200Scan.071819.P2_HRD10591_17-15-42-971.txt Node
Date: Thu Jul 18 17:15:42 EDT 2019
User: cochatt
Spectrometer: HR+D1059
Trigger mode: 1
Integration Time (sec): 1.000000E-1
Scans to average: 1
Electric dark correction enabled: true
Nonlinearity correction enabled: false
Boxcar width: 0
XAxis mode: Wavelengths
Number of Pixels in Spectrum: 2048
>>>>>Begin Spectral Data<<<<<
223.165	-19.31
223.4	-19.31
223.635	-19.31
223.869	-17.31
224.104	-17.31
224.338	-19.31
224.573	3.69
224.808	-13.31
225.042	-13.31
225.277	-19.31
225.511	-9.31
225.746	10.69
225.98	3.69
226.215	12.69
226.449	18.69
226.683	24.69
226.918	18.69
227.152	35.69
227.387	37.69
227.621	33.69
227.856	39.69
228.09	42.69
228.324	58.69
228.559	64.69
228.793	65.69
229.027	104.69
229.262	109.69
229.496	127.69
229.73	159.69
229.964	179.69
230.199	141.69
230.433	126.69
230.667	126.69
230.901	128.69
231.136	114.69
231.37	118.69
231.604	117.69
231.838	106.69
232.072	102.69
232.306	119.69
232.541	110.69
232.775	125.69
233.009	116.69
233.243	124.69
233.477	116.69
233.711	111.69
233.945	116.69
234.179	118.69
234.413	117.69
234.647	116.69
234.881	132.69
235.115	125.69
235.349	123.69
235.583	134.69
235.817	132.69
236.051	146.69
236.285	125.69
236.519	134.69
236.753	123.69
236.987	153.69
237.221	211.69
237.455	274.69
237.689	228.69
237.922	158.69
238.156	151.69
238.39	141.69
238.624	124.69
238.858	130.69
239.091	132.69
239.325	131.69
239.559	135.69
239.793	132.69
240.027	128.69
240.26	152.69
240.494	175.69
240.728	157.69
240.961	150.69
241.195	145.69
241.429	150.69
241.662	138.69
241.896	151.69
242.13	144.69
242.363	141.69
242.597	117.69
242.83	143.69
243.064	146.69
243.298	128.69
243.531	143.69
243.765	132.69
243.998	134.69
244.232	140.69
244.465	153.69
244.699	148.69
244.932	147.69
245.166	145.69
245.399	116.69
245.633	123.69
245.866	157.69
246.099	138.69
246.333	146.69
246.566	148.69
246.8	137.69
247.033	163.69
247.266	159.69
247.5	159.69
247.733	184.69
247.966	172.69
248.2	174.69
248.433	147.69
248.666	181.69
248.899	178.69
249.133	194.69
249.366	202.69
249.599	206.69
249.832	182.69
250.066	166.69
250.299	167.69
250.532	176.69
250.765	183.69
250.998	217.69
251.231	229.69
251.465	216.69
251.698	208.69
251.931	203.69
252.164	203.69
252.397	210.69
252.63	207.69
252.863	205.69
253.096	212.69
253.329	236.69
253.562	233.69
253.795	226.69
254.028	224.69
254.261	226.69
254.494	232.69
254.727	263.69
254.96	293.69
255.193	262.69
255.426	234.69
255.659	227.69
255.892	217.69
256.124	226.69
256.357	197.69
256.59	211.69
256.823	214.69
257.056	206.69
257.289	195.69
257.521	212.69
257.754	215.69
257.987	198.69
258.22	205.69
258.452	196.69
258.685	206.69
258.918	204.69
259.151	201.69
259.383	201.69
259.616	219.69
259.849	231.69
260.081	243.69
260.314	244.69
260.547	260.69
260.779	238.69
261.012	228.69
261.244	214.69
261.477	214.69
261.71	212.69
261.942	230.69
262.175	245.69
262.407	242.69
262.64	217.69
262.872	218.69
263.105	206.69
263.337	195.69
263.57	192.69
263.802	183.69
264.035	197.69
264.267	215.69
264.499	209.69
264.732	188.69
264.964	206.69
265.197	189.69
265.429	202.69
265.661	194.69
265.894	202.69
266.126	195.69
266.358	207.69
266.591	178.69
266.823	218.69
267.055	231.69
267.287	220.69
267.52	203.69
267.752	196.69
267.984	217.69
268.216	221.69
268.448	234.69
268.681	210.69
268.913	219.69
269.145	236.69
269.377	283.69
269.609	273.69
269.841	246.69
270.073	271.69
270.306	277.69
270.538	298.69
270.77	306.69
271.002	302.69
271.234	302.69
271.466	288.69
271.698	308.69
271.93	298.69
272.162	309.69
272.394	314.69
272.626	302.69
272.858	295.69
273.09	269.69
273.322	258.69
273.553	262.69
273.785	243.69
274.017	245.69
274.249	242.69
274.481	263.69
274.713	224.69
274.945	245.69
275.176	237.69
275.408	261.69
275.64	225.69
275.872	243.69
276.104	250.69
276.335	252.69
276.567	232.69
276.799	296.69
277.031	293.69
277.262	300.69
277.494	300.69
277.726	294.69
277.957	259.69
278.189	268.69
278.421	263.69
278.652	228.69
278.884	249.69
279.115	239.69
279.347	247.69
279.579	226.69
279.81	254.69
280.042	236.69
280.273	238.69
280.505	232.69
280.736	228.69
280.968	232.69
281.199	233.69
281.431	228.69
281.662	230.69
281.894	228.69
282.125	233.69
282.356	250.69
282.588	280.69
282.819	294.69
283.051	255.69
283.282	230.69
283.513	238.69
283.745	239.69
283.976	236.69
284.207	246.69
284.439	254.69
284.67	222.69
284.901	242.69
285.132	251.69
285.364	231.69
285.595	220.69
285.826	237.69
286.057	230.69
286.288	240.69
286.52	236.69
286.751	213.69
286.982	235.69
287.213	235.69
287.444	244.69
287.675	222.69
287.906	250.69
288.138	264.69
288.369	265.69
288.6	251.69
288.831	246.69
289.062	259.69
289.293	263.69
289.524	233.69
289.755	242.69
289.986	242.69
290.217	233.69
290.448	244.69
290.679	250.69
290.91	255.69
291.141	218.69
291.371	219.69
291.602	247.69
291.833	237.69
292.064	226.69
292.295	234.69
292.526	242.69
292.757	244.69
292.987	248.69
293.218	227.69
293.449	233.69
293.68	268.69
293.91	221.69
294.141	242.69
294.372	243.69
294.603	239.69
294.833	237.69
295.064	264.69
295.295	248.69
295.525	248.69
295.756	248.69
295.987	259.69
296.217	294.69
296.448	311.69
296.679	254.69
296.909	233.69
297.14	242.69
297.37	249.69
297.601	238.69
297.831	262.69
298.062	244.69
298.292	228.69
298.523	248.69
298.753	248.69
298.984	251.69
299.214	244.69
299.445	254.69
299.675	246.69
299.905	272.69
300.136	261.69
300.366	245.69
300.597	250.69
300.827	279.69
301.057	258.69
301.288	297.69
301.518	294.69
301.748	273.69
301.979	278.69
302.209	263.69
302.439	258.69
302.669	267.69
302.9	271.69
303.13	262.69
303.36	291.69
303.59	296.69
303.82	290.69
304.051	270.69
304.281	260.69
304.511	256.69
304.741	273.69
304.971	262.69
305.201	271.69
305.431	272.69
305.661	264.69
305.891	283.69
306.121	276.69
306.352	286.69
306.582	288.69
306.812	282.69
307.042	287.69
307.272	254.69
307.502	290.69
307.731	285.69
307.961	269.69
308.191	264.69
308.421	299.69
308.651	274.69
308.881	298.69
309.111	297.69
309.341	287.69
309.571	309.69
309.8	342.69
310.03	337.69
310.26	360.69
310.49	347.69
310.72	359.69
310.949	383.69
311.179	382.69
311.409	358.69
311.639	350.69
311.868	349.69
312.098	340.69
312.328	359.69
312.557	398.69
312.787	415.69
313.017	388.69
313.246	367.69
313.476	337.69
313.706	326.69
313.935	338.69
314.165	361.69
314.394	376.69
314.624	390.69
314.853	373.69
315.083	349.69
315.312	313.69
315.542	324.69
315.771	326.69
316.001	327.69
316.23	325.69
316.46	331.69
316.689	338.69
316.919	338.69
317.148	357.69
317.377	356.69
317.607	337.69
317.836	326.69
318.065	340.69
318.295	344.69
318.524	324.69
318.753	321.69
318.983	333.69
319.212	340.69
319.441	350.69
319.67	359.69
319.9	332.69
320.129	338.69
320.358	347.69
320.587	335.69
320.816	365.69
321.046	354.69
321.275	373.69
321.504	384.69
321.733	387.69
321.962	383.69
322.191	398.69
322.42	432.69
322.649	459.69
322.878	476.69
323.108	485.69
323.337	504.69
323.566	526.69
323.795	593.69
324.024	671.69
324.253	873.69
324.482	1239.69
324.71	1931.69
324.939	2606.69
325.168	2328.69
325.397	1290.69
325.626	829.69
325.855	666.69
326.084	587.69
326.313	548.69
326.542	570.69
326.77	637.69
326.999	757.69
327.228	1076.69
327.457	1646.69
327.686	2012.69
327.914	1414.69
328.143	892.69
328.372	741.69
328.6	672.69
328.829	632.69
329.058	646.69
329.287	672.69
329.515	615.69
329.744	508.69
329.972	506.69
330.201	512.69
330.43	546.69
330.658	611.69
330.887	669.69
331.115	676.69
331.344	546.69
331.572	491.69
331.801	478.69
332.03	482.69
332.258	455.69
332.486	416.69
332.715	404.69
332.943	386.69
333.172	409.69
333.4	386.69
333.629	393.69
333.857	428.69
334.085	406.69
334.314	399.69
334.542	407.69
334.771	393.69
334.999	406.69
335.227	405.69
335.455	382.69
335.684	378.69
335.912	382.69
336.14	375.69
336.369	389.69
336.597	400.69
336.825	411.69
337.053	389.69
337.281	378.69
337.51	375.69
337.738	372.69
337.966	371.69
338.194	381.69
338.422	394.69
338.65	374.69
338.878	359.69
339.106	384.69
339.334	383.69
339.562	366.69
339.79	354.69
340.018	362.69
340.246	390.69
340.474	376.69
340.702	389.69
340.93	373.69
341.158	356.69
341.386	357.69
341.614	381.69
341.842	384.69
342.07	403.69
342.298	362.69
342.526	359.69
342.754	352.69
342.981	357.69
343.209	334.69
343.437	363.69
343.665	381.69
343.893	359.69
344.12	364.69
344.348	354.69
344.576	358.69
344.804	389.69
345.031	396.69
345.259	413.69
345.487	386.69
345.714	380.69
345.942	365.69
346.17	378.69
346.397	373.69
346.625	374.69
346.853	363.69
347.08	384.69
347.308	388.69
347.535	382.69
347.763	410.69
347.99	391.69
348.218	402.69
348.445	401.69
348.673	403.69
348.9	389.69
349.128	376.69
349.355	365.69
349.583	335.69
349.81	356.69
350.037	354.69
350.265	371.69
350.492	359.69
350.72	377.69
350.947	370.69
351.174	371.69
351.402	409.69
351.629	406.69
351.856	388.69
352.083	408.69
352.311	419.69
352.538	400.69
352.765	415.69
352.992	412.69
353.22	392.69
353.447	396.69
353.674	389.69
353.901	354.69
354.128	333.69
354.355	350.69
354.583	332.69
354.81	349.69
355.037	323.69
355.264	327.69
355.491	339.69
355.718	329.69
355.945	322.69
356.172	332.69
356.399	344.69
356.626	351.69
356.853	339.69
357.08	326.69
357.307	334.69
357.534	338.69
357.761	346.69
357.988	335.69
358.215	346.69
358.441	335.69
358.668	354.69
358.895	348.69
359.122	330.69
359.349	348.69
359.576	386.69
359.802	426.69
360.029	479.69
360.256	478.69
360.483	470.69
360.709	404.69
360.936	390.69
361.163	372.69
361.39	389.69
361.616	386.69
361.843	369.69
362.07	381.69
362.296	372.69
362.523	374.69
362.749	363.69
362.976	374.69
363.203	360.69
363.429	362.69
363.656	372.69
363.882	354.69
364.109	365.69
364.335	342.69
364.562	347.69
364.788	351.69
365.015	352.69
365.241	350.69
365.468	350.69
365.694	357.69
365.92	367.69
366.147	344.69
366.373	362.69
366.599	324.69
366.826	345.69
367.052	346.69
367.278	348.69
367.505	348.69
367.731	351.69
367.957	338.69
368.184	350.69
368.41	363.69
368.636	351.69
368.862	362.69
369.089	370.69
369.315	355.69
369.541	348.69
369.767	341.69
369.993	342.69
370.219	357.69
370.445	344.69
370.672	317.69
370.898	329.69
371.124	331.69
371.35	334.69
371.576	335.69
371.802	325.69
372.028	345.69
372.254	354.69
372.48	327.69
372.706	340.69
372.932	332.69
373.158	339.69
373.384	346.69
373.61	343.69
373.835	340.69
374.061	330.69
374.287	337.69
374.513	331.69
374.739	329.69
374.965	335.69
375.191	332.69
375.416	336.69
375.642	331.69
375.868	356.69
376.094	348.69
376.319	320.69
376.545	332.69
376.771	343.69
376.997	336.69
377.222	345.69
377.448	334.69
377.674	340.69
377.899	331.69
378.125	340.69
378.35	329.69
378.576	332.69
378.802	341.69
379.027	318.69
379.253	327.69
379.478	324.69
379.704	323.69
379.929	333.69
380.155	321.69
380.38	350.69
380.606	338.69
380.831	342.69
381.057	320.69
381.282	346.69
381.507	351.69
381.733	317.69
381.958	328.69
382.184	359.69
382.409	339.69
382.634	336.69
382.86	336.69
383.085	340.69
383.31	341.69
383.535	335.69
383.761	328.69
383.986	341.69
384.211	328.69
384.436	327.69
384.662	360.69
384.887	352.69
385.112	302.69
385.337	350.69
385.562	336.69
385.787	343.69
386.013	374.69
386.238	368.69
386.463	376.69
386.688	376.69
386.913	367.69
387.138	364.69
387.363	353.69
387.588	363.69
387.813	355.69
388.038	355.69
388.263	354.69
388.488	342.69
388.713	355.69
388.938	349.69
389.163	349.69
389.387	351.69
389.612	362.69
389.837	349.69
390.062	336.69
390.287	323.69
390.512	355.69
390.736	343.69
390.961	345.69
391.186	340.69
391.411	357.69
391.636	362.69
391.86	355.69
392.085	352.69
392.31	373.69
392.534	368.69
392.759	349.69
392.984	358.69
393.208	363.69
393.433	336.69
393.658	358.69
393.882	346.69
394.107	340.69
394.331	378.69
394.556	340.69
394.78	363.69
395.005	359.69
395.229	324.69
395.454	374.69
395.678	370.69
395.903	379.69
396.127	380.69
396.352	398.69
396.576	378.69
396.801	356.69
397.025	342.69
397.249	362.69
397.474	389.69
397.698	381.69
397.922	383.69
398.147	385.69
398.371	399.69
398.595	396.69
398.82	379.69
399.044	385.69
399.268	390.69
399.492	400.69
399.717	424.69
399.941	458.69
400.165	484.69
400.389	490.69
400.613	459.69
400.837	452.69
401.062	421.69
401.286	422.69
401.51	402.69
401.734	399.69
401.958	412.69
402.182	423.69
402.406	444.69
402.63	425.69
402.854	421.69
403.078	419.69
403.302	400.69
403.526	432.69
403.75	426.69
403.974	429.69
404.198	411.69
404.422	420.69
404.645	435.69
404.869	427.69
405.093	440.69
405.317	466.69
405.541	476.69
405.765	482.69
405.988	447.69
406.212	469.69
406.436	505.69
406.66	492.69
406.883	487.69
407.107	521.69
407.331	516.69
407.555	589.69
407.778	591.69
408.002	535.69
408.226	486.69
408.449	498.69
408.673	487.69
408.896	521.69
409.12	557.69
409.344	519.69
409.567	477.69
409.791	447.69
410.014	443.69
410.238	407.69
410.461	429.69
410.685	438.69
410.908	439.69
411.132	469.69
411.355	511.69
411.578	488.69
411.802	462.69
412.025	432.69
412.249	429.69
412.472	435.69
412.695	434.69
412.919	425.69
413.142	411.69
413.365	398.69
413.589	390.69
413.812	407.69
414.035	417.69
414.258	394.69
414.482	372.69
414.705	395.69
414.928	398.69
415.151	410.69
415.374	406.69
415.597	391.69
415.821	401.69
416.044	388.69
416.267	404.69
416.49	409.69
416.713	417.69
416.936	400.69
417.159	400.69
417.382	407.69
417.605	407.69
417.828	428.69
418.051	448.69
418.274	439.69
418.497	418.69
418.72	418.69
418.943	421.69
419.166	418.69
419.389	430.69
419.611	412.69
419.834	428.69
420.057	441.69
420.28	425.69
420.503	420.69
420.726	415.69
420.948	440.69
421.171	495.69
421.394	539.69
421.617	470.69
421.839	453.69
422.062	427.69
422.285	481.69
422.507	542.69
422.73	607.69
422.953	572.69
423.175	522.69
423.398	481.69
423.621	461.69
423.843	485.69
424.066	492.69
424.288	515.69
424.511	516.69
424.733	556.69
424.956	636.69
425.178	637.69
425.401	621.69
425.623	638.69
425.846	561.69
426.068	525.69
426.291	520.69
426.513	495.69
426.735	543.69
426.958	566.69
427.18	651.69
427.402	761.69
427.625	864.69
427.847	801.69
428.069	679.69
428.292	582.69
428.514	529.69
428.736	484.69
428.958	483.69
429.181	490.69
429.403	472.69
429.625	501.69
429.847	531.69
430.069	571.69
430.292	598.69
430.514	483.69
430.736	487.69
430.958	459.69
431.18	431.69
431.402	446.69
431.624	435.69
431.846	402.69
432.068	444.69
432.29	439.69
432.512	443.69
432.734	439.69
432.956	452.69
433.178	452.69
433.4	466.69
433.622	445.69
433.844	454.69
434.066	434.69
434.287	437.69
434.509	410.69
434.731	445.69
434.953	438.69
435.175	437.69
435.397	502.69
435.618	526.69
435.84	578.69
436.062	633.69
436.284	725.69
436.505	598.69
436.727	554.69
436.949	518.69
437.17	503.69
437.392	488.69
437.614	501.69
437.835	563.69
438.057	646.69
438.278	721.69
438.5	741.69
438.721	786.69
438.943	760.69
439.165	633.69
439.386	551.69
439.608	554.69
439.829	533.69
440.05	575.69
440.272	619.69
440.493	598.69
440.715	549.69
440.936	519.69
441.158	494.69
441.379	480.69
441.6	485.69
441.822	530.69
442.043	550.69
442.264	619.69
442.486	679.69
442.707	568.69
442.928	560.69
443.149	572.69
443.371	575.69
443.592	603.69
443.813	684.69
444.034	741.69
444.255	649.69
444.476	536.69
444.698	507.69
444.919	520.69
445.14	612.69
445.361	572.69
445.582	573.69
445.803	615.69
446.024	732.69
446.245	728.69
446.466	683.69
446.687	598.69
446.908	534.69
447.129	523.69
447.35	503.69
447.571	490.69
447.792	496.69
448.013	486.69
448.234	534.69
448.455	586.69
448.675	682.69
448.896	759.69
449.117	660.69
449.338	643.69
449.559	718.69
449.779	802.69
450	660.69
450.221	535.69
450.442	512.69
450.662	516.69
450.883	515.69
451.104	532.69
451.324	531.69
451.545	467.69
451.766	453.69
451.986	448.69
452.207	434.69
452.428	426.69
452.648	448.69
452.869	446.69
453.089	441.69
453.31	469.69
453.53	467.69
453.751	421.69
453.971	464.69
454.192	483.69
454.412	483.69
454.633	428.69
454.853	450.69
455.073	450.69
455.294	471.69
455.514	543.69
455.734	521.69
455.955	439.69
456.175	422.69
456.395	388.69
456.616	398.69
456.836	410.69
457.056	387.69
457.276	377.69
457.497	404.69
457.717	402.69
457.937	401.69
458.157	402.69
458.377	414.69
458.598	446.69
458.818	515.69
459.038	628.69
459.258	664.69
459.478	537.69
459.698	474.69
459.918	430.69
460.138	431.69
460.358	452.69
460.578	416.69
460.798	450.69
461.018	428.69
461.238	415.69
461.458	423.69
461.678	415.69
461.898	437.69
462.118	416.69
462.338	423.69
462.558	418.69
462.777	411.69
462.997	420.69
463.217	429.69
463.437	436.69
463.657	427.69
463.876	452.69
464.096	428.69
464.316	432.69
464.536	462.69
464.755	465.69
464.975	474.69
465.195	543.69
465.414	676.69
465.634	596.69
465.854	520.69
466.073	494.69
466.293	449.69
466.512	441.69
466.732	435.69
466.951	431.69
467.171	423.69
467.391	437.69
467.61	443.69
467.829	455.69
468.049	446.69
468.268	418.69
468.488	416.69
468.707	426.69
468.927	419.69
469.146	415.69
469.365	407.69
469.585	413.69
469.804	437.69
470.023	473.69
470.243	446.69
470.462	468.69
470.681	485.69
470.901	487.69
471.12	464.69
471.339	442.69
471.558	431.69
471.777	423.69
471.997	407.69
472.216	427.69
472.435	414.69
472.654	410.69
472.873	420.69
473.092	422.69
473.311	415.69
473.53	419.69
473.749	462.69
473.968	478.69
474.187	586.69
474.406	631.69
474.625	521.69
474.844	475.69
475.063	440.69
475.282	416.69
475.501	432.69
475.72	440.69
475.939	429.69
476.158	458.69
476.377	444.69
476.596	456.69
476.814	470.69
477.033	452.69
477.252	464.69
477.471	482.69
477.69	452.69
477.908	460.69
478.127	467.69
478.346	474.69
478.564	481.69
478.783	475.69
479.002	492.69
479.22	490.69
479.439	517.69
479.658	557.69
479.876	533.69
480.095	533.69
480.313	550.69
480.532	543.69
480.751	528.69
480.969	532.69
481.188	534.69
481.406	552.69
481.624	529.69
481.843	522.69
482.061	532.69
482.28	520.69
482.498	510.69
482.717	526.69
482.935	527.69
483.153	525.69
483.372	516.69
483.59	515.69
483.808	496.69
484.027	519.69
484.245	507.69
484.463	524.69
484.681	514.69
484.9	535.69
485.118	519.69
485.336	537.69
485.554	527.69
485.772	548.69
485.99	523.69
486.209	522.69
486.427	558.69
486.645	580.69
486.863	597.69
487.081	573.69
487.299	560.69
487.517	552.69
487.735	544.69
487.953	542.69
488.171	556.69
488.389	583.69
488.607	549.69
488.825	559.69
489.043	572.69
489.261	574.69
489.479	573.69
489.696	572.69
489.914	574.69
490.132	566.69
490.35	592.69
490.568	595.69
490.786	612.69
491.003	597.69
491.221	621.69
491.439	612.69
491.657	634.69
491.874	650.69
492.092	639.69
492.31	660.69
492.527	638.69
492.745	650.69
492.963	649.69
493.18	666.69
493.398	675.69
493.615	674.69
493.833	657.69
494.05	660.69
494.268	671.69
494.485	649.69
494.703	661.69
494.92	667.69
495.138	656.69
495.355	638.69
495.573	647.69
495.79	666.69
496.008	675.69
496.225	677.69
496.442	683.69
496.66	668.69
496.877	696.69
497.094	682.69
497.312	702.69
497.529	686.69
497.746	685.69
497.963	671.69
498.181	724.69
498.398	693.69
498.615	721.69
498.832	734.69
499.049	740.69
499.267	754.69
499.484	767.69
499.701	749.69
499.918	770.69
500.135	780.69
500.352	796.69
500.569	822.69
500.786	816.69
501.003	785.69
501.22	756.69
501.437	805.69
501.654	796.69
501.871	808.69
502.088	802.69
502.305	764.69
502.522	743.69
502.739	737.69
502.956	713.69
503.172	705.69
503.389	695.69
503.606	673.69
503.823	733.69
504.04	711.69
504.256	672.69
504.473	685.69
504.69	682.69
504.907	677.69
505.123	657.69
505.34	669.69
505.557	663.69
505.773	683.69
505.99	648.69
506.207	678.69
506.423	666.69
506.64	664.69
506.856	651.69
507.073	648.69
507.289	676.69
507.506	653.69
507.722	675.69
507.939	716.69
508.155	706.69
508.372	676.69
508.588	692.69
508.805	650.69
509.021	653.69
509.238	655.69
509.454	688.69
509.67	673.69
509.887	678.69
510.103	653.69
510.319	682.69
510.536	829.69
510.752	1552.69
510.968	1258.69
511.184	734.69
511.401	667.69
511.617	674.69
511.833	657.69
512.049	632.69
512.265	642.69
512.481	636.69
512.698	651.69
512.914	623.69
513.13	627.69
513.346	646.69
513.562	649.69
513.778	668.69
513.994	675.69
514.21	694.69
514.426	748.69
514.642	812.69
514.858	862.69
515.074	948.69
515.29	1177.69
515.506	1850.69
515.721	1468.69
515.937	920.69
516.153	784.69
516.369	728.69
516.585	708.69
516.801	678.69
517.016	662.69
517.232	653.69
517.448	663.69
517.664	667.69
517.879	634.69
518.095	644.69
518.311	643.69
518.527	645.69
518.742	646.69
518.958	650.69
519.173	637.69
519.389	642.69
519.605	637.69
519.82	677.69
520.036	677.69
520.251	721.69
520.467	755.69
520.682	760.69
520.898	784.69
521.113	868.69
521.329	933.69
521.544	1090.69
521.76	1472.69
521.975	2548.69
522.19	2465.69
522.406	1297.69
522.621	895.69
522.836	760.69
523.052	705.69
523.267	669.69
523.482	621.69
523.698	613.69
523.913	651.69
524.128	635.69
524.343	603.69
524.559	584.69
524.774	571.69
524.989	560.69
525.204	579.69
525.419	598.69
525.634	556.69
525.849	546.69
526.064	539.69
526.28	546.69
526.495	522.69
526.71	498.69
526.925	523.69
527.14	524.69
527.355	485.69
527.57	504.69
527.785	484.69
527.999	502.69
528.214	503.69
528.429	493.69
528.644	500.69
528.859	503.69
529.074	521.69
529.289	571.69
529.503	674.69
529.718	662.69
529.933	587.69
530.148	527.69
530.363	511.69
530.577	518.69
530.792	507.69
531.007	471.69
531.221	497.69
531.436	468.69
531.651	476.69
531.865	473.69
532.08	470.69
532.295	483.69
532.509	480.69
532.724	481.69
532.938	478.69
533.153	460.69
533.367	456.69
533.582	468.69
533.796	468.69
534.011	477.69
534.225	473.69
534.44	452.69
534.654	460.69
534.868	444.69
535.083	447.69
535.297	456.69
535.511	475.69
535.726	479.69
535.94	491.69
536.154	486.69
536.369	469.69
536.583	455.69
536.797	434.69
537.011	438.69
537.225	433.69
537.44	449.69
537.654	440.69
537.868	442.69
538.082	453.69
538.296	439.69
538.51	440.69
538.724	456.69
538.938	458.69
539.153	458.69
539.367	457.69
539.581	484.69
539.795	464.69
540.009	444.69
540.222	456.69
540.436	444.69
540.65	428.69
540.864	464.69
541.078	466.69
541.292	452.69
541.506	442.69
541.72	442.69
541.934	454.69
542.147	441.69
542.361	447.69
542.575	415.69
542.789	432.69
543.002	415.69
543.216	436.69
543.43	434.69
543.644	447.69
543.857	442.69
544.071	429.69
544.285	446.69
544.498	422.69
544.712	426.69
544.925	426.69
545.139	414.69
545.352	435.69
545.566	417.69
545.779	430.69
545.993	408.69
546.206	403.69
546.42	411.69
546.633	421.69
546.847	392.69
547.06	411.69
547.274	410.69
547.487	395.69
547.7	400.69
547.914	419.69
548.127	389.69
548.34	412.69
548.554	398.69
548.767	391.69
548.98	411.69
549.193	419.69
549.407	392.69
549.62	400.69
549.833	411.69
550.046	378.69
550.259	382.69
550.473	386.69
550.686	393.69
550.899	400.69
551.112	404.69
551.325	378.69
551.538	395.69
551.751	383.69
551.964	402.69
552.177	391.69
552.39	375.69
552.603	399.69
552.816	390.69
553.029	398.69
553.242	392.69
553.455	375.69
553.667	395.69
553.88	423.69
554.093	415.69
554.306	413.69
554.519	410.69
554.732	380.69
554.944	384.69
555.157	387.69
555.37	366.69
555.583	382.69
555.795	381.69
556.008	372.69
556.221	373.69
556.433	373.69
556.646	376.69
556.859	377.69
557.071	375.69
557.284	362.69
557.496	366.69
557.709	375.69
557.921	374.69
558.134	361.69
558.346	357.69
558.559	379.69
558.771	369.69
558.984	362.69
559.196	368.69
559.409	344.69
559.621	355.69
559.833	361.69
560.046	360.69
560.258	382.69
560.47	368.69
560.683	354.69
560.895	362.69
561.107	359.69
561.32	344.69
561.532	339.69
561.744	356.69
561.956	364.69
562.168	371.69
562.381	343.69
562.593	346.69
562.805	341.69
563.017	350.69
563.229	343.69
563.441	356.69
563.653	350.69
563.865	370.69
564.077	363.69
564.289	357.69
564.501	372.69
564.713	351.69
564.925	362.69
565.137	372.69
565.349	382.69
565.561	385.69
565.773	373.69
565.985	385.69
566.197	384.69
566.408	384.69
566.62	380.69
566.832	390.69
567.044	397.69
567.255	407.69
567.467	394.69
567.679	381.69
567.891	384.69
568.102	400.69
568.314	380.69
568.526	389.69
568.737	386.69
568.949	375.69
569.161	357.69
569.372	351.69
569.584	351.69
569.795	375.69
570.007	371.69
570.218	448.69
570.43	434.69
570.641	365.69
570.853	359.69
571.064	324.69
571.276	336.69
571.487	329.69
571.698	324.69
571.91	332.69
572.121	327.69
572.333	326.69
572.544	306.69
572.755	335.69
572.966	333.69
573.178	333.69
573.389	323.69
573.6	322.69
573.811	312.69
574.023	313.69
574.234	327.69
574.445	327.69
574.656	319.69
574.867	292.69
575.078	315.69
575.289	296.69
575.501	294.69
575.712	329.69
575.923	316.69
576.134	309.69
576.345	310.69
576.556	310.69
576.767	290.69
576.978	306.69
577.188	307.69
577.399	293.69
577.61	285.69
577.821	319.69
578.032	332.69
578.243	365.69
578.454	739.69
578.665	507.69
578.875	351.69
579.086	315.69
579.297	303.69
579.508	300.69
579.718	300.69
579.929	290.69
580.14	297.69
580.35	280.69
580.561	290.69
580.772	292.69
580.982	264.69
581.193	279.69
581.403	290.69
581.614	310.69
581.825	277.69
582.035	290.69
582.246	274.69
582.456	294.69
582.667	295.69
582.877	275.69
583.087	280.69
583.298	271.69
583.508	296.69
583.719	302.69
583.929	301.69
584.139	272.69
584.35	290.69
584.56	268.69
584.77	278.69
584.981	297.69
585.191	268.69
585.401	276.69
585.611	277.69
585.821	276.69
586.032	282.69
586.242	265.69
586.452	259.69
586.662	284.69
586.872	290.69
587.082	282.69
587.292	280.69
587.502	268.69
587.713	263.69
587.923	278.69
588.133	264.69
588.343	270.69
588.553	266.69
588.762	261.69
588.972	279.69
589.182	287.69
589.392	313.69
589.602	280.69
589.812	283.69
590.022	263.69
590.232	280.69
590.441	246.69
590.651	282.69
590.861	257.69
591.071	277.69
591.281	269.69
591.49	271.69
591.7	269.69
591.91	256.69
592.119	271.69
592.329	272.69
592.539	275.69
592.748	279.69
592.958	256.69
593.167	286.69
593.377	275.69
593.587	268.69
593.796	285.69
594.006	267.69
594.215	268.69
594.424	264.69
594.634	253.69
594.843	267.69
595.053	260.69
595.262	275.69
595.472	254.69
595.681	260.69
595.89	272.69
596.1	261.69
596.309	261.69
596.518	260.69
596.727	232.69
596.937	235.69
597.146	267.69
597.355	249.69
597.564	248.69
597.774	263.69
597.983	264.69
598.192	244.69
598.401	258.69
598.61	243.69
598.819	234.69
599.028	237.69
599.237	251.69
599.446	250.69
599.655	259.69
599.864	262.69
600.073	242.69
600.282	233.69
600.491	238.69
600.7	254.69
600.909	221.69
601.118	238.69
601.327	248.69
601.536	230.69
601.745	248.69
601.953	237.69
602.162	225.69
602.371	223.69
602.58	225.69
602.789	244.69
602.997	223.69
603.206	233.69
603.415	231.69
603.623	221.69
603.832	224.69
604.041	217.69
604.249	216.69
604.458	225.69
604.666	232.69
604.875	252.69
605.084	235.69
605.292	232.69
605.501	215.69
605.709	224.69
605.918	215.69
606.126	222.69
606.334	226.69
606.543	245.69
606.751	229.69
606.96	220.69
607.168	235.69
607.376	200.69
607.585	226.69
607.793	228.69
608.001	225.69
608.21	195.69
608.418	243.69
608.626	220.69
608.834	223.69
609.043	211.69
609.251	220.69
609.459	233.69
609.667	229.69
609.875	216.69
610.083	207.69
610.291	229.69
610.499	218.69
610.707	209.69
610.916	229.69
611.124	231.69
611.332	230.69
611.54	221.69
611.748	233.69
611.955	220.69
612.163	225.69
612.371	223.69
612.579	232.69
612.787	231.69
612.995	225.69
613.203	228.69
613.411	206.69
613.618	218.69
613.826	227.69
614.034	223.69
614.242	223.69
614.449	212.69
614.657	217.69
614.865	213.69
615.072	215.69
615.28	213.69
615.488	204.69
615.695	213.69
615.903	212.69
616.111	210.69
616.318	207.69
616.526	205.69
616.733	211.69
616.941	200.69
617.148	206.69
617.356	211.69
617.563	214.69
617.771	209.69
617.978	208.69
618.185	205.69
618.393	219.69
618.6	210.69
618.807	202.69
619.015	216.69
619.222	208.69
619.429	216.69
619.637	219.69
619.844	215.69
620.051	219.69
620.258	196.69
620.466	197.69
620.673	211.69
620.88	207.69
621.087	200.69
621.294	209.69
621.501	189.69
621.708	205.69
621.915	207.69
622.122	209.69
622.329	203.69
622.536	199.69
622.743	214.69
622.95	203.69
623.157	215.69
623.364	202.69
623.571	191.69
623.778	192.69
623.985	212.69
624.192	191.69
624.399	187.69
624.606	202.69
624.812	189.69
625.019	195.69
625.226	198.69
625.433	190.69
625.639	201.69
625.846	197.69
626.053	198.69
626.259	182.69
626.466	181.69
626.673	200.69
626.879	207.69
627.086	175.69
627.293	178.69
627.499	182.69
627.706	200.69
627.912	198.69
628.119	203.69
628.325	193.69
628.532	194.69
628.738	204.69
628.945	184.69
629.151	192.69
629.357	193.69
629.564	180.69
629.77	190.69
629.976	185.69
630.183	186.69
630.389	168.69
630.595	176.69
630.802	182.69
631.008	172.69
631.214	178.69
631.42	180.69
631.627	191.69
631.833	172.69
632.039	190.69
632.245	171.69
632.451	196.69
632.657	181.69
632.863	167.69
633.069	178.69
633.275	174.69
633.481	161.69
633.688	166.69
633.893	187.69
634.099	176.69
634.305	168.69
634.511	166.69
634.717	173.69
634.923	186.69
635.129	174.69
635.335	176.69
635.541	167.69
635.747	165.69
635.952	169.69
636.158	175.69
636.364	165.69
636.57	170.69
636.775	182.69
636.981	175.69
637.187	165.69
637.392	182.69
637.598	180.69
637.804	154.69
638.009	155.69
638.215	186.69
638.421	167.69
638.626	186.69
638.832	172.69
639.037	159.69
639.243	159.69
639.448	163.69
639.654	156.69
639.859	164.69
640.065	145.69
640.27	170.69
640.475	174.69
640.681	160.69
640.886	167.69
641.091	163.69
641.297	157.69
641.502	163.69
641.707	152.69
641.913	169.69
642.118	150.69
642.323	148.69
642.528	164.69
642.733	155.69
642.939	165.69
643.144	172.69
643.349	167.69
643.554	159.69
643.759	167.69
643.964	154.69
644.169	158.69
644.374	139.69
644.579	144.69
644.784	174.69
644.989	164.69
645.194	157.69
645.399	162.69
645.604	154.69
645.809	148.69
646.014	169.69
646.219	159.69
646.423	144.69
646.628	158.69
646.833	169.69
647.038	150.69
647.243	165.69
647.447	153.69
647.652	143.69
647.857	138.69
648.062	164.69
648.266	163.69
648.471	167.69
648.676	168.69
648.88	172.69
649.085	163.69
649.289	141.69
649.494	170.69
649.698	178.69
649.903	164.69
650.107	145.69
650.312	158.69
650.516	160.69
650.721	156.69
650.925	140.69
651.13	142.69
651.334	150.69
651.539	151.69
651.743	130.69
651.947	144.69
652.152	122.69
652.356	119.69
652.56	130.69
652.764	120.69
652.969	139.69
653.173	136.69
653.377	132.69
653.581	137.69
653.785	135.69
653.99	133.69
654.194	130.69
654.398	152.69
654.602	132.69
654.806	122.69
655.01	138.69
655.214	126.69
655.418	127.69
655.622	126.69
655.826	138.69
656.03	127.69
656.234	119.69
656.438	114.69
656.642	136.69
656.846	117.69
657.049	121.69
657.253	116.69
657.457	114.69
657.661	110.69
657.865	112.69
658.068	112.69
658.272	104.69
658.476	104.69
658.68	102.69
658.883	99.69
659.087	98.69
659.291	102.69
659.494	102.69
659.698	91.69
659.901	101.69
660.105	93.69
660.309	98.69
660.512	79.69
660.716	90.69
660.919	104.69
661.123	98.69
661.326	92.69
661.53	91.69
661.733	93.69
661.936	96.69
662.14	79.69
662.343	86.69
662.546	92.69
662.75	75.69
662.953	86.69
663.156	94.69
663.36	83.69
663.563	84.69
663.766	82.69
663.969	88.69
664.173	92.69
664.376	90.69
664.579	89.69
664.782	99.69
664.985	107.69
665.188	76.69
665.391	88.69
665.594	100.69
665.797	83.69
666	79.69
666.203	80.69
666.406	75.69
666.609	84.69
666.812	84.69
667.015	85.69
667.218	90.69
667.421	77.69
667.624	89.69
667.827	89.69
668.03	92.69
668.232	80.69
668.435	88.69
668.638	78.69
668.841	92.69
669.043	86.69
669.246	94.69
669.449	71.69
669.651	91.69
669.854	79.69
670.057	91.69
670.259	83.69
670.462	84.69
670.665	90.69
670.867	76.69
671.07	74.69
671.272	77.69
671.475	95.69
671.677	85.69
671.88	86.69
672.082	89.69
672.284	72.69
672.487	88.69
672.689	84.69
672.892	88.69
