Data from 1987.PennyLincolnUp.Lamp.En5.5.200Scan.071819.P2_HRD10591_17-15-59-971.txt Node
Date: Thu Jul 18 17:15:59 EDT 2019
User: cochatt
Spectrometer: HR+D1059
Trigger mode: 1
Integration Time (sec): 1.000000E-1
Scans to average: 1
Electric dark correction enabled: true
Nonlinearity correction enabled: false
Boxcar width: 0
XAxis mode: Wavelengths
Number of Pixels in Spectrum: 2048
>>>>>Begin Spectral Data<<<<<
223.165	-20.25
223.4	-20.25
223.635	-20.25
223.869	-25.25
224.104	-14.25
224.338	-15.25
224.573	-17.25
224.808	-9.25
225.042	-10.25
225.277	2.75
225.511	-3.25
225.746	14.75
225.98	3.75
226.215	9.75
226.449	16.75
226.683	30.75
226.918	9.75
227.152	26.75
227.387	32.75
227.621	53.75
227.856	35.75
228.09	45.75
228.324	47.75
228.559	58.75
228.793	74.75
229.027	109.75
229.262	110.75
229.496	123.75
229.73	155.75
229.964	167.75
230.199	134.75
230.433	121.75
230.667	122.75
230.901	124.75
231.136	115.75
231.37	125.75
231.604	113.75
231.838	106.75
232.072	111.75
232.306	119.75
232.541	110.75
232.775	108.75
233.009	106.75
233.243	106.75
233.477	104.75
233.711	105.75
233.945	118.75
234.179	121.75
234.413	113.75
234.647	115.75
234.881	111.75
235.115	130.75
235.349	113.75
235.583	114.75
235.817	117.75
236.051	129.75
236.285	130.75
236.519	120.75
236.753	118.75
236.987	138.75
237.221	195.75
237.455	268.75
237.689	204.75
237.922	149.75
238.156	143.75
238.39	120.75
238.624	115.75
238.858	116.75
239.091	116.75
239.325	118.75
239.559	111.75
239.793	142.75
240.027	136.75
240.26	153.75
240.494	153.75
240.728	157.75
240.961	132.75
241.195	137.75
241.429	145.75
241.662	137.75
241.896	139.75
242.13	123.75
242.363	135.75
242.597	138.75
242.83	124.75
243.064	123.75
243.298	148.75
243.531	130.75
243.765	137.75
243.998	131.75
244.232	138.75
244.465	139.75
244.699	144.75
244.932	149.75
245.166	127.75
245.399	128.75
245.633	152.75
245.866	130.75
246.099	122.75
246.333	135.75
246.566	148.75
246.8	153.75
247.033	146.75
247.266	154.75
247.5	150.75
247.733	155.75
247.966	151.75
248.2	168.75
248.433	170.75
248.666	170.75
248.899	187.75
249.133	211.75
249.366	216.75
249.599	214.75
249.832	189.75
250.066	167.75
250.299	165.75
250.532	189.75
250.765	186.75
250.998	193.75
251.231	208.75
251.465	210.75
251.698	186.75
251.931	201.75
252.164	184.75
252.397	185.75
252.63	198.75
252.863	198.75
253.096	230.75
253.329	238.75
253.562	227.75
253.795	213.75
254.028	210.75
254.261	211.75
254.494	210.75
254.727	239.75
254.96	282.75
255.193	286.75
255.426	266.75
255.659	220.75
255.892	230.75
256.124	213.75
256.357	220.75
256.59	206.75
256.823	181.75
257.056	194.75
257.289	197.75
257.521	196.75
257.754	198.75
257.987	190.75
258.22	193.75
258.452	196.75
258.685	193.75
258.918	190.75
259.151	189.75
259.383	207.75
259.616	200.75
259.849	234.75
260.081	221.75
260.314	229.75
260.547	229.75
260.779	228.75
261.012	218.75
261.244	218.75
261.477	215.75
261.71	193.75
261.942	223.75
262.175	258.75
262.407	239.75
262.64	229.75
262.872	217.75
263.105	201.75
263.337	209.75
263.57	196.75
263.802	197.75
264.035	186.75
264.267	181.75
264.499	191.75
264.732	193.75
264.964	172.75
265.197	182.75
265.429	186.75
265.661	177.75
265.894	195.75
266.126	181.75
266.358	181.75
266.591	201.75
266.823	200.75
267.055	198.75
267.287	210.75
267.52	201.75
267.752	199.75
267.984	193.75
268.216	191.75
268.448	198.75
268.681	217.75
268.913	224.75
269.145	239.75
269.377	262.75
269.609	248.75
269.841	236.75
270.073	253.75
270.306	280.75
270.538	293.75
270.77	283.75
271.002	285.75
271.234	267.75
271.466	282.75
271.698	305.75
271.93	300.75
272.162	297.75
272.394	317.75
272.626	290.75
272.858	255.75
273.09	263.75
273.322	259.75
273.553	251.75
273.785	245.75
274.017	237.75
274.249	235.75
274.481	232.75
274.713	254.75
274.945	249.75
275.176	233.75
275.408	249.75
275.64	232.75
275.872	229.75
276.104	245.75
276.335	219.75
276.567	251.75
276.799	274.75
277.031	267.75
277.262	286.75
277.494	301.75
277.726	276.75
277.957	264.75
278.189	265.75
278.421	249.75
278.652	246.75
278.884	234.75
279.115	244.75
279.347	241.75
279.579	212.75
279.81	223.75
280.042	209.75
280.273	226.75
280.505	238.75
280.736	224.75
280.968	226.75
281.199	248.75
281.431	217.75
281.662	226.75
281.894	231.75
282.125	235.75
282.356	254.75
282.588	290.75
282.819	293.75
283.051	253.75
283.282	212.75
283.513	225.75
283.745	229.75
283.976	231.75
284.207	241.75
284.439	239.75
284.67	234.75
284.901	239.75
285.132	226.75
285.364	223.75
285.595	216.75
285.826	229.75
286.057	229.75
286.288	223.75
286.52	225.75
286.751	238.75
286.982	232.75
287.213	240.75
287.444	219.75
287.675	239.75
287.906	242.75
288.138	249.75
288.369	251.75
288.6	263.75
288.831	256.75
289.062	234.75
289.293	241.75
289.524	225.75
289.755	231.75
289.986	252.75
290.217	230.75
290.448	243.75
290.679	237.75
290.91	224.75
291.141	245.75
291.371	240.75
291.602	207.75
291.833	224.75
292.064	239.75
292.295	253.75
292.526	231.75
292.757	240.75
292.987	225.75
293.218	241.75
293.449	261.75
293.68	231.75
293.91	211.75
294.141	240.75
294.372	240.75
294.603	239.75
294.833	239.75
295.064	229.75
295.295	243.75
295.525	249.75
295.756	239.75
295.987	254.75
296.217	290.75
296.448	302.75
296.679	261.75
296.909	250.75
297.14	242.75
297.37	239.75
297.601	242.75
297.831	235.75
298.062	247.75
298.292	263.75
298.523	253.75
298.753	248.75
298.984	251.75
299.214	258.75
299.445	243.75
299.675	241.75
299.905	258.75
300.136	252.75
300.366	237.75
300.597	263.75
300.827	242.75
301.057	272.75
301.288	265.75
301.518	298.75
301.748	275.75
301.979	259.75
302.209	260.75
302.439	280.75
302.669	243.75
302.9	289.75
303.13	265.75
303.36	264.75
303.59	280.75
303.82	309.75
304.051	275.75
304.281	276.75
304.511	270.75
304.741	256.75
304.971	253.75
305.201	269.75
305.431	252.75
305.661	255.75
305.891	273.75
306.121	258.75
306.352	283.75
306.582	277.75
306.812	265.75
307.042	246.75
307.272	271.75
307.502	268.75
307.731	274.75
307.961	260.75
308.191	279.75
308.421	268.75
308.651	290.75
308.881	297.75
309.111	289.75
309.341	290.75
309.571	304.75
309.8	314.75
310.03	332.75
310.26	356.75
310.49	353.75
310.72	354.75
310.949	371.75
311.179	389.75
311.409	368.75
311.639	357.75
311.868	341.75
312.098	363.75
312.328	338.75
312.557	364.75
312.787	405.75
313.017	413.75
313.246	365.75
313.476	335.75
313.706	323.75
313.935	342.75
314.165	355.75
314.394	381.75
314.624	375.75
314.853	350.75
315.083	334.75
315.312	322.75
315.542	329.75
315.771	309.75
316.001	311.75
316.23	322.75
316.46	317.75
316.689	333.75
316.919	337.75
317.148	317.75
317.377	334.75
317.607	353.75
317.836	351.75
318.065	327.75
318.295	328.75
318.524	321.75
318.753	325.75
318.983	333.75
319.212	337.75
319.441	345.75
319.67	345.75
319.9	342.75
320.129	338.75
320.358	322.75
320.587	340.75
320.816	343.75
321.046	361.75
321.275	353.75
321.504	347.75
321.733	373.75
321.962	407.75
322.191	378.75
322.42	426.75
322.649	449.75
322.878	447.75
323.108	475.75
323.337	478.75
323.566	529.75
323.795	603.75
324.024	673.75
324.253	870.75
324.482	1245.75
324.71	1929.75
324.939	2698.75
325.168	2343.75
325.397	1274.75
325.626	802.75
325.855	635.75
326.084	555.75
326.313	553.75
326.542	565.75
326.77	631.75
326.999	737.75
327.228	1085.75
327.457	1645.75
327.686	2029.75
327.914	1430.75
328.143	866.75
328.372	739.75
328.6	661.75
328.829	645.75
329.058	640.75
329.287	659.75
329.515	607.75
329.744	528.75
329.972	512.75
330.201	503.75
330.43	544.75
330.658	625.75
330.887	683.75
331.115	650.75
331.344	537.75
331.572	499.75
331.801	471.75
332.03	469.75
332.258	420.75
332.486	387.75
332.715	396.75
332.943	387.75
333.172	383.75
333.4	378.75
333.629	376.75
333.857	393.75
334.085	375.75
334.314	396.75
334.542	375.75
334.771	399.75
334.999	399.75
335.227	398.75
335.455	402.75
335.684	376.75
335.912	370.75
336.14	375.75
336.369	378.75
336.597	392.75
336.825	407.75
337.053	388.75
337.281	369.75
337.51	358.75
337.738	367.75
337.966	371.75
338.194	397.75
338.422	409.75
338.65	388.75
338.878	366.75
339.106	370.75
339.334	376.75
339.562	349.75
339.79	356.75
340.018	373.75
340.246	358.75
340.474	375.75
340.702	385.75
340.93	387.75
341.158	353.75
341.386	360.75
341.614	375.75
341.842	389.75
342.07	370.75
342.298	355.75
342.526	362.75
342.754	369.75
342.981	331.75
343.209	341.75
343.437	346.75
343.665	351.75
343.893	338.75
344.12	357.75
344.348	344.75
344.576	373.75
344.804	399.75
345.031	413.75
345.259	427.75
345.487	393.75
345.714	378.75
345.942	362.75
346.17	347.75
346.397	353.75
346.625	389.75
346.853	370.75
347.08	355.75
347.308	373.75
347.535	385.75
347.763	395.75
347.99	394.75
348.218	400.75
348.445	406.75
348.673	396.75
348.9	375.75
349.128	348.75
349.355	340.75
349.583	345.75
349.81	347.75
350.037	355.75
350.265	355.75
350.492	332.75
350.72	353.75
350.947	360.75
351.174	355.75
351.402	403.75
351.629	398.75
351.856	405.75
352.083	398.75
352.311	415.75
352.538	416.75
352.765	400.75
352.992	407.75
353.22	393.75
353.447	383.75
353.674	384.75
353.901	353.75
354.128	335.75
354.355	339.75
354.583	330.75
354.81	341.75
355.037	338.75
355.264	321.75
355.491	328.75
355.718	305.75
355.945	320.75
356.172	314.75
356.399	308.75
356.626	332.75
356.853	324.75
357.08	325.75
357.307	314.75
357.534	327.75
357.761	319.75
357.988	327.75
358.215	342.75
358.441	328.75
358.668	328.75
358.895	341.75
359.122	357.75
359.349	342.75
359.576	383.75
359.802	411.75
360.029	460.75
360.256	480.75
360.483	455.75
360.709	390.75
360.936	386.75
361.163	381.75
361.39	390.75
361.616	383.75
361.843	386.75
362.07	389.75
362.296	375.75
362.523	384.75
362.749	349.75
362.976	387.75
363.203	357.75
363.429	361.75
363.656	335.75
363.882	340.75
364.109	337.75
364.335	346.75
364.562	346.75
364.788	322.75
365.015	345.75
365.241	357.75
365.468	331.75
365.694	331.75
365.92	343.75
366.147	360.75
366.373	351.75
366.599	325.75
366.826	360.75
367.052	339.75
367.278	341.75
367.505	350.75
367.731	331.75
367.957	356.75
368.184	328.75
368.41	357.75
368.636	351.75
368.862	358.75
369.089	350.75
369.315	351.75
369.541	329.75
369.767	340.75
369.993	347.75
370.219	333.75
370.445	336.75
370.672	325.75
370.898	310.75
371.124	321.75
371.35	320.75
371.576	330.75
371.802	320.75
372.028	330.75
372.254	318.75
372.48	317.75
372.706	316.75
372.932	307.75
373.158	322.75
373.384	328.75
373.61	328.75
373.835	334.75
374.061	320.75
374.287	322.75
374.513	334.75
374.739	314.75
374.965	325.75
375.191	315.75
375.416	330.75
375.642	324.75
375.868	320.75
376.094	326.75
376.319	323.75
376.545	327.75
376.771	329.75
376.997	336.75
377.222	321.75
377.448	318.75
377.674	313.75
377.899	319.75
378.125	322.75
378.35	320.75
378.576	328.75
378.802	321.75
379.027	333.75
379.253	320.75
379.478	311.75
379.704	328.75
379.929	317.75
380.155	332.75
380.38	320.75
380.606	322.75
380.831	334.75
381.057	340.75
381.282	332.75
381.507	318.75
381.733	350.75
381.958	334.75
382.184	320.75
382.409	321.75
382.634	306.75
382.86	342.75
383.085	360.75
383.31	330.75
383.535	315.75
383.761	334.75
383.986	341.75
384.211	341.75
384.436	331.75
384.662	318.75
384.887	339.75
385.112	346.75
385.337	354.75
385.562	347.75
385.787	331.75
386.013	361.75
386.238	354.75
386.463	358.75
386.688	342.75
386.913	319.75
387.138	343.75
387.363	349.75
387.588	342.75
387.813	333.75
388.038	342.75
388.263	344.75
388.488	324.75
388.713	342.75
388.938	342.75
389.163	373.75
389.387	359.75
389.612	337.75
389.837	331.75
390.062	347.75
390.287	332.75
390.512	324.75
390.736	327.75
390.961	353.75
391.186	321.75
391.411	322.75
391.636	328.75
391.86	355.75
392.085	333.75
392.31	342.75
392.534	337.75
392.759	338.75
392.984	339.75
393.208	352.75
393.433	329.75
393.658	359.75
393.882	338.75
394.107	337.75
394.331	349.75
394.556	350.75
394.78	337.75
395.005	345.75
395.229	336.75
395.454	344.75
395.678	353.75
395.903	369.75
396.127	398.75
396.352	372.75
396.576	380.75
396.801	365.75
397.025	351.75
397.249	374.75
397.474	367.75
397.698	373.75
397.922	388.75
398.147	400.75
398.371	384.75
398.595	372.75
398.82	364.75
399.044	377.75
399.268	390.75
399.492	390.75
399.717	406.75
399.941	461.75
400.165	471.75
400.389	493.75
400.613	460.75
400.837	425.75
401.062	399.75
401.286	394.75
401.51	389.75
401.734	390.75
401.958	410.75
402.182	417.75
402.406	435.75
402.63	425.75
402.854	399.75
403.078	429.75
403.302	406.75
403.526	409.75
403.75	425.75
403.974	380.75
404.198	416.75
404.422	430.75
404.645	419.75
404.869	424.75
405.093	443.75
405.317	474.75
405.541	475.75
405.765	442.75
405.988	433.75
406.212	497.75
406.436	487.75
406.66	512.75
406.883	467.75
407.107	485.75
407.331	538.75
407.555	571.75
407.778	586.75
408.002	509.75
408.226	488.75
408.449	461.75
408.673	473.75
408.896	494.75
409.12	523.75
409.344	515.75
409.567	453.75
409.791	443.75
410.014	428.75
410.238	431.75
410.461	418.75
410.685	444.75
410.908	451.75
411.132	479.75
411.355	528.75
411.578	496.75
411.802	446.75
412.025	394.75
412.249	426.75
412.472	423.75
412.695	444.75
412.919	426.75
413.142	405.75
413.365	377.75
413.589	407.75
413.812	395.75
414.035	398.75
414.258	374.75
414.482	404.75
414.705	395.75
414.928	408.75
415.151	380.75
415.374	387.75
415.597	388.75
415.821	379.75
416.044	379.75
416.267	403.75
416.49	386.75
416.713	405.75
416.936	377.75
417.159	376.75
417.382	417.75
417.605	402.75
417.828	422.75
418.051	434.75
418.274	431.75
418.497	407.75
418.72	403.75
418.943	415.75
419.166	415.75
419.389	434.75
419.611	419.75
419.834	427.75
420.057	431.75
420.28	417.75
420.503	412.75
420.726	441.75
420.948	445.75
421.171	506.75
421.394	511.75
421.617	472.75
421.839	453.75
422.062	447.75
422.285	439.75
422.507	530.75
422.73	600.75
422.953	547.75
423.175	515.75
423.398	487.75
423.621	464.75
423.843	488.75
424.066	483.75
424.288	490.75
424.511	512.75
424.733	554.75
424.956	633.75
425.178	635.75
425.401	627.75
425.623	648.75
425.846	549.75
426.068	507.75
426.291	519.75
426.513	517.75
426.735	513.75
426.958	560.75
427.18	661.75
427.402	745.75
427.625	805.75
427.847	787.75
428.069	646.75
428.292	559.75
428.514	527.75
428.736	481.75
428.958	485.75
429.181	472.75
429.403	469.75
429.625	486.75
429.847	519.75
430.069	569.75
430.292	586.75
430.514	496.75
430.736	470.75
430.958	452.75
431.18	449.75
431.402	427.75
431.624	401.75
431.846	415.75
432.068	413.75
432.29	412.75
432.512	402.75
432.734	419.75
432.956	442.75
433.178	442.75
433.4	436.75
433.622	425.75
433.844	418.75
434.066	421.75
434.287	419.75
434.509	435.75
434.731	405.75
434.953	431.75
435.175	469.75
435.397	487.75
435.618	509.75
435.84	550.75
436.062	638.75
436.284	717.75
436.505	583.75
436.727	517.75
436.949	509.75
437.17	469.75
437.392	481.75
437.614	489.75
437.835	570.75
438.057	659.75
438.278	743.75
438.5	735.75
438.721	763.75
438.943	735.75
439.165	609.75
439.386	549.75
439.608	534.75
439.829	550.75
440.05	567.75
440.272	626.75
440.493	591.75
440.715	525.75
440.936	480.75
441.158	473.75
441.379	471.75
441.6	495.75
441.822	509.75
442.043	569.75
442.264	643.75
442.486	683.75
442.707	626.75
442.928	530.75
443.149	555.75
443.371	575.75
443.592	601.75
443.813	683.75
444.034	727.75
444.255	620.75
444.476	528.75
444.698	509.75
444.919	501.75
445.14	567.75
445.361	547.75
445.582	551.75
445.803	625.75
446.024	728.75
446.245	750.75
446.466	675.75
446.687	594.75
446.908	562.75
447.129	496.75
447.35	490.75
447.571	481.75
447.792	472.75
448.013	481.75
448.234	526.75
448.455	582.75
448.675	649.75
448.896	777.75
449.117	660.75
449.338	617.75
449.559	709.75
449.779	810.75
450	663.75
450.221	570.75
450.442	509.75
450.662	472.75
450.883	505.75
451.104	531.75
451.324	520.75
451.545	487.75
451.766	439.75
451.986	425.75
452.207	434.75
452.428	435.75
452.648	449.75
452.869	441.75
453.089	450.75
453.31	461.75
453.53	472.75
453.751	461.75
453.971	459.75
454.192	470.75
454.412	455.75
454.633	444.75
454.853	410.75
455.073	451.75
455.294	471.75
455.514	541.75
455.734	519.75
455.955	456.75
456.175	415.75
456.395	388.75
456.616	397.75
456.836	408.75
457.056	391.75
457.276	399.75
457.497	396.75
457.717	387.75
457.937	397.75
458.157	425.75
458.377	409.75
458.598	429.75
458.818	523.75
459.038	647.75
459.258	616.75
459.478	540.75
459.698	473.75
459.918	448.75
460.138	418.75
460.358	413.75
460.578	414.75
460.798	399.75
461.018	423.75
461.238	398.75
461.458	412.75
461.678	395.75
461.898	406.75
462.118	407.75
462.338	404.75
462.558	420.75
462.777	415.75
462.997	428.75
463.217	431.75
463.437	440.75
463.657	431.75
463.876	436.75
464.096	426.75
464.316	416.75
464.536	450.75
464.755	418.75
464.975	477.75
465.195	543.75
465.414	707.75
465.634	591.75
465.854	507.75
466.073	482.75
466.293	439.75
466.512	429.75
466.732	436.75
466.951	421.75
467.171	419.75
467.391	425.75
467.61	416.75
467.829	456.75
468.049	437.75
468.268	413.75
468.488	392.75
468.707	401.75
468.927	405.75
469.146	403.75
469.365	403.75
469.585	379.75
469.804	429.75
470.023	436.75
470.243	413.75
470.462	436.75
470.681	481.75
470.901	488.75
471.12	418.75
471.339	433.75
471.558	420.75
471.777	438.75
471.997	393.75
472.216	419.75
472.435	404.75
472.654	425.75
472.873	412.75
473.092	418.75
473.311	428.75
473.53	431.75
473.749	438.75
473.968	489.75
474.187	614.75
474.406	631.75
474.625	508.75
474.844	461.75
475.063	436.75
475.282	419.75
475.501	433.75
475.72	447.75
475.939	454.75
476.158	431.75
476.377	437.75
476.596	453.75
476.814	456.75
477.033	469.75
477.252	465.75
477.471	459.75
477.69	459.75
477.908	455.75
478.127	441.75
478.346	464.75
478.564	470.75
478.783	471.75
479.002	465.75
479.22	471.75
479.439	489.75
479.658	541.75
479.876	549.75
480.095	520.75
480.313	564.75
480.532	541.75
480.751	532.75
480.969	535.75
481.188	536.75
481.406	551.75
481.624	515.75
481.843	533.75
482.061	507.75
482.28	524.75
482.498	499.75
482.717	504.75
482.935	494.75
483.153	517.75
483.372	506.75
483.59	499.75
483.808	493.75
484.027	513.75
484.245	548.75
484.463	513.75
484.681	502.75
484.9	516.75
485.118	498.75
485.336	531.75
485.554	532.75
485.772	531.75
485.99	539.75
486.209	533.75
486.427	539.75
486.645	567.75
486.863	578.75
487.081	615.75
487.299	579.75
487.517	569.75
487.735	527.75
487.953	567.75
488.171	555.75
488.389	535.75
488.607	587.75
488.825	546.75
489.043	541.75
489.261	547.75
489.479	536.75
489.696	565.75
489.914	581.75
490.132	591.75
490.35	564.75
490.568	596.75
490.786	600.75
491.003	617.75
491.221	605.75
491.439	597.75
491.657	625.75
491.874	649.75
492.092	634.75
492.31	642.75
492.527	619.75
492.745	639.75
492.963	642.75
493.18	630.75
493.398	631.75
493.615	664.75
493.833	646.75
494.05	675.75
494.268	674.75
494.485	649.75
494.703	641.75
494.92	671.75
495.138	654.75
495.355	684.75
495.573	687.75
495.79	660.75
496.008	663.75
496.225	673.75
496.442	667.75
496.66	665.75
496.877	678.75
497.094	697.75
497.312	681.75
497.529	678.75
497.746	690.75
497.963	689.75
498.181	717.75
498.398	707.75
498.615	695.75
498.832	723.75
499.049	713.75
499.267	745.75
499.484	728.75
499.701	749.75
499.918	777.75
500.135	760.75
500.352	762.75
500.569	803.75
500.786	781.75
501.003	773.75
501.22	794.75
501.437	776.75
501.654	791.75
501.871	815.75
502.088	804.75
502.305	781.75
502.522	744.75
502.739	738.75
502.956	705.75
503.172	726.75
503.389	705.75
503.606	709.75
503.823	733.75
504.04	719.75
504.256	696.75
504.473	685.75
504.69	639.75
504.907	668.75
505.123	662.75
505.34	657.75
505.557	675.75
505.773	710.75
505.99	683.75
506.207	659.75
506.423	686.75
506.64	660.75
506.856	644.75
507.073	656.75
507.289	675.75
507.506	660.75
507.722	669.75
507.939	718.75
508.155	703.75
508.372	672.75
508.588	653.75
508.805	669.75
509.021	635.75
509.238	699.75
509.454	690.75
509.67	677.75
509.887	667.75
510.103	692.75
510.319	695.75
510.536	818.75
510.752	1545.75
510.968	1264.75
511.184	770.75
511.401	675.75
511.617	658.75
511.833	649.75
512.049	630.75
512.265	640.75
512.481	649.75
512.698	630.75
512.914	640.75
513.13	632.75
513.346	634.75
513.562	657.75
513.778	627.75
513.994	651.75
514.21	687.75
514.426	734.75
514.642	804.75
514.858	846.75
515.074	925.75
515.29	1191.75
515.506	1827.75
515.721	1482.75
515.937	894.75
516.153	774.75
516.369	744.75
516.585	675.75
516.801	659.75
517.016	658.75
517.232	647.75
517.448	640.75
517.664	636.75
517.879	642.75
518.095	644.75
518.311	608.75
518.527	637.75
518.742	600.75
518.958	600.75
519.173	630.75
519.389	627.75
519.605	641.75
519.82	684.75
520.036	690.75
520.251	706.75
520.467	761.75
520.682	765.75
520.898	785.75
521.113	823.75
521.329	930.75
521.544	1073.75
521.76	1482.75
521.975	2511.75
522.19	2488.75
522.406	1254.75
522.621	888.75
522.836	744.75
523.052	713.75
523.267	667.75
523.482	638.75
523.698	598.75
523.913	617.75
524.128	602.75
524.343	602.75
524.559	588.75
524.774	572.75
524.989	554.75
525.204	575.75
525.419	592.75
525.634	543.75
525.849	564.75
526.064	529.75
526.28	521.75
526.495	507.75
526.71	515.75
526.925	497.75
527.14	503.75
527.355	503.75
527.57	499.75
527.785	489.75
527.999	491.75
528.214	490.75
528.429	491.75
528.644	485.75
528.859	484.75
529.074	496.75
529.289	548.75
529.503	703.75
529.718	643.75
529.933	576.75
530.148	557.75
530.363	529.75
530.577	500.75
530.792	495.75
531.007	488.75
531.221	489.75
531.436	495.75
531.651	482.75
531.865	472.75
532.08	459.75
532.295	466.75
532.509	447.75
532.724	466.75
532.938	445.75
533.153	443.75
533.367	461.75
533.582	467.75
533.796	468.75
534.011	441.75
534.225	453.75
534.44	449.75
534.654	441.75
534.868	441.75
535.083	454.75
535.297	449.75
535.511	432.75
535.726	460.75
535.94	469.75
536.154	474.75
536.369	451.75
536.583	452.75
536.797	446.75
537.011	430.75
537.225	448.75
537.44	427.75
537.654	449.75
537.868	431.75
538.082	431.75
538.296	433.75
538.51	444.75
538.724	457.75
538.938	435.75
539.153	430.75
539.367	462.75
539.581	468.75
539.795	446.75
540.009	425.75
540.222	442.75
540.436	439.75
540.65	455.75
540.864	433.75
541.078	445.75
541.292	463.75
541.506	443.75
541.72	440.75
541.934	433.75
542.147	423.75
542.361	428.75
542.575	430.75
542.789	416.75
543.002	437.75
543.216	436.75
543.43	448.75
543.644	451.75
543.857	425.75
544.071	431.75
544.285	422.75
544.498	443.75
544.712	406.75
544.925	426.75
545.139	412.75
545.352	406.75
545.566	393.75
545.779	403.75
545.993	411.75
546.206	425.75
546.42	406.75
546.633	408.75
546.847	404.75
547.06	394.75
547.274	393.75
547.487	402.75
547.7	396.75
547.914	395.75
548.127	395.75
548.34	389.75
548.554	405.75
548.767	395.75
548.98	381.75
549.193	393.75
549.407	387.75
549.62	390.75
549.833	381.75
550.046	380.75
550.259	384.75
550.473	387.75
550.686	392.75
550.899	385.75
551.112	400.75
551.325	361.75
551.538	381.75
551.751	377.75
551.964	379.75
552.177	384.75
552.39	380.75
552.603	408.75
552.816	376.75
553.029	385.75
553.242	403.75
553.455	394.75
553.667	396.75
553.88	425.75
554.093	414.75
554.306	392.75
554.519	394.75
554.732	387.75
554.944	392.75
555.157	397.75
555.37	392.75
555.583	393.75
555.795	382.75
556.008	368.75
556.221	385.75
556.433	349.75
556.646	387.75
556.859	356.75
557.071	360.75
557.284	348.75
557.496	365.75
557.709	372.75
557.921	350.75
558.134	343.75
558.346	360.75
558.559	355.75
558.771	352.75
558.984	353.75
559.196	358.75
559.409	360.75
559.621	351.75
559.833	341.75
560.046	341.75
560.258	339.75
560.47	367.75
560.683	353.75
560.895	337.75
561.107	337.75
561.32	344.75
561.532	354.75
561.744	357.75
561.956	341.75
562.168	327.75
562.381	362.75
562.593	354.75
562.805	358.75
563.017	347.75
563.229	343.75
563.441	370.75
563.653	344.75
563.865	352.75
564.077	352.75
564.289	363.75
564.501	372.75
564.713	359.75
564.925	375.75
565.137	363.75
565.349	363.75
565.561	358.75
565.773	367.75
565.985	348.75
566.197	363.75
566.408	367.75
566.62	362.75
566.832	387.75
567.044	359.75
567.255	395.75
567.467	351.75
567.679	383.75
567.891	371.75
568.102	381.75
568.314	361.75
568.526	353.75
568.737	369.75
568.949	366.75
569.161	362.75
569.372	350.75
569.584	357.75
569.795	343.75
570.007	367.75
570.218	433.75
570.43	402.75
570.641	345.75
570.853	326.75
571.064	334.75
571.276	345.75
571.487	328.75
571.698	328.75
571.91	337.75
572.121	310.75
572.333	338.75
572.544	335.75
572.755	305.75
572.966	301.75
573.178	328.75
573.389	314.75
573.6	322.75
573.811	318.75
574.023	298.75
574.234	309.75
574.445	311.75
574.656	305.75
574.867	301.75
575.078	309.75
575.289	299.75
575.501	305.75
575.712	317.75
575.923	316.75
576.134	286.75
576.345	314.75
576.556	308.75
576.767	310.75
576.978	306.75
577.188	320.75
577.399	305.75
577.61	285.75
577.821	287.75
578.032	306.75
578.243	366.75
578.454	708.75
578.665	497.75
578.875	331.75
579.086	290.75
579.297	298.75
579.508	288.75
579.718	291.75
579.929	306.75
580.14	294.75
580.35	293.75
580.561	294.75
580.772	285.75
580.982	268.75
581.193	270.75
581.403	286.75
581.614	281.75
581.825	281.75
582.035	274.75
582.246	277.75
582.456	289.75
582.667	272.75
582.877	270.75
583.087	264.75
583.298	285.75
583.508	271.75
583.719	277.75
583.929	279.75
584.139	275.75
584.35	262.75
584.56	281.75
584.77	276.75
584.981	279.75
585.191	267.75
585.401	264.75
585.611	272.75
585.821	266.75
586.032	276.75
586.242	273.75
586.452	270.75
586.662	286.75
586.872	274.75
587.082	253.75
587.292	259.75
587.502	258.75
587.713	275.75
587.923	260.75
588.133	269.75
588.343	265.75
588.553	266.75
588.762	267.75
588.972	259.75
589.182	278.75
589.392	287.75
589.602	257.75
589.812	266.75
590.022	267.75
590.232	262.75
590.441	260.75
590.651	276.75
590.861	244.75
591.071	277.75
591.281	273.75
591.49	262.75
591.7	269.75
591.91	266.75
592.119	267.75
592.329	274.75
592.539	274.75
592.748	279.75
592.958	278.75
593.167	267.75
593.377	271.75
593.587	260.75
593.796	271.75
594.006	263.75
594.215	259.75
594.424	248.75
594.634	270.75
594.843	245.75
595.053	252.75
595.262	259.75
595.472	263.75
595.681	259.75
595.89	242.75
596.1	263.75
596.309	261.75
596.518	257.75
596.727	253.75
596.937	225.75
597.146	248.75
597.355	256.75
597.564	229.75
597.774	225.75
597.983	257.75
598.192	242.75
598.401	264.75
598.61	231.75
598.819	244.75
599.028	241.75
599.237	236.75
599.446	228.75
599.655	251.75
599.864	249.75
600.073	245.75
600.282	250.75
600.491	240.75
600.7	244.75
600.909	245.75
601.118	219.75
601.327	250.75
601.536	241.75
601.745	240.75
601.953	218.75
602.162	238.75
602.371	237.75
602.58	235.75
602.789	221.75
602.997	225.75
603.206	238.75
603.415	223.75
603.623	234.75
603.832	208.75
604.041	218.75
604.249	208.75
604.458	220.75
604.666	208.75
604.875	222.75
605.084	207.75
605.292	212.75
605.501	207.75
605.709	219.75
605.918	225.75
606.126	213.75
606.334	208.75
606.543	209.75
606.751	219.75
606.96	231.75
607.168	238.75
607.376	219.75
607.585	218.75
607.793	222.75
608.001	211.75
608.21	210.75
608.418	221.75
608.626	230.75
608.834	225.75
609.043	227.75
609.251	231.75
609.459	222.75
609.667	218.75
609.875	225.75
610.083	205.75
610.291	220.75
610.499	216.75
610.707	209.75
610.916	232.75
611.124	218.75
611.332	231.75
611.54	217.75
611.748	199.75
611.955	211.75
612.163	240.75
612.371	217.75
612.579	203.75
612.787	217.75
612.995	215.75
613.203	212.75
613.411	212.75
613.618	214.75
613.826	189.75
614.034	213.75
614.242	227.75
614.449	211.75
614.657	202.75
614.865	222.75
615.072	201.75
615.28	202.75
615.488	217.75
615.695	221.75
615.903	196.75
616.111	202.75
616.318	221.75
616.526	228.75
616.733	209.75
616.941	219.75
617.148	221.75
617.356	207.75
617.563	211.75
617.771	205.75
617.978	199.75
618.185	224.75
618.393	203.75
618.6	204.75
618.807	197.75
619.015	212.75
619.222	220.75
619.429	200.75
619.637	195.75
619.844	197.75
620.051	223.75
620.258	205.75
620.466	193.75
620.673	197.75
620.88	199.75
621.087	202.75
621.294	207.75
621.501	211.75
621.708	206.75
621.915	203.75
622.122	194.75
622.329	185.75
622.536	189.75
622.743	189.75
622.95	203.75
623.157	207.75
623.364	201.75
623.571	213.75
623.778	201.75
623.985	205.75
624.192	187.75
624.399	195.75
624.606	199.75
624.812	198.75
625.019	207.75
625.226	193.75
625.433	193.75
625.639	201.75
625.846	185.75
626.053	196.75
626.259	191.75
626.466	196.75
626.673	195.75
626.879	184.75
627.086	191.75
627.293	200.75
627.499	182.75
627.706	186.75
627.912	192.75
628.119	184.75
628.325	186.75
628.532	177.75
628.738	189.75
628.945	191.75
629.151	179.75
629.357	174.75
629.564	183.75
629.77	179.75
629.976	189.75
630.183	189.75
630.389	180.75
630.595	184.75
630.802	171.75
631.008	183.75
631.214	189.75
631.42	192.75
631.627	203.75
631.833	189.75
632.039	175.75
632.245	174.75
632.451	201.75
632.657	177.75
632.863	179.75
633.069	159.75
633.275	168.75
633.481	167.75
633.688	166.75
633.893	159.75
634.099	179.75
634.305	163.75
634.511	163.75
634.717	158.75
634.923	163.75
635.129	155.75
635.335	163.75
635.541	178.75
635.747	166.75
635.952	161.75
636.158	161.75
636.364	151.75
636.57	170.75
636.775	151.75
636.981	165.75
637.187	180.75
637.392	169.75
637.598	165.75
637.804	155.75
638.009	180.75
638.215	155.75
638.421	169.75
638.626	167.75
638.832	165.75
639.037	163.75
639.243	164.75
639.448	152.75
639.654	173.75
639.859	151.75
640.065	151.75
640.27	167.75
640.475	167.75
640.681	159.75
640.886	157.75
641.091	158.75
641.297	159.75
641.502	170.75
641.707	144.75
641.913	159.75
642.118	151.75
642.323	148.75
642.528	165.75
642.733	167.75
642.939	170.75
643.144	157.75
643.349	154.75
643.554	168.75
643.759	158.75
643.964	158.75
644.169	154.75
644.374	160.75
644.579	158.75
644.784	150.75
644.989	157.75
645.194	163.75
645.399	156.75
645.604	149.75
645.809	155.75
646.014	156.75
646.219	157.75
646.423	155.75
646.628	152.75
646.833	151.75
647.038	143.75
647.243	146.75
647.447	162.75
647.652	161.75
647.857	141.75
648.062	146.75
648.266	136.75
648.471	147.75
648.676	168.75
648.88	167.75
649.085	146.75
649.289	151.75
649.494	161.75
649.698	152.75
649.903	191.75
650.107	181.75
650.312	161.75
650.516	160.75
650.721	157.75
650.925	147.75
651.13	151.75
651.334	143.75
651.539	122.75
651.743	133.75
651.947	131.75
652.152	117.75
652.356	128.75
652.56	129.75
652.764	126.75
652.969	133.75
653.173	123.75
653.377	119.75
653.581	130.75
653.785	123.75
653.99	133.75
654.194	130.75
654.398	141.75
654.602	123.75
654.806	122.75
655.01	121.75
655.214	122.75
655.418	125.75
655.622	125.75
655.826	111.75
656.03	142.75
656.234	121.75
656.438	117.75
656.642	116.75
656.846	124.75
657.049	136.75
657.253	118.75
657.457	105.75
657.661	112.75
657.865	114.75
658.068	112.75
658.272	109.75
658.476	101.75
658.68	113.75
658.883	95.75
659.087	104.75
659.291	101.75
659.494	104.75
659.698	96.75
659.901	94.75
660.105	99.75
660.309	97.75
660.512	114.75
660.716	96.75
660.919	94.75
661.123	102.75
661.326	83.75
661.53	84.75
661.733	95.75
661.936	79.75
662.14	79.75
662.343	83.75
662.546	84.75
662.75	78.75
662.953	98.75
663.156	54.75
663.36	72.75
663.563	95.75
663.766	84.75
663.969	87.75
664.173	85.75
664.376	67.75
664.579	87.75
664.782	90.75
664.985	78.75
665.188	92.75
665.391	75.75
665.594	75.75
665.797	76.75
666	86.75
666.203	90.75
666.406	75.75
666.609	81.75
666.812	80.75
667.015	74.75
667.218	78.75
667.421	95.75
667.624	95.75
667.827	86.75
668.03	85.75
668.232	73.75
668.435	72.75
668.638	74.75
668.841	90.75
669.043	69.75
669.246	90.75
669.449	87.75
669.651	71.75
669.854	81.75
670.057	89.75
670.259	84.75
670.462	80.75
670.665	74.75
670.867	91.75
671.07	69.75
671.272	71.75
671.475	88.75
671.677	87.75
671.88	85.75
672.082	80.75
672.284	78.75
672.487	79.75
672.689	82.75
672.892	69.75
