Data from 1987.PennyLincolnUp.Lamp.En5.5.200Scan.071819.P2_HRD10591_17-15-04-971.txt Node
Date: Thu Jul 18 17:15:04 EDT 2019
User: cochatt
Spectrometer: HR+D1059
Trigger mode: 1
Integration Time (sec): 1.000000E-1
Scans to average: 1
Electric dark correction enabled: true
Nonlinearity correction enabled: false
Boxcar width: 0
XAxis mode: Wavelengths
Number of Pixels in Spectrum: 2048
>>>>>Begin Spectral Data<<<<<
223.165	-19.12
223.4	-19.12
223.635	-19.12
223.869	-15.12
224.104	-7.12
224.338	-14.12
224.573	-9.12
224.808	3.88
225.042	-11.12
225.277	-7.12
225.511	-1.12
225.746	-9.12
225.98	3.88
226.215	6.88
226.449	-0.12
226.683	23.88
226.918	25.88
227.152	28.88
227.387	39.88
227.621	39.88
227.856	39.88
228.09	62.88
228.324	56.88
228.559	63.88
228.793	76.88
229.027	104.88
229.262	117.88
229.496	129.88
229.73	133.88
229.964	160.88
230.199	150.88
230.433	132.88
230.667	132.88
230.901	120.88
231.136	104.88
231.37	112.88
231.604	123.88
231.838	128.88
232.072	119.88
232.306	113.88
232.541	121.88
232.775	110.88
233.009	118.88
233.243	122.88
233.477	105.88
233.711	125.88
233.945	120.88
234.179	124.88
234.413	126.88
234.647	119.88
234.881	117.88
235.115	129.88
235.349	135.88
235.583	123.88
235.817	131.88
236.051	126.88
236.285	123.88
236.519	113.88
236.753	138.88
236.987	164.88
237.221	192.88
237.455	268.88
237.689	206.88
237.922	149.88
238.156	136.88
238.39	128.88
238.624	128.88
238.858	128.88
239.091	140.88
239.325	114.88
239.559	121.88
239.793	119.88
240.027	134.88
240.26	144.88
240.494	175.88
240.728	144.88
240.961	152.88
241.195	143.88
241.429	138.88
241.662	128.88
241.896	124.88
242.13	126.88
242.363	133.88
242.597	128.88
242.83	119.88
243.064	129.88
243.298	137.88
243.531	146.88
243.765	132.88
243.998	140.88
244.232	153.88
244.465	127.88
244.699	130.88
244.932	141.88
245.166	141.88
245.399	127.88
245.633	140.88
245.866	136.88
246.099	138.88
246.333	157.88
246.566	152.88
246.8	141.88
247.033	147.88
247.266	145.88
247.5	173.88
247.733	163.88
247.966	164.88
248.2	161.88
248.433	170.88
248.666	174.88
248.899	165.88
249.133	185.88
249.366	222.88
249.599	196.88
249.832	191.88
250.066	189.88
250.299	182.88
250.532	187.88
250.765	174.88
250.998	210.88
251.231	221.88
251.465	213.88
251.698	197.88
251.931	192.88
252.164	193.88
252.397	187.88
252.63	190.88
252.863	195.88
253.096	212.88
253.329	222.88
253.562	235.88
253.795	227.88
254.028	235.88
254.261	220.88
254.494	232.88
254.727	245.88
254.96	294.88
255.193	290.88
255.426	251.88
255.659	244.88
255.892	234.88
256.124	218.88
256.357	214.88
256.59	214.88
256.823	200.88
257.056	207.88
257.289	195.88
257.521	192.88
257.754	194.88
257.987	205.88
258.22	189.88
258.452	206.88
258.685	208.88
258.918	189.88
259.151	183.88
259.383	210.88
259.616	209.88
259.849	206.88
260.081	227.88
260.314	229.88
260.547	252.88
260.779	247.88
261.012	229.88
261.244	220.88
261.477	211.88
261.71	219.88
261.942	221.88
262.175	242.88
262.407	234.88
262.64	200.88
262.872	196.88
263.105	208.88
263.337	204.88
263.57	197.88
263.802	194.88
264.035	200.88
264.267	186.88
264.499	187.88
264.732	195.88
264.964	186.88
265.197	204.88
265.429	199.88
265.661	188.88
265.894	208.88
266.126	191.88
266.358	181.88
266.591	196.88
266.823	203.88
267.055	209.88
267.287	216.88
267.52	198.88
267.752	207.88
267.984	217.88
268.216	207.88
268.448	203.88
268.681	208.88
268.913	222.88
269.145	234.88
269.377	264.88
269.609	252.88
269.841	255.88
270.073	258.88
270.306	269.88
270.538	280.88
270.77	279.88
271.002	297.88
271.234	285.88
271.466	304.88
271.698	296.88
271.93	309.88
272.162	305.88
272.394	305.88
272.626	291.88
272.858	278.88
273.09	281.88
273.322	274.88
273.553	244.88
273.785	249.88
274.017	246.88
274.249	254.88
274.481	254.88
274.713	240.88
274.945	252.88
275.176	248.88
275.408	236.88
275.64	248.88
275.872	264.88
276.104	246.88
276.335	245.88
276.567	248.88
276.799	268.88
277.031	300.88
277.262	293.88
277.494	292.88
277.726	279.88
277.957	256.88
278.189	263.88
278.421	244.88
278.652	247.88
278.884	242.88
279.115	226.88
279.347	220.88
279.579	225.88
279.81	228.88
280.042	226.88
280.273	236.88
280.505	221.88
280.736	225.88
280.968	232.88
281.199	238.88
281.431	221.88
281.662	234.88
281.894	223.88
282.125	216.88
282.356	241.88
282.588	280.88
282.819	268.88
283.051	251.88
283.282	236.88
283.513	228.88
283.745	234.88
283.976	224.88
284.207	218.88
284.439	242.88
284.67	237.88
284.901	226.88
285.132	236.88
285.364	230.88
285.595	245.88
285.826	233.88
286.057	236.88
286.288	215.88
286.52	225.88
286.751	205.88
286.982	231.88
287.213	230.88
287.444	232.88
287.675	213.88
287.906	235.88
288.138	238.88
288.369	260.88
288.6	237.88
288.831	248.88
289.062	251.88
289.293	229.88
289.524	246.88
289.755	248.88
289.986	243.88
290.217	220.88
290.448	239.88
290.679	236.88
290.91	238.88
291.141	238.88
291.371	232.88
291.602	226.88
291.833	224.88
292.064	233.88
292.295	241.88
292.526	241.88
292.757	256.88
292.987	250.88
293.218	225.88
293.449	241.88
293.68	251.88
293.91	240.88
294.141	232.88
294.372	234.88
294.603	239.88
294.833	229.88
295.064	227.88
295.295	258.88
295.525	244.88
295.756	247.88
295.987	250.88
296.217	269.88
296.448	309.88
296.679	251.88
296.909	266.88
297.14	248.88
297.37	254.88
297.601	264.88
297.831	245.88
298.062	252.88
298.292	241.88
298.523	225.88
298.753	249.88
298.984	238.88
299.214	246.88
299.445	240.88
299.675	251.88
299.905	262.88
300.136	259.88
300.366	258.88
300.597	239.88
300.827	266.88
301.057	284.88
301.288	262.88
301.518	269.88
301.748	243.88
301.979	259.88
302.209	260.88
302.439	276.88
302.669	263.88
302.9	268.88
303.13	264.88
303.36	255.88
303.59	262.88
303.82	275.88
304.051	284.88
304.281	284.88
304.511	252.88
304.741	271.88
304.971	263.88
305.201	233.88
305.431	252.88
305.661	264.88
305.891	264.88
306.121	269.88
306.352	290.88
306.582	291.88
306.812	274.88
307.042	246.88
307.272	277.88
307.502	280.88
307.731	289.88
307.961	286.88
308.191	276.88
308.421	268.88
308.651	272.88
308.881	285.88
309.111	265.88
309.341	297.88
309.571	305.88
309.8	326.88
310.03	318.88
310.26	343.88
310.49	331.88
310.72	364.88
310.949	393.88
311.179	374.88
311.409	363.88
311.639	326.88
311.868	325.88
312.098	350.88
312.328	344.88
312.557	370.88
312.787	404.88
313.017	384.88
313.246	365.88
313.476	343.88
313.706	337.88
313.935	339.88
314.165	354.88
314.394	390.88
314.624	378.88
314.853	357.88
315.083	344.88
315.312	312.88
315.542	308.88
315.771	329.88
316.001	315.88
316.23	322.88
316.46	320.88
316.689	314.88
316.919	335.88
317.148	334.88
317.377	337.88
317.607	336.88
317.836	344.88
318.065	328.88
318.295	312.88
318.524	337.88
318.753	335.88
318.983	320.88
319.212	334.88
319.441	337.88
319.67	355.88
319.9	346.88
320.129	356.88
320.358	335.88
320.587	338.88
320.816	357.88
321.046	341.88
321.275	377.88
321.504	347.88
321.733	365.88
321.962	374.88
322.191	384.88
322.42	395.88
322.649	441.88
322.878	433.88
323.108	449.88
323.337	498.88
323.566	523.88
323.795	582.88
324.024	635.88
324.253	787.88
324.482	1182.88
324.71	1811.88
324.939	2500.88
325.168	2190.88
325.397	1223.88
325.626	777.88
325.855	607.88
326.084	558.88
326.313	534.88
326.542	520.88
326.77	615.88
326.999	730.88
327.228	1018.88
327.457	1550.88
327.686	1859.88
327.914	1317.88
328.143	828.88
328.372	694.88
328.6	660.88
328.829	601.88
329.058	634.88
329.287	646.88
329.515	550.88
329.744	531.88
329.972	492.88
330.201	482.88
330.43	528.88
330.658	568.88
330.887	635.88
331.115	637.88
331.344	508.88
331.572	463.88
331.801	473.88
332.03	461.88
332.258	429.88
332.486	422.88
332.715	389.88
332.943	407.88
333.172	401.88
333.4	392.88
333.629	393.88
333.857	393.88
334.085	396.88
334.314	385.88
334.542	385.88
334.771	380.88
334.999	400.88
335.227	393.88
335.455	372.88
335.684	370.88
335.912	376.88
336.14	361.88
336.369	352.88
336.597	392.88
336.825	384.88
337.053	364.88
337.281	353.88
337.51	365.88
337.738	386.88
337.966	365.88
338.194	378.88
338.422	391.88
338.65	372.88
338.878	360.88
339.106	372.88
339.334	356.88
339.562	372.88
339.79	366.88
340.018	364.88
340.246	380.88
340.474	374.88
340.702	369.88
340.93	375.88
341.158	354.88
341.386	349.88
341.614	380.88
341.842	361.88
342.07	378.88
342.298	379.88
342.526	353.88
342.754	364.88
342.981	337.88
343.209	356.88
343.437	361.88
343.665	369.88
343.893	360.88
344.12	359.88
344.348	364.88
344.576	355.88
344.804	380.88
345.031	402.88
345.259	427.88
345.487	398.88
345.714	381.88
345.942	351.88
346.17	392.88
346.397	365.88
346.625	359.88
346.853	354.88
347.08	367.88
347.308	350.88
347.535	367.88
347.763	384.88
347.99	370.88
348.218	390.88
348.445	403.88
348.673	396.88
348.9	368.88
349.128	392.88
349.355	348.88
349.583	353.88
349.81	338.88
350.037	336.88
350.265	333.88
350.492	346.88
350.72	365.88
350.947	364.88
351.174	392.88
351.402	396.88
351.629	402.88
351.856	378.88
352.083	387.88
352.311	377.88
352.538	391.88
352.765	388.88
352.992	386.88
353.22	369.88
353.447	380.88
353.674	359.88
353.901	360.88
354.128	349.88
354.355	333.88
354.583	331.88
354.81	344.88
355.037	332.88
355.264	316.88
355.491	315.88
355.718	304.88
355.945	328.88
356.172	334.88
356.399	326.88
356.626	325.88
356.853	330.88
357.08	320.88
357.307	342.88
357.534	347.88
357.761	325.88
357.988	348.88
358.215	324.88
358.441	326.88
358.668	338.88
358.895	330.88
359.122	328.88
359.349	367.88
359.576	376.88
359.802	408.88
360.029	457.88
360.256	479.88
360.483	430.88
360.709	394.88
360.936	365.88
361.163	383.88
361.39	372.88
361.616	388.88
361.843	374.88
362.07	350.88
362.296	394.88
362.523	382.88
362.749	377.88
362.976	356.88
363.203	359.88
363.429	350.88
363.656	354.88
363.882	351.88
364.109	338.88
364.335	377.88
364.562	369.88
364.788	343.88
365.015	341.88
365.241	352.88
365.468	363.88
365.694	359.88
365.92	367.88
366.147	352.88
366.373	343.88
366.599	346.88
366.826	353.88
367.052	334.88
367.278	353.88
367.505	335.88
367.731	357.88
367.957	366.88
368.184	322.88
368.41	377.88
368.636	365.88
368.862	370.88
369.089	377.88
369.315	338.88
369.541	340.88
369.767	343.88
369.993	337.88
370.219	338.88
370.445	334.88
370.672	333.88
370.898	324.88
371.124	333.88
371.35	331.88
371.576	329.88
371.802	335.88
372.028	317.88
372.254	327.88
372.48	337.88
372.706	317.88
372.932	338.88
373.158	319.88
373.384	343.88
373.61	342.88
373.835	332.88
374.061	331.88
374.287	338.88
374.513	329.88
374.739	324.88
374.965	327.88
375.191	340.88
375.416	328.88
375.642	328.88
375.868	331.88
376.094	327.88
376.319	319.88
376.545	321.88
376.771	348.88
376.997	337.88
377.222	336.88
377.448	332.88
377.674	334.88
377.899	337.88
378.125	324.88
378.35	331.88
378.576	309.88
378.802	319.88
379.027	324.88
379.253	335.88
379.478	343.88
379.704	333.88
379.929	326.88
380.155	305.88
380.38	339.88
380.606	344.88
380.831	326.88
381.057	341.88
381.282	320.88
381.507	344.88
381.733	334.88
381.958	325.88
382.184	357.88
382.409	336.88
382.634	336.88
382.86	341.88
383.085	350.88
383.31	336.88
383.535	326.88
383.761	323.88
383.986	358.88
384.211	333.88
384.436	337.88
384.662	337.88
384.887	366.88
385.112	348.88
385.337	345.88
385.562	345.88
385.787	356.88
386.013	358.88
386.238	343.88
386.463	370.88
386.688	351.88
386.913	346.88
387.138	333.88
387.363	346.88
387.588	344.88
387.813	353.88
388.038	362.88
388.263	334.88
388.488	338.88
388.713	343.88
388.938	337.88
389.163	366.88
389.387	351.88
389.612	346.88
389.837	351.88
390.062	331.88
390.287	344.88
390.512	346.88
390.736	358.88
390.961	368.88
391.186	338.88
391.411	349.88
391.636	348.88
391.86	359.88
392.085	358.88
392.31	356.88
392.534	353.88
392.759	358.88
392.984	357.88
393.208	360.88
393.433	368.88
393.658	362.88
393.882	325.88
394.107	345.88
394.331	358.88
394.556	337.88
394.78	334.88
395.005	350.88
395.229	342.88
395.454	352.88
395.678	352.88
395.903	382.88
396.127	385.88
396.352	402.88
396.576	365.88
396.801	362.88
397.025	344.88
397.249	370.88
397.474	354.88
397.698	373.88
397.922	392.88
398.147	399.88
398.371	423.88
398.595	386.88
398.82	388.88
399.044	412.88
399.268	415.88
399.492	398.88
399.717	433.88
399.941	446.88
400.165	469.88
400.389	489.88
400.613	475.88
400.837	439.88
401.062	403.88
401.286	411.88
401.51	408.88
401.734	406.88
401.958	403.88
402.182	416.88
402.406	429.88
402.63	429.88
402.854	416.88
403.078	403.88
403.302	406.88
403.526	425.88
403.75	415.88
403.974	416.88
404.198	425.88
404.422	419.88
404.645	410.88
404.869	394.88
405.093	421.88
405.317	445.88
405.541	484.88
405.765	471.88
405.988	429.88
406.212	448.88
406.436	495.88
406.66	506.88
406.883	471.88
407.107	488.88
407.331	535.88
407.555	593.88
407.778	569.88
408.002	523.88
408.226	476.88
408.449	478.88
408.673	491.88
408.896	508.88
409.12	530.88
409.344	511.88
409.567	458.88
409.791	445.88
410.014	420.88
410.238	431.88
410.461	440.88
410.685	424.88
410.908	431.88
411.132	493.88
411.355	522.88
411.578	475.88
411.802	452.88
412.025	433.88
412.249	428.88
412.472	422.88
412.695	444.88
412.919	432.88
413.142	394.88
413.365	405.88
413.589	390.88
413.812	394.88
414.035	406.88
414.258	408.88
414.482	395.88
414.705	385.88
414.928	397.88
415.151	393.88
415.374	394.88
415.597	410.88
415.821	395.88
416.044	399.88
416.267	418.88
416.49	392.88
416.713	394.88
416.936	386.88
417.159	406.88
417.382	411.88
417.605	411.88
417.828	427.88
418.051	427.88
418.274	426.88
418.497	419.88
418.72	411.88
418.943	395.88
419.166	427.88
419.389	436.88
419.611	412.88
419.834	423.88
420.057	418.88
420.28	414.88
420.503	417.88
420.726	436.88
420.948	454.88
421.171	487.88
421.394	533.88
421.617	471.88
421.839	426.88
422.062	444.88
422.285	456.88
422.507	524.88
422.73	584.88
422.953	566.88
423.175	512.88
423.398	479.88
423.621	470.88
423.843	478.88
424.066	485.88
424.288	502.88
424.511	514.88
424.733	550.88
424.956	631.88
425.178	634.88
425.401	614.88
425.623	642.88
425.846	534.88
426.068	494.88
426.291	491.88
426.513	503.88
426.735	504.88
426.958	551.88
427.18	636.88
427.402	742.88
427.625	832.88
427.847	784.88
428.069	628.88
428.292	554.88
428.514	538.88
428.736	488.88
428.958	485.88
429.181	466.88
429.403	468.88
429.625	477.88
429.847	514.88
430.069	588.88
430.292	586.88
430.514	494.88
430.736	480.88
430.958	454.88
431.18	444.88
431.402	439.88
431.624	429.88
431.846	428.88
432.068	449.88
432.29	423.88
432.512	420.88
432.734	438.88
432.956	449.88
433.178	433.88
433.4	451.88
433.622	442.88
433.844	443.88
434.066	414.88
434.287	409.88
434.509	431.88
434.731	447.88
434.953	434.88
435.175	478.88
435.397	516.88
435.618	494.88
435.84	558.88
436.062	658.88
436.284	717.88
436.505	608.88
436.727	548.88
436.949	503.88
437.17	506.88
437.392	462.88
437.614	521.88
437.835	550.88
438.057	664.88
438.278	762.88
438.5	740.88
438.721	761.88
438.943	740.88
439.165	592.88
439.386	540.88
439.608	541.88
439.829	549.88
440.05	545.88
440.272	610.88
440.493	586.88
440.715	536.88
440.936	502.88
441.158	493.88
441.379	481.88
441.6	506.88
441.822	516.88
442.043	554.88
442.264	648.88
442.486	653.88
442.707	580.88
442.928	534.88
443.149	541.88
443.371	578.88
443.592	619.88
443.813	679.88
444.034	718.88
444.255	639.88
444.476	538.88
444.698	520.88
444.919	508.88
445.14	606.88
445.361	574.88
445.582	569.88
445.803	625.88
446.024	720.88
446.245	740.88
446.466	687.88
446.687	586.88
446.908	533.88
447.129	507.88
447.35	505.88
447.571	480.88
447.792	486.88
448.013	482.88
448.234	490.88
448.455	572.88
448.675	660.88
448.896	756.88
449.117	666.88
449.338	624.88
449.559	713.88
449.779	794.88
450	642.88
450.221	545.88
450.442	528.88
450.662	505.88
450.883	505.88
451.104	543.88
451.324	524.88
451.545	459.88
451.766	455.88
451.986	434.88
452.207	416.88
452.428	436.88
452.648	428.88
452.869	465.88
453.089	444.88
453.31	462.88
453.53	428.88
453.751	430.88
453.971	445.88
454.192	458.88
454.412	464.88
454.633	433.88
454.853	417.88
455.073	441.88
455.294	486.88
455.514	555.88
455.734	521.88
455.955	446.88
456.175	400.88
456.395	397.88
456.616	361.88
456.836	406.88
457.056	400.88
457.276	377.88
457.497	389.88
457.717	392.88
457.937	397.88
458.157	417.88
458.377	403.88
458.598	450.88
458.818	512.88
459.038	642.88
459.258	623.88
459.478	502.88
459.698	475.88
459.918	448.88
460.138	408.88
460.358	428.88
460.578	428.88
460.798	417.88
461.018	432.88
461.238	412.88
461.458	433.88
461.678	400.88
461.898	419.88
462.118	422.88
462.338	428.88
462.558	410.88
462.777	414.88
462.997	424.88
463.217	428.88
463.437	423.88
463.657	431.88
463.876	430.88
464.096	461.88
464.316	429.88
464.536	440.88
464.755	468.88
464.975	465.88
465.195	561.88
465.414	646.88
465.634	569.88
465.854	510.88
466.073	480.88
466.293	446.88
466.512	439.88
466.732	427.88
466.951	436.88
467.171	420.88
467.391	433.88
467.61	462.88
467.829	446.88
468.049	435.88
468.268	425.88
468.488	408.88
468.707	413.88
468.927	429.88
469.146	381.88
469.365	393.88
469.585	415.88
469.804	417.88
470.023	425.88
470.243	432.88
470.462	447.88
470.681	464.88
470.901	451.88
471.12	465.88
471.339	439.88
471.558	450.88
471.777	438.88
471.997	420.88
472.216	434.88
472.435	429.88
472.654	432.88
472.873	420.88
473.092	418.88
473.311	421.88
473.53	423.88
473.749	437.88
473.968	487.88
474.187	602.88
474.406	609.88
474.625	510.88
474.844	438.88
475.063	457.88
475.282	444.88
475.501	431.88
475.72	458.88
475.939	439.88
476.158	429.88
476.377	444.88
476.596	451.88
476.814	432.88
477.033	440.88
477.252	455.88
477.471	476.88
477.69	464.88
477.908	468.88
478.127	468.88
478.346	440.88
478.564	467.88
478.783	472.88
479.002	502.88
479.22	460.88
479.439	511.88
479.658	515.88
479.876	543.88
480.095	526.88
480.313	564.88
480.532	509.88
480.751	518.88
480.969	527.88
481.188	514.88
481.406	538.88
481.624	508.88
481.843	515.88
482.061	503.88
482.28	510.88
482.498	506.88
482.717	504.88
482.935	495.88
483.153	502.88
483.372	512.88
483.59	504.88
483.808	509.88
484.027	497.88
484.245	518.88
484.463	488.88
484.681	506.88
484.9	531.88
485.118	522.88
485.336	534.88
485.554	518.88
485.772	541.88
485.99	521.88
486.209	525.88
486.427	543.88
486.645	559.88
486.863	588.88
487.081	569.88
487.299	571.88
487.517	574.88
487.735	544.88
487.953	556.88
488.171	548.88
488.389	571.88
488.607	591.88
488.825	571.88
489.043	550.88
489.261	568.88
489.479	564.88
489.696	575.88
489.914	567.88
490.132	597.88
490.35	582.88
490.568	594.88
490.786	604.88
491.003	604.88
491.221	608.88
491.439	602.88
491.657	609.88
491.874	634.88
492.092	646.88
492.31	620.88
492.527	637.88
492.745	634.88
492.963	641.88
493.18	636.88
493.398	638.88
493.615	661.88
493.833	672.88
494.05	642.88
494.268	669.88
494.485	657.88
494.703	664.88
494.92	672.88
495.138	670.88
495.355	688.88
495.573	653.88
495.79	688.88
496.008	677.88
496.225	673.88
496.442	663.88
496.66	653.88
496.877	647.88
497.094	680.88
497.312	668.88
497.529	680.88
497.746	698.88
497.963	689.88
498.181	740.88
498.398	702.88
498.615	718.88
498.832	725.88
499.049	717.88
499.267	735.88
499.484	748.88
499.701	729.88
499.918	759.88
500.135	780.88
500.352	783.88
500.569	779.88
500.786	809.88
501.003	793.88
501.22	796.88
501.437	792.88
501.654	810.88
501.871	805.88
502.088	802.88
502.305	756.88
502.522	729.88
502.739	748.88
502.956	728.88
503.172	711.88
503.389	685.88
503.606	691.88
503.823	715.88
504.04	698.88
504.256	680.88
504.473	687.88
504.69	688.88
504.907	662.88
505.123	670.88
505.34	657.88
505.557	657.88
505.773	683.88
505.99	676.88
506.207	668.88
506.423	672.88
506.64	665.88
506.856	664.88
507.073	670.88
507.289	668.88
507.506	688.88
507.722	668.88
507.939	696.88
508.155	702.88
508.372	659.88
508.588	638.88
508.805	637.88
509.021	648.88
509.238	679.88
509.454	676.88
509.67	658.88
509.887	664.88
510.103	674.88
510.319	699.88
510.536	800.88
510.752	1526.88
510.968	1220.88
511.184	746.88
511.401	676.88
511.617	668.88
511.833	648.88
512.049	632.88
512.265	646.88
512.481	630.88
512.698	603.88
512.914	631.88
513.13	640.88
513.346	645.88
513.562	620.88
513.778	619.88
513.994	663.88
514.21	657.88
514.426	713.88
514.642	774.88
514.858	825.88
515.074	882.88
515.29	1114.88
515.506	1749.88
515.721	1423.88
515.937	861.88
516.153	748.88
516.369	700.88
516.585	680.88
516.801	638.88
517.016	630.88
517.232	637.88
517.448	621.88
517.664	631.88
517.879	629.88
518.095	647.88
518.311	605.88
518.527	628.88
518.742	638.88
518.958	620.88
519.173	632.88
519.389	615.88
519.605	656.88
519.82	632.88
520.036	688.88
520.251	716.88
520.467	761.88
520.682	753.88
520.898	778.88
521.113	814.88
521.329	898.88
521.544	1061.88
521.76	1393.88
521.975	2391.88
522.19	2350.88
522.406	1210.88
522.621	857.88
522.836	769.88
523.052	681.88
523.267	628.88
523.482	624.88
523.698	594.88
523.913	585.88
524.128	596.88
524.343	619.88
524.559	567.88
524.774	549.88
524.989	560.88
525.204	566.88
525.419	556.88
525.634	552.88
525.849	548.88
526.064	551.88
526.28	517.88
526.495	505.88
526.71	510.88
526.925	522.88
527.14	505.88
527.355	503.88
527.57	498.88
527.785	480.88
527.999	495.88
528.214	512.88
528.429	497.88
528.644	502.88
528.859	484.88
529.074	497.88
529.289	530.88
529.503	649.88
529.718	657.88
529.933	565.88
530.148	538.88
530.363	516.88
530.577	527.88
530.792	514.88
531.007	471.88
531.221	477.88
531.436	466.88
531.651	487.88
531.865	475.88
532.08	465.88
532.295	480.88
532.509	478.88
532.724	466.88
532.938	498.88
533.153	462.88
533.367	450.88
533.582	454.88
533.796	455.88
534.011	464.88
534.225	457.88
534.44	444.88
534.654	437.88
534.868	440.88
535.083	449.88
535.297	448.88
535.511	457.88
535.726	477.88
535.94	502.88
536.154	490.88
536.369	465.88
536.583	455.88
536.797	436.88
537.011	442.88
537.225	465.88
537.44	456.88
537.654	437.88
537.868	426.88
538.082	454.88
538.296	438.88
538.51	440.88
538.724	443.88
538.938	456.88
539.153	440.88
539.367	467.88
539.581	472.88
539.795	472.88
540.009	449.88
540.222	436.88
540.436	448.88
540.65	440.88
540.864	450.88
541.078	461.88
541.292	462.88
541.506	445.88
541.72	445.88
541.934	439.88
542.147	444.88
542.361	422.88
542.575	424.88
542.789	413.88
543.002	442.88
543.216	443.88
543.43	442.88
543.644	429.88
543.857	415.88
544.071	442.88
544.285	436.88
544.498	412.88
544.712	427.88
544.925	400.88
545.139	442.88
545.352	427.88
545.566	398.88
545.779	403.88
545.993	418.88
546.206	425.88
546.42	409.88
546.633	420.88
546.847	431.88
547.06	411.88
547.274	413.88
547.487	405.88
547.7	400.88
547.914	398.88
548.127	410.88
548.34	406.88
548.554	400.88
548.767	383.88
548.98	403.88
549.193	400.88
549.407	398.88
549.62	398.88
549.833	407.88
550.046	384.88
550.259	399.88
550.473	384.88
550.686	392.88
550.899	381.88
551.112	376.88
551.325	388.88
551.538	373.88
551.751	385.88
551.964	377.88
552.177	393.88
552.39	386.88
552.603	410.88
552.816	381.88
553.029	400.88
553.242	392.88
553.455	381.88
553.667	408.88
553.88	426.88
554.093	413.88
554.306	407.88
554.519	403.88
554.732	392.88
554.944	399.88
555.157	395.88
555.37	389.88
555.583	391.88
555.795	364.88
556.008	376.88
556.221	382.88
556.433	369.88
556.646	376.88
556.859	374.88
557.071	344.88
557.284	370.88
557.496	374.88
557.709	378.88
557.921	356.88
558.134	365.88
558.346	348.88
558.559	358.88
558.771	347.88
558.984	374.88
559.196	372.88
559.409	359.88
559.621	352.88
559.833	344.88
560.046	351.88
560.258	366.88
560.47	342.88
560.683	380.88
560.895	350.88
561.107	364.88
561.32	360.88
561.532	353.88
561.744	357.88
561.956	362.88
562.168	341.88
562.381	365.88
562.593	372.88
562.805	368.88
563.017	339.88
563.229	350.88
563.441	345.88
563.653	353.88
563.865	362.88
564.077	351.88
564.289	345.88
564.501	366.88
564.713	363.88
564.925	378.88
565.137	385.88
565.349	384.88
565.561	366.88
565.773	374.88
565.985	377.88
566.197	367.88
566.408	378.88
566.62	384.88
566.832	395.88
567.044	385.88
567.255	394.88
567.467	398.88
567.679	373.88
567.891	396.88
568.102	386.88
568.314	401.88
568.526	376.88
568.737	384.88
568.949	362.88
569.161	362.88
569.372	351.88
569.584	377.88
569.795	368.88
570.007	350.88
570.218	430.88
570.43	433.88
570.641	364.88
570.853	350.88
571.064	338.88
571.276	320.88
571.487	347.88
571.698	310.88
571.91	336.88
572.121	319.88
572.333	328.88
572.544	318.88
572.755	319.88
572.966	317.88
573.178	335.88
573.389	316.88
573.6	322.88
573.811	316.88
574.023	321.88
574.234	309.88
574.445	315.88
574.656	291.88
574.867	321.88
575.078	320.88
575.289	313.88
575.501	300.88
575.712	310.88
575.923	308.88
576.134	291.88
576.345	329.88
576.556	308.88
576.767	303.88
576.978	290.88
577.188	309.88
577.399	309.88
577.61	303.88
577.821	293.88
578.032	303.88
578.243	368.88
578.454	702.88
578.665	479.88
578.875	336.88
579.086	307.88
579.297	313.88
579.508	299.88
579.718	294.88
579.929	305.88
580.14	298.88
580.35	274.88
580.561	298.88
580.772	289.88
580.982	302.88
581.193	283.88
581.403	286.88
581.614	276.88
581.825	279.88
582.035	290.88
582.246	287.88
582.456	297.88
582.667	276.88
582.877	286.88
583.087	276.88
583.298	271.88
583.508	287.88
583.719	287.88
583.929	288.88
584.139	292.88
584.35	278.88
584.56	286.88
584.77	281.88
584.981	283.88
585.191	268.88
585.401	266.88
585.611	292.88
585.821	274.88
586.032	286.88
586.242	285.88
586.452	302.88
586.662	271.88
586.872	271.88
587.082	268.88
587.292	269.88
587.502	265.88
587.713	265.88
587.923	289.88
588.133	278.88
588.343	290.88
588.553	285.88
588.762	279.88
588.972	284.88
589.182	300.88
589.392	316.88
589.602	285.88
589.812	314.88
590.022	296.88
590.232	296.88
590.441	264.88
590.651	275.88
590.861	253.88
591.071	282.88
591.281	282.88
591.49	272.88
591.7	281.88
591.91	285.88
592.119	262.88
592.329	265.88
592.539	285.88
592.748	276.88
592.958	275.88
593.167	276.88
593.377	262.88
593.587	285.88
593.796	292.88
594.006	278.88
594.215	288.88
594.424	273.88
594.634	258.88
594.843	264.88
595.053	270.88
595.262	270.88
595.472	264.88
595.681	270.88
595.89	265.88
596.1	267.88
596.309	252.88
596.518	253.88
596.727	244.88
596.937	254.88
597.146	258.88
597.355	279.88
597.564	260.88
597.774	248.88
597.983	237.88
598.192	250.88
598.401	248.88
598.61	242.88
598.819	268.88
599.028	252.88
599.237	247.88
599.446	241.88
599.655	234.88
599.864	244.88
600.073	240.88
600.282	256.88
600.491	265.88
600.7	246.88
600.909	249.88
601.118	246.88
601.327	238.88
601.536	240.88
601.745	228.88
601.953	223.88
602.162	227.88
602.371	219.88
602.58	256.88
602.789	224.88
602.997	254.88
603.206	237.88
603.415	231.88
603.623	239.88
603.832	222.88
604.041	225.88
604.249	244.88
604.458	234.88
604.666	220.88
604.875	241.88
605.084	225.88
605.292	232.88
605.501	231.88
605.709	238.88
605.918	234.88
606.126	228.88
606.334	237.88
606.543	228.88
606.751	222.88
606.96	202.88
607.168	228.88
607.376	229.88
607.585	229.88
607.793	213.88
608.001	220.88
608.21	224.88
608.418	231.88
608.626	228.88
608.834	217.88
609.043	226.88
609.251	207.88
609.459	224.88
609.667	224.88
609.875	228.88
610.083	230.88
610.291	228.88
610.499	220.88
610.707	229.88
610.916	212.88
611.124	233.88
611.332	239.88
611.54	234.88
611.748	232.88
611.955	225.88
612.163	222.88
612.371	226.88
612.579	219.88
612.787	230.88
612.995	240.88
613.203	214.88
613.411	224.88
613.618	230.88
613.826	218.88
614.034	209.88
614.242	222.88
614.449	204.88
614.657	217.88
614.865	220.88
615.072	220.88
615.28	213.88
615.488	220.88
615.695	208.88
615.903	225.88
616.111	217.88
616.318	213.88
616.526	239.88
616.733	227.88
616.941	238.88
617.148	214.88
617.356	219.88
617.563	218.88
617.771	201.88
617.978	211.88
618.185	182.88
618.393	206.88
618.6	196.88
618.807	214.88
619.015	213.88
619.222	221.88
619.429	209.88
619.637	211.88
619.844	194.88
620.051	213.88
620.258	199.88
620.466	195.88
620.673	202.88
620.88	202.88
621.087	211.88
621.294	222.88
621.501	229.88
621.708	221.88
621.915	232.88
622.122	204.88
622.329	205.88
622.536	210.88
622.743	207.88
622.95	218.88
623.157	193.88
623.364	203.88
623.571	192.88
623.778	214.88
623.985	198.88
624.192	194.88
624.399	198.88
624.606	225.88
624.812	210.88
625.019	192.88
625.226	209.88
625.433	201.88
625.639	183.88
625.846	193.88
626.053	183.88
626.259	204.88
626.466	202.88
626.673	197.88
626.879	194.88
627.086	195.88
627.293	194.88
627.499	198.88
627.706	184.88
627.912	191.88
628.119	199.88
628.325	187.88
628.532	191.88
628.738	174.88
628.945	193.88
629.151	182.88
629.357	184.88
629.564	192.88
629.77	191.88
629.976	194.88
630.183	173.88
630.389	188.88
630.595	173.88
630.802	192.88
631.008	176.88
631.214	186.88
631.42	186.88
631.627	193.88
631.833	183.88
632.039	180.88
632.245	177.88
632.451	182.88
632.657	166.88
632.863	170.88
633.069	177.88
633.275	184.88
633.481	154.88
633.688	166.88
633.893	190.88
634.099	180.88
634.305	169.88
634.511	177.88
634.717	177.88
634.923	171.88
635.129	174.88
635.335	174.88
635.541	185.88
635.747	172.88
635.952	161.88
636.158	184.88
636.364	164.88
636.57	181.88
636.775	168.88
636.981	177.88
637.187	169.88
637.392	170.88
637.598	156.88
637.804	164.88
638.009	175.88
638.215	171.88
638.421	183.88
638.626	174.88
638.832	169.88
639.037	161.88
639.243	157.88
639.448	163.88
639.654	166.88
639.859	160.88
640.065	146.88
640.27	183.88
640.475	173.88
640.681	167.88
640.886	171.88
641.091	164.88
641.297	157.88
641.502	162.88
641.707	159.88
641.913	162.88
642.118	163.88
642.323	130.88
642.528	165.88
642.733	158.88
642.939	177.88
643.144	162.88
643.349	154.88
643.554	154.88
643.759	157.88
643.964	140.88
644.169	171.88
644.374	170.88
644.579	159.88
644.784	162.88
644.989	151.88
645.194	165.88
645.399	155.88
645.604	161.88
645.809	166.88
646.014	160.88
646.219	146.88
646.423	140.88
646.628	170.88
646.833	145.88
647.038	167.88
647.243	157.88
647.447	163.88
647.652	172.88
647.857	145.88
648.062	154.88
648.266	165.88
648.471	149.88
648.676	167.88
648.88	160.88
649.085	160.88
649.289	161.88
649.494	160.88
649.698	168.88
649.903	181.88
650.107	169.88
650.312	145.88
650.516	146.88
650.721	149.88
650.925	144.88
651.13	143.88
651.334	144.88
651.539	147.88
651.743	136.88
651.947	137.88
652.152	149.88
652.356	148.88
652.56	135.88
652.764	114.88
652.969	132.88
653.173	134.88
653.377	135.88
653.581	131.88
653.785	139.88
653.99	134.88
654.194	140.88
654.398	135.88
654.602	111.88
654.806	133.88
655.01	152.88
655.214	120.88
655.418	120.88
655.622	133.88
655.826	118.88
656.03	121.88
656.234	126.88
656.438	124.88
656.642	122.88
656.846	132.88
657.049	117.88
657.253	123.88
657.457	99.88
657.661	102.88
657.865	107.88
658.068	105.88
658.272	119.88
658.476	116.88
658.68	110.88
658.883	100.88
659.087	101.88
659.291	108.88
659.494	110.88
659.698	86.88
659.901	97.88
660.105	85.88
660.309	83.88
660.512	77.88
660.716	80.88
660.919	101.88
661.123	95.88
661.326	91.88
661.53	100.88
661.733	84.88
661.936	100.88
662.14	85.88
662.343	74.88
662.546	101.88
662.75	89.88
662.953	89.88
663.156	91.88
663.36	92.88
663.563	91.88
663.766	76.88
663.969	79.88
664.173	76.88
664.376	79.88
664.579	69.88
664.782	79.88
664.985	87.88
665.188	79.88
665.391	91.88
665.594	77.88
665.797	78.88
666	87.88
666.203	79.88
666.406	79.88
666.609	88.88
666.812	94.88
667.015	80.88
667.218	86.88
667.421	92.88
667.624	79.88
667.827	81.88
668.03	83.88
668.232	84.88
668.435	90.88
668.638	79.88
668.841	95.88
669.043	82.88
669.246	86.88
669.449	81.88
669.651	62.88
669.854	76.88
670.057	88.88
670.259	88.88
670.462	87.88
670.665	85.88
670.867	92.88
671.07	95.88
671.272	85.88
671.475	89.88
671.677	81.88
671.88	88.88
672.082	86.88
672.284	81.88
672.487	87.88
672.689	103.88
672.892	94.88
