Data from 1987.PennyLincolnUp.Lamp.En5.5.200Scan.071819.P2_HRD10591_17-16-53-971.txt Node
Date: Thu Jul 18 17:16:53 EDT 2019
User: cochatt
Spectrometer: HR+D1059
Trigger mode: 1
Integration Time (sec): 1.000000E-1
Scans to average: 1
Electric dark correction enabled: true
Nonlinearity correction enabled: false
Boxcar width: 0
XAxis mode: Wavelengths
Number of Pixels in Spectrum: 2048
>>>>>Begin Spectral Data<<<<<
223.165	-9.62
223.4	-9.62
223.635	-9.62
223.869	-16.62
224.104	-23.62
224.338	-7.62
224.573	-12.62
224.808	-20.62
225.042	-6.62
225.277	1.38
225.511	1.38
225.746	8.38
225.98	4.38
226.215	20.38
226.449	14.38
226.683	12.38
226.918	9.38
227.152	25.38
227.387	29.38
227.621	46.38
227.856	40.38
228.09	26.38
228.324	53.38
228.559	57.38
228.793	54.38
229.027	114.38
229.262	118.38
229.496	139.38
229.73	163.38
229.964	184.38
230.199	145.38
230.433	141.38
230.667	113.38
230.901	130.38
231.136	126.38
231.37	130.38
231.604	120.38
231.838	113.38
232.072	105.38
232.306	106.38
232.541	105.38
232.775	117.38
233.009	128.38
233.243	124.38
233.477	121.38
233.711	115.38
233.945	126.38
234.179	127.38
234.413	115.38
234.647	106.38
234.881	120.38
235.115	112.38
235.349	125.38
235.583	119.38
235.817	123.38
236.051	125.38
236.285	114.38
236.519	115.38
236.753	141.38
236.987	150.38
237.221	198.38
237.455	270.38
237.689	215.38
237.922	153.38
238.156	131.38
238.39	130.38
238.624	125.38
238.858	125.38
239.091	137.38
239.325	123.38
239.559	120.38
239.793	126.38
240.027	134.38
240.26	149.38
240.494	162.38
240.728	148.38
240.961	152.38
241.195	131.38
241.429	143.38
241.662	117.38
241.896	134.38
242.13	124.38
242.363	115.38
242.597	128.38
242.83	122.38
243.064	134.38
243.298	146.38
243.531	133.38
243.765	145.38
243.998	124.38
244.232	141.38
244.465	150.38
244.699	140.38
244.932	138.38
245.166	156.38
245.399	146.38
245.633	141.38
245.866	145.38
246.099	148.38
246.333	134.38
246.566	160.38
246.8	128.38
247.033	144.38
247.266	163.38
247.5	150.38
247.733	165.38
247.966	161.38
248.2	178.38
248.433	170.38
248.666	179.38
248.899	179.38
249.133	204.38
249.366	213.38
249.599	202.38
249.832	191.38
250.066	190.38
250.299	182.38
250.532	188.38
250.765	191.38
250.998	201.38
251.231	218.38
251.465	220.38
251.698	209.38
251.931	203.38
252.164	202.38
252.397	180.38
252.63	198.38
252.863	210.38
253.096	217.38
253.329	216.38
253.562	204.38
253.795	217.38
254.028	233.38
254.261	237.38
254.494	220.38
254.727	276.38
254.96	293.38
255.193	285.38
255.426	243.38
255.659	256.38
255.892	215.38
256.124	212.38
256.357	219.38
256.59	195.38
256.823	223.38
257.056	215.38
257.289	184.38
257.521	194.38
257.754	194.38
257.987	192.38
258.22	211.38
258.452	193.38
258.685	205.38
258.918	201.38
259.151	204.38
259.383	213.38
259.616	226.38
259.849	219.38
260.081	227.38
260.314	234.38
260.547	230.38
260.779	249.38
261.012	223.38
261.244	224.38
261.477	200.38
261.71	217.38
261.942	216.38
262.175	242.38
262.407	228.38
262.64	213.38
262.872	213.38
263.105	197.38
263.337	210.38
263.57	206.38
263.802	203.38
264.035	202.38
264.267	194.38
264.499	200.38
264.732	193.38
264.964	206.38
265.197	200.38
265.429	183.38
265.661	189.38
265.894	188.38
266.126	208.38
266.358	187.38
266.591	205.38
266.823	200.38
267.055	204.38
267.287	206.38
267.52	203.38
267.752	217.38
267.984	214.38
268.216	198.38
268.448	196.38
268.681	221.38
268.913	211.38
269.145	243.38
269.377	265.38
269.609	260.38
269.841	271.38
270.073	276.38
270.306	279.38
270.538	300.38
270.77	312.38
271.002	288.38
271.234	276.38
271.466	283.38
271.698	294.38
271.93	320.38
272.162	307.38
272.394	312.38
272.626	305.38
272.858	292.38
273.09	268.38
273.322	263.38
273.553	253.38
273.785	240.38
274.017	262.38
274.249	253.38
274.481	243.38
274.713	246.38
274.945	262.38
275.176	249.38
275.408	251.38
275.64	234.38
275.872	235.38
276.104	225.38
276.335	238.38
276.567	242.38
276.799	268.38
277.031	306.38
277.262	305.38
277.494	302.38
277.726	288.38
277.957	283.38
278.189	244.38
278.421	235.38
278.652	240.38
278.884	240.38
279.115	236.38
279.347	240.38
279.579	246.38
279.81	205.38
280.042	231.38
280.273	214.38
280.505	224.38
280.736	211.38
280.968	233.38
281.199	232.38
281.431	212.38
281.662	225.38
281.894	231.38
282.125	254.38
282.356	266.38
282.588	305.38
282.819	290.38
283.051	232.38
283.282	219.38
283.513	242.38
283.745	226.38
283.976	237.38
284.207	232.38
284.439	228.38
284.67	236.38
284.901	239.38
285.132	239.38
285.364	248.38
285.595	237.38
285.826	231.38
286.057	232.38
286.288	229.38
286.52	227.38
286.751	218.38
286.982	236.38
287.213	233.38
287.444	242.38
287.675	235.38
287.906	261.38
288.138	252.38
288.369	269.38
288.6	261.38
288.831	246.38
289.062	262.38
289.293	249.38
289.524	246.38
289.755	242.38
289.986	243.38
290.217	242.38
290.448	235.38
290.679	240.38
290.91	248.38
291.141	241.38
291.371	237.38
291.602	223.38
291.833	237.38
292.064	229.38
292.295	234.38
292.526	221.38
292.757	234.38
292.987	237.38
293.218	235.38
293.449	222.38
293.68	235.38
293.91	227.38
294.141	234.38
294.372	230.38
294.603	226.38
294.833	228.38
295.064	228.38
295.295	241.38
295.525	256.38
295.756	262.38
295.987	267.38
296.217	286.38
296.448	312.38
296.679	260.38
296.909	247.38
297.14	256.38
297.37	250.38
297.601	236.38
297.831	244.38
298.062	253.38
298.292	282.38
298.523	233.38
298.753	250.38
298.984	250.38
299.214	257.38
299.445	256.38
299.675	247.38
299.905	260.38
300.136	254.38
300.366	248.38
300.597	237.38
300.827	260.38
301.057	244.38
301.288	302.38
301.518	253.38
301.748	283.38
301.979	275.38
302.209	275.38
302.439	270.38
302.669	280.38
302.9	260.38
303.13	260.38
303.36	276.38
303.59	262.38
303.82	273.38
304.051	276.38
304.281	267.38
304.511	252.38
304.741	267.38
304.971	253.38
305.201	275.38
305.431	262.38
305.661	279.38
305.891	270.38
306.121	286.38
306.352	272.38
306.582	292.38
306.812	280.38
307.042	266.38
307.272	270.38
307.502	273.38
307.731	259.38
307.961	277.38
308.191	269.38
308.421	285.38
308.651	280.38
308.881	285.38
309.111	289.38
309.341	278.38
309.571	314.38
309.8	323.38
310.03	329.38
310.26	356.38
310.49	349.38
310.72	361.38
310.949	375.38
311.179	381.38
311.409	345.38
311.639	354.38
311.868	356.38
312.098	362.38
312.328	356.38
312.557	390.38
312.787	387.38
313.017	393.38
313.246	377.38
313.476	328.38
313.706	328.38
313.935	354.38
314.165	370.38
314.394	369.38
314.624	369.38
314.853	347.38
315.083	333.38
315.312	335.38
315.542	333.38
315.771	331.38
316.001	320.38
316.23	320.38
316.46	315.38
316.689	320.38
316.919	322.38
317.148	342.38
317.377	337.38
317.607	359.38
317.836	322.38
318.065	339.38
318.295	323.38
318.524	312.38
318.753	310.38
318.983	324.38
319.212	330.38
319.441	364.38
319.67	342.38
319.9	340.38
320.129	329.38
320.358	330.38
320.587	340.38
320.816	346.38
321.046	362.38
321.275	363.38
321.504	366.38
321.733	352.38
321.962	369.38
322.191	380.38
322.42	423.38
322.649	438.38
322.878	467.38
323.108	474.38
323.337	537.38
323.566	541.38
323.795	588.38
324.024	668.38
324.253	859.38
324.482	1292.38
324.71	1997.38
324.939	2722.38
325.168	2407.38
325.397	1316.38
325.626	821.38
325.855	642.38
326.084	581.38
326.313	544.38
326.542	572.38
326.77	631.38
326.999	763.38
327.228	1067.38
327.457	1720.38
327.686	2061.38
327.914	1414.38
328.143	908.38
328.372	761.38
328.6	690.38
328.829	639.38
329.058	667.38
329.287	677.38
329.515	620.38
329.744	527.38
329.972	523.38
330.201	519.38
330.43	532.38
330.658	637.38
330.887	685.38
331.115	689.38
331.344	555.38
331.572	478.38
331.801	491.38
332.03	501.38
332.258	445.38
332.486	428.38
332.715	410.38
332.943	376.38
333.172	387.38
333.4	393.38
333.629	386.38
333.857	392.38
334.085	409.38
334.314	381.38
334.542	406.38
334.771	411.38
334.999	397.38
335.227	405.38
335.455	399.38
335.684	377.38
335.912	382.38
336.14	368.38
336.369	354.38
336.597	396.38
336.825	391.38
337.053	390.38
337.281	378.38
337.51	363.38
337.738	384.38
337.966	377.38
338.194	390.38
338.422	393.38
338.65	384.38
338.878	380.38
339.106	347.38
339.334	360.38
339.562	373.38
339.79	364.38
340.018	357.38
340.246	382.38
340.474	392.38
340.702	390.38
340.93	369.38
341.158	356.38
341.386	370.38
341.614	395.38
341.842	376.38
342.07	365.38
342.298	384.38
342.526	345.38
342.754	346.38
342.981	341.38
343.209	349.38
343.437	345.38
343.665	355.38
343.893	361.38
344.12	350.38
344.348	361.38
344.576	364.38
344.804	375.38
345.031	410.38
345.259	409.38
345.487	393.38
345.714	394.38
345.942	388.38
346.17	362.38
346.397	386.38
346.625	377.38
346.853	372.38
347.08	355.38
347.308	366.38
347.535	375.38
347.763	400.38
347.99	402.38
348.218	405.38
348.445	406.38
348.673	403.38
348.9	384.38
349.128	373.38
349.355	364.38
349.583	344.38
349.81	352.38
350.037	339.38
350.265	336.38
350.492	361.38
350.72	353.38
350.947	359.38
351.174	382.38
351.402	394.38
351.629	381.38
351.856	389.38
352.083	381.38
352.311	408.38
352.538	410.38
352.765	395.38
352.992	413.38
353.22	390.38
353.447	372.38
353.674	372.38
353.901	360.38
354.128	360.38
354.355	349.38
354.583	325.38
354.81	320.38
355.037	329.38
355.264	342.38
355.491	296.38
355.718	322.38
355.945	330.38
356.172	348.38
356.399	327.38
356.626	313.38
356.853	338.38
357.08	328.38
357.307	314.38
357.534	322.38
357.761	313.38
357.988	331.38
358.215	330.38
358.441	328.38
358.668	341.38
358.895	349.38
359.122	337.38
359.349	373.38
359.576	363.38
359.802	450.38
360.029	487.38
360.256	504.38
360.483	455.38
360.709	408.38
360.936	383.38
361.163	365.38
361.39	382.38
361.616	379.38
361.843	378.38
362.07	400.38
362.296	372.38
362.523	378.38
362.749	398.38
362.976	374.38
363.203	361.38
363.429	366.38
363.656	369.38
363.882	354.38
364.109	348.38
364.335	343.38
364.562	355.38
364.788	355.38
365.015	347.38
365.241	377.38
365.468	361.38
365.694	363.38
365.92	358.38
366.147	370.38
366.373	337.38
366.599	342.38
366.826	353.38
367.052	340.38
367.278	361.38
367.505	336.38
367.731	333.38
367.957	342.38
368.184	372.38
368.41	358.38
368.636	369.38
368.862	374.38
369.089	355.38
369.315	331.38
369.541	340.38
369.767	345.38
369.993	356.38
370.219	339.38
370.445	340.38
370.672	315.38
370.898	322.38
371.124	328.38
371.35	339.38
371.576	328.38
371.802	336.38
372.028	320.38
372.254	326.38
372.48	336.38
372.706	333.38
372.932	312.38
373.158	338.38
373.384	332.38
373.61	336.38
373.835	335.38
374.061	330.38
374.287	346.38
374.513	341.38
374.739	333.38
374.965	322.38
375.191	347.38
375.416	330.38
375.642	328.38
375.868	346.38
376.094	329.38
376.319	328.38
376.545	329.38
376.771	339.38
376.997	320.38
377.222	334.38
377.448	328.38
377.674	300.38
377.899	329.38
378.125	332.38
378.35	324.38
378.576	326.38
378.802	331.38
379.027	323.38
379.253	319.38
379.478	322.38
379.704	323.38
379.929	325.38
380.155	322.38
380.38	312.38
380.606	343.38
380.831	329.38
381.057	331.38
381.282	315.38
381.507	315.38
381.733	338.38
381.958	347.38
382.184	324.38
382.409	326.38
382.634	309.38
382.86	299.38
383.085	344.38
383.31	322.38
383.535	328.38
383.761	331.38
383.986	325.38
384.211	336.38
384.436	318.38
384.662	331.38
384.887	327.38
385.112	323.38
385.337	330.38
385.562	328.38
385.787	342.38
386.013	352.38
386.238	359.38
386.463	355.38
386.688	349.38
386.913	339.38
387.138	364.38
387.363	350.38
387.588	340.38
387.813	332.38
388.038	350.38
388.263	343.38
388.488	354.38
388.713	343.38
388.938	344.38
389.163	375.38
389.387	357.38
389.612	354.38
389.837	354.38
390.062	341.38
390.287	347.38
390.512	338.38
390.736	327.38
390.961	338.38
391.186	319.38
391.411	324.38
391.636	314.38
391.86	344.38
392.085	346.38
392.31	351.38
392.534	344.38
392.759	350.38
392.984	359.38
393.208	338.38
393.433	351.38
393.658	355.38
393.882	370.38
394.107	346.38
394.331	342.38
394.556	334.38
394.78	353.38
395.005	354.38
395.229	325.38
395.454	350.38
395.678	344.38
395.903	377.38
396.127	384.38
396.352	389.38
396.576	357.38
396.801	352.38
397.025	355.38
397.249	372.38
397.474	363.38
397.698	374.38
397.922	384.38
398.147	376.38
398.371	382.38
398.595	379.38
398.82	388.38
399.044	397.38
399.268	368.38
399.492	388.38
399.717	422.38
399.941	446.38
400.165	464.38
400.389	500.38
400.613	449.38
400.837	428.38
401.062	390.38
401.286	397.38
401.51	404.38
401.734	412.38
401.958	396.38
402.182	396.38
402.406	429.38
402.63	417.38
402.854	418.38
403.078	401.38
403.302	412.38
403.526	435.38
403.75	430.38
403.974	432.38
404.198	403.38
404.422	412.38
404.645	424.38
404.869	428.38
405.093	436.38
405.317	456.38
405.541	500.38
405.765	450.38
405.988	461.38
406.212	455.38
406.436	500.38
406.66	526.38
406.883	469.38
407.107	498.38
407.331	539.38
407.555	625.38
407.778	582.38
408.002	540.38
408.226	484.38
408.449	476.38
408.673	491.38
408.896	510.38
409.12	555.38
409.344	512.38
409.567	445.38
409.791	434.38
410.014	424.38
410.238	415.38
410.461	438.38
410.685	446.38
410.908	439.38
411.132	487.38
411.355	501.38
411.578	485.38
411.802	448.38
412.025	429.38
412.249	401.38
412.472	411.38
412.695	433.38
412.919	437.38
413.142	401.38
413.365	401.38
413.589	411.38
413.812	401.38
414.035	416.38
414.258	369.38
414.482	393.38
414.705	410.38
414.928	381.38
415.151	374.38
415.374	373.38
415.597	375.38
415.821	372.38
416.044	399.38
416.267	405.38
416.49	385.38
416.713	411.38
416.936	404.38
417.159	394.38
417.382	418.38
417.605	417.38
417.828	427.38
418.051	432.38
418.274	430.38
418.497	417.38
418.72	407.38
418.943	396.38
419.166	406.38
419.389	432.38
419.611	437.38
419.834	430.38
420.057	424.38
420.28	433.38
420.503	422.38
420.726	422.38
420.948	444.38
421.171	504.38
421.394	530.38
421.617	453.38
421.839	447.38
422.062	440.38
422.285	462.38
422.507	502.38
422.73	574.38
422.953	548.38
423.175	488.38
423.398	469.38
423.621	474.38
423.843	483.38
424.066	468.38
424.288	480.38
424.511	504.38
424.733	557.38
424.956	649.38
425.178	662.38
425.401	604.38
425.623	634.38
425.846	554.38
426.068	509.38
426.291	516.38
426.513	501.38
426.735	516.38
426.958	557.38
427.18	626.38
427.402	732.38
427.625	842.38
427.847	801.38
428.069	674.38
428.292	590.38
428.514	527.38
428.736	497.38
428.958	472.38
429.181	469.38
429.403	471.38
429.625	484.38
429.847	526.38
430.069	564.38
430.292	594.38
430.514	523.38
430.736	465.38
430.958	448.38
431.18	447.38
431.402	436.38
431.624	420.38
431.846	437.38
432.068	425.38
432.29	448.38
432.512	416.38
432.734	433.38
432.956	420.38
433.178	441.38
433.4	468.38
433.622	448.38
433.844	432.38
434.066	424.38
434.287	421.38
434.509	434.38
434.731	421.38
434.953	452.38
435.175	471.38
435.397	494.38
435.618	515.38
435.84	570.38
436.062	640.38
436.284	706.38
436.505	579.38
436.727	555.38
436.949	483.38
437.17	477.38
437.392	480.38
437.614	517.38
437.835	550.38
438.057	672.38
438.278	737.38
438.5	717.38
438.721	758.38
438.943	721.38
439.165	632.38
439.386	577.38
439.608	524.38
439.829	549.38
440.05	578.38
440.272	619.38
440.493	581.38
440.715	530.38
440.936	489.38
441.158	500.38
441.379	470.38
441.6	493.38
441.822	502.38
442.043	549.38
442.264	658.38
442.486	680.38
442.707	579.38
442.928	546.38
443.149	536.38
443.371	568.38
443.592	603.38
443.813	660.38
444.034	726.38
444.255	614.38
444.476	534.38
444.698	524.38
444.919	499.38
445.14	595.38
445.361	558.38
445.582	562.38
445.803	621.38
446.024	741.38
446.245	741.38
446.466	691.38
446.687	580.38
446.908	544.38
447.129	503.38
447.35	484.38
447.571	488.38
447.792	500.38
448.013	469.38
448.234	515.38
448.455	574.38
448.675	679.38
448.896	770.38
449.117	684.38
449.338	643.38
449.559	723.38
449.779	783.38
450	659.38
450.221	563.38
450.442	513.38
450.662	489.38
450.883	519.38
451.104	562.38
451.324	531.38
451.545	511.38
451.766	476.38
451.986	443.38
452.207	421.38
452.428	439.38
452.648	436.38
452.869	440.38
453.089	442.38
453.31	455.38
453.53	445.38
453.751	442.38
453.971	465.38
454.192	460.38
454.412	473.38
454.633	464.38
454.853	467.38
455.073	422.38
455.294	457.38
455.514	532.38
455.734	524.38
455.955	452.38
456.175	404.38
456.395	403.38
456.616	395.38
456.836	413.38
457.056	381.38
457.276	377.38
457.497	380.38
457.717	386.38
457.937	402.38
458.157	406.38
458.377	435.38
458.598	443.38
458.818	531.38
459.038	650.38
459.258	671.38
459.478	526.38
459.698	462.38
459.918	426.38
460.138	422.38
460.358	424.38
460.578	425.38
460.798	421.38
461.018	413.38
461.238	410.38
461.458	440.38
461.678	394.38
461.898	428.38
462.118	408.38
462.338	408.38
462.558	398.38
462.777	431.38
462.997	430.38
463.217	402.38
463.437	414.38
463.657	417.38
463.876	404.38
464.096	430.38
464.316	437.38
464.536	442.38
464.755	448.38
464.975	466.38
465.195	541.38
465.414	678.38
465.634	577.38
465.854	520.38
466.073	470.38
466.293	453.38
466.512	432.38
466.732	434.38
466.951	438.38
467.171	416.38
467.391	443.38
467.61	448.38
467.829	459.38
468.049	440.38
468.268	433.38
468.488	394.38
468.707	398.38
468.927	401.38
469.146	413.38
469.365	385.38
469.585	410.38
469.804	413.38
470.023	461.38
470.243	444.38
470.462	428.38
470.681	467.38
470.901	490.38
471.12	437.38
471.339	440.38
471.558	426.38
471.777	419.38
471.997	409.38
472.216	410.38
472.435	439.38
472.654	421.38
472.873	405.38
473.092	435.38
473.311	412.38
473.53	422.38
473.749	442.38
473.968	498.38
474.187	620.38
474.406	637.38
474.625	526.38
474.844	459.38
475.063	451.38
475.282	430.38
475.501	456.38
475.72	449.38
475.939	441.38
476.158	442.38
476.377	429.38
476.596	427.38
476.814	457.38
477.033	474.38
477.252	454.38
477.471	446.38
477.69	440.38
477.908	452.38
478.127	459.38
478.346	457.38
478.564	465.38
478.783	462.38
479.002	460.38
479.22	482.38
479.439	507.38
479.658	563.38
479.876	534.38
480.095	536.38
480.313	565.38
480.532	547.38
480.751	522.38
480.969	528.38
481.188	524.38
481.406	544.38
481.624	532.38
481.843	518.38
482.061	501.38
482.28	493.38
482.498	507.38
482.717	516.38
482.935	519.38
483.153	518.38
483.372	482.38
483.59	518.38
483.808	510.38
484.027	509.38
484.245	493.38
484.463	492.38
484.681	515.38
484.9	517.38
485.118	501.38
485.336	530.38
485.554	515.38
485.772	525.38
485.99	517.38
486.209	553.38
486.427	560.38
486.645	556.38
486.863	572.38
487.081	576.38
487.299	571.38
487.517	564.38
487.735	567.38
487.953	556.38
488.171	547.38
488.389	550.38
488.607	562.38
488.825	558.38
489.043	555.38
489.261	586.38
489.479	572.38
489.696	577.38
489.914	581.38
490.132	562.38
490.35	590.38
490.568	563.38
490.786	588.38
491.003	617.38
491.221	624.38
491.439	618.38
491.657	606.38
491.874	631.38
492.092	651.38
492.31	647.38
492.527	641.38
492.745	638.38
492.963	636.38
493.18	644.38
493.398	645.38
493.615	684.38
493.833	666.38
494.05	669.38
494.268	666.38
494.485	650.38
494.703	640.38
494.92	651.38
495.138	648.38
495.355	683.38
495.573	669.38
495.79	674.38
496.008	693.38
496.225	676.38
496.442	678.38
496.66	676.38
496.877	674.38
497.094	663.38
497.312	674.38
497.529	685.38
497.746	674.38
497.963	694.38
498.181	711.38
498.398	708.38
498.615	722.38
498.832	726.38
499.049	722.38
499.267	731.38
499.484	734.38
499.701	752.38
499.918	738.38
500.135	757.38
500.352	780.38
500.569	744.38
500.786	776.38
501.003	763.38
501.22	805.38
501.437	769.38
501.654	800.38
501.871	787.38
502.088	801.38
502.305	756.38
502.522	737.38
502.739	706.38
502.956	710.38
503.172	708.38
503.389	697.38
503.606	702.38
503.823	717.38
504.04	713.38
504.256	708.38
504.473	678.38
504.69	685.38
504.907	678.38
505.123	679.38
505.34	660.38
505.557	667.38
505.773	678.38
505.99	688.38
506.207	659.38
506.423	680.38
506.64	670.38
506.856	650.38
507.073	657.38
507.289	672.38
507.506	674.38
507.722	685.38
507.939	721.38
508.155	660.38
508.372	676.38
508.588	668.38
508.805	629.38
509.021	658.38
509.238	682.38
509.454	689.38
509.67	664.38
509.887	658.38
510.103	674.38
510.319	690.38
510.536	843.38
510.752	1548.38
510.968	1302.38
511.184	764.38
511.401	698.38
511.617	678.38
511.833	640.38
512.049	655.38
512.265	625.38
512.481	643.38
512.698	601.38
512.914	637.38
513.13	620.38
513.346	630.38
513.562	654.38
513.778	672.38
513.994	668.38
514.21	691.38
514.426	702.38
514.642	817.38
514.858	863.38
515.074	938.38
515.29	1207.38
515.506	1885.38
515.721	1483.38
515.937	909.38
516.153	773.38
516.369	732.38
516.585	700.38
516.801	669.38
517.016	662.38
517.232	636.38
517.448	642.38
517.664	672.38
517.879	667.38
518.095	627.38
518.311	636.38
518.527	604.38
518.742	635.38
518.958	611.38
519.173	636.38
519.389	660.38
519.605	633.38
519.82	668.38
520.036	671.38
520.251	736.38
520.467	804.38
520.682	771.38
520.898	792.38
521.113	840.38
521.329	942.38
521.544	1108.38
521.76	1513.38
521.975	2597.38
522.19	2466.38
522.406	1287.38
522.621	902.38
522.836	781.38
523.052	716.38
523.267	676.38
523.482	636.38
523.698	626.38
523.913	609.38
524.128	606.38
524.343	609.38
524.559	566.38
524.774	583.38
524.989	568.38
525.204	583.38
525.419	562.38
525.634	557.38
525.849	562.38
526.064	518.38
526.28	515.38
526.495	524.38
526.71	502.38
526.925	509.38
527.14	510.38
527.355	507.38
527.57	488.38
527.785	520.38
527.999	473.38
528.214	490.38
528.429	514.38
528.644	498.38
528.859	503.38
529.074	507.38
529.289	532.38
529.503	654.38
529.718	644.38
529.933	586.38
530.148	531.38
530.363	510.38
530.577	494.38
530.792	482.38
531.007	480.38
531.221	461.38
531.436	462.38
531.651	481.38
531.865	467.38
532.08	453.38
532.295	458.38
532.509	481.38
532.724	459.38
532.938	450.38
533.153	462.38
533.367	451.38
533.582	461.38
533.796	457.38
534.011	459.38
534.225	462.38
534.44	440.38
534.654	461.38
534.868	461.38
535.083	461.38
535.297	434.38
535.511	468.38
535.726	478.38
535.94	484.38
536.154	451.38
536.369	469.38
536.583	448.38
536.797	450.38
537.011	433.38
537.225	465.38
537.44	459.38
537.654	432.38
537.868	429.38
538.082	455.38
538.296	451.38
538.51	435.38
538.724	444.38
538.938	439.38
539.153	437.38
539.367	459.38
539.581	462.38
539.795	452.38
540.009	441.38
540.222	431.38
540.436	448.38
540.65	421.38
540.864	442.38
541.078	473.38
541.292	469.38
541.506	438.38
541.72	411.38
541.934	429.38
542.147	434.38
542.361	425.38
542.575	441.38
542.789	438.38
543.002	416.38
543.216	442.38
543.43	448.38
543.644	445.38
543.857	428.38
544.071	424.38
544.285	411.38
544.498	413.38
544.712	436.38
544.925	429.38
545.139	415.38
545.352	412.38
545.566	415.38
545.779	399.38
545.993	393.38
546.206	395.38
546.42	397.38
546.633	393.38
546.847	395.38
547.06	388.38
547.274	398.38
547.487	383.38
547.7	395.38
547.914	405.38
548.127	397.38
548.34	397.38
548.554	376.38
548.767	391.38
548.98	414.38
549.193	390.38
549.407	402.38
549.62	393.38
549.833	391.38
550.046	366.38
550.259	377.38
550.473	391.38
550.686	412.38
550.899	358.38
551.112	396.38
551.325	378.38
551.538	380.38
551.751	377.38
551.964	395.38
552.177	390.38
552.39	378.38
552.603	358.38
552.816	398.38
553.029	382.38
553.242	382.38
553.455	403.38
553.667	401.38
553.88	403.38
554.093	419.38
554.306	411.38
554.519	410.38
554.732	386.38
554.944	374.38
555.157	361.38
555.37	357.38
555.583	372.38
555.795	374.38
556.008	359.38
556.221	353.38
556.433	361.38
556.646	357.38
556.859	379.38
557.071	356.38
557.284	346.38
557.496	357.38
557.709	362.38
557.921	343.38
558.134	344.38
558.346	353.38
558.559	358.38
558.771	338.38
558.984	364.38
559.196	353.38
559.409	355.38
559.621	359.38
559.833	356.38
560.046	345.38
560.258	334.38
560.47	349.38
560.683	352.38
560.895	352.38
561.107	360.38
561.32	356.38
561.532	364.38
561.744	353.38
561.956	350.38
562.168	359.38
562.381	361.38
562.593	345.38
562.805	353.38
563.017	350.38
563.229	350.38
563.441	344.38
563.653	347.38
563.865	333.38
564.077	338.38
564.289	341.38
564.501	346.38
564.713	340.38
564.925	340.38
565.137	349.38
565.349	377.38
565.561	364.38
565.773	365.38
565.985	363.38
566.197	344.38
566.408	358.38
566.62	366.38
566.832	357.38
567.044	382.38
567.255	353.38
567.467	381.38
567.679	380.38
567.891	397.38
568.102	355.38
568.314	349.38
568.526	369.38
568.737	349.38
568.949	352.38
569.161	358.38
569.372	345.38
569.584	345.38
569.795	351.38
570.007	359.38
570.218	452.38
570.43	418.38
570.641	370.38
570.853	341.38
571.064	334.38
571.276	337.38
571.487	331.38
571.698	346.38
571.91	330.38
572.121	305.38
572.333	321.38
572.544	308.38
572.755	325.38
572.966	334.38
573.178	319.38
573.389	295.38
573.6	322.38
573.811	311.38
574.023	294.38
574.234	309.38
574.445	308.38
574.656	320.38
574.867	320.38
575.078	304.38
575.289	293.38
575.501	299.38
575.712	261.38
575.923	315.38
576.134	310.38
576.345	293.38
576.556	324.38
576.767	310.38
576.978	286.38
577.188	298.38
577.399	299.38
577.61	309.38
577.821	310.38
578.032	308.38
578.243	377.38
578.454	733.38
578.665	505.38
578.875	344.38
579.086	294.38
579.297	294.38
579.508	302.38
579.718	289.38
579.929	282.38
580.14	273.38
580.35	267.38
580.561	269.38
580.772	278.38
580.982	294.38
581.193	274.38
581.403	283.38
581.614	260.38
581.825	283.38
582.035	272.38
582.246	260.38
582.456	278.38
582.667	269.38
582.877	279.38
583.087	281.38
583.298	289.38
583.508	277.38
583.719	283.38
583.929	297.38
584.139	280.38
584.35	278.38
584.56	265.38
584.77	263.38
584.981	281.38
585.191	280.38
585.401	288.38
585.611	282.38
585.821	281.38
586.032	278.38
586.242	304.38
586.452	270.38
586.662	260.38
586.872	277.38
587.082	263.38
587.292	278.38
587.502	269.38
587.713	247.38
587.923	258.38
588.133	283.38
588.343	272.38
588.553	278.38
588.762	293.38
588.972	247.38
589.182	276.38
589.392	265.38
589.602	289.38
589.812	280.38
590.022	256.38
590.232	269.38
590.441	252.38
590.651	275.38
590.861	273.38
591.071	267.38
591.281	258.38
591.49	251.38
591.7	264.38
591.91	274.38
592.119	264.38
592.329	252.38
592.539	263.38
592.748	270.38
592.958	266.38
593.167	248.38
593.377	269.38
593.587	261.38
593.796	258.38
594.006	270.38
594.215	256.38
594.424	270.38
594.634	262.38
594.843	268.38
595.053	268.38
595.262	256.38
595.472	252.38
595.681	254.38
595.89	261.38
596.1	260.38
596.309	249.38
596.518	260.38
596.727	270.38
596.937	246.38
597.146	265.38
597.355	243.38
597.564	231.38
597.774	218.38
597.983	234.38
598.192	249.38
598.401	244.38
598.61	236.38
598.819	224.38
599.028	237.38
599.237	255.38
599.446	240.38
599.655	226.38
599.864	240.38
600.073	241.38
600.282	246.38
600.491	225.38
600.7	234.38
600.909	232.38
601.118	228.38
601.327	236.38
601.536	250.38
601.745	229.38
601.953	233.38
602.162	220.38
602.371	222.38
602.58	218.38
602.789	205.38
602.997	222.38
603.206	237.38
603.415	236.38
603.623	201.38
603.832	244.38
604.041	214.38
604.249	225.38
604.458	231.38
604.666	206.38
604.875	204.38
605.084	228.38
605.292	217.38
605.501	221.38
605.709	227.38
605.918	232.38
606.126	234.38
606.334	217.38
606.543	207.38
606.751	218.38
606.96	208.38
607.168	213.38
607.376	229.38
607.585	228.38
607.793	229.38
608.001	220.38
608.21	232.38
608.418	210.38
608.626	230.38
608.834	215.38
609.043	230.38
609.251	218.38
609.459	218.38
609.667	215.38
609.875	233.38
610.083	222.38
610.291	204.38
610.499	210.38
610.707	229.38
610.916	218.38
611.124	232.38
611.332	212.38
611.54	213.38
611.748	211.38
611.955	214.38
612.163	204.38
612.371	205.38
612.579	216.38
612.787	233.38
612.995	215.38
613.203	217.38
613.411	210.38
613.618	206.38
613.826	231.38
614.034	223.38
614.242	206.38
614.449	217.38
614.657	214.38
614.865	220.38
615.072	220.38
615.28	227.38
615.488	219.38
615.695	212.38
615.903	201.38
616.111	206.38
616.318	196.38
616.526	205.38
616.733	229.38
616.941	214.38
617.148	213.38
617.356	205.38
617.563	210.38
617.771	216.38
617.978	204.38
618.185	214.38
618.393	204.38
618.6	209.38
618.807	205.38
619.015	219.38
619.222	204.38
619.429	206.38
619.637	206.38
619.844	214.38
620.051	207.38
620.258	213.38
620.466	201.38
620.673	204.38
620.88	200.38
621.087	203.38
621.294	205.38
621.501	205.38
621.708	198.38
621.915	204.38
622.122	201.38
622.329	215.38
622.536	218.38
622.743	212.38
622.95	200.38
623.157	206.38
623.364	197.38
623.571	192.38
623.778	194.38
623.985	176.38
624.192	197.38
624.399	204.38
624.606	188.38
624.812	166.38
625.019	187.38
625.226	211.38
625.433	193.38
625.639	191.38
625.846	196.38
626.053	188.38
626.259	194.38
626.466	203.38
626.673	192.38
626.879	200.38
627.086	193.38
627.293	197.38
627.499	186.38
627.706	205.38
627.912	190.38
628.119	176.38
628.325	197.38
628.532	190.38
628.738	193.38
628.945	189.38
629.151	189.38
629.357	197.38
629.564	175.38
629.77	191.38
629.976	176.38
630.183	183.38
630.389	181.38
630.595	188.38
630.802	177.38
631.008	191.38
631.214	171.38
631.42	165.38
631.627	191.38
631.833	171.38
632.039	184.38
632.245	187.38
632.451	167.38
632.657	190.38
632.863	176.38
633.069	169.38
633.275	167.38
633.481	159.38
633.688	181.38
633.893	172.38
634.099	171.38
634.305	162.38
634.511	164.38
634.717	167.38
634.923	154.38
635.129	149.38
635.335	163.38
635.541	158.38
635.747	165.38
635.952	164.38
636.158	160.38
636.364	165.38
636.57	162.38
636.775	169.38
636.981	156.38
637.187	157.38
637.392	158.38
637.598	175.38
637.804	176.38
638.009	160.38
638.215	150.38
638.421	159.38
638.626	168.38
638.832	163.38
639.037	187.38
639.243	164.38
639.448	171.38
639.654	163.38
639.859	162.38
640.065	166.38
640.27	178.38
640.475	164.38
640.681	156.38
640.886	153.38
641.091	152.38
641.297	162.38
641.502	137.38
641.707	157.38
641.913	160.38
642.118	154.38
642.323	139.38
642.528	166.38
642.733	156.38
642.939	153.38
643.144	153.38
643.349	163.38
643.554	159.38
643.759	156.38
643.964	151.38
644.169	161.38
644.374	144.38
644.579	152.38
644.784	156.38
644.989	160.38
645.194	150.38
645.399	131.38
645.604	150.38
645.809	154.38
646.014	155.38
646.219	152.38
646.423	142.38
646.628	149.38
646.833	152.38
647.038	162.38
647.243	158.38
647.447	161.38
647.652	148.38
647.857	162.38
648.062	165.38
648.266	142.38
648.471	156.38
648.676	153.38
648.88	160.38
649.085	154.38
649.289	150.38
649.494	174.38
649.698	183.38
649.903	187.38
650.107	155.38
650.312	162.38
650.516	164.38
650.721	152.38
650.925	152.38
651.13	153.38
651.334	150.38
651.539	136.38
651.743	161.38
651.947	132.38
652.152	134.38
652.356	135.38
652.56	138.38
652.764	136.38
652.969	127.38
653.173	125.38
653.377	142.38
653.581	126.38
653.785	118.38
653.99	140.38
654.194	130.38
654.398	118.38
654.602	112.38
654.806	125.38
655.01	134.38
655.214	130.38
655.418	145.38
655.622	123.38
655.826	130.38
656.03	127.38
656.234	125.38
656.438	127.38
656.642	120.38
656.846	121.38
657.049	126.38
657.253	118.38
657.457	116.38
657.661	103.38
657.865	104.38
658.068	113.38
658.272	99.38
658.476	110.38
658.68	105.38
658.883	113.38
659.087	89.38
659.291	109.38
659.494	97.38
659.698	101.38
659.901	99.38
660.105	77.38
660.309	88.38
660.512	93.38
660.716	86.38
660.919	97.38
661.123	94.38
661.326	87.38
661.53	75.38
661.733	84.38
661.936	86.38
662.14	84.38
662.343	85.38
662.546	88.38
662.75	90.38
662.953	85.38
663.156	77.38
663.36	83.38
663.563	81.38
663.766	82.38
663.969	86.38
664.173	86.38
664.376	77.38
664.579	94.38
664.782	90.38
664.985	105.38
665.188	83.38
665.391	68.38
665.594	86.38
665.797	76.38
666	88.38
666.203	89.38
666.406	86.38
666.609	95.38
666.812	105.38
667.015	93.38
667.218	84.38
667.421	80.38
667.624	85.38
667.827	75.38
668.03	91.38
668.232	68.38
668.435	72.38
668.638	83.38
668.841	87.38
669.043	84.38
669.246	96.38
669.449	90.38
669.651	76.38
669.854	85.38
670.057	65.38
670.259	85.38
670.462	79.38
670.665	83.38
670.867	64.38
671.07	85.38
671.272	84.38
671.475	75.38
671.677	79.38
671.88	69.38
672.082	84.38
672.284	74.38
672.487	90.38
672.689	84.38
672.892	93.38
