Data from 1987.PennyLincolnUp.Lamp.En5.5.200Scan.071819.P2_HRD10591_17-16-28-971.txt Node
Date: Thu Jul 18 17:16:28 EDT 2019
User: cochatt
Spectrometer: HR+D1059
Trigger mode: 1
Integration Time (sec): 1.000000E-1
Scans to average: 1
Electric dark correction enabled: true
Nonlinearity correction enabled: false
Boxcar width: 0
XAxis mode: Wavelengths
Number of Pixels in Spectrum: 2048
>>>>>Begin Spectral Data<<<<<
223.165	-14.31
223.4	-14.31
223.635	-14.31
223.869	-14.31
224.104	-19.31
224.338	-16.31
224.573	-13.31
224.808	1.69
225.042	-17.31
225.277	-2.31
225.511	-0.31
225.746	4.69
225.98	2.69
226.215	2.69
226.449	16.69
226.683	10.69
226.918	26.69
227.152	31.69
227.387	27.69
227.621	34.69
227.856	24.69
228.09	43.69
228.324	50.69
228.559	43.69
228.793	69.69
229.027	98.69
229.262	103.69
229.496	130.69
229.73	156.69
229.964	170.69
230.199	140.69
230.433	121.69
230.667	97.69
230.901	125.69
231.136	109.69
231.37	117.69
231.604	98.69
231.838	114.69
232.072	103.69
232.306	113.69
232.541	110.69
232.775	121.69
233.009	99.69
233.243	117.69
233.477	117.69
233.711	118.69
233.945	105.69
234.179	113.69
234.413	115.69
234.647	110.69
234.881	109.69
235.115	108.69
235.349	108.69
235.583	113.69
235.817	116.69
236.051	136.69
236.285	138.69
236.519	125.69
236.753	125.69
236.987	143.69
237.221	190.69
237.455	255.69
237.689	201.69
237.922	149.69
238.156	129.69
238.39	136.69
238.624	147.69
238.858	123.69
239.091	123.69
239.325	127.69
239.559	137.69
239.793	117.69
240.027	123.69
240.26	138.69
240.494	170.69
240.728	175.69
240.961	136.69
241.195	139.69
241.429	135.69
241.662	142.69
241.896	125.69
242.13	141.69
242.363	138.69
242.597	121.69
242.83	135.69
243.064	135.69
243.298	132.69
243.531	133.69
243.765	126.69
243.998	138.69
244.232	124.69
244.465	135.69
244.699	122.69
244.932	122.69
245.166	127.69
245.399	130.69
245.633	142.69
245.866	125.69
246.099	142.69
246.333	138.69
246.566	137.69
246.8	135.69
247.033	140.69
247.266	149.69
247.5	171.69
247.733	179.69
247.966	156.69
248.2	150.69
248.433	155.69
248.666	177.69
248.899	198.69
249.133	195.69
249.366	222.69
249.599	200.69
249.832	197.69
250.066	177.69
250.299	161.69
250.532	181.69
250.765	187.69
250.998	208.69
251.231	231.69
251.465	210.69
251.698	203.69
251.931	203.69
252.164	191.69
252.397	199.69
252.63	202.69
252.863	208.69
253.096	219.69
253.329	228.69
253.562	227.69
253.795	211.69
254.028	223.69
254.261	217.69
254.494	222.69
254.727	254.69
254.96	262.69
255.193	263.69
255.426	258.69
255.659	249.69
255.892	215.69
256.124	196.69
256.357	205.69
256.59	214.69
256.823	218.69
257.056	205.69
257.289	215.69
257.521	194.69
257.754	189.69
257.987	193.69
258.22	189.69
258.452	192.69
258.685	206.69
258.918	183.69
259.151	189.69
259.383	221.69
259.616	214.69
259.849	243.69
260.081	221.69
260.314	256.69
260.547	267.69
260.779	226.69
261.012	219.69
261.244	218.69
261.477	210.69
261.71	208.69
261.942	231.69
262.175	226.69
262.407	221.69
262.64	207.69
262.872	207.69
263.105	194.69
263.337	211.69
263.57	193.69
263.802	201.69
264.035	190.69
264.267	191.69
264.499	201.69
264.732	186.69
264.964	197.69
265.197	197.69
265.429	194.69
265.661	182.69
265.894	178.69
266.126	185.69
266.358	200.69
266.591	170.69
266.823	205.69
267.055	213.69
267.287	203.69
267.52	189.69
267.752	201.69
267.984	215.69
268.216	187.69
268.448	204.69
268.681	201.69
268.913	219.69
269.145	249.69
269.377	257.69
269.609	239.69
269.841	266.69
270.073	275.69
270.306	269.69
270.538	289.69
270.77	309.69
271.002	292.69
271.234	270.69
271.466	289.69
271.698	301.69
271.93	320.69
272.162	305.69
272.394	307.69
272.626	282.69
272.858	268.69
273.09	269.69
273.322	270.69
273.553	246.69
273.785	242.69
274.017	233.69
274.249	237.69
274.481	266.69
274.713	241.69
274.945	249.69
275.176	241.69
275.408	259.69
275.64	257.69
275.872	243.69
276.104	246.69
276.335	237.69
276.567	260.69
276.799	269.69
277.031	318.69
277.262	325.69
277.494	294.69
277.726	281.69
277.957	279.69
278.189	262.69
278.421	244.69
278.652	217.69
278.884	244.69
279.115	246.69
279.347	237.69
279.579	228.69
279.81	229.69
280.042	221.69
280.273	240.69
280.505	207.69
280.736	229.69
280.968	232.69
281.199	232.69
281.431	213.69
281.662	222.69
281.894	225.69
282.125	230.69
282.356	263.69
282.588	282.69
282.819	286.69
283.051	256.69
283.282	225.69
283.513	217.69
283.745	218.69
283.976	235.69
284.207	230.69
284.439	230.69
284.67	241.69
284.901	225.69
285.132	237.69
285.364	234.69
285.595	243.69
285.826	250.69
286.057	244.69
286.288	229.69
286.52	230.69
286.751	226.69
286.982	229.69
287.213	243.69
287.444	244.69
287.675	248.69
287.906	252.69
288.138	247.69
288.369	265.69
288.6	267.69
288.831	248.69
289.062	253.69
289.293	258.69
289.524	239.69
289.755	249.69
289.986	243.69
290.217	245.69
290.448	227.69
290.679	214.69
290.91	234.69
291.141	244.69
291.371	219.69
291.602	235.69
291.833	233.69
292.064	225.69
292.295	225.69
292.526	240.69
292.757	239.69
292.987	227.69
293.218	229.69
293.449	247.69
293.68	243.69
293.91	240.69
294.141	255.69
294.372	229.69
294.603	239.69
294.833	233.69
295.064	237.69
295.295	244.69
295.525	246.69
295.756	248.69
295.987	259.69
296.217	299.69
296.448	303.69
296.679	277.69
296.909	239.69
297.14	238.69
297.37	245.69
297.601	244.69
297.831	258.69
298.062	245.69
298.292	244.69
298.523	266.69
298.753	253.69
298.984	254.69
299.214	258.69
299.445	266.69
299.675	249.69
299.905	279.69
300.136	260.69
300.366	242.69
300.597	262.69
300.827	259.69
301.057	267.69
301.288	282.69
301.518	271.69
301.748	271.69
301.979	264.69
302.209	254.69
302.439	274.69
302.669	298.69
302.9	280.69
303.13	265.69
303.36	271.69
303.59	271.69
303.82	281.69
304.051	286.69
304.281	273.69
304.511	256.69
304.741	279.69
304.971	257.69
305.201	255.69
305.431	263.69
305.661	257.69
305.891	265.69
306.121	273.69
306.352	287.69
306.582	295.69
306.812	282.69
307.042	274.69
307.272	280.69
307.502	280.69
307.731	282.69
307.961	287.69
308.191	275.69
308.421	282.69
308.651	273.69
308.881	275.69
309.111	294.69
309.341	291.69
309.571	302.69
309.8	326.69
310.03	334.69
310.26	339.69
310.49	345.69
310.72	357.69
310.949	394.69
311.179	401.69
311.409	355.69
311.639	349.69
311.868	348.69
312.098	361.69
312.328	350.69
312.557	375.69
312.787	403.69
313.017	397.69
313.246	378.69
313.476	351.69
313.706	337.69
313.935	359.69
314.165	368.69
314.394	375.69
314.624	374.69
314.853	351.69
315.083	362.69
315.312	331.69
315.542	331.69
315.771	319.69
316.001	341.69
316.23	306.69
316.46	293.69
316.689	339.69
316.919	335.69
317.148	360.69
317.377	356.69
317.607	358.69
317.836	335.69
318.065	324.69
318.295	336.69
318.524	340.69
318.753	346.69
318.983	343.69
319.212	344.69
319.441	358.69
319.67	357.69
319.9	352.69
320.129	349.69
320.358	350.69
320.587	355.69
320.816	366.69
321.046	393.69
321.275	374.69
321.504	358.69
321.733	358.69
321.962	400.69
322.191	401.69
322.42	436.69
322.649	460.69
322.878	477.69
323.108	482.69
323.337	515.69
323.566	540.69
323.795	615.69
324.024	674.69
324.253	853.69
324.482	1327.69
324.71	2037.69
324.939	2786.69
325.168	2436.69
325.397	1333.69
325.626	851.69
325.855	630.69
326.084	576.69
326.313	588.69
326.542	582.69
326.77	625.69
326.999	775.69
327.228	1133.69
327.457	1723.69
327.686	2095.69
327.914	1474.69
328.143	912.69
328.372	787.69
328.6	705.69
328.829	668.69
329.058	673.69
329.287	664.69
329.515	625.69
329.744	535.69
329.972	523.69
330.201	515.69
330.43	567.69
330.658	632.69
330.887	717.69
331.115	704.69
331.344	562.69
331.572	505.69
331.801	494.69
332.03	495.69
332.258	451.69
332.486	425.69
332.715	413.69
332.943	391.69
333.172	399.69
333.4	390.69
333.629	413.69
333.857	424.69
334.085	417.69
334.314	400.69
334.542	415.69
334.771	402.69
334.999	384.69
335.227	405.69
335.455	389.69
335.684	380.69
335.912	379.69
336.14	381.69
336.369	383.69
336.597	399.69
336.825	412.69
337.053	384.69
337.281	377.69
337.51	369.69
337.738	382.69
337.966	407.69
338.194	418.69
338.422	386.69
338.65	398.69
338.878	367.69
339.106	351.69
339.334	354.69
339.562	375.69
339.79	373.69
340.018	380.69
340.246	387.69
340.474	396.69
340.702	379.69
340.93	377.69
341.158	404.69
341.386	387.69
341.614	378.69
341.842	383.69
342.07	373.69
342.298	363.69
342.526	358.69
342.754	350.69
342.981	364.69
343.209	343.69
343.437	357.69
343.665	363.69
343.893	360.69
344.12	376.69
344.348	359.69
344.576	363.69
344.804	373.69
345.031	409.69
345.259	415.69
345.487	425.69
345.714	404.69
345.942	371.69
346.17	347.69
346.397	341.69
346.625	373.69
346.853	365.69
347.08	358.69
347.308	385.69
347.535	413.69
347.763	426.69
347.99	398.69
348.218	392.69
348.445	404.69
348.673	409.69
348.9	383.69
349.128	360.69
349.355	377.69
349.583	358.69
349.81	367.69
350.037	360.69
350.265	369.69
350.492	343.69
350.72	364.69
350.947	375.69
351.174	383.69
351.402	415.69
351.629	388.69
351.856	391.69
352.083	412.69
352.311	429.69
352.538	411.69
352.765	427.69
352.992	417.69
353.22	399.69
353.447	403.69
353.674	384.69
353.901	371.69
354.128	330.69
354.355	356.69
354.583	352.69
354.81	341.69
355.037	327.69
355.264	345.69
355.491	333.69
355.718	329.69
355.945	329.69
356.172	343.69
356.399	326.69
356.626	329.69
356.853	329.69
357.08	333.69
357.307	323.69
357.534	329.69
357.761	335.69
357.988	340.69
358.215	343.69
358.441	335.69
358.668	346.69
358.895	347.69
359.122	372.69
359.349	381.69
359.576	390.69
359.802	423.69
360.029	476.69
360.256	496.69
360.483	463.69
360.709	407.69
360.936	408.69
361.163	397.69
361.39	412.69
361.616	401.69
361.843	385.69
362.07	404.69
362.296	392.69
362.523	391.69
362.749	394.69
362.976	384.69
363.203	390.69
363.429	355.69
363.656	354.69
363.882	351.69
364.109	345.69
364.335	351.69
364.562	363.69
364.788	360.69
365.015	360.69
365.241	350.69
365.468	356.69
365.694	354.69
365.92	351.69
366.147	340.69
366.373	346.69
366.599	353.69
366.826	356.69
367.052	350.69
367.278	353.69
367.505	340.69
367.731	355.69
367.957	349.69
368.184	343.69
368.41	355.69
368.636	358.69
368.862	373.69
369.089	365.69
369.315	343.69
369.541	360.69
369.767	329.69
369.993	347.69
370.219	335.69
370.445	350.69
370.672	343.69
370.898	337.69
371.124	336.69
371.35	322.69
371.576	336.69
371.802	327.69
372.028	337.69
372.254	341.69
372.48	330.69
372.706	339.69
372.932	330.69
373.158	321.69
373.384	335.69
373.61	358.69
373.835	322.69
374.061	325.69
374.287	346.69
374.513	334.69
374.739	322.69
374.965	335.69
375.191	330.69
375.416	334.69
375.642	333.69
375.868	327.69
376.094	347.69
376.319	331.69
376.545	320.69
376.771	313.69
376.997	338.69
377.222	317.69
377.448	337.69
377.674	322.69
377.899	315.69
378.125	326.69
378.35	319.69
378.576	328.69
378.802	340.69
379.027	328.69
379.253	342.69
379.478	314.69
379.704	330.69
379.929	321.69
380.155	335.69
380.38	339.69
380.606	343.69
380.831	343.69
381.057	349.69
381.282	321.69
381.507	342.69
381.733	343.69
381.958	341.69
382.184	328.69
382.409	332.69
382.634	334.69
382.86	350.69
383.085	341.69
383.31	345.69
383.535	350.69
383.761	338.69
383.986	337.69
384.211	352.69
384.436	334.69
384.662	345.69
384.887	349.69
385.112	335.69
385.337	339.69
385.562	358.69
385.787	341.69
386.013	345.69
386.238	379.69
386.463	355.69
386.688	346.69
386.913	342.69
387.138	349.69
387.363	352.69
387.588	349.69
387.813	350.69
388.038	349.69
388.263	333.69
388.488	361.69
388.713	343.69
388.938	341.69
389.163	367.69
389.387	377.69
389.612	337.69
389.837	379.69
390.062	347.69
390.287	343.69
390.512	344.69
390.736	333.69
390.961	335.69
391.186	358.69
391.411	354.69
391.636	346.69
391.86	332.69
392.085	351.69
392.31	345.69
392.534	358.69
392.759	355.69
392.984	334.69
393.208	337.69
393.433	355.69
393.658	343.69
393.882	349.69
394.107	348.69
394.331	371.69
394.556	334.69
394.78	367.69
395.005	365.69
395.229	356.69
395.454	350.69
395.678	355.69
395.903	375.69
396.127	387.69
396.352	407.69
396.576	375.69
396.801	366.69
397.025	354.69
397.249	346.69
397.474	385.69
397.698	385.69
397.922	392.69
398.147	377.69
398.371	402.69
398.595	379.69
398.82	379.69
399.044	373.69
399.268	407.69
399.492	412.69
399.717	432.69
399.941	463.69
400.165	479.69
400.389	477.69
400.613	463.69
400.837	440.69
401.062	410.69
401.286	399.69
401.51	409.69
401.734	399.69
401.958	396.69
402.182	396.69
402.406	426.69
402.63	421.69
402.854	429.69
403.078	431.69
403.302	418.69
403.526	411.69
403.75	435.69
403.974	395.69
404.198	402.69
404.422	409.69
404.645	437.69
404.869	436.69
405.093	439.69
405.317	501.69
405.541	517.69
405.765	485.69
405.988	456.69
406.212	468.69
406.436	522.69
406.66	518.69
406.883	486.69
407.107	501.69
407.331	552.69
407.555	608.69
407.778	586.69
408.002	545.69
408.226	478.69
408.449	454.69
408.673	474.69
408.896	528.69
409.12	562.69
409.344	523.69
409.567	444.69
409.791	445.69
410.014	446.69
410.238	406.69
410.461	411.69
410.685	443.69
410.908	445.69
411.132	482.69
411.355	502.69
411.578	499.69
411.802	444.69
412.025	457.69
412.249	442.69
412.472	437.69
412.695	441.69
412.919	431.69
413.142	431.69
413.365	425.69
413.589	409.69
413.812	386.69
414.035	394.69
414.258	391.69
414.482	397.69
414.705	401.69
414.928	387.69
415.151	390.69
415.374	393.69
415.597	413.69
415.821	402.69
416.044	415.69
416.267	421.69
416.49	403.69
416.713	396.69
416.936	403.69
417.159	417.69
417.382	431.69
417.605	393.69
417.828	438.69
418.051	435.69
418.274	447.69
418.497	416.69
418.72	418.69
418.943	418.69
419.166	432.69
419.389	441.69
419.611	440.69
419.834	434.69
420.057	441.69
420.28	433.69
420.503	424.69
420.726	431.69
420.948	454.69
421.171	494.69
421.394	518.69
421.617	482.69
421.839	459.69
422.062	465.69
422.285	460.69
422.507	537.69
422.73	589.69
422.953	587.69
423.175	512.69
423.398	505.69
423.621	451.69
423.843	472.69
424.066	501.69
424.288	499.69
424.511	517.69
424.733	574.69
424.956	656.69
425.178	625.69
425.401	619.69
425.623	658.69
425.846	568.69
426.068	518.69
426.291	507.69
426.513	520.69
426.735	523.69
426.958	583.69
427.18	672.69
427.402	765.69
427.625	864.69
427.847	799.69
428.069	670.69
428.292	605.69
428.514	521.69
428.736	523.69
428.958	491.69
429.181	498.69
429.403	490.69
429.625	488.69
429.847	527.69
430.069	597.69
430.292	582.69
430.514	497.69
430.736	472.69
430.958	448.69
431.18	453.69
431.402	439.69
431.624	431.69
431.846	433.69
432.068	436.69
432.29	430.69
432.512	411.69
432.734	441.69
432.956	460.69
433.178	454.69
433.4	454.69
433.622	459.69
433.844	439.69
434.066	436.69
434.287	430.69
434.509	430.69
434.731	442.69
434.953	452.69
435.175	459.69
435.397	493.69
435.618	521.69
435.84	557.69
436.062	665.69
436.284	721.69
436.505	613.69
436.727	547.69
436.949	514.69
437.17	496.69
437.392	470.69
437.614	511.69
437.835	561.69
438.057	671.69
438.278	777.69
438.5	760.69
438.721	814.69
438.943	771.69
439.165	623.69
439.386	572.69
439.608	558.69
439.829	567.69
440.05	621.69
440.272	634.69
440.493	608.69
440.715	545.69
440.936	490.69
441.158	509.69
441.379	506.69
441.6	499.69
441.822	530.69
442.043	581.69
442.264	655.69
442.486	691.69
442.707	585.69
442.928	525.69
443.149	559.69
443.371	585.69
443.592	641.69
443.813	712.69
444.034	769.69
444.255	616.69
444.476	545.69
444.698	529.69
444.919	516.69
445.14	601.69
445.361	581.69
445.582	573.69
445.803	651.69
446.024	751.69
446.245	788.69
446.466	711.69
446.687	612.69
446.908	552.69
447.129	513.69
447.35	521.69
447.571	503.69
447.792	483.69
448.013	471.69
448.234	549.69
448.455	589.69
448.675	703.69
448.896	781.69
449.117	713.69
449.338	677.69
449.559	735.69
449.779	795.69
450	662.69
450.221	564.69
450.442	529.69
450.662	486.69
450.883	537.69
451.104	535.69
451.324	564.69
451.545	479.69
451.766	441.69
451.986	430.69
452.207	456.69
452.428	431.69
452.648	457.69
452.869	450.69
453.089	440.69
453.31	490.69
453.53	459.69
453.751	465.69
453.971	453.69
454.192	509.69
454.412	477.69
454.633	444.69
454.853	451.69
455.073	453.69
455.294	503.69
455.514	531.69
455.734	535.69
455.955	438.69
456.175	418.69
456.395	405.69
456.616	391.69
456.836	377.69
457.056	393.69
457.276	387.69
457.497	419.69
457.717	416.69
457.937	429.69
458.157	424.69
458.377	416.69
458.598	434.69
458.818	552.69
459.038	659.69
459.258	664.69
459.478	539.69
459.698	447.69
459.918	458.69
460.138	438.69
460.358	438.69
460.578	439.69
460.798	424.69
461.018	457.69
461.238	442.69
461.458	419.69
461.678	411.69
461.898	429.69
462.118	416.69
462.338	406.69
462.558	401.69
462.777	417.69
462.997	436.69
463.217	437.69
463.437	441.69
463.657	444.69
463.876	433.69
464.096	458.69
464.316	451.69
464.536	460.69
464.755	469.69
464.975	465.69
465.195	550.69
465.414	724.69
465.634	582.69
465.854	516.69
466.073	490.69
466.293	455.69
466.512	435.69
466.732	462.69
466.951	448.69
467.171	425.69
467.391	431.69
467.61	435.69
467.829	481.69
468.049	436.69
468.268	450.69
468.488	418.69
468.707	441.69
468.927	418.69
469.146	415.69
469.365	414.69
469.585	415.69
469.804	412.69
470.023	437.69
470.243	455.69
470.462	448.69
470.681	502.69
470.901	478.69
471.12	451.69
471.339	459.69
471.558	439.69
471.777	435.69
471.997	422.69
472.216	419.69
472.435	410.69
472.654	444.69
472.873	443.69
473.092	433.69
473.311	451.69
473.53	441.69
473.749	450.69
473.968	490.69
474.187	637.69
474.406	649.69
474.625	522.69
474.844	479.69
475.063	455.69
475.282	449.69
475.501	416.69
475.72	434.69
475.939	431.69
476.158	450.69
476.377	449.69
476.596	455.69
476.814	436.69
477.033	463.69
477.252	466.69
477.471	466.69
477.69	450.69
477.908	449.69
478.127	462.69
478.346	462.69
478.564	457.69
478.783	477.69
479.002	487.69
479.22	498.69
479.439	495.69
479.658	531.69
479.876	547.69
480.095	559.69
480.313	552.69
480.532	550.69
480.751	521.69
480.969	523.69
481.188	550.69
481.406	552.69
481.624	537.69
481.843	520.69
482.061	528.69
482.28	521.69
482.498	513.69
482.717	515.69
482.935	522.69
483.153	522.69
483.372	522.69
483.59	530.69
483.808	513.69
484.027	505.69
484.245	554.69
484.463	515.69
484.681	542.69
484.9	533.69
485.118	533.69
485.336	536.69
485.554	568.69
485.772	521.69
485.99	531.69
486.209	557.69
486.427	541.69
486.645	558.69
486.863	585.69
487.081	570.69
487.299	561.69
487.517	587.69
487.735	574.69
487.953	561.69
488.171	554.69
488.389	581.69
488.607	562.69
488.825	579.69
489.043	567.69
489.261	600.69
489.479	578.69
489.696	575.69
489.914	577.69
490.132	593.69
490.35	566.69
490.568	609.69
490.786	598.69
491.003	599.69
491.221	624.69
491.439	621.69
491.657	637.69
491.874	654.69
492.092	650.69
492.31	667.69
492.527	639.69
492.745	644.69
492.963	663.69
493.18	672.69
493.398	643.69
493.615	667.69
493.833	675.69
494.05	669.69
494.268	678.69
494.485	683.69
494.703	643.69
494.92	666.69
495.138	666.69
495.355	693.69
495.573	685.69
495.79	679.69
496.008	695.69
496.225	696.69
496.442	690.69
496.66	681.69
496.877	677.69
497.094	681.69
497.312	686.69
497.529	675.69
497.746	675.69
497.963	727.69
498.181	737.69
498.398	733.69
498.615	748.69
498.832	741.69
499.049	726.69
499.267	747.69
499.484	738.69
499.701	742.69
499.918	758.69
500.135	805.69
500.352	770.69
500.569	775.69
500.786	782.69
501.003	778.69
501.22	794.69
501.437	794.69
501.654	800.69
501.871	817.69
502.088	817.69
502.305	765.69
502.522	746.69
502.739	757.69
502.956	728.69
503.172	721.69
503.389	733.69
503.606	741.69
503.823	749.69
504.04	730.69
504.256	699.69
504.473	679.69
504.69	673.69
504.907	687.69
505.123	662.69
505.34	672.69
505.557	680.69
505.773	650.69
505.99	675.69
506.207	674.69
506.423	686.69
506.64	704.69
506.856	645.69
507.073	669.69
507.289	681.69
507.506	694.69
507.722	717.69
507.939	723.69
508.155	698.69
508.372	687.69
508.588	666.69
508.805	689.69
509.021	670.69
509.238	671.69
509.454	675.69
509.67	674.69
509.887	678.69
510.103	690.69
510.319	713.69
510.536	868.69
510.752	1560.69
510.968	1318.69
511.184	753.69
511.401	659.69
511.617	678.69
511.833	681.69
512.049	647.69
512.265	632.69
512.481	657.69
512.698	649.69
512.914	634.69
513.13	651.69
513.346	655.69
513.562	654.69
513.778	676.69
513.994	676.69
514.21	706.69
514.426	717.69
514.642	821.69
514.858	918.69
515.074	958.69
515.29	1199.69
515.506	1931.69
515.721	1531.69
515.937	901.69
516.153	815.69
516.369	767.69
516.585	721.69
516.801	692.69
517.016	659.69
517.232	653.69
517.448	661.69
517.664	666.69
517.879	666.69
518.095	649.69
518.311	633.69
518.527	643.69
518.742	631.69
518.958	644.69
519.173	666.69
519.389	659.69
519.605	670.69
519.82	647.69
520.036	686.69
520.251	744.69
520.467	801.69
520.682	811.69
520.898	834.69
521.113	854.69
521.329	968.69
521.544	1138.69
521.76	1533.69
521.975	2677.69
522.19	2569.69
522.406	1354.69
522.621	931.69
522.836	819.69
523.052	711.69
523.267	698.69
523.482	644.69
523.698	632.69
523.913	614.69
524.128	618.69
524.343	609.69
524.559	581.69
524.774	578.69
524.989	574.69
525.204	556.69
525.419	587.69
525.634	565.69
525.849	561.69
526.064	533.69
526.28	517.69
526.495	541.69
526.71	533.69
526.925	499.69
527.14	522.69
527.355	508.69
527.57	491.69
527.785	505.69
527.999	486.69
528.214	491.69
528.429	496.69
528.644	505.69
528.859	513.69
529.074	516.69
529.289	559.69
529.503	685.69
529.718	672.69
529.933	585.69
530.148	537.69
530.363	546.69
530.577	510.69
530.792	513.69
531.007	486.69
531.221	494.69
531.436	491.69
531.651	485.69
531.865	478.69
532.08	465.69
532.295	467.69
532.509	450.69
532.724	466.69
532.938	465.69
533.153	463.69
533.367	455.69
533.582	464.69
533.796	461.69
534.011	449.69
534.225	433.69
534.44	475.69
534.654	448.69
534.868	423.69
535.083	457.69
535.297	447.69
535.511	468.69
535.726	465.69
535.94	478.69
536.154	471.69
536.369	465.69
536.583	458.69
536.797	463.69
537.011	447.69
537.225	458.69
537.44	440.69
537.654	464.69
537.868	441.69
538.082	451.69
538.296	449.69
538.51	459.69
538.724	448.69
538.938	447.69
539.153	466.69
539.367	471.69
539.581	474.69
539.795	456.69
540.009	425.69
540.222	434.69
540.436	440.69
540.65	452.69
540.864	436.69
541.078	463.69
541.292	470.69
541.506	466.69
541.72	441.69
541.934	467.69
542.147	445.69
542.361	441.69
542.575	423.69
542.789	442.69
543.002	430.69
543.216	443.69
543.43	462.69
543.644	448.69
543.857	439.69
544.071	417.69
544.285	403.69
544.498	436.69
544.712	415.69
544.925	413.69
545.139	425.69
545.352	402.69
545.566	437.69
545.779	426.69
545.993	415.69
546.206	431.69
546.42	413.69
546.633	405.69
546.847	402.69
547.06	409.69
547.274	424.69
547.487	399.69
547.7	394.69
547.914	409.69
548.127	391.69
548.34	392.69
548.554	393.69
548.767	394.69
548.98	392.69
549.193	394.69
549.407	388.69
549.62	399.69
549.833	401.69
550.046	383.69
550.259	409.69
550.473	396.69
550.686	403.69
550.899	385.69
551.112	385.69
551.325	401.69
551.538	392.69
551.751	375.69
551.964	373.69
552.177	398.69
552.39	391.69
552.603	413.69
552.816	386.69
553.029	395.69
553.242	383.69
553.455	405.69
553.667	418.69
553.88	415.69
554.093	404.69
554.306	415.69
554.519	416.69
554.732	382.69
554.944	389.69
555.157	383.69
555.37	399.69
555.583	387.69
555.795	379.69
556.008	388.69
556.221	376.69
556.433	370.69
556.646	363.69
556.859	352.69
557.071	363.69
557.284	367.69
557.496	362.69
557.709	377.69
557.921	378.69
558.134	350.69
558.346	373.69
558.559	367.69
558.771	369.69
558.984	354.69
559.196	346.69
559.409	375.69
559.621	369.69
559.833	357.69
560.046	354.69
560.258	365.69
560.47	377.69
560.683	369.69
560.895	359.69
561.107	359.69
561.32	344.69
561.532	359.69
561.744	349.69
561.956	349.69
562.168	346.69
562.381	345.69
562.593	357.69
562.805	364.69
563.017	371.69
563.229	363.69
563.441	352.69
563.653	346.69
563.865	341.69
564.077	355.69
564.289	351.69
564.501	353.69
564.713	386.69
564.925	331.69
565.137	379.69
565.349	383.69
565.561	385.69
565.773	371.69
565.985	346.69
566.197	377.69
566.408	362.69
566.62	371.69
566.832	389.69
567.044	381.69
567.255	373.69
567.467	377.69
567.679	388.69
567.891	410.69
568.102	394.69
568.314	376.69
568.526	378.69
568.737	376.69
568.949	360.69
569.161	361.69
569.372	352.69
569.584	377.69
569.795	346.69
570.007	383.69
570.218	441.69
570.43	421.69
570.641	346.69
570.853	345.69
571.064	334.69
571.276	341.69
571.487	326.69
571.698	318.69
571.91	336.69
572.121	331.69
572.333	322.69
572.544	311.69
572.755	330.69
572.966	313.69
573.178	312.69
573.389	305.69
573.6	318.69
573.811	323.69
574.023	315.69
574.234	317.69
574.445	309.69
574.656	311.69
574.867	302.69
575.078	307.69
575.289	303.69
575.501	306.69
575.712	296.69
575.923	301.69
576.134	309.69
576.345	294.69
576.556	319.69
576.767	313.69
576.978	320.69
577.188	319.69
577.399	294.69
577.61	314.69
577.821	315.69
578.032	317.69
578.243	370.69
578.454	746.69
578.665	530.69
578.875	315.69
579.086	314.69
579.297	297.69
579.508	299.69
579.718	285.69
579.929	287.69
580.14	297.69
580.35	291.69
580.561	302.69
580.772	283.69
580.982	309.69
581.193	289.69
581.403	287.69
581.614	275.69
581.825	264.69
582.035	278.69
582.246	281.69
582.456	285.69
582.667	286.69
582.877	261.69
583.087	272.69
583.298	281.69
583.508	272.69
583.719	298.69
583.929	293.69
584.139	294.69
584.35	287.69
584.56	287.69
584.77	270.69
584.981	264.69
585.191	280.69
585.401	278.69
585.611	276.69
585.821	288.69
586.032	277.69
586.242	277.69
586.452	291.69
586.662	264.69
586.872	265.69
587.082	273.69
587.292	271.69
587.502	262.69
587.713	259.69
587.923	275.69
588.133	271.69
588.343	264.69
588.553	272.69
588.762	267.69
588.972	247.69
589.182	282.69
589.392	291.69
589.602	255.69
589.812	271.69
590.022	273.69
590.232	262.69
590.441	251.69
590.651	257.69
590.861	250.69
591.071	259.69
591.281	266.69
591.49	254.69
591.7	258.69
591.91	260.69
592.119	276.69
592.329	272.69
592.539	286.69
592.748	243.69
592.958	259.69
593.167	272.69
593.377	273.69
593.587	274.69
593.796	264.69
594.006	279.69
594.215	265.69
594.424	253.69
594.634	255.69
594.843	264.69
595.053	264.69
595.262	246.69
595.472	265.69
595.681	249.69
595.89	248.69
596.1	265.69
596.309	240.69
596.518	257.69
596.727	257.69
596.937	261.69
597.146	226.69
597.355	243.69
597.564	247.69
597.774	249.69
597.983	260.69
598.192	243.69
598.401	253.69
598.61	242.69
598.819	240.69
599.028	235.69
599.237	242.69
599.446	234.69
599.655	240.69
599.864	235.69
600.073	221.69
600.282	239.69
600.491	231.69
600.7	227.69
600.909	244.69
601.118	236.69
601.327	218.69
601.536	227.69
601.745	241.69
601.953	226.69
602.162	232.69
602.371	222.69
602.58	220.69
602.789	233.69
602.997	239.69
603.206	248.69
603.415	217.69
603.623	221.69
603.832	235.69
604.041	223.69
604.249	222.69
604.458	228.69
604.666	216.69
604.875	215.69
605.084	223.69
605.292	217.69
605.501	233.69
605.709	227.69
605.918	234.69
606.126	223.69
606.334	226.69
606.543	217.69
606.751	220.69
606.96	216.69
607.168	214.69
607.376	210.69
607.585	221.69
607.793	220.69
608.001	225.69
608.21	220.69
608.418	223.69
608.626	224.69
608.834	227.69
609.043	224.69
609.251	202.69
609.459	215.69
609.667	204.69
609.875	214.69
610.083	226.69
610.291	230.69
610.499	207.69
610.707	218.69
610.916	216.69
611.124	219.69
611.332	234.69
611.54	212.69
611.748	230.69
611.955	213.69
612.163	223.69
612.371	205.69
612.579	216.69
612.787	215.69
612.995	211.69
613.203	221.69
613.411	202.69
613.618	223.69
613.826	213.69
614.034	221.69
614.242	218.69
614.449	217.69
614.657	223.69
614.865	232.69
615.072	219.69
615.28	212.69
615.488	205.69
615.695	218.69
615.903	227.69
616.111	208.69
616.318	238.69
616.526	219.69
616.733	205.69
616.941	203.69
617.148	200.69
617.356	217.69
617.563	222.69
617.771	212.69
617.978	215.69
618.185	225.69
618.393	200.69
618.6	219.69
618.807	212.69
619.015	210.69
619.222	209.69
619.429	227.69
619.637	207.69
619.844	202.69
620.051	219.69
620.258	202.69
620.466	208.69
620.673	201.69
620.88	187.69
621.087	213.69
621.294	215.69
621.501	193.69
621.708	205.69
621.915	200.69
622.122	195.69
622.329	189.69
622.536	207.69
622.743	182.69
622.95	202.69
623.157	197.69
623.364	193.69
623.571	191.69
623.778	186.69
623.985	192.69
624.192	190.69
624.399	175.69
624.606	193.69
624.812	178.69
625.019	196.69
625.226	200.69
625.433	197.69
625.639	185.69
625.846	200.69
626.053	186.69
626.259	197.69
626.466	195.69
626.673	206.69
626.879	183.69
627.086	186.69
627.293	190.69
627.499	196.69
627.706	191.69
627.912	193.69
628.119	188.69
628.325	187.69
628.532	191.69
628.738	190.69
628.945	187.69
629.151	201.69
629.357	187.69
629.564	194.69
629.77	184.69
629.976	179.69
630.183	177.69
630.389	192.69
630.595	188.69
630.802	178.69
631.008	186.69
631.214	194.69
631.42	183.69
631.627	186.69
631.833	178.69
632.039	180.69
632.245	187.69
632.451	177.69
632.657	173.69
632.863	183.69
633.069	178.69
633.275	177.69
633.481	179.69
633.688	179.69
633.893	173.69
634.099	193.69
634.305	170.69
634.511	164.69
634.717	165.69
634.923	178.69
635.129	150.69
635.335	170.69
635.541	153.69
635.747	175.69
635.952	166.69
636.158	174.69
636.364	148.69
636.57	181.69
636.775	177.69
636.981	156.69
637.187	171.69
637.392	165.69
637.598	157.69
637.804	154.69
638.009	155.69
638.215	166.69
638.421	160.69
638.626	152.69
638.832	163.69
639.037	161.69
639.243	175.69
639.448	171.69
639.654	143.69
639.859	152.69
640.065	159.69
640.27	162.69
640.475	157.69
640.681	168.69
640.886	173.69
641.091	185.69
641.297	169.69
641.502	151.69
641.707	162.69
641.913	161.69
642.118	156.69
642.323	164.69
642.528	165.69
642.733	162.69
642.939	157.69
643.144	167.69
643.349	166.69
643.554	166.69
643.759	146.69
643.964	153.69
644.169	167.69
644.374	154.69
644.579	159.69
644.784	150.69
644.989	159.69
645.194	163.69
645.399	159.69
645.604	161.69
645.809	148.69
646.014	151.69
646.219	153.69
646.423	146.69
646.628	149.69
646.833	151.69
647.038	166.69
647.243	158.69
647.447	151.69
647.652	161.69
647.857	159.69
648.062	152.69
648.266	149.69
648.471	161.69
648.676	152.69
648.88	174.69
649.085	157.69
649.289	160.69
649.494	151.69
649.698	162.69
649.903	169.69
650.107	166.69
650.312	161.69
650.516	154.69
650.721	138.69
650.925	138.69
651.13	131.69
651.334	155.69
651.539	143.69
651.743	126.69
651.947	132.69
652.152	128.69
652.356	139.69
652.56	123.69
652.764	142.69
652.969	140.69
653.173	122.69
653.377	128.69
653.581	143.69
653.785	123.69
653.99	127.69
654.194	142.69
654.398	123.69
654.602	118.69
654.806	121.69
655.01	134.69
655.214	137.69
655.418	134.69
655.622	121.69
655.826	117.69
656.03	121.69
656.234	134.69
656.438	102.69
656.642	111.69
656.846	106.69
657.049	111.69
657.253	119.69
657.457	110.69
657.661	104.69
657.865	90.69
658.068	104.69
658.272	110.69
658.476	107.69
658.68	94.69
658.883	101.69
659.087	97.69
659.291	100.69
659.494	99.69
659.698	92.69
659.901	90.69
660.105	79.69
660.309	89.69
660.512	98.69
660.716	89.69
660.919	98.69
661.123	97.69
661.326	94.69
661.53	97.69
661.733	85.69
661.936	90.69
662.14	73.69
662.343	90.69
662.546	87.69
662.75	84.69
662.953	86.69
663.156	74.69
663.36	77.69
663.563	89.69
663.766	85.69
663.969	73.69
664.173	83.69
664.376	74.69
664.579	87.69
664.782	75.69
664.985	89.69
665.188	82.69
665.391	84.69
665.594	86.69
665.797	73.69
666	82.69
666.203	77.69
666.406	78.69
666.609	85.69
666.812	88.69
667.015	91.69
667.218	78.69
667.421	82.69
667.624	66.69
667.827	72.69
668.03	89.69
668.232	80.69
668.435	80.69
668.638	66.69
668.841	83.69
669.043	82.69
669.246	95.69
669.449	82.69
669.651	83.69
669.854	79.69
670.057	73.69
670.259	64.69
670.462	81.69
670.665	79.69
670.867	71.69
671.07	84.69
671.272	93.69
671.475	82.69
671.677	78.69
671.88	68.69
672.082	70.69
672.284	63.69
672.487	70.69
672.689	83.69
672.892	81.69
