Data from 1987.PennyLincolnUp.Lamp.En5.5.200Scan.071819.P2_HRD10591_17-14-47-971.txt Node
Date: Thu Jul 18 17:14:47 EDT 2019
User: cochatt
Spectrometer: HR+D1059
Trigger mode: 1
Integration Time (sec): 1.000000E-1
Scans to average: 1
Electric dark correction enabled: true
Nonlinearity correction enabled: false
Boxcar width: 0
XAxis mode: Wavelengths
Number of Pixels in Spectrum: 2048
>>>>>Begin Spectral Data<<<<<
223.165	-19.31
223.4	-19.31
223.635	-19.31
223.869	-0.31
224.104	-31.31
224.338	-15.31
224.573	-10.31
224.808	-16.31
225.042	-5.31
225.277	-4.31
225.511	-5.31
225.746	-8.31
225.98	1.69
226.215	10.69
226.449	16.69
226.683	17.69
226.918	31.69
227.152	37.69
227.387	33.69
227.621	41.69
227.856	38.69
228.09	36.69
228.324	59.69
228.559	53.69
228.793	76.69
229.027	101.69
229.262	119.69
229.496	122.69
229.73	143.69
229.964	160.69
230.199	135.69
230.433	127.69
230.667	131.69
230.901	109.69
231.136	116.69
231.37	117.69
231.604	108.69
231.838	115.69
232.072	123.69
232.306	109.69
232.541	116.69
232.775	115.69
233.009	107.69
233.243	100.69
233.477	127.69
233.711	116.69
233.945	111.69
234.179	121.69
234.413	111.69
234.647	104.69
234.881	108.69
235.115	108.69
235.349	115.69
235.583	115.69
235.817	120.69
236.051	106.69
236.285	121.69
236.519	127.69
236.753	125.69
236.987	135.69
237.221	199.69
237.455	247.69
237.689	190.69
237.922	155.69
238.156	122.69
238.39	144.69
238.624	115.69
238.858	110.69
239.091	121.69
239.325	120.69
239.559	120.69
239.793	117.69
240.027	127.69
240.26	141.69
240.494	162.69
240.728	159.69
240.961	140.69
241.195	129.69
241.429	143.69
241.662	131.69
241.896	139.69
242.13	137.69
242.363	128.69
242.597	137.69
242.83	144.69
243.064	122.69
243.298	143.69
243.531	129.69
243.765	128.69
243.998	137.69
244.232	122.69
244.465	121.69
244.699	132.69
244.932	135.69
245.166	126.69
245.399	140.69
245.633	124.69
245.866	131.69
246.099	146.69
246.333	123.69
246.566	146.69
246.8	146.69
247.033	159.69
247.266	132.69
247.5	154.69
247.733	153.69
247.966	160.69
248.2	154.69
248.433	159.69
248.666	158.69
248.899	171.69
249.133	192.69
249.366	191.69
249.599	193.69
249.832	180.69
250.066	170.69
250.299	181.69
250.532	181.69
250.765	188.69
250.998	201.69
251.231	224.69
251.465	203.69
251.698	199.69
251.931	184.69
252.164	177.69
252.397	199.69
252.63	187.69
252.863	209.69
253.096	188.69
253.329	217.69
253.562	199.69
253.795	215.69
254.028	210.69
254.261	203.69
254.494	225.69
254.727	225.69
254.96	269.69
255.193	270.69
255.426	239.69
255.659	213.69
255.892	216.69
256.124	204.69
256.357	213.69
256.59	194.69
256.823	197.69
257.056	195.69
257.289	184.69
257.521	195.69
257.754	195.69
257.987	189.69
258.22	176.69
258.452	210.69
258.685	189.69
258.918	182.69
259.151	193.69
259.383	198.69
259.616	192.69
259.849	212.69
260.081	201.69
260.314	231.69
260.547	241.69
260.779	228.69
261.012	225.69
261.244	218.69
261.477	205.69
261.71	210.69
261.942	234.69
262.175	228.69
262.407	223.69
262.64	211.69
262.872	195.69
263.105	205.69
263.337	199.69
263.57	177.69
263.802	180.69
264.035	181.69
264.267	184.69
264.499	194.69
264.732	187.69
264.964	190.69
265.197	194.69
265.429	182.69
265.661	183.69
265.894	191.69
266.126	185.69
266.358	204.69
266.591	191.69
266.823	202.69
267.055	195.69
267.287	215.69
267.52	194.69
267.752	204.69
267.984	195.69
268.216	188.69
268.448	204.69
268.681	195.69
268.913	223.69
269.145	224.69
269.377	230.69
269.609	227.69
269.841	244.69
270.073	239.69
270.306	257.69
270.538	285.69
270.77	289.69
271.002	279.69
271.234	270.69
271.466	281.69
271.698	294.69
271.93	294.69
272.162	305.69
272.394	288.69
272.626	271.69
272.858	271.69
273.09	260.69
273.322	249.69
273.553	253.69
273.785	247.69
274.017	239.69
274.249	225.69
274.481	230.69
274.713	232.69
274.945	231.69
275.176	236.69
275.408	226.69
275.64	228.69
275.872	214.69
276.104	238.69
276.335	237.69
276.567	231.69
276.799	263.69
277.031	268.69
277.262	278.69
277.494	284.69
277.726	266.69
277.957	267.69
278.189	250.69
278.421	258.69
278.652	228.69
278.884	258.69
279.115	232.69
279.347	221.69
279.579	236.69
279.81	227.69
280.042	225.69
280.273	219.69
280.505	211.69
280.736	227.69
280.968	224.69
281.199	231.69
281.431	209.69
281.662	232.69
281.894	213.69
282.125	218.69
282.356	245.69
282.588	285.69
282.819	277.69
283.051	228.69
283.282	220.69
283.513	224.69
283.745	214.69
283.976	229.69
284.207	221.69
284.439	216.69
284.67	226.69
284.901	234.69
285.132	224.69
285.364	229.69
285.595	219.69
285.826	221.69
286.057	220.69
286.288	210.69
286.52	232.69
286.751	227.69
286.982	222.69
287.213	221.69
287.444	232.69
287.675	223.69
287.906	238.69
288.138	226.69
288.369	227.69
288.6	245.69
288.831	243.69
289.062	243.69
289.293	226.69
289.524	215.69
289.755	220.69
289.986	211.69
290.217	242.69
290.448	227.69
290.679	225.69
290.91	228.69
291.141	226.69
291.371	211.69
291.602	222.69
291.833	235.69
292.064	244.69
292.295	244.69
292.526	239.69
292.757	224.69
292.987	243.69
293.218	233.69
293.449	227.69
293.68	252.69
293.91	231.69
294.141	232.69
294.372	233.69
294.603	231.69
294.833	240.69
295.064	231.69
295.295	227.69
295.525	227.69
295.756	251.69
295.987	241.69
296.217	274.69
296.448	305.69
296.679	250.69
296.909	242.69
297.14	225.69
297.37	243.69
297.601	237.69
297.831	239.69
298.062	244.69
298.292	247.69
298.523	249.69
298.753	256.69
298.984	237.69
299.214	257.69
299.445	247.69
299.675	268.69
299.905	252.69
300.136	239.69
300.366	260.69
300.597	245.69
300.827	250.69
301.057	263.69
301.288	256.69
301.518	268.69
301.748	260.69
301.979	240.69
302.209	265.69
302.439	282.69
302.669	265.69
302.9	249.69
303.13	259.69
303.36	266.69
303.59	282.69
303.82	290.69
304.051	271.69
304.281	250.69
304.511	259.69
304.741	252.69
304.971	248.69
305.201	266.69
305.431	279.69
305.661	248.69
305.891	247.69
306.121	284.69
306.352	265.69
306.582	267.69
306.812	275.69
307.042	273.69
307.272	268.69
307.502	264.69
307.731	278.69
307.961	275.69
308.191	274.69
308.421	278.69
308.651	277.69
308.881	287.69
309.111	295.69
309.341	279.69
309.571	299.69
309.8	292.69
310.03	314.69
310.26	333.69
310.49	333.69
310.72	352.69
310.949	361.69
311.179	373.69
311.409	339.69
311.639	335.69
311.868	316.69
312.098	329.69
312.328	336.69
312.557	362.69
312.787	385.69
313.017	384.69
313.246	349.69
313.476	335.69
313.706	332.69
313.935	321.69
314.165	377.69
314.394	367.69
314.624	360.69
314.853	332.69
315.083	321.69
315.312	309.69
315.542	322.69
315.771	309.69
316.001	313.69
316.23	305.69
316.46	309.69
316.689	339.69
316.919	309.69
317.148	327.69
317.377	335.69
317.607	328.69
317.836	337.69
318.065	312.69
318.295	293.69
318.524	323.69
318.753	303.69
318.983	312.69
319.212	335.69
319.441	319.69
319.67	353.69
319.9	340.69
320.129	322.69
320.358	315.69
320.587	318.69
320.816	330.69
321.046	348.69
321.275	351.69
321.504	343.69
321.733	367.69
321.962	355.69
322.191	401.69
322.42	391.69
322.649	427.69
322.878	438.69
323.108	460.69
323.337	492.69
323.566	494.69
323.795	540.69
324.024	599.69
324.253	807.69
324.482	1141.69
324.71	1803.69
324.939	2420.69
325.168	2119.69
325.397	1167.69
325.626	747.69
325.855	591.69
326.084	560.69
326.313	508.69
326.542	536.69
326.77	581.69
326.999	683.69
327.228	1003.69
327.457	1495.69
327.686	1843.69
327.914	1282.69
328.143	830.69
328.372	675.69
328.6	618.69
328.829	594.69
329.058	628.69
329.287	633.69
329.515	581.69
329.744	499.69
329.972	470.69
330.201	496.69
330.43	521.69
330.658	589.69
330.887	656.69
331.115	623.69
331.344	506.69
331.572	473.69
331.801	451.69
332.03	455.69
332.258	420.69
332.486	388.69
332.715	386.69
332.943	385.69
333.172	381.69
333.4	389.69
333.629	368.69
333.857	399.69
334.085	386.69
334.314	370.69
334.542	376.69
334.771	381.69
334.999	384.69
335.227	381.69
335.455	365.69
335.684	373.69
335.912	363.69
336.14	366.69
336.369	367.69
336.597	392.69
336.825	370.69
337.053	338.69
337.281	355.69
337.51	370.69
337.738	349.69
337.966	372.69
338.194	384.69
338.422	364.69
338.65	350.69
338.878	347.69
339.106	342.69
339.334	345.69
339.562	354.69
339.79	362.69
340.018	360.69
340.246	347.69
340.474	365.69
340.702	346.69
340.93	356.69
341.158	345.69
341.386	349.69
341.614	381.69
341.842	371.69
342.07	347.69
342.298	348.69
342.526	352.69
342.754	322.69
342.981	340.69
343.209	338.69
343.437	328.69
343.665	333.69
343.893	333.69
344.12	353.69
344.348	358.69
344.576	359.69
344.804	360.69
345.031	380.69
345.259	393.69
345.487	376.69
345.714	376.69
345.942	347.69
346.17	344.69
346.397	347.69
346.625	354.69
346.853	355.69
347.08	357.69
347.308	363.69
347.535	383.69
347.763	389.69
347.99	391.69
348.218	370.69
348.445	395.69
348.673	381.69
348.9	361.69
349.128	351.69
349.355	339.69
349.583	343.69
349.81	337.69
350.037	323.69
350.265	341.69
350.492	351.69
350.72	343.69
350.947	368.69
351.174	367.69
351.402	374.69
351.629	371.69
351.856	392.69
352.083	377.69
352.311	365.69
352.538	385.69
352.765	401.69
352.992	383.69
353.22	368.69
353.447	365.69
353.674	364.69
353.901	344.69
354.128	341.69
354.355	328.69
354.583	324.69
354.81	323.69
355.037	312.69
355.264	330.69
355.491	313.69
355.718	316.69
355.945	327.69
356.172	312.69
356.399	311.69
356.626	313.69
356.853	320.69
357.08	310.69
357.307	330.69
357.534	330.69
357.761	323.69
357.988	320.69
358.215	321.69
358.441	334.69
358.668	315.69
358.895	309.69
359.122	337.69
359.349	337.69
359.576	363.69
359.802	409.69
360.029	457.69
360.256	453.69
360.483	424.69
360.709	394.69
360.936	364.69
361.163	344.69
361.39	372.69
361.616	356.69
361.843	356.69
362.07	360.69
362.296	367.69
362.523	375.69
362.749	385.69
362.976	360.69
363.203	363.69
363.429	340.69
363.656	349.69
363.882	328.69
364.109	349.69
364.335	329.69
364.562	352.69
364.788	331.69
365.015	334.69
365.241	331.69
365.468	359.69
365.694	329.69
365.92	344.69
366.147	316.69
366.373	327.69
366.599	339.69
366.826	330.69
367.052	322.69
367.278	336.69
367.505	339.69
367.731	336.69
367.957	354.69
368.184	342.69
368.41	343.69
368.636	340.69
368.862	357.69
369.089	346.69
369.315	325.69
369.541	337.69
369.767	331.69
369.993	338.69
370.219	325.69
370.445	327.69
370.672	314.69
370.898	329.69
371.124	314.69
371.35	309.69
371.576	316.69
371.802	310.69
372.028	301.69
372.254	311.69
372.48	334.69
372.706	322.69
372.932	321.69
373.158	331.69
373.384	323.69
373.61	329.69
373.835	333.69
374.061	307.69
374.287	329.69
374.513	319.69
374.739	314.69
374.965	307.69
375.191	300.69
375.416	312.69
375.642	310.69
375.868	324.69
376.094	307.69
376.319	301.69
376.545	330.69
376.771	316.69
376.997	315.69
377.222	305.69
377.448	329.69
377.674	321.69
377.899	329.69
378.125	319.69
378.35	316.69
378.576	293.69
378.802	319.69
379.027	298.69
379.253	315.69
379.478	321.69
379.704	306.69
379.929	334.69
380.155	328.69
380.38	350.69
380.606	320.69
380.831	322.69
381.057	335.69
381.282	323.69
381.507	321.69
381.733	324.69
381.958	330.69
382.184	316.69
382.409	354.69
382.634	330.69
382.86	329.69
383.085	319.69
383.31	328.69
383.535	309.69
383.761	337.69
383.986	323.69
384.211	326.69
384.436	332.69
384.662	335.69
384.887	315.69
385.112	329.69
385.337	345.69
385.562	334.69
385.787	329.69
386.013	342.69
386.238	336.69
386.463	338.69
386.688	335.69
386.913	341.69
387.138	340.69
387.363	348.69
387.588	343.69
387.813	339.69
388.038	332.69
388.263	345.69
388.488	346.69
388.713	339.69
388.938	331.69
389.163	342.69
389.387	342.69
389.612	328.69
389.837	351.69
390.062	349.69
390.287	333.69
390.512	336.69
390.736	340.69
390.961	359.69
391.186	339.69
391.411	342.69
391.636	350.69
391.86	366.69
392.085	339.69
392.31	340.69
392.534	353.69
392.759	351.69
392.984	337.69
393.208	321.69
393.433	363.69
393.658	351.69
393.882	341.69
394.107	340.69
394.331	335.69
394.556	356.69
394.78	343.69
395.005	330.69
395.229	346.69
395.454	367.69
395.678	351.69
395.903	373.69
396.127	373.69
396.352	398.69
396.576	363.69
396.801	362.69
397.025	353.69
397.249	372.69
397.474	354.69
397.698	370.69
397.922	365.69
398.147	383.69
398.371	392.69
398.595	377.69
398.82	383.69
399.044	368.69
399.268	394.69
399.492	373.69
399.717	409.69
399.941	438.69
400.165	470.69
400.389	479.69
400.613	446.69
400.837	423.69
401.062	404.69
401.286	394.69
401.51	403.69
401.734	377.69
401.958	377.69
402.182	378.69
402.406	412.69
402.63	442.69
402.854	419.69
403.078	409.69
403.302	408.69
403.526	421.69
403.75	411.69
403.974	390.69
404.198	395.69
404.422	425.69
404.645	386.69
404.869	402.69
405.093	433.69
405.317	478.69
405.541	458.69
405.765	465.69
405.988	440.69
406.212	439.69
406.436	481.69
406.66	488.69
406.883	455.69
407.107	468.69
407.331	511.69
407.555	563.69
407.778	582.69
408.002	503.69
408.226	472.69
408.449	461.69
408.673	474.69
408.896	501.69
409.12	534.69
409.344	502.69
409.567	440.69
409.791	433.69
410.014	425.69
410.238	420.69
410.461	431.69
410.685	429.69
410.908	425.69
411.132	480.69
411.355	516.69
411.578	481.69
411.802	429.69
412.025	401.69
412.249	398.69
412.472	415.69
412.695	422.69
412.919	419.69
413.142	392.69
413.365	399.69
413.589	391.69
413.812	402.69
414.035	381.69
414.258	377.69
414.482	388.69
414.705	395.69
414.928	387.69
415.151	388.69
415.374	387.69
415.597	386.69
415.821	383.69
416.044	376.69
416.267	386.69
416.49	394.69
416.713	409.69
416.936	382.69
417.159	399.69
417.382	416.69
417.605	400.69
417.828	425.69
418.051	431.69
418.274	417.69
418.497	404.69
418.72	415.69
418.943	393.69
419.166	389.69
419.389	418.69
419.611	436.69
419.834	402.69
420.057	416.69
420.28	433.69
420.503	413.69
420.726	407.69
420.948	429.69
421.171	477.69
421.394	500.69
421.617	458.69
421.839	421.69
422.062	454.69
422.285	431.69
422.507	505.69
422.73	598.69
422.953	572.69
423.175	481.69
423.398	473.69
423.621	471.69
423.843	467.69
424.066	460.69
424.288	478.69
424.511	524.69
424.733	554.69
424.956	614.69
425.178	619.69
425.401	597.69
425.623	621.69
425.846	547.69
426.068	492.69
426.291	487.69
426.513	510.69
426.735	493.69
426.958	537.69
427.18	629.69
427.402	736.69
427.625	822.69
427.847	767.69
428.069	623.69
428.292	580.69
428.514	497.69
428.736	482.69
428.958	473.69
429.181	467.69
429.403	452.69
429.625	471.69
429.847	504.69
430.069	549.69
430.292	567.69
430.514	481.69
430.736	454.69
430.958	443.69
431.18	421.69
431.402	435.69
431.624	428.69
431.846	409.69
432.068	416.69
432.29	425.69
432.512	420.69
432.734	433.69
432.956	416.69
433.178	429.69
433.4	445.69
433.622	406.69
433.844	408.69
434.066	409.69
434.287	410.69
434.509	423.69
434.731	429.69
434.953	433.69
435.175	432.69
435.397	478.69
435.618	500.69
435.84	547.69
436.062	613.69
436.284	697.69
436.505	579.69
436.727	530.69
436.949	473.69
437.17	472.69
437.392	460.69
437.614	487.69
437.835	539.69
438.057	644.69
438.278	705.69
438.5	703.69
438.721	752.69
438.943	712.69
439.165	614.69
439.386	559.69
439.608	521.69
439.829	529.69
440.05	567.69
440.272	581.69
440.493	557.69
440.715	519.69
440.936	501.69
441.158	460.69
441.379	471.69
441.6	495.69
441.822	483.69
442.043	544.69
442.264	626.69
442.486	677.69
442.707	593.69
442.928	546.69
443.149	525.69
443.371	561.69
443.592	580.69
443.813	667.69
444.034	728.69
444.255	587.69
444.476	520.69
444.698	518.69
444.919	500.69
445.14	584.69
445.361	522.69
445.582	535.69
445.803	607.69
446.024	710.69
446.245	744.69
446.466	659.69
446.687	569.69
446.908	521.69
447.129	495.69
447.35	469.69
447.571	475.69
447.792	480.69
448.013	467.69
448.234	491.69
448.455	528.69
448.675	661.69
448.896	739.69
449.117	668.69
449.338	608.69
449.559	674.69
449.779	756.69
450	652.69
450.221	544.69
450.442	482.69
450.662	469.69
450.883	517.69
451.104	537.69
451.324	507.69
451.545	467.69
451.766	447.69
451.986	441.69
452.207	417.69
452.428	421.69
452.648	426.69
452.869	415.69
453.089	422.69
453.31	442.69
453.53	426.69
453.751	406.69
453.971	418.69
454.192	464.69
454.412	468.69
454.633	436.69
454.853	418.69
455.073	418.69
455.294	464.69
455.514	513.69
455.734	531.69
455.955	436.69
456.175	418.69
456.395	394.69
456.616	369.69
456.836	385.69
457.056	392.69
457.276	366.69
457.497	370.69
457.717	366.69
457.937	383.69
458.157	394.69
458.377	388.69
458.598	434.69
458.818	511.69
459.038	615.69
459.258	587.69
459.478	507.69
459.698	452.69
459.918	432.69
460.138	425.69
460.358	411.69
460.578	400.69
460.798	425.69
461.018	415.69
461.238	392.69
461.458	383.69
461.678	395.69
461.898	419.69
462.118	388.69
462.338	408.69
462.558	412.69
462.777	402.69
462.997	401.69
463.217	429.69
463.437	418.69
463.657	411.69
463.876	419.69
464.096	431.69
464.316	432.69
464.536	447.69
464.755	425.69
464.975	450.69
465.195	531.69
465.414	657.69
465.634	552.69
465.854	495.69
466.073	454.69
466.293	463.69
466.512	426.69
466.732	420.69
466.951	425.69
467.171	420.69
467.391	409.69
467.61	439.69
467.829	446.69
468.049	423.69
468.268	399.69
468.488	410.69
468.707	401.69
468.927	395.69
469.146	398.69
469.365	389.69
469.585	410.69
469.804	421.69
470.023	411.69
470.243	435.69
470.462	447.69
470.681	467.69
470.901	452.69
471.12	421.69
471.339	423.69
471.558	415.69
471.777	420.69
471.997	385.69
472.216	416.69
472.435	433.69
472.654	391.69
472.873	413.69
473.092	385.69
473.311	407.69
473.53	424.69
473.749	431.69
473.968	480.69
474.187	569.69
474.406	610.69
474.625	490.69
474.844	465.69
475.063	450.69
475.282	413.69
475.501	422.69
475.72	445.69
475.939	431.69
476.158	428.69
476.377	443.69
476.596	434.69
476.814	441.69
477.033	465.69
477.252	439.69
477.471	447.69
477.69	427.69
477.908	452.69
478.127	442.69
478.346	447.69
478.564	457.69
478.783	457.69
479.002	475.69
479.22	462.69
479.439	496.69
479.658	525.69
479.876	524.69
480.095	531.69
480.313	519.69
480.532	505.69
480.751	504.69
480.969	499.69
481.188	513.69
481.406	542.69
481.624	530.69
481.843	516.69
482.061	489.69
482.28	500.69
482.498	491.69
482.717	494.69
482.935	483.69
483.153	474.69
483.372	477.69
483.59	492.69
483.808	490.69
484.027	484.69
484.245	480.69
484.463	502.69
484.681	507.69
484.9	512.69
485.118	513.69
485.336	525.69
485.554	508.69
485.772	509.69
485.99	531.69
486.209	512.69
486.427	519.69
486.645	540.69
486.863	561.69
487.081	571.69
487.299	566.69
487.517	554.69
487.735	551.69
487.953	534.69
488.171	543.69
488.389	531.69
488.607	555.69
488.825	561.69
489.043	550.69
489.261	536.69
489.479	550.69
489.696	551.69
489.914	544.69
490.132	555.69
490.35	572.69
490.568	559.69
490.786	566.69
491.003	593.69
491.221	620.69
491.439	616.69
491.657	599.69
491.874	619.69
492.092	623.69
492.31	623.69
492.527	599.69
492.745	631.69
492.963	624.69
493.18	639.69
493.398	650.69
493.615	637.69
493.833	639.69
494.05	634.69
494.268	635.69
494.485	636.69
494.703	632.69
494.92	657.69
495.138	656.69
495.355	660.69
495.573	654.69
495.79	639.69
496.008	659.69
496.225	637.69
496.442	660.69
496.66	646.69
496.877	649.69
497.094	639.69
497.312	682.69
497.529	671.69
497.746	671.69
497.963	694.69
498.181	697.69
498.398	716.69
498.615	693.69
498.832	722.69
499.049	697.69
499.267	710.69
499.484	704.69
499.701	739.69
499.918	725.69
500.135	780.69
500.352	781.69
500.569	753.69
500.786	789.69
501.003	757.69
501.22	762.69
501.437	775.69
501.654	767.69
501.871	802.69
502.088	778.69
502.305	749.69
502.522	730.69
502.739	727.69
502.956	727.69
503.172	689.69
503.389	674.69
503.606	689.69
503.823	697.69
504.04	680.69
504.256	668.69
504.473	630.69
504.69	650.69
504.907	660.69
505.123	642.69
505.34	671.69
505.557	666.69
505.773	659.69
505.99	639.69
506.207	643.69
506.423	658.69
506.64	624.69
506.856	626.69
507.073	664.69
507.289	641.69
507.506	626.69
507.722	661.69
507.939	691.69
508.155	687.69
508.372	644.69
508.588	639.69
508.805	640.69
509.021	641.69
509.238	640.69
509.454	674.69
509.67	674.69
509.887	647.69
510.103	631.69
510.319	647.69
510.536	793.69
510.752	1510.69
510.968	1217.69
511.184	735.69
511.401	633.69
511.617	653.69
511.833	611.69
512.049	614.69
512.265	580.69
512.481	597.69
512.698	608.69
512.914	604.69
513.13	624.69
513.346	606.69
513.562	614.69
513.778	620.69
513.994	636.69
514.21	659.69
514.426	711.69
514.642	767.69
514.858	820.69
515.074	888.69
515.29	1125.69
515.506	1760.69
515.721	1384.69
515.937	849.69
516.153	743.69
516.369	681.69
516.585	675.69
516.801	643.69
517.016	631.69
517.232	628.69
517.448	593.69
517.664	633.69
517.879	633.69
518.095	623.69
518.311	634.69
518.527	616.69
518.742	607.69
518.958	610.69
519.173	601.69
519.389	606.69
519.605	614.69
519.82	631.69
520.036	678.69
520.251	704.69
520.467	727.69
520.682	754.69
520.898	742.69
521.113	789.69
521.329	883.69
521.544	1023.69
521.76	1376.69
521.975	2373.69
522.19	2307.69
522.406	1177.69
522.621	859.69
522.836	736.69
523.052	683.69
523.267	635.69
523.482	607.69
523.698	593.69
523.913	598.69
524.128	603.69
524.343	586.69
524.559	554.69
524.774	541.69
524.989	544.69
525.204	546.69
525.419	551.69
525.634	533.69
525.849	508.69
526.064	519.69
526.28	531.69
526.495	505.69
526.71	519.69
526.925	498.69
527.14	507.69
527.355	507.69
527.57	486.69
527.785	464.69
527.999	489.69
528.214	483.69
528.429	469.69
528.644	475.69
528.859	471.69
529.074	488.69
529.289	521.69
529.503	645.69
529.718	649.69
529.933	582.69
530.148	509.69
530.363	508.69
530.577	484.69
530.792	459.69
531.007	479.69
531.221	471.69
531.436	469.69
531.651	461.69
531.865	445.69
532.08	460.69
532.295	468.69
532.509	449.69
532.724	446.69
532.938	456.69
533.153	449.69
533.367	422.69
533.582	463.69
533.796	414.69
534.011	426.69
534.225	433.69
534.44	437.69
534.654	432.69
534.868	440.69
535.083	424.69
535.297	455.69
535.511	466.69
535.726	459.69
535.94	462.69
536.154	452.69
536.369	452.69
536.583	442.69
536.797	443.69
537.011	445.69
537.225	423.69
537.44	441.69
537.654	420.69
537.868	409.69
538.082	411.69
538.296	434.69
538.51	446.69
538.724	438.69
538.938	434.69
539.153	428.69
539.367	457.69
539.581	467.69
539.795	438.69
540.009	434.69
540.222	428.69
540.436	427.69
540.65	424.69
540.864	435.69
541.078	453.69
541.292	446.69
541.506	437.69
541.72	427.69
541.934	414.69
542.147	408.69
542.361	433.69
542.575	404.69
542.789	394.69
543.002	407.69
543.216	429.69
543.43	417.69
543.644	426.69
543.857	438.69
544.071	414.69
544.285	423.69
544.498	423.69
544.712	401.69
544.925	425.69
545.139	415.69
545.352	395.69
545.566	393.69
545.779	405.69
545.993	404.69
546.206	409.69
546.42	413.69
546.633	425.69
546.847	400.69
547.06	395.69
547.274	409.69
547.487	397.69
547.7	404.69
547.914	400.69
548.127	407.69
548.34	412.69
548.554	395.69
548.767	377.69
548.98	385.69
549.193	387.69
549.407	385.69
549.62	388.69
549.833	383.69
550.046	386.69
550.259	393.69
550.473	387.69
550.686	379.69
550.899	401.69
551.112	362.69
551.325	359.69
551.538	403.69
551.751	385.69
551.964	402.69
552.177	374.69
552.39	388.69
552.603	385.69
552.816	377.69
553.029	393.69
553.242	394.69
553.455	383.69
553.667	404.69
553.88	431.69
554.093	427.69
554.306	389.69
554.519	391.69
554.732	368.69
554.944	384.69
555.157	374.69
555.37	376.69
555.583	389.69
555.795	367.69
556.008	374.69
556.221	372.69
556.433	372.69
556.646	367.69
556.859	335.69
557.071	351.69
557.284	356.69
557.496	348.69
557.709	352.69
557.921	358.69
558.134	352.69
558.346	357.69
558.559	349.69
558.771	355.69
558.984	363.69
559.196	352.69
559.409	365.69
559.621	349.69
559.833	361.69
560.046	334.69
560.258	347.69
560.47	350.69
560.683	343.69
560.895	346.69
561.107	344.69
561.32	353.69
561.532	339.69
561.744	344.69
561.956	351.69
562.168	335.69
562.381	339.69
562.593	343.69
562.805	349.69
563.017	359.69
563.229	364.69
563.441	353.69
563.653	346.69
563.865	358.69
564.077	354.69
564.289	342.69
564.501	363.69
564.713	376.69
564.925	378.69
565.137	377.69
565.349	375.69
565.561	381.69
565.773	357.69
565.985	389.69
566.197	364.69
566.408	382.69
566.62	368.69
566.832	366.69
567.044	378.69
567.255	386.69
567.467	390.69
567.679	379.69
567.891	379.69
568.102	376.69
568.314	378.69
568.526	374.69
568.737	370.69
568.949	360.69
569.161	362.69
569.372	355.69
569.584	338.69
569.795	363.69
570.007	339.69
570.218	436.69
570.43	417.69
570.641	349.69
570.853	347.69
571.064	323.69
571.276	320.69
571.487	325.69
571.698	316.69
571.91	340.69
572.121	328.69
572.333	293.69
572.544	324.69
572.755	328.69
572.966	317.69
573.178	322.69
573.389	301.69
573.6	317.69
573.811	306.69
574.023	305.69
574.234	305.69
574.445	308.69
574.656	305.69
574.867	305.69
575.078	323.69
575.289	283.69
575.501	299.69
575.712	308.69
575.923	308.69
576.134	292.69
576.345	291.69
576.556	292.69
576.767	275.69
576.978	300.69
577.188	294.69
577.399	305.69
577.61	290.69
577.821	301.69
578.032	303.69
578.243	359.69
578.454	707.69
578.665	484.69
578.875	331.69
579.086	285.69
579.297	299.69
579.508	296.69
579.718	285.69
579.929	299.69
580.14	311.69
580.35	294.69
580.561	291.69
580.772	282.69
580.982	277.69
581.193	292.69
581.403	283.69
581.614	280.69
581.825	282.69
582.035	274.69
582.246	268.69
582.456	255.69
582.667	274.69
582.877	267.69
583.087	275.69
583.298	273.69
583.508	283.69
583.719	265.69
583.929	256.69
584.139	266.69
584.35	266.69
584.56	273.69
584.77	281.69
584.981	264.69
585.191	283.69
585.401	270.69
585.611	277.69
585.821	307.69
586.032	281.69
586.242	255.69
586.452	259.69
586.662	275.69
586.872	269.69
587.082	255.69
587.292	266.69
587.502	274.69
587.713	258.69
587.923	278.69
588.133	270.69
588.343	257.69
588.553	243.69
588.762	267.69
588.972	296.69
589.182	329.69
589.392	326.69
589.602	270.69
589.812	312.69
590.022	292.69
590.232	259.69
590.441	268.69
590.651	267.69
590.861	255.69
591.071	257.69
591.281	263.69
591.49	258.69
591.7	266.69
591.91	269.69
592.119	274.69
592.329	255.69
592.539	264.69
592.748	279.69
592.958	258.69
593.167	263.69
593.377	264.69
593.587	264.69
593.796	270.69
594.006	257.69
594.215	273.69
594.424	265.69
594.634	259.69
594.843	255.69
595.053	278.69
595.262	256.69
595.472	244.69
595.681	255.69
595.89	262.69
596.1	248.69
596.309	277.69
596.518	256.69
596.727	251.69
596.937	235.69
597.146	261.69
597.355	259.69
597.564	265.69
597.774	246.69
597.983	218.69
598.192	244.69
598.401	241.69
598.61	250.69
598.819	256.69
599.028	222.69
599.237	233.69
599.446	244.69
599.655	255.69
599.864	257.69
600.073	241.69
600.282	235.69
600.491	223.69
600.7	221.69
600.909	225.69
601.118	241.69
601.327	213.69
601.536	232.69
601.745	221.69
601.953	229.69
602.162	221.69
602.371	218.69
602.58	219.69
602.789	227.69
602.997	224.69
603.206	227.69
603.415	220.69
603.623	228.69
603.832	243.69
604.041	233.69
604.249	225.69
604.458	230.69
604.666	218.69
604.875	221.69
605.084	209.69
605.292	226.69
605.501	229.69
605.709	224.69
605.918	229.69
606.126	220.69
606.334	224.69
606.543	225.69
606.751	226.69
606.96	211.69
607.168	219.69
607.376	232.69
607.585	224.69
607.793	212.69
608.001	214.69
608.21	212.69
608.418	222.69
608.626	219.69
608.834	225.69
609.043	219.69
609.251	200.69
609.459	217.69
609.667	211.69
609.875	216.69
610.083	210.69
610.291	221.69
610.499	208.69
610.707	211.69
610.916	216.69
611.124	219.69
611.332	225.69
611.54	229.69
611.748	224.69
611.955	212.69
612.163	220.69
612.371	205.69
612.579	212.69
612.787	218.69
612.995	209.69
613.203	212.69
613.411	210.69
613.618	217.69
613.826	212.69
614.034	223.69
614.242	203.69
614.449	220.69
614.657	211.69
614.865	217.69
615.072	207.69
615.28	203.69
615.488	204.69
615.695	193.69
615.903	217.69
616.111	228.69
616.318	221.69
616.526	197.69
616.733	203.69
616.941	220.69
617.148	196.69
617.356	214.69
617.563	196.69
617.771	213.69
617.978	207.69
618.185	201.69
618.393	211.69
618.6	209.69
618.807	198.69
619.015	200.69
619.222	200.69
619.429	203.69
619.637	218.69
619.844	209.69
620.051	215.69
620.258	218.69
620.466	203.69
620.673	197.69
620.88	181.69
621.087	191.69
621.294	198.69
621.501	201.69
621.708	208.69
621.915	210.69
622.122	197.69
622.329	203.69
622.536	185.69
622.743	188.69
622.95	202.69
623.157	195.69
623.364	211.69
623.571	194.69
623.778	181.69
623.985	198.69
624.192	188.69
624.399	175.69
624.606	191.69
624.812	197.69
625.019	193.69
625.226	209.69
625.433	196.69
625.639	198.69
625.846	198.69
626.053	209.69
626.259	203.69
626.466	187.69
626.673	201.69
626.879	179.69
627.086	193.69
627.293	192.69
627.499	182.69
627.706	173.69
627.912	182.69
628.119	180.69
628.325	187.69
628.532	194.69
628.738	188.69
628.945	185.69
629.151	179.69
629.357	179.69
629.564	195.69
629.77	197.69
629.976	168.69
630.183	171.69
630.389	194.69
630.595	160.69
630.802	186.69
631.008	189.69
631.214	180.69
631.42	184.69
631.627	187.69
631.833	173.69
632.039	183.69
632.245	172.69
632.451	178.69
632.657	188.69
632.863	186.69
633.069	169.69
633.275	164.69
633.481	170.69
633.688	175.69
633.893	170.69
634.099	172.69
634.305	165.69
634.511	179.69
634.717	169.69
634.923	168.69
635.129	163.69
635.335	169.69
635.541	159.69
635.747	166.69
635.952	169.69
636.158	175.69
636.364	155.69
636.57	171.69
636.775	177.69
636.981	173.69
637.187	173.69
637.392	160.69
637.598	172.69
637.804	145.69
638.009	157.69
638.215	165.69
638.421	152.69
638.626	153.69
638.832	172.69
639.037	173.69
639.243	176.69
639.448	163.69
639.654	149.69
639.859	165.69
640.065	167.69
640.27	177.69
640.475	168.69
640.681	157.69
640.886	168.69
641.091	157.69
641.297	155.69
641.502	161.69
641.707	185.69
641.913	151.69
642.118	161.69
642.323	159.69
642.528	145.69
642.733	154.69
642.939	158.69
643.144	180.69
643.349	143.69
643.554	159.69
643.759	167.69
643.964	156.69
644.169	132.69
644.374	153.69
644.579	157.69
644.784	152.69
644.989	147.69
645.194	142.69
645.399	145.69
645.604	157.69
645.809	151.69
646.014	157.69
646.219	141.69
646.423	159.69
646.628	153.69
646.833	159.69
647.038	161.69
647.243	151.69
647.447	138.69
647.652	155.69
647.857	147.69
648.062	141.69
648.266	152.69
648.471	162.69
648.676	159.69
648.88	164.69
649.085	167.69
649.289	161.69
649.494	161.69
649.698	178.69
649.903	166.69
650.107	158.69
650.312	147.69
650.516	146.69
650.721	156.69
650.925	137.69
651.13	152.69
651.334	159.69
651.539	135.69
651.743	140.69
651.947	121.69
652.152	129.69
652.356	139.69
652.56	139.69
652.764	129.69
652.969	131.69
653.173	146.69
653.377	143.69
653.581	120.69
653.785	134.69
653.99	122.69
654.194	125.69
654.398	119.69
654.602	120.69
654.806	139.69
655.01	132.69
655.214	132.69
655.418	124.69
655.622	125.69
655.826	113.69
656.03	128.69
656.234	134.69
656.438	123.69
656.642	108.69
656.846	125.69
657.049	108.69
657.253	100.69
657.457	119.69
657.661	113.69
657.865	106.69
658.068	108.69
658.272	105.69
658.476	100.69
658.68	108.69
658.883	95.69
659.087	108.69
659.291	86.69
659.494	92.69
659.698	97.69
659.901	87.69
660.105	84.69
660.309	81.69
660.512	96.69
660.716	99.69
660.919	94.69
661.123	95.69
661.326	94.69
661.53	90.69
661.733	91.69
661.936	92.69
662.14	83.69
662.343	89.69
662.546	93.69
662.75	90.69
662.953	79.69
663.156	80.69
663.36	73.69
663.563	84.69
663.766	82.69
663.969	90.69
664.173	82.69
664.376	84.69
664.579	77.69
664.782	83.69
664.985	101.69
665.188	69.69
665.391	83.69
665.594	80.69
665.797	77.69
666	84.69
666.203	80.69
666.406	69.69
666.609	81.69
666.812	98.69
667.015	87.69
667.218	84.69
667.421	80.69
667.624	79.69
667.827	90.69
668.03	85.69
668.232	88.69
668.435	85.69
668.638	78.69
668.841	81.69
669.043	92.69
669.246	79.69
669.449	77.69
669.651	77.69
669.854	79.69
670.057	78.69
670.259	77.69
670.462	63.69
670.665	81.69
670.867	78.69
671.07	85.69
671.272	87.69
671.475	91.69
671.677	70.69
671.88	77.69
672.082	71.69
672.284	88.69
672.487	97.69
672.689	73.69
672.892	73.69
