Data from 1987.PennyLincolnUp.Lamp.En5.5.200Scan.071819.P2_HRD10591_17-15-20-971.txt Node
Date: Thu Jul 18 17:15:20 EDT 2019
User: cochatt
Spectrometer: HR+D1059
Trigger mode: 1
Integration Time (sec): 1.000000E-1
Scans to average: 1
Electric dark correction enabled: true
Nonlinearity correction enabled: false
Boxcar width: 0
XAxis mode: Wavelengths
Number of Pixels in Spectrum: 2048
>>>>>Begin Spectral Data<<<<<
223.165	-7.94
223.4	-7.94
223.635	-7.94
223.869	-20.94
224.104	-20.94
224.338	-12.94
224.573	-12.94
224.808	-8.94
225.042	-9.94
225.277	2.06
225.511	1.06
225.746	12.06
225.98	-10.94
226.215	17.06
226.449	9.06
226.683	15.06
226.918	21.06
227.152	28.06
227.387	27.06
227.621	34.06
227.856	44.06
228.09	38.06
228.324	26.06
228.559	47.06
228.793	61.06
229.027	108.06
229.262	118.06
229.496	124.06
229.73	143.06
229.964	163.06
230.199	137.06
230.433	122.06
230.667	129.06
230.901	118.06
231.136	109.06
231.37	109.06
231.604	101.06
231.838	121.06
232.072	110.06
232.306	114.06
232.541	113.06
232.775	105.06
233.009	109.06
233.243	112.06
233.477	104.06
233.711	108.06
233.945	124.06
234.179	110.06
234.413	114.06
234.647	109.06
234.881	110.06
235.115	121.06
235.349	129.06
235.583	121.06
235.817	130.06
236.051	126.06
236.285	130.06
236.519	114.06
236.753	128.06
236.987	154.06
237.221	191.06
237.455	243.06
237.689	194.06
237.922	136.06
238.156	136.06
238.39	141.06
238.624	126.06
238.858	128.06
239.091	116.06
239.325	104.06
239.559	136.06
239.793	114.06
240.027	130.06
240.26	141.06
240.494	164.06
240.728	165.06
240.961	146.06
241.195	140.06
241.429	132.06
241.662	129.06
241.896	135.06
242.13	129.06
242.363	141.06
242.597	123.06
242.83	133.06
243.064	117.06
243.298	125.06
243.531	124.06
243.765	125.06
243.998	125.06
244.232	143.06
244.465	124.06
244.699	146.06
244.932	137.06
245.166	136.06
245.399	134.06
245.633	145.06
245.866	148.06
246.099	122.06
246.333	132.06
246.566	133.06
246.8	145.06
247.033	137.06
247.266	165.06
247.5	163.06
247.733	155.06
247.966	156.06
248.2	169.06
248.433	155.06
248.666	163.06
248.899	169.06
249.133	191.06
249.366	217.06
249.599	192.06
249.832	176.06
250.066	187.06
250.299	158.06
250.532	167.06
250.765	181.06
250.998	218.06
251.231	205.06
251.465	206.06
251.698	202.06
251.931	200.06
252.164	197.06
252.397	193.06
252.63	205.06
252.863	197.06
253.096	180.06
253.329	213.06
253.562	231.06
253.795	209.06
254.028	199.06
254.261	201.06
254.494	228.06
254.727	265.06
254.96	271.06
255.193	263.06
255.426	249.06
255.659	220.06
255.892	211.06
256.124	204.06
256.357	209.06
256.59	213.06
256.823	198.06
257.056	216.06
257.289	212.06
257.521	190.06
257.754	192.06
257.987	182.06
258.22	194.06
258.452	196.06
258.685	202.06
258.918	189.06
259.151	202.06
259.383	202.06
259.616	217.06
259.849	203.06
260.081	213.06
260.314	223.06
260.547	250.06
260.779	232.06
261.012	220.06
261.244	207.06
261.477	219.06
261.71	212.06
261.942	212.06
262.175	238.06
262.407	239.06
262.64	218.06
262.872	204.06
263.105	184.06
263.337	189.06
263.57	208.06
263.802	195.06
264.035	195.06
264.267	189.06
264.499	192.06
264.732	199.06
264.964	183.06
265.197	182.06
265.429	196.06
265.661	187.06
265.894	201.06
266.126	193.06
266.358	182.06
266.591	191.06
266.823	200.06
267.055	192.06
267.287	201.06
267.52	203.06
267.752	200.06
267.984	207.06
268.216	210.06
268.448	194.06
268.681	206.06
268.913	206.06
269.145	227.06
269.377	254.06
269.609	248.06
269.841	241.06
270.073	256.06
270.306	265.06
270.538	292.06
270.77	306.06
271.002	283.06
271.234	276.06
271.466	285.06
271.698	280.06
271.93	306.06
272.162	311.06
272.394	296.06
272.626	284.06
272.858	274.06
273.09	258.06
273.322	244.06
273.553	253.06
273.785	252.06
274.017	236.06
274.249	225.06
274.481	237.06
274.713	238.06
274.945	233.06
275.176	242.06
275.408	232.06
275.64	227.06
275.872	227.06
276.104	237.06
276.335	235.06
276.567	243.06
276.799	254.06
277.031	278.06
277.262	286.06
277.494	292.06
277.726	263.06
277.957	256.06
278.189	243.06
278.421	233.06
278.652	221.06
278.884	237.06
279.115	227.06
279.347	220.06
279.579	231.06
279.81	245.06
280.042	236.06
280.273	214.06
280.505	242.06
280.736	204.06
280.968	219.06
281.199	238.06
281.431	222.06
281.662	234.06
281.894	217.06
282.125	226.06
282.356	234.06
282.588	288.06
282.819	272.06
283.051	230.06
283.282	243.06
283.513	226.06
283.745	240.06
283.976	232.06
284.207	226.06
284.439	246.06
284.67	225.06
284.901	232.06
285.132	224.06
285.364	238.06
285.595	219.06
285.826	203.06
286.057	237.06
286.288	237.06
286.52	217.06
286.751	221.06
286.982	214.06
287.213	224.06
287.444	226.06
287.675	232.06
287.906	240.06
288.138	235.06
288.369	263.06
288.6	260.06
288.831	274.06
289.062	222.06
289.293	226.06
289.524	231.06
289.755	221.06
289.986	226.06
290.217	242.06
290.448	235.06
290.679	240.06
290.91	244.06
291.141	229.06
291.371	224.06
291.602	222.06
291.833	221.06
292.064	225.06
292.295	229.06
292.526	226.06
292.757	237.06
292.987	233.06
293.218	235.06
293.449	231.06
293.68	232.06
293.91	231.06
294.141	222.06
294.372	226.06
294.603	235.06
294.833	227.06
295.064	252.06
295.295	225.06
295.525	224.06
295.756	251.06
295.987	268.06
296.217	275.06
296.448	298.06
296.679	260.06
296.909	237.06
297.14	240.06
297.37	240.06
297.601	233.06
297.831	254.06
298.062	251.06
298.292	232.06
298.523	254.06
298.753	247.06
298.984	256.06
299.214	227.06
299.445	245.06
299.675	247.06
299.905	257.06
300.136	261.06
300.366	251.06
300.597	242.06
300.827	251.06
301.057	258.06
301.288	271.06
301.518	267.06
301.748	255.06
301.979	245.06
302.209	262.06
302.439	253.06
302.669	267.06
302.9	266.06
303.13	260.06
303.36	241.06
303.59	266.06
303.82	283.06
304.051	277.06
304.281	278.06
304.511	264.06
304.741	262.06
304.971	250.06
305.201	254.06
305.431	254.06
305.661	253.06
305.891	261.06
306.121	276.06
306.352	257.06
306.582	275.06
306.812	272.06
307.042	258.06
307.272	265.06
307.502	284.06
307.731	261.06
307.961	268.06
308.191	273.06
308.421	282.06
308.651	276.06
308.881	280.06
309.111	292.06
309.341	301.06
309.571	308.06
309.8	311.06
310.03	323.06
310.26	321.06
310.49	350.06
310.72	353.06
310.949	371.06
311.179	378.06
311.409	322.06
311.639	317.06
311.868	341.06
312.098	347.06
312.328	343.06
312.557	361.06
312.787	383.06
313.017	372.06
313.246	357.06
313.476	332.06
313.706	326.06
313.935	341.06
314.165	346.06
314.394	359.06
314.624	361.06
314.853	341.06
315.083	327.06
315.312	311.06
315.542	305.06
315.771	304.06
316.001	310.06
316.23	320.06
316.46	342.06
316.689	317.06
316.919	315.06
317.148	325.06
317.377	354.06
317.607	326.06
317.836	316.06
318.065	324.06
318.295	330.06
318.524	332.06
318.753	316.06
318.983	327.06
319.212	321.06
319.441	331.06
319.67	340.06
319.9	349.06
320.129	327.06
320.358	340.06
320.587	334.06
320.816	339.06
321.046	346.06
321.275	345.06
321.504	343.06
321.733	366.06
321.962	376.06
322.191	392.06
322.42	377.06
322.649	408.06
322.878	434.06
323.108	476.06
323.337	475.06
323.566	521.06
323.795	582.06
324.024	641.06
324.253	798.06
324.482	1151.06
324.71	1830.06
324.939	2484.06
325.168	2218.06
325.397	1198.06
325.626	808.06
325.855	616.06
326.084	541.06
326.313	539.06
326.542	532.06
326.77	601.06
326.999	724.06
327.228	1054.06
327.457	1568.06
327.686	1920.06
327.914	1331.06
328.143	864.06
328.372	736.06
328.6	641.06
328.829	597.06
329.058	635.06
329.287	624.06
329.515	580.06
329.744	518.06
329.972	479.06
330.201	465.06
330.43	533.06
330.658	588.06
330.887	662.06
331.115	644.06
331.344	503.06
331.572	471.06
331.801	480.06
332.03	470.06
332.258	460.06
332.486	392.06
332.715	385.06
332.943	385.06
333.172	383.06
333.4	369.06
333.629	395.06
333.857	380.06
334.085	378.06
334.314	394.06
334.542	376.06
334.771	387.06
334.999	393.06
335.227	374.06
335.455	354.06
335.684	364.06
335.912	357.06
336.14	347.06
336.369	376.06
336.597	353.06
336.825	368.06
337.053	371.06
337.281	364.06
337.51	354.06
337.738	379.06
337.966	364.06
338.194	387.06
338.422	371.06
338.65	363.06
338.878	359.06
339.106	352.06
339.334	356.06
339.562	357.06
339.79	354.06
340.018	356.06
340.246	356.06
340.474	360.06
340.702	342.06
340.93	371.06
341.158	335.06
341.386	373.06
341.614	360.06
341.842	376.06
342.07	362.06
342.298	361.06
342.526	355.06
342.754	331.06
342.981	340.06
343.209	326.06
343.437	345.06
343.665	346.06
343.893	355.06
344.12	346.06
344.348	353.06
344.576	360.06
344.804	374.06
345.031	372.06
345.259	399.06
345.487	392.06
345.714	378.06
345.942	365.06
346.17	362.06
346.397	360.06
346.625	355.06
346.853	341.06
347.08	337.06
347.308	373.06
347.535	372.06
347.763	381.06
347.99	402.06
348.218	385.06
348.445	389.06
348.673	397.06
348.9	388.06
349.128	369.06
349.355	334.06
349.583	336.06
349.81	339.06
350.037	352.06
350.265	365.06
350.492	350.06
350.72	346.06
350.947	346.06
351.174	373.06
351.402	397.06
351.629	393.06
351.856	371.06
352.083	387.06
352.311	399.06
352.538	412.06
352.765	409.06
352.992	380.06
353.22	374.06
353.447	359.06
353.674	368.06
353.901	340.06
354.128	319.06
354.355	340.06
354.583	308.06
354.81	315.06
355.037	343.06
355.264	322.06
355.491	306.06
355.718	313.06
355.945	313.06
356.172	317.06
356.399	313.06
356.626	314.06
356.853	328.06
357.08	292.06
357.307	297.06
357.534	318.06
357.761	312.06
357.988	342.06
358.215	311.06
358.441	337.06
358.668	315.06
358.895	316.06
359.122	341.06
359.349	363.06
359.576	373.06
359.802	393.06
360.029	457.06
360.256	474.06
360.483	454.06
360.709	374.06
360.936	374.06
361.163	376.06
361.39	373.06
361.616	395.06
361.843	386.06
362.07	367.06
362.296	370.06
362.523	355.06
362.749	368.06
362.976	371.06
363.203	362.06
363.429	349.06
363.656	344.06
363.882	338.06
364.109	327.06
364.335	328.06
364.562	337.06
364.788	321.06
365.015	338.06
365.241	345.06
365.468	342.06
365.694	341.06
365.92	349.06
366.147	349.06
366.373	338.06
366.599	322.06
366.826	330.06
367.052	329.06
367.278	319.06
367.505	347.06
367.731	316.06
367.957	322.06
368.184	352.06
368.41	333.06
368.636	378.06
368.862	374.06
369.089	359.06
369.315	331.06
369.541	341.06
369.767	333.06
369.993	322.06
370.219	315.06
370.445	310.06
370.672	323.06
370.898	334.06
371.124	344.06
371.35	323.06
371.576	324.06
371.802	316.06
372.028	324.06
372.254	313.06
372.48	338.06
372.706	334.06
372.932	330.06
373.158	313.06
373.384	332.06
373.61	323.06
373.835	333.06
374.061	343.06
374.287	314.06
374.513	323.06
374.739	350.06
374.965	324.06
375.191	324.06
375.416	311.06
375.642	329.06
375.868	313.06
376.094	310.06
376.319	320.06
376.545	322.06
376.771	329.06
376.997	315.06
377.222	310.06
377.448	320.06
377.674	321.06
377.899	324.06
378.125	317.06
378.35	325.06
378.576	321.06
378.802	316.06
379.027	317.06
379.253	324.06
379.478	300.06
379.704	325.06
379.929	326.06
380.155	321.06
380.38	318.06
380.606	358.06
380.831	336.06
381.057	323.06
381.282	312.06
381.507	316.06
381.733	314.06
381.958	336.06
382.184	329.06
382.409	329.06
382.634	326.06
382.86	321.06
383.085	316.06
383.31	326.06
383.535	339.06
383.761	320.06
383.986	341.06
384.211	337.06
384.436	321.06
384.662	319.06
384.887	329.06
385.112	320.06
385.337	327.06
385.562	342.06
385.787	346.06
386.013	360.06
386.238	368.06
386.463	339.06
386.688	356.06
386.913	329.06
387.138	345.06
387.363	330.06
387.588	369.06
387.813	340.06
388.038	345.06
388.263	344.06
388.488	331.06
388.713	350.06
388.938	342.06
389.163	313.06
389.387	338.06
389.612	334.06
389.837	330.06
390.062	333.06
390.287	340.06
390.512	330.06
390.736	341.06
390.961	320.06
391.186	330.06
391.411	340.06
391.636	354.06
391.86	350.06
392.085	343.06
392.31	354.06
392.534	341.06
392.759	344.06
392.984	326.06
393.208	339.06
393.433	351.06
393.658	348.06
393.882	327.06
394.107	340.06
394.331	341.06
394.556	353.06
394.78	332.06
395.005	345.06
395.229	344.06
395.454	339.06
395.678	337.06
395.903	350.06
396.127	384.06
396.352	380.06
396.576	361.06
396.801	351.06
397.025	372.06
397.249	376.06
397.474	362.06
397.698	360.06
397.922	364.06
398.147	373.06
398.371	390.06
398.595	376.06
398.82	378.06
399.044	365.06
399.268	398.06
399.492	404.06
399.717	413.06
399.941	419.06
400.165	440.06
400.389	486.06
400.613	446.06
400.837	422.06
401.062	398.06
401.286	392.06
401.51	396.06
401.734	400.06
401.958	389.06
402.182	410.06
402.406	422.06
402.63	419.06
402.854	408.06
403.078	395.06
403.302	390.06
403.526	411.06
403.75	394.06
403.974	409.06
404.198	406.06
404.422	414.06
404.645	413.06
404.869	426.06
405.093	422.06
405.317	456.06
405.541	486.06
405.765	457.06
405.988	420.06
406.212	461.06
406.436	509.06
406.66	508.06
406.883	461.06
407.107	480.06
407.331	524.06
407.555	566.06
407.778	579.06
408.002	512.06
408.226	483.06
408.449	471.06
408.673	459.06
408.896	483.06
409.12	513.06
409.344	512.06
409.567	439.06
409.791	438.06
410.014	411.06
410.238	419.06
410.461	406.06
410.685	422.06
410.908	432.06
411.132	458.06
411.355	496.06
411.578	489.06
411.802	426.06
412.025	424.06
412.249	407.06
412.472	418.06
412.695	419.06
412.919	415.06
413.142	394.06
413.365	384.06
413.589	385.06
413.812	381.06
414.035	372.06
414.258	388.06
414.482	380.06
414.705	386.06
414.928	377.06
415.151	385.06
415.374	392.06
415.597	368.06
415.821	381.06
416.044	393.06
416.267	409.06
416.49	403.06
416.713	396.06
416.936	388.06
417.159	390.06
417.382	378.06
417.605	401.06
417.828	425.06
418.051	423.06
418.274	401.06
418.497	401.06
418.72	404.06
418.943	392.06
419.166	409.06
419.389	413.06
419.611	425.06
419.834	393.06
420.057	395.06
420.28	430.06
420.503	413.06
420.726	401.06
420.948	453.06
421.171	477.06
421.394	521.06
421.617	474.06
421.839	420.06
422.062	425.06
422.285	439.06
422.507	488.06
422.73	560.06
422.953	562.06
423.175	467.06
423.398	452.06
423.621	444.06
423.843	459.06
424.066	492.06
424.288	475.06
424.511	484.06
424.733	553.06
424.956	616.06
425.178	614.06
425.401	603.06
425.623	608.06
425.846	542.06
426.068	491.06
426.291	491.06
426.513	484.06
426.735	524.06
426.958	544.06
427.18	623.06
427.402	747.06
427.625	837.06
427.847	762.06
428.069	633.06
428.292	568.06
428.514	530.06
428.736	499.06
428.958	476.06
429.181	473.06
429.403	454.06
429.625	476.06
429.847	546.06
430.069	594.06
430.292	564.06
430.514	498.06
430.736	460.06
430.958	460.06
431.18	429.06
431.402	418.06
431.624	423.06
431.846	418.06
432.068	394.06
432.29	404.06
432.512	418.06
432.734	456.06
432.956	428.06
433.178	444.06
433.4	452.06
433.622	419.06
433.844	404.06
434.066	421.06
434.287	412.06
434.509	414.06
434.731	421.06
434.953	435.06
435.175	445.06
435.397	488.06
435.618	498.06
435.84	530.06
436.062	624.06
436.284	706.06
436.505	573.06
436.727	525.06
436.949	475.06
437.17	470.06
437.392	457.06
437.614	490.06
437.835	496.06
438.057	637.06
438.278	709.06
438.5	728.06
438.721	784.06
438.943	743.06
439.165	624.06
439.386	550.06
439.608	540.06
439.829	492.06
440.05	552.06
440.272	606.06
440.493	575.06
440.715	520.06
440.936	483.06
441.158	477.06
441.379	464.06
441.6	493.06
441.822	489.06
442.043	568.06
442.264	620.06
442.486	642.06
442.707	568.06
442.928	537.06
443.149	517.06
443.371	543.06
443.592	580.06
443.813	644.06
444.034	728.06
444.255	599.06
444.476	512.06
444.698	497.06
444.919	491.06
445.14	579.06
445.361	552.06
445.582	544.06
445.803	634.06
446.024	732.06
446.245	711.06
446.466	649.06
446.687	554.06
446.908	532.06
447.129	486.06
447.35	494.06
447.571	470.06
447.792	466.06
448.013	459.06
448.234	492.06
448.455	563.06
448.675	615.06
448.896	742.06
449.117	648.06
449.338	624.06
449.559	715.06
449.779	796.06
450	652.06
450.221	545.06
450.442	500.06
450.662	466.06
450.883	510.06
451.104	527.06
451.324	504.06
451.545	480.06
451.766	444.06
451.986	410.06
452.207	407.06
452.428	412.06
452.648	449.06
452.869	427.06
453.089	439.06
453.31	466.06
453.53	439.06
453.751	434.06
453.971	440.06
454.192	466.06
454.412	468.06
454.633	430.06
454.853	431.06
455.073	432.06
455.294	452.06
455.514	509.06
455.734	529.06
455.955	424.06
456.175	409.06
456.395	374.06
456.616	380.06
456.836	393.06
457.056	368.06
457.276	362.06
457.497	397.06
457.717	392.06
457.937	399.06
458.157	404.06
458.377	398.06
458.598	430.06
458.818	526.06
459.038	622.06
459.258	612.06
459.478	515.06
459.698	467.06
459.918	432.06
460.138	438.06
460.358	420.06
460.578	416.06
460.798	400.06
461.018	437.06
461.238	425.06
461.458	408.06
461.678	403.06
461.898	429.06
462.118	414.06
462.338	413.06
462.558	405.06
462.777	414.06
462.997	424.06
463.217	427.06
463.437	417.06
463.657	413.06
463.876	432.06
464.096	412.06
464.316	426.06
464.536	449.06
464.755	459.06
464.975	445.06
465.195	530.06
465.414	650.06
465.634	581.06
465.854	484.06
466.073	462.06
466.293	434.06
466.512	420.06
466.732	411.06
466.951	420.06
467.171	434.06
467.391	423.06
467.61	424.06
467.829	464.06
468.049	433.06
468.268	418.06
468.488	408.06
468.707	396.06
468.927	410.06
469.146	393.06
469.365	398.06
469.585	411.06
469.804	414.06
470.023	449.06
470.243	421.06
470.462	416.06
470.681	456.06
470.901	464.06
471.12	436.06
471.339	428.06
471.558	423.06
471.777	445.06
471.997	412.06
472.216	402.06
472.435	410.06
472.654	398.06
472.873	408.06
473.092	405.06
473.311	423.06
473.53	418.06
473.749	444.06
473.968	496.06
474.187	581.06
474.406	650.06
474.625	504.06
474.844	453.06
475.063	436.06
475.282	415.06
475.501	440.06
475.72	418.06
475.939	432.06
476.158	427.06
476.377	411.06
476.596	445.06
476.814	439.06
477.033	448.06
477.252	454.06
477.471	454.06
477.69	431.06
477.908	452.06
478.127	450.06
478.346	442.06
478.564	441.06
478.783	445.06
479.002	451.06
479.22	473.06
479.439	500.06
479.658	529.06
479.876	533.06
480.095	503.06
480.313	526.06
480.532	521.06
480.751	498.06
480.969	493.06
481.188	510.06
481.406	544.06
481.624	508.06
481.843	485.06
482.061	471.06
482.28	486.06
482.498	504.06
482.717	473.06
482.935	482.06
483.153	491.06
483.372	503.06
483.59	512.06
483.808	503.06
484.027	493.06
484.245	501.06
484.463	493.06
484.681	506.06
484.9	510.06
485.118	533.06
485.336	508.06
485.554	528.06
485.772	533.06
485.99	530.06
486.209	534.06
486.427	554.06
486.645	560.06
486.863	539.06
487.081	540.06
487.299	564.06
487.517	534.06
487.735	544.06
487.953	552.06
488.171	566.06
488.389	547.06
488.607	532.06
488.825	566.06
489.043	538.06
489.261	549.06
489.479	554.06
489.696	560.06
489.914	583.06
490.132	591.06
490.35	584.06
490.568	578.06
490.786	580.06
491.003	573.06
491.221	580.06
491.439	586.06
491.657	597.06
491.874	612.06
492.092	627.06
492.31	608.06
492.527	613.06
492.745	633.06
492.963	648.06
493.18	648.06
493.398	636.06
493.615	643.06
493.833	657.06
494.05	640.06
494.268	638.06
494.485	644.06
494.703	658.06
494.92	660.06
495.138	663.06
495.355	662.06
495.573	670.06
495.79	659.06
496.008	659.06
496.225	644.06
496.442	664.06
496.66	675.06
496.877	655.06
497.094	676.06
497.312	667.06
497.529	663.06
497.746	665.06
497.963	680.06
498.181	724.06
498.398	718.06
498.615	700.06
498.832	737.06
499.049	715.06
499.267	716.06
499.484	709.06
499.701	746.06
499.918	743.06
500.135	775.06
500.352	773.06
500.569	753.06
500.786	768.06
501.003	773.06
501.22	777.06
501.437	744.06
501.654	766.06
501.871	795.06
502.088	769.06
502.305	755.06
502.522	717.06
502.739	684.06
502.956	680.06
503.172	683.06
503.389	687.06
503.606	711.06
503.823	685.06
504.04	682.06
504.256	672.06
504.473	670.06
504.69	658.06
504.907	654.06
505.123	640.06
505.34	662.06
505.557	636.06
505.773	654.06
505.99	660.06
506.207	640.06
506.423	663.06
506.64	647.06
506.856	650.06
507.073	644.06
507.289	650.06
507.506	644.06
507.722	673.06
507.939	714.06
508.155	670.06
508.372	644.06
508.588	648.06
508.805	635.06
509.021	640.06
509.238	636.06
509.454	667.06
509.67	654.06
509.887	652.06
510.103	638.06
510.319	664.06
510.536	810.06
510.752	1490.06
510.968	1220.06
511.184	741.06
511.401	672.06
511.617	635.06
511.833	633.06
512.049	613.06
512.265	607.06
512.481	620.06
512.698	624.06
512.914	625.06
513.13	610.06
513.346	635.06
513.562	628.06
513.778	635.06
513.994	661.06
514.21	684.06
514.426	725.06
514.642	777.06
514.858	806.06
515.074	886.06
515.29	1125.06
515.506	1778.06
515.721	1430.06
515.937	859.06
516.153	760.06
516.369	695.06
516.585	652.06
516.801	660.06
517.016	648.06
517.232	632.06
517.448	634.06
517.664	637.06
517.879	618.06
518.095	630.06
518.311	620.06
518.527	611.06
518.742	626.06
518.958	608.06
519.173	626.06
519.389	642.06
519.605	629.06
519.82	633.06
520.036	684.06
520.251	719.06
520.467	765.06
520.682	746.06
520.898	772.06
521.113	790.06
521.329	898.06
521.544	1074.06
521.76	1392.06
521.975	2446.06
522.19	2364.06
522.406	1197.06
522.621	859.06
522.836	725.06
523.052	650.06
523.267	635.06
523.482	602.06
523.698	626.06
523.913	621.06
524.128	595.06
524.343	578.06
524.559	547.06
524.774	555.06
524.989	537.06
525.204	546.06
525.419	548.06
525.634	543.06
525.849	531.06
526.064	502.06
526.28	492.06
526.495	475.06
526.71	503.06
526.925	501.06
527.14	504.06
527.355	486.06
527.57	486.06
527.785	473.06
527.999	488.06
528.214	477.06
528.429	494.06
528.644	503.06
528.859	477.06
529.074	506.06
529.289	544.06
529.503	655.06
529.718	632.06
529.933	560.06
530.148	509.06
530.363	503.06
530.577	479.06
530.792	473.06
531.007	459.06
531.221	476.06
531.436	467.06
531.651	472.06
531.865	463.06
532.08	457.06
532.295	465.06
532.509	469.06
532.724	446.06
532.938	436.06
533.153	463.06
533.367	442.06
533.582	470.06
533.796	434.06
534.011	441.06
534.225	449.06
534.44	428.06
534.654	452.06
534.868	440.06
535.083	451.06
535.297	465.06
535.511	457.06
535.726	473.06
535.94	467.06
536.154	449.06
536.369	444.06
536.583	458.06
536.797	436.06
537.011	427.06
537.225	453.06
537.44	442.06
537.654	442.06
537.868	434.06
538.082	442.06
538.296	444.06
538.51	444.06
538.724	426.06
538.938	436.06
539.153	447.06
539.367	461.06
539.581	483.06
539.795	451.06
540.009	421.06
540.222	441.06
540.436	436.06
540.65	418.06
540.864	431.06
541.078	449.06
541.292	463.06
541.506	457.06
541.72	434.06
541.934	444.06
542.147	428.06
542.361	430.06
542.575	421.06
542.789	412.06
543.002	421.06
543.216	392.06
543.43	436.06
543.644	434.06
543.857	432.06
544.071	426.06
544.285	428.06
544.498	413.06
544.712	408.06
544.925	397.06
545.139	416.06
545.352	403.06
545.566	413.06
545.779	410.06
545.993	401.06
546.206	398.06
546.42	410.06
546.633	389.06
546.847	407.06
547.06	400.06
547.274	386.06
547.487	380.06
547.7	397.06
547.914	405.06
548.127	401.06
548.34	395.06
548.554	385.06
548.767	392.06
548.98	416.06
549.193	404.06
549.407	371.06
549.62	389.06
549.833	385.06
550.046	370.06
550.259	389.06
550.473	377.06
550.686	393.06
550.899	381.06
551.112	375.06
551.325	377.06
551.538	378.06
551.751	376.06
551.964	390.06
552.177	382.06
552.39	390.06
552.603	392.06
552.816	388.06
553.029	396.06
553.242	386.06
553.455	401.06
553.667	394.06
553.88	402.06
554.093	409.06
554.306	404.06
554.519	386.06
554.732	395.06
554.944	382.06
555.157	380.06
555.37	373.06
555.583	373.06
555.795	358.06
556.008	383.06
556.221	358.06
556.433	355.06
556.646	383.06
556.859	374.06
557.071	361.06
557.284	366.06
557.496	360.06
557.709	374.06
557.921	376.06
558.134	338.06
558.346	348.06
558.559	343.06
558.771	353.06
558.984	344.06
559.196	355.06
559.409	349.06
559.621	353.06
559.833	345.06
560.046	361.06
560.258	356.06
560.47	357.06
560.683	356.06
560.895	348.06
561.107	338.06
561.32	348.06
561.532	357.06
561.744	339.06
561.956	360.06
562.168	347.06
562.381	359.06
562.593	358.06
562.805	364.06
563.017	344.06
563.229	342.06
563.441	361.06
563.653	356.06
563.865	357.06
564.077	352.06
564.289	354.06
564.501	365.06
564.713	355.06
564.925	362.06
565.137	386.06
565.349	382.06
565.561	377.06
565.773	374.06
565.985	368.06
566.197	371.06
566.408	365.06
566.62	384.06
566.832	372.06
567.044	374.06
567.255	388.06
567.467	381.06
567.679	372.06
567.891	381.06
568.102	361.06
568.314	376.06
568.526	384.06
568.737	365.06
568.949	376.06
569.161	360.06
569.372	361.06
569.584	323.06
569.795	347.06
570.007	339.06
570.218	416.06
570.43	388.06
570.641	358.06
570.853	313.06
571.064	344.06
571.276	340.06
571.487	340.06
571.698	325.06
571.91	316.06
572.121	312.06
572.333	295.06
572.544	315.06
572.755	320.06
572.966	319.06
573.178	305.06
573.389	300.06
573.6	318.06
573.811	315.06
574.023	325.06
574.234	314.06
574.445	301.06
574.656	300.06
574.867	301.06
575.078	290.06
575.289	291.06
575.501	294.06
575.712	299.06
575.923	296.06
576.134	310.06
576.345	302.06
576.556	291.06
576.767	282.06
576.978	307.06
577.188	304.06
577.399	296.06
577.61	294.06
577.821	300.06
578.032	301.06
578.243	360.06
578.454	691.06
578.665	486.06
578.875	313.06
579.086	294.06
579.297	293.06
579.508	291.06
579.718	287.06
579.929	289.06
580.14	265.06
580.35	299.06
580.561	285.06
580.772	280.06
580.982	289.06
581.193	269.06
581.403	256.06
581.614	285.06
581.825	291.06
582.035	265.06
582.246	271.06
582.456	265.06
582.667	284.06
582.877	285.06
583.087	252.06
583.298	279.06
583.508	296.06
583.719	269.06
583.929	282.06
584.139	275.06
584.35	280.06
584.56	286.06
584.77	271.06
584.981	274.06
585.191	269.06
585.401	290.06
585.611	272.06
585.821	258.06
586.032	269.06
586.242	257.06
586.452	268.06
586.662	278.06
586.872	277.06
587.082	270.06
587.292	251.06
587.502	263.06
587.713	277.06
587.923	254.06
588.133	273.06
588.343	268.06
588.553	260.06
588.762	250.06
588.972	263.06
589.182	303.06
589.392	302.06
589.602	274.06
589.812	294.06
590.022	285.06
590.232	275.06
590.441	265.06
590.651	268.06
590.861	237.06
591.071	262.06
591.281	258.06
591.49	263.06
591.7	268.06
591.91	263.06
592.119	245.06
592.329	268.06
592.539	291.06
592.748	268.06
592.958	260.06
593.167	250.06
593.377	233.06
593.587	267.06
593.796	266.06
594.006	270.06
594.215	266.06
594.424	266.06
594.634	268.06
594.843	258.06
595.053	241.06
595.262	271.06
595.472	267.06
595.681	259.06
595.89	251.06
596.1	248.06
596.309	241.06
596.518	274.06
596.727	266.06
596.937	232.06
597.146	254.06
597.355	242.06
597.564	262.06
597.774	229.06
597.983	236.06
598.192	240.06
598.401	228.06
598.61	239.06
598.819	236.06
599.028	246.06
599.237	231.06
599.446	243.06
599.655	234.06
599.864	252.06
600.073	265.06
600.282	240.06
600.491	224.06
600.7	258.06
600.909	228.06
601.118	231.06
601.327	228.06
601.536	230.06
601.745	236.06
601.953	235.06
602.162	221.06
602.371	220.06
602.58	212.06
602.789	231.06
602.997	246.06
603.206	228.06
603.415	238.06
603.623	237.06
603.832	211.06
604.041	250.06
604.249	224.06
604.458	223.06
604.666	211.06
604.875	212.06
605.084	234.06
605.292	227.06
605.501	218.06
605.709	231.06
605.918	231.06
606.126	226.06
606.334	228.06
606.543	236.06
606.751	225.06
606.96	222.06
607.168	227.06
607.376	228.06
607.585	221.06
607.793	214.06
608.001	211.06
608.21	203.06
608.418	217.06
608.626	226.06
608.834	217.06
609.043	215.06
609.251	233.06
609.459	223.06
609.667	222.06
609.875	212.06
610.083	226.06
610.291	211.06
610.499	212.06
610.707	206.06
610.916	224.06
611.124	217.06
611.332	219.06
611.54	206.06
611.748	218.06
611.955	198.06
612.163	230.06
612.371	234.06
612.579	217.06
612.787	200.06
612.995	227.06
613.203	215.06
613.411	207.06
613.618	218.06
613.826	209.06
614.034	226.06
614.242	198.06
614.449	218.06
614.657	218.06
614.865	223.06
615.072	202.06
615.28	199.06
615.488	197.06
615.695	198.06
615.903	212.06
616.111	200.06
616.318	214.06
616.526	212.06
616.733	206.06
616.941	210.06
617.148	223.06
617.356	206.06
617.563	206.06
617.771	207.06
617.978	208.06
618.185	200.06
618.393	206.06
618.6	194.06
618.807	225.06
619.015	213.06
619.222	216.06
619.429	200.06
619.637	197.06
619.844	190.06
620.051	197.06
620.258	210.06
620.466	192.06
620.673	200.06
620.88	186.06
621.087	196.06
621.294	200.06
621.501	186.06
621.708	207.06
621.915	218.06
622.122	205.06
622.329	202.06
622.536	188.06
622.743	197.06
622.95	192.06
623.157	196.06
623.364	201.06
623.571	201.06
623.778	197.06
623.985	194.06
624.192	202.06
624.399	191.06
624.606	210.06
624.812	206.06
625.019	197.06
625.226	202.06
625.433	225.06
625.639	204.06
625.846	198.06
626.053	205.06
626.259	173.06
626.466	186.06
626.673	205.06
626.879	193.06
627.086	178.06
627.293	178.06
627.499	185.06
627.706	181.06
627.912	183.06
628.119	182.06
628.325	207.06
628.532	191.06
628.738	188.06
628.945	190.06
629.151	188.06
629.357	187.06
629.564	177.06
629.77	178.06
629.976	186.06
630.183	186.06
630.389	186.06
630.595	185.06
630.802	177.06
631.008	180.06
631.214	187.06
631.42	172.06
631.627	181.06
631.833	164.06
632.039	174.06
632.245	172.06
632.451	180.06
632.657	164.06
632.863	185.06
633.069	173.06
633.275	176.06
633.481	190.06
633.688	181.06
633.893	174.06
634.099	179.06
634.305	162.06
634.511	154.06
634.717	177.06
634.923	175.06
635.129	173.06
635.335	187.06
635.541	180.06
635.747	150.06
635.952	173.06
636.158	177.06
636.364	160.06
636.57	176.06
636.775	166.06
636.981	169.06
637.187	166.06
637.392	178.06
637.598	177.06
637.804	158.06
638.009	168.06
638.215	171.06
638.421	155.06
638.626	171.06
638.832	140.06
639.037	157.06
639.243	176.06
639.448	168.06
639.654	173.06
639.859	162.06
640.065	143.06
640.27	168.06
640.475	156.06
640.681	152.06
640.886	163.06
641.091	160.06
641.297	168.06
641.502	147.06
641.707	154.06
641.913	166.06
642.118	150.06
642.323	163.06
642.528	154.06
642.733	150.06
642.939	152.06
643.144	144.06
643.349	138.06
643.554	150.06
643.759	141.06
643.964	162.06
644.169	162.06
644.374	141.06
644.579	146.06
644.784	165.06
644.989	143.06
645.194	147.06
645.399	152.06
645.604	152.06
645.809	149.06
646.014	163.06
646.219	148.06
646.423	141.06
646.628	151.06
646.833	136.06
647.038	161.06
647.243	141.06
647.447	142.06
647.652	155.06
647.857	146.06
648.062	140.06
648.266	146.06
648.471	139.06
648.676	168.06
648.88	164.06
649.085	171.06
649.289	146.06
649.494	152.06
649.698	173.06
649.903	182.06
650.107	163.06
650.312	162.06
650.516	164.06
650.721	145.06
650.925	153.06
651.13	148.06
651.334	146.06
651.539	147.06
651.743	126.06
651.947	146.06
652.152	144.06
652.356	133.06
652.56	135.06
652.764	143.06
652.969	129.06
653.173	121.06
653.377	132.06
653.581	124.06
653.785	131.06
653.99	128.06
654.194	126.06
654.398	116.06
654.602	112.06
654.806	123.06
655.01	131.06
655.214	125.06
655.418	123.06
655.622	116.06
655.826	137.06
656.03	123.06
656.234	124.06
656.438	122.06
656.642	123.06
656.846	101.06
657.049	120.06
657.253	110.06
657.457	118.06
657.661	117.06
657.865	117.06
658.068	103.06
658.272	93.06
658.476	101.06
658.68	93.06
658.883	78.06
659.087	101.06
659.291	110.06
659.494	94.06
659.698	108.06
659.901	99.06
660.105	93.06
660.309	101.06
660.512	100.06
660.716	101.06
660.919	90.06
661.123	91.06
661.326	83.06
661.53	82.06
661.733	88.06
661.936	80.06
662.14	75.06
662.343	88.06
662.546	90.06
662.75	78.06
662.953	97.06
663.156	75.06
663.36	86.06
663.563	82.06
663.766	91.06
663.969	88.06
664.173	91.06
664.376	91.06
664.579	79.06
664.782	96.06
664.985	80.06
665.188	80.06
665.391	76.06
665.594	79.06
665.797	81.06
666	94.06
666.203	89.06
666.406	88.06
666.609	72.06
666.812	70.06
667.015	78.06
667.218	80.06
667.421	77.06
667.624	83.06
667.827	82.06
668.03	74.06
668.232	84.06
668.435	76.06
668.638	77.06
668.841	76.06
669.043	89.06
669.246	87.06
669.449	83.06
669.651	70.06
669.854	81.06
670.057	76.06
670.259	87.06
670.462	83.06
670.665	89.06
670.867	79.06
671.07	82.06
671.272	95.06
671.475	84.06
671.677	102.06
671.88	73.06
672.082	70.06
672.284	88.06
672.487	95.06
672.689	73.06
672.892	81.06
