Data from 1987.PennyLincolnUp.Lamp.En5.5.200Scan.071819.P2_HRD10591_17-16-45-972.txt Node
Date: Thu Jul 18 17:16:45 EDT 2019
User: cochatt
Spectrometer: HR+D1059
Trigger mode: 1
Integration Time (sec): 1.000000E-1
Scans to average: 1
Electric dark correction enabled: true
Nonlinearity correction enabled: false
Boxcar width: 0
XAxis mode: Wavelengths
Number of Pixels in Spectrum: 2048
>>>>>Begin Spectral Data<<<<<
223.165	-10.94
223.4	-10.94
223.635	-10.94
223.869	-19.94
224.104	-30.94
224.338	-14.94
224.573	-15.94
224.808	-13.94
225.042	0.06
225.277	-7.94
225.511	-4.94
225.746	-0.94
225.98	3.06
226.215	33.06
226.449	19.06
226.683	12.06
226.918	26.06
227.152	27.06
227.387	42.06
227.621	26.06
227.856	29.06
228.09	43.06
228.324	46.06
228.559	56.06
228.793	68.06
229.027	111.06
229.262	122.06
229.496	124.06
229.73	154.06
229.964	180.06
230.199	127.06
230.433	133.06
230.667	127.06
230.901	125.06
231.136	117.06
231.37	126.06
231.604	130.06
231.838	106.06
232.072	105.06
232.306	123.06
232.541	115.06
232.775	121.06
233.009	119.06
233.243	116.06
233.477	102.06
233.711	114.06
233.945	126.06
234.179	129.06
234.413	114.06
234.647	120.06
234.881	126.06
235.115	106.06
235.349	123.06
235.583	130.06
235.817	122.06
236.051	118.06
236.285	116.06
236.519	123.06
236.753	134.06
236.987	160.06
237.221	203.06
237.455	278.06
237.689	211.06
237.922	160.06
238.156	147.06
238.39	149.06
238.624	131.06
238.858	126.06
239.091	136.06
239.325	125.06
239.559	126.06
239.793	132.06
240.027	143.06
240.26	160.06
240.494	162.06
240.728	168.06
240.961	162.06
241.195	135.06
241.429	140.06
241.662	139.06
241.896	141.06
242.13	131.06
242.363	134.06
242.597	123.06
242.83	122.06
243.064	132.06
243.298	148.06
243.531	136.06
243.765	134.06
243.998	145.06
244.232	123.06
244.465	127.06
244.699	150.06
244.932	141.06
245.166	125.06
245.399	146.06
245.633	149.06
245.866	140.06
246.099	137.06
246.333	130.06
246.566	138.06
246.8	159.06
247.033	163.06
247.266	168.06
247.5	164.06
247.733	160.06
247.966	163.06
248.2	176.06
248.433	166.06
248.666	182.06
248.899	176.06
249.133	192.06
249.366	215.06
249.599	212.06
249.832	174.06
250.066	178.06
250.299	180.06
250.532	194.06
250.765	199.06
250.998	246.06
251.231	211.06
251.465	220.06
251.698	221.06
251.931	208.06
252.164	208.06
252.397	192.06
252.63	205.06
252.863	193.06
253.096	223.06
253.329	232.06
253.562	247.06
253.795	207.06
254.028	208.06
254.261	222.06
254.494	228.06
254.727	271.06
254.96	301.06
255.193	269.06
255.426	259.06
255.659	241.06
255.892	238.06
256.124	221.06
256.357	228.06
256.59	210.06
256.823	220.06
257.056	224.06
257.289	224.06
257.521	223.06
257.754	207.06
257.987	213.06
258.22	215.06
258.452	204.06
258.685	203.06
258.918	216.06
259.151	206.06
259.383	215.06
259.616	212.06
259.849	221.06
260.081	223.06
260.314	242.06
260.547	244.06
260.779	237.06
261.012	228.06
261.244	220.06
261.477	214.06
261.71	224.06
261.942	218.06
262.175	246.06
262.407	223.06
262.64	206.06
262.872	211.06
263.105	220.06
263.337	198.06
263.57	196.06
263.802	204.06
264.035	204.06
264.267	192.06
264.499	199.06
264.732	187.06
264.964	192.06
265.197	199.06
265.429	195.06
265.661	187.06
265.894	191.06
266.126	199.06
266.358	203.06
266.591	214.06
266.823	203.06
267.055	200.06
267.287	206.06
267.52	202.06
267.752	192.06
267.984	197.06
268.216	212.06
268.448	221.06
268.681	237.06
268.913	219.06
269.145	268.06
269.377	276.06
269.609	265.06
269.841	258.06
270.073	254.06
270.306	285.06
270.538	327.06
270.77	299.06
271.002	309.06
271.234	303.06
271.466	287.06
271.698	295.06
271.93	324.06
272.162	327.06
272.394	310.06
272.626	313.06
272.858	296.06
273.09	284.06
273.322	278.06
273.553	269.06
273.785	244.06
274.017	255.06
274.249	232.06
274.481	262.06
274.713	249.06
274.945	262.06
275.176	238.06
275.408	264.06
275.64	246.06
275.872	260.06
276.104	227.06
276.335	256.06
276.567	239.06
276.799	290.06
277.031	287.06
277.262	306.06
277.494	314.06
277.726	293.06
277.957	260.06
278.189	261.06
278.421	255.06
278.652	233.06
278.884	246.06
279.115	243.06
279.347	236.06
279.579	228.06
279.81	241.06
280.042	233.06
280.273	230.06
280.505	223.06
280.736	218.06
280.968	234.06
281.199	250.06
281.431	246.06
281.662	225.06
281.894	227.06
282.125	259.06
282.356	254.06
282.588	288.06
282.819	307.06
283.051	245.06
283.282	232.06
283.513	237.06
283.745	242.06
283.976	234.06
284.207	235.06
284.439	246.06
284.67	237.06
284.901	240.06
285.132	225.06
285.364	252.06
285.595	228.06
285.826	239.06
286.057	231.06
286.288	219.06
286.52	234.06
286.751	232.06
286.982	247.06
287.213	238.06
287.444	258.06
287.675	240.06
287.906	248.06
288.138	258.06
288.369	237.06
288.6	257.06
288.831	261.06
289.062	239.06
289.293	236.06
289.524	252.06
289.755	258.06
289.986	252.06
290.217	244.06
290.448	244.06
290.679	249.06
290.91	238.06
291.141	238.06
291.371	228.06
291.602	242.06
291.833	250.06
292.064	252.06
292.295	245.06
292.526	221.06
292.757	235.06
292.987	242.06
293.218	249.06
293.449	260.06
293.68	245.06
293.91	244.06
294.141	256.06
294.372	258.06
294.603	242.06
294.833	250.06
295.064	232.06
295.295	243.06
295.525	250.06
295.756	243.06
295.987	269.06
296.217	279.06
296.448	303.06
296.679	292.06
296.909	248.06
297.14	255.06
297.37	271.06
297.601	240.06
297.831	247.06
298.062	259.06
298.292	259.06
298.523	243.06
298.753	263.06
298.984	276.06
299.214	254.06
299.445	254.06
299.675	262.06
299.905	260.06
300.136	268.06
300.366	244.06
300.597	267.06
300.827	270.06
301.057	277.06
301.288	294.06
301.518	269.06
301.748	267.06
301.979	286.06
302.209	269.06
302.439	285.06
302.669	277.06
302.9	291.06
303.13	277.06
303.36	273.06
303.59	270.06
303.82	288.06
304.051	314.06
304.281	264.06
304.511	260.06
304.741	284.06
304.971	265.06
305.201	277.06
305.431	278.06
305.661	284.06
305.891	274.06
306.121	270.06
306.352	284.06
306.582	293.06
306.812	293.06
307.042	278.06
307.272	269.06
307.502	292.06
307.731	275.06
307.961	275.06
308.191	263.06
308.421	269.06
308.651	283.06
308.881	299.06
309.111	321.06
309.341	307.06
309.571	332.06
309.8	310.06
310.03	341.06
310.26	355.06
310.49	364.06
310.72	358.06
310.949	388.06
311.179	411.06
311.409	374.06
311.639	350.06
311.868	368.06
312.098	358.06
312.328	370.06
312.557	396.06
312.787	411.06
313.017	406.06
313.246	370.06
313.476	369.06
313.706	373.06
313.935	379.06
314.165	371.06
314.394	397.06
314.624	380.06
314.853	367.06
315.083	345.06
315.312	336.06
315.542	335.06
315.771	351.06
316.001	339.06
316.23	312.06
316.46	339.06
316.689	324.06
316.919	355.06
317.148	352.06
317.377	353.06
317.607	337.06
317.836	350.06
318.065	345.06
318.295	322.06
318.524	332.06
318.753	328.06
318.983	336.06
319.212	340.06
319.441	363.06
319.67	357.06
319.9	345.06
320.129	338.06
320.358	363.06
320.587	344.06
320.816	359.06
321.046	385.06
321.275	375.06
321.504	381.06
321.733	375.06
321.962	391.06
322.191	410.06
322.42	432.06
322.649	469.06
322.878	469.06
323.108	508.06
323.337	527.06
323.566	549.06
323.795	621.06
324.024	729.06
324.253	898.06
324.482	1282.06
324.71	2005.06
324.939	2846.06
325.168	2548.06
325.397	1316.06
325.626	820.06
325.855	690.06
326.084	596.06
326.313	549.06
326.542	590.06
326.77	626.06
326.999	776.06
327.228	1143.06
327.457	1782.06
327.686	2054.06
327.914	1472.06
328.143	937.06
328.372	778.06
328.6	704.06
328.829	652.06
329.058	678.06
329.287	704.06
329.515	624.06
329.744	543.06
329.972	530.06
330.201	531.06
330.43	553.06
330.658	631.06
330.887	708.06
331.115	687.06
331.344	543.06
331.572	513.06
331.801	509.06
332.03	485.06
332.258	454.06
332.486	409.06
332.715	432.06
332.943	407.06
333.172	395.06
333.4	378.06
333.629	419.06
333.857	411.06
334.085	404.06
334.314	411.06
334.542	394.06
334.771	411.06
334.999	402.06
335.227	406.06
335.455	399.06
335.684	371.06
335.912	376.06
336.14	376.06
336.369	379.06
336.597	416.06
336.825	413.06
337.053	399.06
337.281	380.06
337.51	396.06
337.738	397.06
337.966	396.06
338.194	389.06
338.422	397.06
338.65	366.06
338.878	396.06
339.106	388.06
339.334	377.06
339.562	358.06
339.79	359.06
340.018	372.06
340.246	376.06
340.474	362.06
340.702	386.06
340.93	388.06
341.158	361.06
341.386	404.06
341.614	406.06
341.842	374.06
342.07	350.06
342.298	375.06
342.526	367.06
342.754	358.06
342.981	354.06
343.209	342.06
343.437	359.06
343.665	356.06
343.893	351.06
344.12	352.06
344.348	366.06
344.576	375.06
344.804	396.06
345.031	402.06
345.259	437.06
345.487	422.06
345.714	399.06
345.942	382.06
346.17	361.06
346.397	372.06
346.625	380.06
346.853	388.06
347.08	364.06
347.308	384.06
347.535	383.06
347.763	413.06
347.99	390.06
348.218	409.06
348.445	416.06
348.673	400.06
348.9	389.06
349.128	368.06
349.355	336.06
349.583	362.06
349.81	362.06
350.037	355.06
350.265	370.06
350.492	356.06
350.72	378.06
350.947	384.06
351.174	404.06
351.402	406.06
351.629	391.06
351.856	395.06
352.083	405.06
352.311	419.06
352.538	412.06
352.765	429.06
352.992	404.06
353.22	402.06
353.447	387.06
353.674	372.06
353.901	367.06
354.128	359.06
354.355	357.06
354.583	350.06
354.81	355.06
355.037	340.06
355.264	339.06
355.491	327.06
355.718	332.06
355.945	311.06
356.172	344.06
356.399	332.06
356.626	332.06
356.853	334.06
357.08	337.06
357.307	349.06
357.534	325.06
357.761	321.06
357.988	342.06
358.215	335.06
358.441	342.06
358.668	356.06
358.895	353.06
359.122	366.06
359.349	374.06
359.576	374.06
359.802	405.06
360.029	474.06
360.256	483.06
360.483	459.06
360.709	436.06
360.936	401.06
361.163	396.06
361.39	407.06
361.616	394.06
361.843	383.06
362.07	382.06
362.296	384.06
362.523	383.06
362.749	373.06
362.976	381.06
363.203	365.06
363.429	382.06
363.656	380.06
363.882	352.06
364.109	352.06
364.335	359.06
364.562	356.06
364.788	362.06
365.015	373.06
365.241	364.06
365.468	350.06
365.694	364.06
365.92	362.06
366.147	353.06
366.373	367.06
366.599	348.06
366.826	343.06
367.052	350.06
367.278	339.06
367.505	346.06
367.731	355.06
367.957	351.06
368.184	351.06
368.41	366.06
368.636	375.06
368.862	384.06
369.089	376.06
369.315	343.06
369.541	359.06
369.767	348.06
369.993	336.06
370.219	348.06
370.445	343.06
370.672	331.06
370.898	326.06
371.124	327.06
371.35	350.06
371.576	346.06
371.802	319.06
372.028	336.06
372.254	345.06
372.48	324.06
372.706	349.06
372.932	334.06
373.158	342.06
373.384	351.06
373.61	332.06
373.835	349.06
374.061	340.06
374.287	339.06
374.513	342.06
374.739	338.06
374.965	332.06
375.191	343.06
375.416	326.06
375.642	347.06
375.868	342.06
376.094	344.06
376.319	307.06
376.545	325.06
376.771	341.06
376.997	330.06
377.222	330.06
377.448	333.06
377.674	334.06
377.899	330.06
378.125	333.06
378.35	336.06
378.576	335.06
378.802	348.06
379.027	307.06
379.253	343.06
379.478	361.06
379.704	324.06
379.929	331.06
380.155	355.06
380.38	335.06
380.606	341.06
380.831	338.06
381.057	342.06
381.282	341.06
381.507	335.06
381.733	350.06
381.958	342.06
382.184	347.06
382.409	351.06
382.634	347.06
382.86	336.06
383.085	336.06
383.31	356.06
383.535	341.06
383.761	352.06
383.986	351.06
384.211	335.06
384.436	344.06
384.662	364.06
384.887	357.06
385.112	349.06
385.337	339.06
385.562	335.06
385.787	349.06
386.013	366.06
386.238	366.06
386.463	365.06
386.688	342.06
386.913	330.06
387.138	340.06
387.363	331.06
387.588	350.06
387.813	348.06
388.038	366.06
388.263	368.06
388.488	364.06
388.713	342.06
388.938	336.06
389.163	355.06
389.387	350.06
389.612	371.06
389.837	358.06
390.062	361.06
390.287	365.06
390.512	345.06
390.736	349.06
390.961	354.06
391.186	360.06
391.411	365.06
391.636	353.06
391.86	339.06
392.085	372.06
392.31	370.06
392.534	344.06
392.759	334.06
392.984	360.06
393.208	358.06
393.433	366.06
393.658	336.06
393.882	334.06
394.107	337.06
394.331	356.06
394.556	364.06
394.78	370.06
395.005	354.06
395.229	349.06
395.454	353.06
395.678	365.06
395.903	385.06
396.127	400.06
396.352	398.06
396.576	385.06
396.801	380.06
397.025	370.06
397.249	380.06
397.474	379.06
397.698	388.06
397.922	398.06
398.147	416.06
398.371	410.06
398.595	382.06
398.82	398.06
399.044	384.06
399.268	388.06
399.492	393.06
399.717	411.06
399.941	472.06
400.165	474.06
400.389	500.06
400.613	465.06
400.837	446.06
401.062	419.06
401.286	413.06
401.51	407.06
401.734	415.06
401.958	428.06
402.182	404.06
402.406	410.06
402.63	424.06
402.854	406.06
403.078	405.06
403.302	421.06
403.526	422.06
403.75	429.06
403.974	411.06
404.198	427.06
404.422	451.06
404.645	446.06
404.869	423.06
405.093	442.06
405.317	493.06
405.541	519.06
405.765	491.06
405.988	474.06
406.212	483.06
406.436	532.06
406.66	520.06
406.883	492.06
407.107	510.06
407.331	548.06
407.555	611.06
407.778	573.06
408.002	546.06
408.226	509.06
408.449	492.06
408.673	480.06
408.896	543.06
409.12	549.06
409.344	519.06
409.567	483.06
409.791	446.06
410.014	428.06
410.238	410.06
410.461	440.06
410.685	445.06
410.908	476.06
411.132	482.06
411.355	508.06
411.578	495.06
411.802	463.06
412.025	422.06
412.249	439.06
412.472	431.06
412.695	446.06
412.919	454.06
413.142	439.06
413.365	420.06
413.589	419.06
413.812	391.06
414.035	411.06
414.258	404.06
414.482	401.06
414.705	399.06
414.928	409.06
415.151	380.06
415.374	407.06
415.597	393.06
415.821	407.06
416.044	408.06
416.267	412.06
416.49	408.06
416.713	400.06
416.936	424.06
417.159	409.06
417.382	440.06
417.605	404.06
417.828	450.06
418.051	460.06
418.274	454.06
418.497	427.06
418.72	440.06
418.943	419.06
419.166	418.06
419.389	443.06
419.611	452.06
419.834	431.06
420.057	450.06
420.28	441.06
420.503	436.06
420.726	444.06
420.948	466.06
421.171	503.06
421.394	553.06
421.617	448.06
421.839	455.06
422.062	458.06
422.285	502.06
422.507	546.06
422.73	595.06
422.953	587.06
423.175	530.06
423.398	474.06
423.621	495.06
423.843	497.06
424.066	508.06
424.288	488.06
424.511	501.06
424.733	571.06
424.956	658.06
425.178	631.06
425.401	654.06
425.623	646.06
425.846	546.06
426.068	515.06
426.291	548.06
426.513	527.06
426.735	552.06
426.958	591.06
427.18	661.06
427.402	802.06
427.625	865.06
427.847	820.06
428.069	691.06
428.292	596.06
428.514	539.06
428.736	515.06
428.958	526.06
429.181	476.06
429.403	482.06
429.625	486.06
429.847	530.06
430.069	617.06
430.292	624.06
430.514	510.06
430.736	482.06
430.958	501.06
431.18	430.06
431.402	437.06
431.624	422.06
431.846	439.06
432.068	434.06
432.29	442.06
432.512	451.06
432.734	450.06
432.956	442.06
433.178	464.06
433.4	456.06
433.622	454.06
433.844	431.06
434.066	434.06
434.287	415.06
434.509	439.06
434.731	430.06
434.953	460.06
435.175	495.06
435.397	488.06
435.618	517.06
435.84	562.06
436.062	646.06
436.284	706.06
436.505	602.06
436.727	559.06
436.949	493.06
437.17	499.06
437.392	486.06
437.614	489.06
437.835	576.06
438.057	662.06
438.278	783.06
438.5	768.06
438.721	815.06
438.943	778.06
439.165	623.06
439.386	593.06
439.608	570.06
439.829	580.06
440.05	576.06
440.272	631.06
440.493	598.06
440.715	551.06
440.936	534.06
441.158	495.06
441.379	492.06
441.6	506.06
441.822	530.06
442.043	592.06
442.264	660.06
442.486	710.06
442.707	570.06
442.928	559.06
443.149	564.06
443.371	582.06
443.592	618.06
443.813	695.06
444.034	757.06
444.255	641.06
444.476	546.06
444.698	530.06
444.919	524.06
445.14	618.06
445.361	592.06
445.582	607.06
445.803	667.06
446.024	751.06
446.245	780.06
446.466	709.06
446.687	599.06
446.908	547.06
447.129	491.06
447.35	518.06
447.571	511.06
447.792	481.06
448.013	490.06
448.234	533.06
448.455	603.06
448.675	682.06
448.896	788.06
449.117	683.06
449.338	636.06
449.559	748.06
449.779	812.06
450	676.06
450.221	588.06
450.442	529.06
450.662	523.06
450.883	499.06
451.104	542.06
451.324	508.06
451.545	502.06
451.766	462.06
451.986	447.06
452.207	456.06
452.428	435.06
452.648	435.06
452.869	453.06
453.089	455.06
453.31	487.06
453.53	458.06
453.751	474.06
453.971	454.06
454.192	495.06
454.412	501.06
454.633	460.06
454.853	452.06
455.073	445.06
455.294	480.06
455.514	564.06
455.734	514.06
455.955	456.06
456.175	399.06
456.395	399.06
456.616	404.06
456.836	398.06
457.056	385.06
457.276	402.06
457.497	395.06
457.717	396.06
457.937	403.06
458.157	423.06
458.377	416.06
458.598	467.06
458.818	545.06
459.038	651.06
459.258	669.06
459.478	550.06
459.698	470.06
459.918	464.06
460.138	453.06
460.358	428.06
460.578	427.06
460.798	413.06
461.018	412.06
461.238	417.06
461.458	416.06
461.678	411.06
461.898	404.06
462.118	440.06
462.338	416.06
462.558	422.06
462.777	428.06
462.997	439.06
463.217	439.06
463.437	456.06
463.657	424.06
463.876	429.06
464.096	425.06
464.316	460.06
464.536	459.06
464.755	469.06
464.975	466.06
465.195	564.06
465.414	704.06
465.634	600.06
465.854	523.06
466.073	486.06
466.293	462.06
466.512	444.06
466.732	459.06
466.951	429.06
467.171	402.06
467.391	446.06
467.61	456.06
467.829	481.06
468.049	463.06
468.268	444.06
468.488	439.06
468.707	441.06
468.927	420.06
469.146	437.06
469.365	416.06
469.585	394.06
469.804	416.06
470.023	455.06
470.243	456.06
470.462	448.06
470.681	494.06
470.901	477.06
471.12	459.06
471.339	453.06
471.558	464.06
471.777	430.06
471.997	434.06
472.216	431.06
472.435	440.06
472.654	436.06
472.873	426.06
473.092	447.06
473.311	414.06
473.53	460.06
473.749	455.06
473.968	509.06
474.187	632.06
474.406	636.06
474.625	511.06
474.844	471.06
475.063	456.06
475.282	447.06
475.501	450.06
475.72	443.06
475.939	463.06
476.158	443.06
476.377	464.06
476.596	477.06
476.814	451.06
477.033	478.06
477.252	488.06
477.471	454.06
477.69	459.06
477.908	486.06
478.127	476.06
478.346	490.06
478.564	466.06
478.783	483.06
479.002	489.06
479.22	491.06
479.439	499.06
479.658	529.06
479.876	552.06
480.095	531.06
480.313	568.06
480.532	544.06
480.751	535.06
480.969	520.06
481.188	539.06
481.406	558.06
481.624	528.06
481.843	523.06
482.061	534.06
482.28	509.06
482.498	487.06
482.717	520.06
482.935	514.06
483.153	493.06
483.372	532.06
483.59	536.06
483.808	513.06
484.027	510.06
484.245	498.06
484.463	510.06
484.681	529.06
484.9	544.06
485.118	536.06
485.336	535.06
485.554	549.06
485.772	527.06
485.99	535.06
486.209	556.06
486.427	545.06
486.645	580.06
486.863	601.06
487.081	592.06
487.299	562.06
487.517	586.06
487.735	571.06
487.953	556.06
488.171	574.06
488.389	571.06
488.607	579.06
488.825	553.06
489.043	576.06
489.261	568.06
489.479	588.06
489.696	577.06
489.914	587.06
490.132	590.06
490.35	602.06
490.568	613.06
490.786	617.06
491.003	617.06
491.221	635.06
491.439	640.06
491.657	644.06
491.874	685.06
492.092	664.06
492.31	650.06
492.527	650.06
492.745	661.06
492.963	670.06
493.18	685.06
493.398	656.06
493.615	708.06
493.833	668.06
494.05	668.06
494.268	673.06
494.485	683.06
494.703	672.06
494.92	692.06
495.138	702.06
495.355	686.06
495.573	688.06
495.79	678.06
496.008	699.06
496.225	679.06
496.442	693.06
496.66	698.06
496.877	711.06
497.094	687.06
497.312	701.06
497.529	718.06
497.746	696.06
497.963	700.06
498.181	747.06
498.398	747.06
498.615	724.06
498.832	715.06
499.049	733.06
499.267	722.06
499.484	751.06
499.701	744.06
499.918	785.06
500.135	774.06
500.352	805.06
500.569	781.06
500.786	795.06
501.003	794.06
501.22	777.06
501.437	796.06
501.654	798.06
501.871	847.06
502.088	813.06
502.305	770.06
502.522	776.06
502.739	738.06
502.956	730.06
503.172	736.06
503.389	728.06
503.606	704.06
503.823	724.06
504.04	722.06
504.256	703.06
504.473	677.06
504.69	709.06
504.907	699.06
505.123	679.06
505.34	670.06
505.557	681.06
505.773	667.06
505.99	675.06
506.207	720.06
506.423	699.06
506.64	697.06
506.856	682.06
507.073	677.06
507.289	682.06
507.506	668.06
507.722	692.06
507.939	747.06
508.155	700.06
508.372	696.06
508.588	656.06
508.805	684.06
509.021	692.06
509.238	696.06
509.454	683.06
509.67	681.06
509.887	658.06
510.103	684.06
510.319	713.06
510.536	847.06
510.752	1611.06
510.968	1297.06
511.184	764.06
511.401	694.06
511.617	676.06
511.833	660.06
512.049	651.06
512.265	638.06
512.481	648.06
512.698	639.06
512.914	655.06
513.13	657.06
513.346	639.06
513.562	666.06
513.778	681.06
513.994	686.06
514.21	690.06
514.426	752.06
514.642	828.06
514.858	886.06
515.074	949.06
515.29	1196.06
515.506	1858.06
515.721	1538.06
515.937	939.06
516.153	819.06
516.369	774.06
516.585	726.06
516.801	686.06
517.016	698.06
517.232	667.06
517.448	639.06
517.664	663.06
517.879	666.06
518.095	647.06
518.311	636.06
518.527	668.06
518.742	651.06
518.958	658.06
519.173	660.06
519.389	667.06
519.605	658.06
519.82	669.06
520.036	691.06
520.251	726.06
520.467	800.06
520.682	813.06
520.898	813.06
521.113	895.06
521.329	993.06
521.544	1166.06
521.76	1509.06
521.975	2632.06
522.19	2583.06
522.406	1344.06
522.621	899.06
522.836	804.06
523.052	736.06
523.267	678.06
523.482	669.06
523.698	625.06
523.913	643.06
524.128	649.06
524.343	604.06
524.559	562.06
524.774	576.06
524.989	580.06
525.204	580.06
525.419	598.06
525.634	553.06
525.849	543.06
526.064	542.06
526.28	541.06
526.495	531.06
526.71	518.06
526.925	486.06
527.14	505.06
527.355	516.06
527.57	522.06
527.785	523.06
527.999	483.06
528.214	494.06
528.429	516.06
528.644	511.06
528.859	491.06
529.074	509.06
529.289	570.06
529.503	698.06
529.718	695.06
529.933	595.06
530.148	545.06
530.363	551.06
530.577	517.06
530.792	503.06
531.007	475.06
531.221	480.06
531.436	493.06
531.651	483.06
531.865	483.06
532.08	492.06
532.295	477.06
532.509	463.06
532.724	462.06
532.938	479.06
533.153	483.06
533.367	459.06
533.582	469.06
533.796	458.06
534.011	453.06
534.225	454.06
534.44	457.06
534.654	458.06
534.868	463.06
535.083	454.06
535.297	459.06
535.511	473.06
535.726	492.06
535.94	490.06
536.154	488.06
536.369	482.06
536.583	448.06
536.797	463.06
537.011	473.06
537.225	425.06
537.44	435.06
537.654	453.06
537.868	459.06
538.082	458.06
538.296	466.06
538.51	452.06
538.724	442.06
538.938	459.06
539.153	449.06
539.367	461.06
539.581	483.06
539.795	472.06
540.009	446.06
540.222	447.06
540.436	426.06
540.65	434.06
540.864	454.06
541.078	465.06
541.292	457.06
541.506	460.06
541.72	441.06
541.934	455.06
542.147	442.06
542.361	431.06
542.575	418.06
542.789	447.06
543.002	445.06
543.216	439.06
543.43	455.06
543.644	448.06
543.857	443.06
544.071	436.06
544.285	444.06
544.498	427.06
544.712	440.06
544.925	422.06
545.139	406.06
545.352	390.06
545.566	419.06
545.779	404.06
545.993	410.06
546.206	429.06
546.42	413.06
546.633	418.06
546.847	405.06
547.06	418.06
547.274	427.06
547.487	432.06
547.7	412.06
547.914	392.06
548.127	392.06
548.34	389.06
548.554	388.06
548.767	422.06
548.98	411.06
549.193	399.06
549.407	403.06
549.62	396.06
549.833	398.06
550.046	402.06
550.259	395.06
550.473	414.06
550.686	400.06
550.899	377.06
551.112	400.06
551.325	412.06
551.538	388.06
551.751	400.06
551.964	384.06
552.177	399.06
552.39	392.06
552.603	398.06
552.816	389.06
553.029	399.06
553.242	397.06
553.455	419.06
553.667	416.06
553.88	449.06
554.093	408.06
554.306	419.06
554.519	411.06
554.732	398.06
554.944	385.06
555.157	398.06
555.37	381.06
555.583	396.06
555.795	398.06
556.008	383.06
556.221	382.06
556.433	377.06
556.646	359.06
556.859	358.06
557.071	363.06
557.284	376.06
557.496	364.06
557.709	378.06
557.921	381.06
558.134	378.06
558.346	372.06
558.559	355.06
558.771	346.06
558.984	378.06
559.196	357.06
559.409	374.06
559.621	373.06
559.833	368.06
560.046	350.06
560.258	356.06
560.47	371.06
560.683	347.06
560.895	347.06
561.107	338.06
561.32	343.06
561.532	335.06
561.744	349.06
561.956	371.06
562.168	356.06
562.381	362.06
562.593	363.06
562.805	351.06
563.017	348.06
563.229	353.06
563.441	371.06
563.653	369.06
563.865	362.06
564.077	342.06
564.289	358.06
564.501	362.06
564.713	375.06
564.925	370.06
565.137	385.06
565.349	365.06
565.561	378.06
565.773	384.06
565.985	362.06
566.197	363.06
566.408	397.06
566.62	390.06
566.832	392.06
567.044	379.06
567.255	381.06
567.467	391.06
567.679	382.06
567.891	399.06
568.102	388.06
568.314	373.06
568.526	388.06
568.737	390.06
568.949	373.06
569.161	373.06
569.372	371.06
569.584	351.06
569.795	342.06
570.007	366.06
570.218	452.06
570.43	417.06
570.641	356.06
570.853	351.06
571.064	316.06
571.276	327.06
571.487	330.06
571.698	332.06
571.91	328.06
572.121	329.06
572.333	315.06
572.544	303.06
572.755	328.06
572.966	344.06
573.178	339.06
573.389	311.06
573.6	312.06
573.811	311.06
574.023	316.06
574.234	316.06
574.445	318.06
574.656	300.06
574.867	326.06
575.078	333.06
575.289	310.06
575.501	314.06
575.712	303.06
575.923	308.06
576.134	314.06
576.345	297.06
576.556	298.06
576.767	320.06
576.978	311.06
577.188	330.06
577.399	315.06
577.61	304.06
577.821	301.06
578.032	336.06
578.243	378.06
578.454	758.06
578.665	527.06
578.875	335.06
579.086	329.06
579.297	304.06
579.508	280.06
579.718	300.06
579.929	287.06
580.14	297.06
580.35	281.06
580.561	301.06
580.772	275.06
580.982	293.06
581.193	280.06
581.403	291.06
581.614	298.06
581.825	280.06
582.035	287.06
582.246	298.06
582.456	282.06
582.667	271.06
582.877	280.06
583.087	283.06
583.298	287.06
583.508	288.06
583.719	287.06
583.929	290.06
584.139	284.06
584.35	287.06
584.56	297.06
584.77	272.06
584.981	288.06
585.191	278.06
585.401	283.06
585.611	286.06
585.821	281.06
586.032	284.06
586.242	279.06
586.452	300.06
586.662	262.06
586.872	278.06
587.082	273.06
587.292	278.06
587.502	276.06
587.713	292.06
587.923	293.06
588.133	271.06
588.343	259.06
588.553	268.06
588.762	284.06
588.972	268.06
589.182	291.06
589.392	282.06
589.602	278.06
589.812	259.06
590.022	277.06
590.232	270.06
590.441	274.06
590.651	287.06
590.861	263.06
591.071	255.06
591.281	287.06
591.49	285.06
591.7	284.06
591.91	272.06
592.119	278.06
592.329	280.06
592.539	279.06
592.748	275.06
592.958	273.06
593.167	249.06
593.377	283.06
593.587	298.06
593.796	269.06
594.006	254.06
594.215	270.06
594.424	274.06
594.634	276.06
594.843	247.06
595.053	267.06
595.262	265.06
595.472	263.06
595.681	256.06
595.89	266.06
596.1	266.06
596.309	259.06
596.518	248.06
596.727	255.06
596.937	274.06
597.146	261.06
597.355	273.06
597.564	246.06
597.774	258.06
597.983	254.06
598.192	248.06
598.401	220.06
598.61	248.06
598.819	254.06
599.028	268.06
599.237	234.06
599.446	254.06
599.655	260.06
599.864	245.06
600.073	228.06
600.282	254.06
600.491	251.06
600.7	250.06
600.909	258.06
601.118	241.06
601.327	219.06
601.536	253.06
601.745	235.06
601.953	230.06
602.162	222.06
602.371	236.06
602.58	219.06
602.789	233.06
602.997	246.06
603.206	266.06
603.415	229.06
603.623	245.06
603.832	227.06
604.041	230.06
604.249	225.06
604.458	245.06
604.666	231.06
604.875	244.06
605.084	253.06
605.292	226.06
605.501	220.06
605.709	227.06
605.918	211.06
606.126	234.06
606.334	232.06
606.543	238.06
606.751	208.06
606.96	230.06
607.168	217.06
607.376	209.06
607.585	222.06
607.793	211.06
608.001	210.06
608.21	202.06
608.418	228.06
608.626	220.06
608.834	221.06
609.043	243.06
609.251	217.06
609.459	217.06
609.667	216.06
609.875	217.06
610.083	211.06
610.291	212.06
610.499	213.06
610.707	233.06
610.916	214.06
611.124	205.06
611.332	234.06
611.54	213.06
611.748	227.06
611.955	212.06
612.163	207.06
612.371	207.06
612.579	214.06
612.787	237.06
612.995	218.06
613.203	219.06
613.411	212.06
613.618	237.06
613.826	217.06
614.034	212.06
614.242	211.06
614.449	215.06
614.657	214.06
614.865	205.06
615.072	221.06
615.28	212.06
615.488	201.06
615.695	198.06
615.903	226.06
616.111	207.06
616.318	214.06
616.526	211.06
616.733	204.06
616.941	214.06
617.148	210.06
617.356	226.06
617.563	206.06
617.771	231.06
617.978	202.06
618.185	213.06
618.393	211.06
618.6	208.06
618.807	223.06
619.015	212.06
619.222	215.06
619.429	213.06
619.637	216.06
619.844	210.06
620.051	221.06
620.258	213.06
620.466	204.06
620.673	220.06
620.88	204.06
621.087	198.06
621.294	207.06
621.501	204.06
621.708	200.06
621.915	220.06
622.122	194.06
622.329	206.06
622.536	195.06
622.743	212.06
622.95	188.06
623.157	207.06
623.364	230.06
623.571	199.06
623.778	200.06
623.985	194.06
624.192	203.06
624.399	204.06
624.606	213.06
624.812	196.06
625.019	191.06
625.226	208.06
625.433	207.06
625.639	195.06
625.846	199.06
626.053	210.06
626.259	195.06
626.466	211.06
626.673	204.06
626.879	196.06
627.086	192.06
627.293	188.06
627.499	191.06
627.706	194.06
627.912	194.06
628.119	196.06
628.325	197.06
628.532	196.06
628.738	190.06
628.945	189.06
629.151	182.06
629.357	201.06
629.564	190.06
629.77	184.06
629.976	182.06
630.183	193.06
630.389	192.06
630.595	182.06
630.802	196.06
631.008	175.06
631.214	186.06
631.42	200.06
631.627	190.06
631.833	185.06
632.039	205.06
632.245	178.06
632.451	180.06
632.657	182.06
632.863	161.06
633.069	190.06
633.275	182.06
633.481	175.06
633.688	169.06
633.893	163.06
634.099	184.06
634.305	165.06
634.511	168.06
634.717	190.06
634.923	159.06
635.129	173.06
635.335	181.06
635.541	170.06
635.747	178.06
635.952	167.06
636.158	172.06
636.364	171.06
636.57	184.06
636.775	163.06
636.981	169.06
637.187	190.06
637.392	170.06
637.598	160.06
637.804	162.06
638.009	176.06
638.215	161.06
638.421	163.06
638.626	156.06
638.832	170.06
639.037	174.06
639.243	154.06
639.448	144.06
639.654	183.06
639.859	178.06
640.065	160.06
640.27	166.06
640.475	174.06
640.681	166.06
640.886	164.06
641.091	152.06
641.297	182.06
641.502	154.06
641.707	164.06
641.913	158.06
642.118	163.06
642.323	169.06
642.528	175.06
642.733	159.06
642.939	158.06
643.144	142.06
643.349	136.06
643.554	153.06
643.759	157.06
643.964	160.06
644.169	146.06
644.374	158.06
644.579	158.06
644.784	166.06
644.989	150.06
645.194	129.06
645.399	150.06
645.604	142.06
645.809	157.06
646.014	169.06
646.219	150.06
646.423	154.06
646.628	158.06
646.833	160.06
647.038	144.06
647.243	150.06
647.447	152.06
647.652	151.06
647.857	156.06
648.062	144.06
648.266	152.06
648.471	149.06
648.676	152.06
648.88	136.06
649.085	149.06
649.289	164.06
649.494	170.06
649.698	181.06
649.903	176.06
650.107	161.06
650.312	168.06
650.516	155.06
650.721	144.06
650.925	147.06
651.13	135.06
651.334	165.06
651.539	136.06
651.743	149.06
651.947	138.06
652.152	122.06
652.356	125.06
652.56	133.06
652.764	130.06
652.969	145.06
653.173	119.06
653.377	107.06
653.581	138.06
653.785	123.06
653.99	135.06
654.194	138.06
654.398	124.06
654.602	124.06
654.806	125.06
655.01	140.06
655.214	126.06
655.418	123.06
655.622	123.06
655.826	134.06
656.03	120.06
656.234	120.06
656.438	121.06
656.642	124.06
656.846	126.06
657.049	125.06
657.253	117.06
657.457	118.06
657.661	109.06
657.865	118.06
658.068	115.06
658.272	105.06
658.476	103.06
658.68	116.06
658.883	103.06
659.087	107.06
659.291	94.06
659.494	97.06
659.698	94.06
659.901	92.06
660.105	86.06
660.309	96.06
660.512	86.06
660.716	100.06
660.919	97.06
661.123	85.06
661.326	103.06
661.53	97.06
661.733	73.06
661.936	93.06
662.14	92.06
662.343	111.06
662.546	102.06
662.75	85.06
662.953	88.06
663.156	94.06
663.36	100.06
663.563	78.06
663.766	70.06
663.969	101.06
664.173	86.06
664.376	88.06
664.579	85.06
664.782	73.06
664.985	74.06
665.188	94.06
665.391	99.06
665.594	88.06
665.797	88.06
666	83.06
666.203	75.06
666.406	83.06
666.609	92.06
666.812	78.06
667.015	74.06
667.218	79.06
667.421	91.06
667.624	89.06
667.827	73.06
668.03	75.06
668.232	67.06
668.435	72.06
668.638	82.06
668.841	90.06
669.043	87.06
669.246	82.06
669.449	73.06
669.651	85.06
669.854	86.06
670.057	92.06
670.259	80.06
670.462	76.06
670.665	95.06
670.867	86.06
671.07	76.06
671.272	91.06
671.475	88.06
671.677	99.06
671.88	87.06
672.082	61.06
672.284	95.06
672.487	82.06
672.689	82.06
672.892	78.06
