Data from 1987.PennyLincolnUp.Lamp.En5.5.200Scan.071819.P2_HRD10591_17-15-26-971.txt Node
Date: Thu Jul 18 17:15:26 EDT 2019
User: cochatt
Spectrometer: HR+D1059
Trigger mode: 1
Integration Time (sec): 1.000000E-1
Scans to average: 1
Electric dark correction enabled: true
Nonlinearity correction enabled: false
Boxcar width: 0
XAxis mode: Wavelengths
Number of Pixels in Spectrum: 2048
>>>>>Begin Spectral Data<<<<<
223.165	-15.94
223.4	-15.94
223.635	-15.94
223.869	-16.94
224.104	-12.94
224.338	-22.94
224.573	-18.94
224.808	-19.94
225.042	-1.94
225.277	23.06
225.511	-5.94
225.746	2.06
225.98	5.06
226.215	7.06
226.449	12.06
226.683	19.06
226.918	18.06
227.152	29.06
227.387	55.06
227.621	33.06
227.856	36.06
228.09	41.06
228.324	45.06
228.559	66.06
228.793	61.06
229.027	110.06
229.262	119.06
229.496	128.06
229.73	147.06
229.964	186.06
230.199	145.06
230.433	131.06
230.667	126.06
230.901	119.06
231.136	102.06
231.37	122.06
231.604	124.06
231.838	124.06
232.072	123.06
232.306	103.06
232.541	118.06
232.775	112.06
233.009	125.06
233.243	102.06
233.477	111.06
233.711	113.06
233.945	131.06
234.179	127.06
234.413	108.06
234.647	131.06
234.881	110.06
235.115	109.06
235.349	121.06
235.583	117.06
235.817	119.06
236.051	125.06
236.285	116.06
236.519	142.06
236.753	127.06
236.987	147.06
237.221	185.06
237.455	267.06
237.689	197.06
237.922	146.06
238.156	157.06
238.39	128.06
238.624	133.06
238.858	135.06
239.091	116.06
239.325	121.06
239.559	143.06
239.793	135.06
240.027	145.06
240.26	148.06
240.494	170.06
240.728	155.06
240.961	156.06
241.195	154.06
241.429	140.06
241.662	144.06
241.896	132.06
242.13	141.06
242.363	116.06
242.597	136.06
242.83	134.06
243.064	132.06
243.298	137.06
243.531	143.06
243.765	127.06
243.998	135.06
244.232	121.06
244.465	135.06
244.699	137.06
244.932	143.06
245.166	155.06
245.399	141.06
245.633	148.06
245.866	139.06
246.099	137.06
246.333	155.06
246.566	143.06
246.8	146.06
247.033	139.06
247.266	146.06
247.5	164.06
247.733	162.06
247.966	185.06
248.2	164.06
248.433	157.06
248.666	170.06
248.899	180.06
249.133	199.06
249.366	219.06
249.599	216.06
249.832	196.06
250.066	191.06
250.299	187.06
250.532	174.06
250.765	196.06
250.998	205.06
251.231	213.06
251.465	220.06
251.698	214.06
251.931	215.06
252.164	199.06
252.397	187.06
252.63	200.06
252.863	206.06
253.096	212.06
253.329	239.06
253.562	236.06
253.795	209.06
254.028	215.06
254.261	218.06
254.494	236.06
254.727	245.06
254.96	298.06
255.193	279.06
255.426	271.06
255.659	243.06
255.892	219.06
256.124	217.06
256.357	199.06
256.59	192.06
256.823	212.06
257.056	205.06
257.289	205.06
257.521	208.06
257.754	187.06
257.987	196.06
258.22	205.06
258.452	205.06
258.685	204.06
258.918	213.06
259.151	197.06
259.383	210.06
259.616	219.06
259.849	237.06
260.081	236.06
260.314	239.06
260.547	246.06
260.779	236.06
261.012	233.06
261.244	221.06
261.477	221.06
261.71	215.06
261.942	223.06
262.175	236.06
262.407	234.06
262.64	198.06
262.872	208.06
263.105	194.06
263.337	187.06
263.57	204.06
263.802	203.06
264.035	193.06
264.267	191.06
264.499	174.06
264.732	199.06
264.964	202.06
265.197	195.06
265.429	189.06
265.661	185.06
265.894	188.06
266.126	202.06
266.358	192.06
266.591	202.06
266.823	216.06
267.055	208.06
267.287	205.06
267.52	207.06
267.752	219.06
267.984	203.06
268.216	194.06
268.448	199.06
268.681	211.06
268.913	237.06
269.145	239.06
269.377	246.06
269.609	235.06
269.841	245.06
270.073	237.06
270.306	277.06
270.538	304.06
270.77	297.06
271.002	292.06
271.234	269.06
271.466	286.06
271.698	311.06
271.93	289.06
272.162	325.06
272.394	307.06
272.626	317.06
272.858	268.06
273.09	268.06
273.322	278.06
273.553	277.06
273.785	265.06
274.017	240.06
274.249	241.06
274.481	227.06
274.713	227.06
274.945	237.06
275.176	262.06
275.408	243.06
275.64	249.06
275.872	230.06
276.104	241.06
276.335	246.06
276.567	257.06
276.799	260.06
277.031	294.06
277.262	303.06
277.494	304.06
277.726	276.06
277.957	260.06
278.189	252.06
278.421	256.06
278.652	251.06
278.884	236.06
279.115	221.06
279.347	225.06
279.579	228.06
279.81	248.06
280.042	221.06
280.273	216.06
280.505	226.06
280.736	245.06
280.968	238.06
281.199	231.06
281.431	238.06
281.662	244.06
281.894	221.06
282.125	231.06
282.356	247.06
282.588	279.06
282.819	300.06
283.051	225.06
283.282	236.06
283.513	243.06
283.745	244.06
283.976	247.06
284.207	248.06
284.439	247.06
284.67	230.06
284.901	217.06
285.132	243.06
285.364	228.06
285.595	224.06
285.826	233.06
286.057	226.06
286.288	252.06
286.52	227.06
286.751	235.06
286.982	240.06
287.213	252.06
287.444	245.06
287.675	258.06
287.906	264.06
288.138	278.06
288.369	256.06
288.6	273.06
288.831	246.06
289.062	269.06
289.293	247.06
289.524	236.06
289.755	243.06
289.986	257.06
290.217	257.06
290.448	234.06
290.679	241.06
290.91	216.06
291.141	239.06
291.371	234.06
291.602	247.06
291.833	226.06
292.064	228.06
292.295	252.06
292.526	257.06
292.757	235.06
292.987	236.06
293.218	239.06
293.449	227.06
293.68	237.06
293.91	232.06
294.141	238.06
294.372	249.06
294.603	244.06
294.833	225.06
295.064	234.06
295.295	257.06
295.525	246.06
295.756	259.06
295.987	266.06
296.217	275.06
296.448	311.06
296.679	269.06
296.909	243.06
297.14	235.06
297.37	254.06
297.601	243.06
297.831	245.06
298.062	246.06
298.292	230.06
298.523	253.06
298.753	240.06
298.984	249.06
299.214	240.06
299.445	247.06
299.675	266.06
299.905	273.06
300.136	258.06
300.366	247.06
300.597	280.06
300.827	272.06
301.057	281.06
301.288	301.06
301.518	284.06
301.748	247.06
301.979	268.06
302.209	260.06
302.439	276.06
302.669	272.06
302.9	266.06
303.13	260.06
303.36	285.06
303.59	291.06
303.82	279.06
304.051	304.06
304.281	263.06
304.511	267.06
304.741	267.06
304.971	270.06
305.201	270.06
305.431	268.06
305.661	276.06
305.891	279.06
306.121	280.06
306.352	299.06
306.582	291.06
306.812	279.06
307.042	271.06
307.272	285.06
307.502	279.06
307.731	295.06
307.961	286.06
308.191	269.06
308.421	276.06
308.651	286.06
308.881	279.06
309.111	312.06
309.341	296.06
309.571	303.06
309.8	302.06
310.03	349.06
310.26	340.06
310.49	316.06
310.72	350.06
310.949	364.06
311.179	410.06
311.409	352.06
311.639	346.06
311.868	353.06
312.098	352.06
312.328	355.06
312.557	371.06
312.787	412.06
313.017	393.06
313.246	377.06
313.476	357.06
313.706	337.06
313.935	345.06
314.165	352.06
314.394	395.06
314.624	387.06
314.853	370.06
315.083	343.06
315.312	337.06
315.542	325.06
315.771	323.06
316.001	330.06
316.23	319.06
316.46	334.06
316.689	321.06
316.919	342.06
317.148	356.06
317.377	345.06
317.607	357.06
317.836	338.06
318.065	330.06
318.295	321.06
318.524	335.06
318.753	319.06
318.983	330.06
319.212	343.06
319.441	342.06
319.67	362.06
319.9	347.06
320.129	332.06
320.358	345.06
320.587	349.06
320.816	376.06
321.046	371.06
321.275	357.06
321.504	365.06
321.733	372.06
321.962	374.06
322.191	419.06
322.42	447.06
322.649	446.06
322.878	481.06
323.108	468.06
323.337	523.06
323.566	546.06
323.795	577.06
324.024	705.06
324.253	850.06
324.482	1264.06
324.71	1917.06
324.939	2693.06
325.168	2325.06
325.397	1284.06
325.626	816.06
325.855	675.06
326.084	581.06
326.313	534.06
326.542	566.06
326.77	616.06
326.999	745.06
327.228	1083.06
327.457	1644.06
327.686	2065.06
327.914	1415.06
328.143	904.06
328.372	749.06
328.6	683.06
328.829	644.06
329.058	671.06
329.287	664.06
329.515	602.06
329.744	556.06
329.972	495.06
330.201	518.06
330.43	565.06
330.658	621.06
330.887	685.06
331.115	661.06
331.344	552.06
331.572	483.06
331.801	486.06
332.03	488.06
332.258	476.06
332.486	428.06
332.715	399.06
332.943	401.06
333.172	388.06
333.4	409.06
333.629	410.06
333.857	417.06
334.085	391.06
334.314	389.06
334.542	404.06
334.771	408.06
334.999	399.06
335.227	398.06
335.455	398.06
335.684	371.06
335.912	380.06
336.14	378.06
336.369	380.06
336.597	402.06
336.825	401.06
337.053	391.06
337.281	376.06
337.51	389.06
337.738	386.06
337.966	381.06
338.194	395.06
338.422	396.06
338.65	394.06
338.878	371.06
339.106	372.06
339.334	386.06
339.562	381.06
339.79	390.06
340.018	368.06
340.246	389.06
340.474	388.06
340.702	409.06
340.93	363.06
341.158	366.06
341.386	376.06
341.614	385.06
341.842	397.06
342.07	379.06
342.298	364.06
342.526	357.06
342.754	350.06
342.981	348.06
343.209	352.06
343.437	358.06
343.665	348.06
343.893	361.06
344.12	357.06
344.348	355.06
344.576	362.06
344.804	383.06
345.031	401.06
345.259	414.06
345.487	418.06
345.714	385.06
345.942	383.06
346.17	392.06
346.397	371.06
346.625	360.06
346.853	381.06
347.08	371.06
347.308	387.06
347.535	403.06
347.763	408.06
347.99	414.06
348.218	408.06
348.445	415.06
348.673	416.06
348.9	394.06
349.128	373.06
349.355	346.06
349.583	365.06
349.81	365.06
350.037	350.06
350.265	359.06
350.492	356.06
350.72	369.06
350.947	380.06
351.174	383.06
351.402	391.06
351.629	399.06
351.856	395.06
352.083	412.06
352.311	421.06
352.538	422.06
352.765	420.06
352.992	398.06
353.22	405.06
353.447	396.06
353.674	372.06
353.901	351.06
354.128	339.06
354.355	329.06
354.583	341.06
354.81	348.06
355.037	330.06
355.264	326.06
355.491	323.06
355.718	328.06
355.945	335.06
356.172	318.06
356.399	335.06
356.626	326.06
356.853	341.06
357.08	334.06
357.307	323.06
357.534	332.06
357.761	343.06
357.988	343.06
358.215	343.06
358.441	338.06
358.668	331.06
358.895	349.06
359.122	357.06
359.349	381.06
359.576	379.06
359.802	409.06
360.029	472.06
360.256	498.06
360.483	463.06
360.709	394.06
360.936	399.06
361.163	372.06
361.39	390.06
361.616	389.06
361.843	384.06
362.07	380.06
362.296	388.06
362.523	376.06
362.749	375.06
362.976	383.06
363.203	359.06
363.429	349.06
363.656	366.06
363.882	355.06
364.109	342.06
364.335	364.06
364.562	351.06
364.788	364.06
365.015	356.06
365.241	328.06
365.468	360.06
365.694	345.06
365.92	349.06
366.147	360.06
366.373	356.06
366.599	347.06
366.826	361.06
367.052	341.06
367.278	342.06
367.505	335.06
367.731	366.06
367.957	340.06
368.184	358.06
368.41	358.06
368.636	356.06
368.862	366.06
369.089	367.06
369.315	352.06
369.541	319.06
369.767	339.06
369.993	351.06
370.219	336.06
370.445	347.06
370.672	333.06
370.898	337.06
371.124	328.06
371.35	331.06
371.576	339.06
371.802	323.06
372.028	307.06
372.254	329.06
372.48	317.06
372.706	344.06
372.932	339.06
373.158	332.06
373.384	335.06
373.61	327.06
373.835	323.06
374.061	340.06
374.287	342.06
374.513	345.06
374.739	344.06
374.965	334.06
375.191	329.06
375.416	340.06
375.642	347.06
375.868	335.06
376.094	327.06
376.319	318.06
376.545	334.06
376.771	331.06
376.997	335.06
377.222	337.06
377.448	339.06
377.674	321.06
377.899	339.06
378.125	352.06
378.35	319.06
378.576	339.06
378.802	318.06
379.027	317.06
379.253	343.06
379.478	325.06
379.704	348.06
379.929	337.06
380.155	335.06
380.38	341.06
380.606	361.06
380.831	339.06
381.057	346.06
381.282	336.06
381.507	342.06
381.733	336.06
381.958	325.06
382.184	332.06
382.409	339.06
382.634	339.06
382.86	322.06
383.085	341.06
383.31	332.06
383.535	336.06
383.761	329.06
383.986	347.06
384.211	347.06
384.436	346.06
384.662	343.06
384.887	365.06
385.112	352.06
385.337	360.06
385.562	362.06
385.787	341.06
386.013	356.06
386.238	363.06
386.463	352.06
386.688	359.06
386.913	355.06
387.138	336.06
387.363	350.06
387.588	347.06
387.813	361.06
388.038	339.06
388.263	338.06
388.488	341.06
388.713	353.06
388.938	346.06
389.163	356.06
389.387	348.06
389.612	351.06
389.837	340.06
390.062	330.06
390.287	350.06
390.512	375.06
390.736	353.06
390.961	366.06
391.186	351.06
391.411	326.06
391.636	338.06
391.86	354.06
392.085	372.06
392.31	349.06
392.534	354.06
392.759	355.06
392.984	348.06
393.208	364.06
393.433	374.06
393.658	367.06
393.882	327.06
394.107	347.06
394.331	359.06
394.556	352.06
394.78	362.06
395.005	359.06
395.229	364.06
395.454	375.06
395.678	344.06
395.903	387.06
396.127	388.06
396.352	393.06
396.576	390.06
396.801	386.06
397.025	368.06
397.249	357.06
397.474	373.06
397.698	394.06
397.922	405.06
398.147	416.06
398.371	401.06
398.595	397.06
398.82	376.06
399.044	398.06
399.268	410.06
399.492	411.06
399.717	442.06
399.941	444.06
400.165	476.06
400.389	478.06
400.613	476.06
400.837	428.06
401.062	409.06
401.286	409.06
401.51	410.06
401.734	394.06
401.958	425.06
402.182	414.06
402.406	425.06
402.63	427.06
402.854	416.06
403.078	431.06
403.302	413.06
403.526	433.06
403.75	447.06
403.974	412.06
404.198	426.06
404.422	430.06
404.645	418.06
404.869	412.06
405.093	454.06
405.317	456.06
405.541	477.06
405.765	466.06
405.988	453.06
406.212	451.06
406.436	499.06
406.66	520.06
406.883	496.06
407.107	492.06
407.331	518.06
407.555	586.06
407.778	580.06
408.002	544.06
408.226	515.06
408.449	480.06
408.673	487.06
408.896	521.06
409.12	577.06
409.344	494.06
409.567	463.06
409.791	440.06
410.014	436.06
410.238	442.06
410.461	440.06
410.685	432.06
410.908	457.06
411.132	499.06
411.355	555.06
411.578	486.06
411.802	447.06
412.025	437.06
412.249	431.06
412.472	428.06
412.695	425.06
412.919	438.06
413.142	427.06
413.365	400.06
413.589	397.06
413.812	403.06
414.035	411.06
414.258	385.06
414.482	396.06
414.705	411.06
414.928	389.06
415.151	393.06
415.374	408.06
415.597	386.06
415.821	386.06
416.044	417.06
416.267	401.06
416.49	405.06
416.713	406.06
416.936	403.06
417.159	389.06
417.382	413.06
417.605	409.06
417.828	429.06
418.051	437.06
418.274	436.06
418.497	419.06
418.72	419.06
418.943	412.06
419.166	432.06
419.389	439.06
419.611	425.06
419.834	419.06
420.057	434.06
420.28	451.06
420.503	435.06
420.726	419.06
420.948	436.06
421.171	469.06
421.394	527.06
421.617	492.06
421.839	440.06
422.062	478.06
422.285	465.06
422.507	519.06
422.73	600.06
422.953	607.06
423.175	492.06
423.398	479.06
423.621	476.06
423.843	495.06
424.066	510.06
424.288	492.06
424.511	528.06
424.733	575.06
424.956	649.06
425.178	631.06
425.401	636.06
425.623	658.06
425.846	582.06
426.068	543.06
426.291	517.06
426.513	505.06
426.735	549.06
426.958	588.06
427.18	624.06
427.402	785.06
427.625	863.06
427.847	791.06
428.069	652.06
428.292	603.06
428.514	521.06
428.736	515.06
428.958	485.06
429.181	477.06
429.403	468.06
429.625	480.06
429.847	541.06
430.069	577.06
430.292	604.06
430.514	503.06
430.736	488.06
430.958	471.06
431.18	439.06
431.402	436.06
431.624	426.06
431.846	432.06
432.068	425.06
432.29	413.06
432.512	436.06
432.734	434.06
432.956	424.06
433.178	461.06
433.4	456.06
433.622	453.06
433.844	430.06
434.066	439.06
434.287	437.06
434.509	427.06
434.731	420.06
434.953	454.06
435.175	465.06
435.397	487.06
435.618	510.06
435.84	567.06
436.062	650.06
436.284	709.06
436.505	614.06
436.727	541.06
436.949	514.06
437.17	473.06
437.392	481.06
437.614	512.06
437.835	554.06
438.057	670.06
438.278	744.06
438.5	756.06
438.721	782.06
438.943	764.06
439.165	623.06
439.386	567.06
439.608	550.06
439.829	547.06
440.05	568.06
440.272	609.06
440.493	613.06
440.715	550.06
440.936	489.06
441.158	492.06
441.379	496.06
441.6	494.06
441.822	548.06
442.043	590.06
442.264	651.06
442.486	683.06
442.707	589.06
442.928	559.06
443.149	571.06
443.371	570.06
443.592	619.06
443.813	691.06
444.034	754.06
444.255	619.06
444.476	518.06
444.698	529.06
444.919	500.06
445.14	615.06
445.361	565.06
445.582	584.06
445.803	643.06
446.024	736.06
446.245	719.06
446.466	693.06
446.687	587.06
446.908	537.06
447.129	533.06
447.35	487.06
447.571	509.06
447.792	504.06
448.013	494.06
448.234	515.06
448.455	583.06
448.675	682.06
448.896	779.06
449.117	691.06
449.338	630.06
449.559	723.06
449.779	804.06
450	681.06
450.221	574.06
450.442	545.06
450.662	497.06
450.883	531.06
451.104	523.06
451.324	527.06
451.545	494.06
451.766	451.06
451.986	460.06
452.207	431.06
452.428	447.06
452.648	445.06
452.869	447.06
453.089	449.06
453.31	496.06
453.53	437.06
453.751	437.06
453.971	454.06
454.192	482.06
454.412	479.06
454.633	459.06
454.853	447.06
455.073	445.06
455.294	465.06
455.514	554.06
455.734	530.06
455.955	441.06
456.175	421.06
456.395	398.06
456.616	389.06
456.836	395.06
457.056	398.06
457.276	377.06
457.497	376.06
457.717	414.06
457.937	406.06
458.157	417.06
458.377	415.06
458.598	458.06
458.818	554.06
459.038	645.06
459.258	661.06
459.478	524.06
459.698	477.06
459.918	417.06
460.138	425.06
460.358	435.06
460.578	423.06
460.798	449.06
461.018	443.06
461.238	429.06
461.458	423.06
461.678	394.06
461.898	428.06
462.118	415.06
462.338	423.06
462.558	425.06
462.777	440.06
462.997	437.06
463.217	440.06
463.437	446.06
463.657	442.06
463.876	438.06
464.096	448.06
464.316	442.06
464.536	439.06
464.755	467.06
464.975	481.06
465.195	577.06
465.414	734.06
465.634	602.06
465.854	503.06
466.073	475.06
466.293	468.06
466.512	431.06
466.732	428.06
466.951	445.06
467.171	419.06
467.391	423.06
467.61	452.06
467.829	451.06
468.049	454.06
468.268	417.06
468.488	429.06
468.707	400.06
468.927	415.06
469.146	414.06
469.365	405.06
469.585	422.06
469.804	438.06
470.023	459.06
470.243	453.06
470.462	441.06
470.681	485.06
470.901	453.06
471.12	474.06
471.339	435.06
471.558	442.06
471.777	439.06
471.997	416.06
472.216	427.06
472.435	425.06
472.654	434.06
472.873	444.06
473.092	422.06
473.311	432.06
473.53	437.06
473.749	453.06
473.968	496.06
474.187	628.06
474.406	627.06
474.625	537.06
474.844	469.06
475.063	431.06
475.282	437.06
475.501	448.06
475.72	464.06
475.939	445.06
476.158	453.06
476.377	443.06
476.596	442.06
476.814	438.06
477.033	471.06
477.252	483.06
477.471	465.06
477.69	460.06
477.908	454.06
478.127	479.06
478.346	470.06
478.564	483.06
478.783	501.06
479.002	477.06
479.22	489.06
479.439	515.06
479.658	550.06
479.876	551.06
480.095	544.06
480.313	573.06
480.532	541.06
480.751	508.06
480.969	521.06
481.188	535.06
481.406	534.06
481.624	536.06
481.843	502.06
482.061	519.06
482.28	521.06
482.498	502.06
482.717	525.06
482.935	525.06
483.153	500.06
483.372	476.06
483.59	510.06
483.808	496.06
484.027	500.06
484.245	501.06
484.463	527.06
484.681	500.06
484.9	515.06
485.118	541.06
485.336	533.06
485.554	538.06
485.772	535.06
485.99	545.06
486.209	528.06
486.427	552.06
486.645	564.06
486.863	563.06
487.081	588.06
487.299	581.06
487.517	598.06
487.735	567.06
487.953	559.06
488.171	560.06
488.389	565.06
488.607	545.06
488.825	566.06
489.043	580.06
489.261	581.06
489.479	567.06
489.696	569.06
489.914	559.06
490.132	588.06
490.35	582.06
490.568	591.06
490.786	610.06
491.003	595.06
491.221	594.06
491.439	633.06
491.657	635.06
491.874	653.06
492.092	653.06
492.31	656.06
492.527	641.06
492.745	655.06
492.963	654.06
493.18	664.06
493.398	672.06
493.615	657.06
493.833	659.06
494.05	659.06
494.268	686.06
494.485	677.06
494.703	675.06
494.92	673.06
495.138	655.06
495.355	674.06
495.573	653.06
495.79	684.06
496.008	692.06
496.225	677.06
496.442	684.06
496.66	700.06
496.877	675.06
497.094	683.06
497.312	707.06
497.529	700.06
497.746	710.06
497.963	696.06
498.181	720.06
498.398	726.06
498.615	729.06
498.832	696.06
499.049	715.06
499.267	747.06
499.484	756.06
499.701	735.06
499.918	786.06
500.135	777.06
500.352	791.06
500.569	790.06
500.786	765.06
501.003	795.06
501.22	822.06
501.437	792.06
501.654	806.06
501.871	832.06
502.088	823.06
502.305	773.06
502.522	742.06
502.739	755.06
502.956	723.06
503.172	721.06
503.389	717.06
503.606	724.06
503.823	720.06
504.04	710.06
504.256	691.06
504.473	668.06
504.69	675.06
504.907	668.06
505.123	685.06
505.34	640.06
505.557	676.06
505.773	668.06
505.99	675.06
506.207	677.06
506.423	686.06
506.64	661.06
506.856	656.06
507.073	646.06
507.289	653.06
507.506	669.06
507.722	692.06
507.939	711.06
508.155	723.06
508.372	669.06
508.588	661.06
508.805	645.06
509.021	659.06
509.238	655.06
509.454	692.06
509.67	665.06
509.887	653.06
510.103	673.06
510.319	670.06
510.536	850.06
510.752	1572.06
510.968	1303.06
511.184	746.06
511.401	699.06
511.617	682.06
511.833	672.06
512.049	631.06
512.265	640.06
512.481	631.06
512.698	627.06
512.914	635.06
513.13	675.06
513.346	633.06
513.562	649.06
513.778	651.06
513.994	657.06
514.21	681.06
514.426	746.06
514.642	817.06
514.858	857.06
515.074	935.06
515.29	1181.06
515.506	1889.06
515.721	1523.06
515.937	879.06
516.153	801.06
516.369	734.06
516.585	686.06
516.801	657.06
517.016	658.06
517.232	659.06
517.448	650.06
517.664	646.06
517.879	647.06
518.095	640.06
518.311	601.06
518.527	628.06
518.742	651.06
518.958	631.06
519.173	636.06
519.389	632.06
519.605	657.06
519.82	684.06
520.036	683.06
520.251	736.06
520.467	766.06
520.682	765.06
520.898	814.06
521.113	855.06
521.329	944.06
521.544	1109.06
521.76	1508.06
521.975	2542.06
522.19	2498.06
522.406	1290.06
522.621	895.06
522.836	768.06
523.052	712.06
523.267	669.06
523.482	641.06
523.698	601.06
523.913	646.06
524.128	609.06
524.343	585.06
524.559	576.06
524.774	544.06
524.989	545.06
525.204	596.06
525.419	590.06
525.634	531.06
525.849	543.06
526.064	559.06
526.28	520.06
526.495	497.06
526.71	515.06
526.925	525.06
527.14	518.06
527.355	496.06
527.57	504.06
527.785	511.06
527.999	517.06
528.214	494.06
528.429	488.06
528.644	501.06
528.859	518.06
529.074	519.06
529.289	550.06
529.503	703.06
529.718	686.06
529.933	568.06
530.148	545.06
530.363	529.06
530.577	520.06
530.792	486.06
531.007	488.06
531.221	485.06
531.436	487.06
531.651	487.06
531.865	465.06
532.08	483.06
532.295	481.06
532.509	458.06
532.724	483.06
532.938	483.06
533.153	445.06
533.367	443.06
533.582	444.06
533.796	455.06
534.011	460.06
534.225	456.06
534.44	445.06
534.654	441.06
534.868	472.06
535.083	432.06
535.297	461.06
535.511	470.06
535.726	478.06
535.94	484.06
536.154	470.06
536.369	470.06
536.583	464.06
536.797	458.06
537.011	438.06
537.225	451.06
537.44	444.06
537.654	416.06
537.868	443.06
538.082	445.06
538.296	433.06
538.51	452.06
538.724	470.06
538.938	436.06
539.153	447.06
539.367	463.06
539.581	465.06
539.795	455.06
540.009	447.06
540.222	445.06
540.436	437.06
540.65	460.06
540.864	461.06
541.078	487.06
541.292	457.06
541.506	450.06
541.72	434.06
541.934	440.06
542.147	438.06
542.361	439.06
542.575	433.06
542.789	425.06
543.002	417.06
543.216	427.06
543.43	446.06
543.644	464.06
543.857	440.06
544.071	428.06
544.285	442.06
544.498	451.06
544.712	462.06
544.925	413.06
545.139	410.06
545.352	405.06
545.566	403.06
545.779	418.06
545.993	410.06
546.206	401.06
546.42	407.06
546.633	413.06
546.847	410.06
547.06	409.06
547.274	392.06
547.487	401.06
547.7	399.06
547.914	400.06
548.127	416.06
548.34	402.06
548.554	412.06
548.767	393.06
548.98	407.06
549.193	411.06
549.407	399.06
549.62	390.06
549.833	395.06
550.046	378.06
550.259	385.06
550.473	384.06
550.686	407.06
550.899	397.06
551.112	392.06
551.325	390.06
551.538	381.06
551.751	395.06
551.964	384.06
552.177	393.06
552.39	399.06
552.603	382.06
552.816	389.06
553.029	381.06
553.242	399.06
553.455	396.06
553.667	416.06
553.88	449.06
554.093	435.06
554.306	413.06
554.519	411.06
554.732	403.06
554.944	406.06
555.157	379.06
555.37	379.06
555.583	400.06
555.795	382.06
556.008	390.06
556.221	400.06
556.433	363.06
556.646	349.06
556.859	375.06
557.071	368.06
557.284	360.06
557.496	362.06
557.709	343.06
557.921	359.06
558.134	360.06
558.346	375.06
558.559	366.06
558.771	349.06
558.984	369.06
559.196	368.06
559.409	355.06
559.621	334.06
559.833	375.06
560.046	365.06
560.258	360.06
560.47	367.06
560.683	378.06
560.895	350.06
561.107	355.06
561.32	340.06
561.532	351.06
561.744	342.06
561.956	364.06
562.168	371.06
562.381	360.06
562.593	354.06
562.805	355.06
563.017	361.06
563.229	373.06
563.441	363.06
563.653	358.06
563.865	364.06
564.077	356.06
564.289	350.06
564.501	362.06
564.713	362.06
564.925	380.06
565.137	380.06
565.349	380.06
565.561	383.06
565.773	363.06
565.985	372.06
566.197	391.06
566.408	375.06
566.62	388.06
566.832	394.06
567.044	397.06
567.255	387.06
567.467	387.06
567.679	379.06
567.891	391.06
568.102	406.06
568.314	395.06
568.526	387.06
568.737	353.06
568.949	374.06
569.161	391.06
569.372	355.06
569.584	358.06
569.795	353.06
570.007	368.06
570.218	444.06
570.43	421.06
570.641	367.06
570.853	349.06
571.064	344.06
571.276	352.06
571.487	337.06
571.698	335.06
571.91	334.06
572.121	323.06
572.333	318.06
572.544	328.06
572.755	325.06
572.966	330.06
573.178	319.06
573.389	329.06
573.6	310.06
573.811	302.06
574.023	293.06
574.234	315.06
574.445	312.06
574.656	304.06
574.867	295.06
575.078	325.06
575.289	321.06
575.501	310.06
575.712	319.06
575.923	288.06
576.134	304.06
576.345	300.06
576.556	302.06
576.767	325.06
576.978	307.06
577.188	299.06
577.399	298.06
577.61	291.06
577.821	310.06
578.032	316.06
578.243	357.06
578.454	738.06
578.665	526.06
578.875	323.06
579.086	308.06
579.297	294.06
579.508	302.06
579.718	275.06
579.929	313.06
580.14	279.06
580.35	296.06
580.561	307.06
580.772	289.06
580.982	276.06
581.193	279.06
581.403	297.06
581.614	289.06
581.825	288.06
582.035	291.06
582.246	287.06
582.456	292.06
582.667	278.06
582.877	285.06
583.087	265.06
583.298	280.06
583.508	298.06
583.719	280.06
583.929	283.06
584.139	287.06
584.35	277.06
584.56	279.06
584.77	302.06
584.981	297.06
585.191	309.06
585.401	273.06
585.611	277.06
585.821	299.06
586.032	287.06
586.242	288.06
586.452	285.06
586.662	266.06
586.872	269.06
587.082	282.06
587.292	276.06
587.502	260.06
587.713	277.06
587.923	263.06
588.133	269.06
588.343	292.06
588.553	280.06
588.762	282.06
588.972	268.06
589.182	308.06
589.392	294.06
589.602	257.06
589.812	287.06
590.022	295.06
590.232	270.06
590.441	267.06
590.651	283.06
590.861	270.06
591.071	271.06
591.281	268.06
591.49	286.06
591.7	273.06
591.91	253.06
592.119	257.06
592.329	290.06
592.539	286.06
592.748	284.06
592.958	285.06
593.167	279.06
593.377	290.06
593.587	277.06
593.796	265.06
594.006	272.06
594.215	266.06
594.424	259.06
594.634	288.06
594.843	277.06
595.053	279.06
595.262	273.06
595.472	267.06
595.681	264.06
595.89	267.06
596.1	273.06
596.309	264.06
596.518	268.06
596.727	258.06
596.937	250.06
597.146	247.06
597.355	259.06
597.564	248.06
597.774	247.06
597.983	238.06
598.192	231.06
598.401	238.06
598.61	251.06
598.819	247.06
599.028	245.06
599.237	253.06
599.446	231.06
599.655	267.06
599.864	246.06
600.073	237.06
600.282	249.06
600.491	237.06
600.7	261.06
600.909	245.06
601.118	246.06
601.327	245.06
601.536	244.06
601.745	243.06
601.953	247.06
602.162	238.06
602.371	222.06
602.58	224.06
602.789	240.06
602.997	231.06
603.206	235.06
603.415	250.06
603.623	245.06
603.832	237.06
604.041	225.06
604.249	213.06
604.458	238.06
604.666	239.06
604.875	228.06
605.084	236.06
605.292	262.06
605.501	238.06
605.709	227.06
605.918	230.06
606.126	227.06
606.334	227.06
606.543	233.06
606.751	231.06
606.96	244.06
607.168	241.06
607.376	225.06
607.585	215.06
607.793	213.06
608.001	230.06
608.21	241.06
608.418	207.06
608.626	219.06
608.834	230.06
609.043	212.06
609.251	234.06
609.459	222.06
609.667	225.06
609.875	228.06
610.083	222.06
610.291	225.06
610.499	205.06
610.707	232.06
610.916	226.06
611.124	231.06
611.332	226.06
611.54	232.06
611.748	231.06
611.955	221.06
612.163	210.06
612.371	225.06
612.579	220.06
612.787	223.06
612.995	222.06
613.203	227.06
613.411	226.06
613.618	232.06
613.826	217.06
614.034	223.06
614.242	227.06
614.449	205.06
614.657	224.06
614.865	214.06
615.072	209.06
615.28	223.06
615.488	226.06
615.695	229.06
615.903	209.06
616.111	218.06
616.318	207.06
616.526	216.06
616.733	219.06
616.941	219.06
617.148	220.06
617.356	221.06
617.563	224.06
617.771	211.06
617.978	201.06
618.185	215.06
618.393	211.06
618.6	213.06
618.807	220.06
619.015	226.06
619.222	216.06
619.429	209.06
619.637	210.06
619.844	219.06
620.051	201.06
620.258	205.06
620.466	183.06
620.673	198.06
620.88	198.06
621.087	209.06
621.294	212.06
621.501	219.06
621.708	215.06
621.915	200.06
622.122	216.06
622.329	191.06
622.536	214.06
622.743	222.06
622.95	205.06
623.157	216.06
623.364	203.06
623.571	203.06
623.778	214.06
623.985	210.06
624.192	207.06
624.399	211.06
624.606	209.06
624.812	196.06
625.019	199.06
625.226	173.06
625.433	201.06
625.639	202.06
625.846	194.06
626.053	204.06
626.259	189.06
626.466	212.06
626.673	188.06
626.879	181.06
627.086	202.06
627.293	196.06
627.499	200.06
627.706	195.06
627.912	191.06
628.119	182.06
628.325	190.06
628.532	194.06
628.738	191.06
628.945	186.06
629.151	195.06
629.357	187.06
629.564	191.06
629.77	186.06
629.976	179.06
630.183	197.06
630.389	174.06
630.595	195.06
630.802	203.06
631.008	199.06
631.214	197.06
631.42	198.06
631.627	162.06
631.833	172.06
632.039	187.06
632.245	181.06
632.451	163.06
632.657	180.06
632.863	181.06
633.069	187.06
633.275	167.06
633.481	171.06
633.688	177.06
633.893	183.06
634.099	195.06
634.305	180.06
634.511	166.06
634.717	167.06
634.923	181.06
635.129	171.06
635.335	167.06
635.541	185.06
635.747	181.06
635.952	176.06
636.158	165.06
636.364	175.06
636.57	163.06
636.775	181.06
636.981	171.06
637.187	164.06
637.392	169.06
637.598	175.06
637.804	166.06
638.009	197.06
638.215	173.06
638.421	167.06
638.626	169.06
638.832	161.06
639.037	172.06
639.243	163.06
639.448	167.06
639.654	172.06
639.859	163.06
640.065	170.06
640.27	181.06
640.475	175.06
640.681	179.06
640.886	160.06
641.091	169.06
641.297	163.06
641.502	148.06
641.707	157.06
641.913	166.06
642.118	172.06
642.323	154.06
642.528	148.06
642.733	145.06
642.939	162.06
643.144	155.06
643.349	157.06
643.554	166.06
643.759	163.06
643.964	173.06
644.169	166.06
644.374	150.06
644.579	167.06
644.784	149.06
644.989	165.06
645.194	152.06
645.399	156.06
645.604	174.06
645.809	156.06
646.014	149.06
646.219	154.06
646.423	164.06
646.628	170.06
646.833	152.06
647.038	153.06
647.243	148.06
647.447	167.06
647.652	165.06
647.857	156.06
648.062	171.06
648.266	157.06
648.471	163.06
648.676	151.06
648.88	169.06
649.085	164.06
649.289	157.06
649.494	156.06
649.698	173.06
649.903	177.06
650.107	165.06
650.312	159.06
650.516	161.06
650.721	157.06
650.925	138.06
651.13	142.06
651.334	147.06
651.539	145.06
651.743	148.06
651.947	164.06
652.152	162.06
652.356	142.06
652.56	128.06
652.764	155.06
652.969	135.06
653.173	134.06
653.377	137.06
653.581	139.06
653.785	138.06
653.99	135.06
654.194	140.06
654.398	125.06
654.602	126.06
654.806	121.06
655.01	139.06
655.214	133.06
655.418	141.06
655.622	142.06
655.826	139.06
656.03	125.06
656.234	138.06
656.438	120.06
656.642	123.06
656.846	127.06
657.049	113.06
657.253	126.06
657.457	119.06
657.661	120.06
657.865	118.06
658.068	108.06
658.272	103.06
658.476	121.06
658.68	108.06
658.883	100.06
659.087	103.06
659.291	105.06
659.494	94.06
659.698	93.06
659.901	98.06
660.105	116.06
660.309	101.06
660.512	103.06
660.716	99.06
660.919	102.06
661.123	98.06
661.326	93.06
661.53	92.06
661.733	96.06
661.936	89.06
662.14	89.06
662.343	81.06
662.546	83.06
662.75	89.06
662.953	83.06
663.156	87.06
663.36	84.06
663.563	82.06
663.766	89.06
663.969	81.06
664.173	85.06
664.376	86.06
664.579	83.06
664.782	78.06
664.985	93.06
665.188	105.06
665.391	87.06
665.594	83.06
665.797	83.06
666	93.06
666.203	84.06
666.406	78.06
666.609	66.06
666.812	77.06
667.015	78.06
667.218	92.06
667.421	90.06
667.624	78.06
667.827	87.06
668.03	78.06
668.232	73.06
668.435	93.06
668.638	81.06
668.841	85.06
669.043	85.06
669.246	107.06
669.449	84.06
669.651	81.06
669.854	69.06
670.057	91.06
670.259	91.06
670.462	85.06
670.665	73.06
670.867	90.06
671.07	71.06
671.272	89.06
671.475	85.06
671.677	83.06
671.88	97.06
672.082	79.06
672.284	93.06
672.487	89.06
672.689	90.06
672.892	84.06
