Data from 1987.PennyLincolnUp.Lamp.En5.5.200Scan.071819.P2_HRD10591_17-14-33-972.txt Node
Date: Thu Jul 18 17:14:33 EDT 2019
User: cochatt
Spectrometer: HR+D1059
Trigger mode: 1
Integration Time (sec): 1.000000E-1
Scans to average: 1
Electric dark correction enabled: true
Nonlinearity correction enabled: false
Boxcar width: 0
XAxis mode: Wavelengths
Number of Pixels in Spectrum: 2048
>>>>>Begin Spectral Data<<<<<
223.165	-13.31
223.4	-13.31
223.635	-13.31
223.869	-17.31
224.104	-12.31
224.338	-16.31
224.573	-14.31
224.808	-25.31
225.042	-1.31
225.277	-2.31
225.511	6.69
225.746	4.69
225.98	24.69
226.215	7.69
226.449	4.69
226.683	4.69
226.918	16.69
227.152	32.69
227.387	30.69
227.621	31.69
227.856	47.69
228.09	37.69
228.324	42.69
228.559	50.69
228.793	58.69
229.027	104.69
229.262	110.69
229.496	125.69
229.73	129.69
229.964	167.69
230.199	129.69
230.433	124.69
230.667	100.69
230.901	119.69
231.136	103.69
231.37	106.69
231.604	112.69
231.838	110.69
232.072	114.69
232.306	104.69
232.541	102.69
232.775	100.69
233.009	113.69
233.243	114.69
233.477	114.69
233.711	101.69
233.945	99.69
234.179	102.69
234.413	102.69
234.647	123.69
234.881	100.69
235.115	108.69
235.349	105.69
235.583	100.69
235.817	104.69
236.051	114.69
236.285	110.69
236.519	110.69
236.753	112.69
236.987	144.69
237.221	182.69
237.455	230.69
237.689	194.69
237.922	154.69
238.156	133.69
238.39	115.69
238.624	126.69
238.858	128.69
239.091	120.69
239.325	111.69
239.559	117.69
239.793	122.69
240.027	125.69
240.26	150.69
240.494	146.69
240.728	151.69
240.961	144.69
241.195	150.69
241.429	123.69
241.662	116.69
241.896	112.69
242.13	131.69
242.363	131.69
242.597	142.69
242.83	129.69
243.064	132.69
243.298	125.69
243.531	126.69
243.765	123.69
243.998	122.69
244.232	137.69
244.465	142.69
244.699	124.69
244.932	138.69
245.166	133.69
245.399	126.69
245.633	134.69
245.866	116.69
246.099	129.69
246.333	139.69
246.566	145.69
246.8	143.69
247.033	158.69
247.266	127.69
247.5	148.69
247.733	153.69
247.966	164.69
248.2	142.69
248.433	166.69
248.666	161.69
248.899	185.69
249.133	180.69
249.366	202.69
249.599	192.69
249.832	182.69
250.066	166.69
250.299	174.69
250.532	165.69
250.765	179.69
250.998	209.69
251.231	215.69
251.465	204.69
251.698	198.69
251.931	183.69
252.164	183.69
252.397	195.69
252.63	191.69
252.863	195.69
253.096	196.69
253.329	210.69
253.562	206.69
253.795	206.69
254.028	204.69
254.261	215.69
254.494	211.69
254.727	249.69
254.96	265.69
255.193	267.69
255.426	244.69
255.659	216.69
255.892	230.69
256.124	202.69
256.357	194.69
256.59	187.69
256.823	207.69
257.056	199.69
257.289	161.69
257.521	189.69
257.754	204.69
257.987	194.69
258.22	180.69
258.452	191.69
258.685	172.69
258.918	210.69
259.151	203.69
259.383	190.69
259.616	200.69
259.849	195.69
260.081	215.69
260.314	228.69
260.547	238.69
260.779	214.69
261.012	219.69
261.244	223.69
261.477	211.69
261.71	217.69
261.942	211.69
262.175	227.69
262.407	229.69
262.64	200.69
262.872	190.69
263.105	191.69
263.337	211.69
263.57	188.69
263.802	177.69
264.035	199.69
264.267	198.69
264.499	180.69
264.732	187.69
264.964	181.69
265.197	197.69
265.429	200.69
265.661	180.69
265.894	184.69
266.126	184.69
266.358	180.69
266.591	180.69
266.823	200.69
267.055	190.69
267.287	182.69
267.52	178.69
267.752	192.69
267.984	187.69
268.216	187.69
268.448	182.69
268.681	190.69
268.913	211.69
269.145	230.69
269.377	240.69
269.609	248.69
269.841	251.69
270.073	238.69
270.306	259.69
270.538	254.69
270.77	265.69
271.002	288.69
271.234	268.69
271.466	260.69
271.698	271.69
271.93	278.69
272.162	287.69
272.394	286.69
272.626	285.69
272.858	246.69
273.09	250.69
273.322	230.69
273.553	239.69
273.785	240.69
274.017	235.69
274.249	229.69
274.481	225.69
274.713	216.69
274.945	235.69
275.176	225.69
275.408	207.69
275.64	214.69
275.872	213.69
276.104	218.69
276.335	217.69
276.567	231.69
276.799	258.69
277.031	247.69
277.262	274.69
277.494	282.69
277.726	287.69
277.957	261.69
278.189	235.69
278.421	216.69
278.652	226.69
278.884	234.69
279.115	211.69
279.347	206.69
279.579	212.69
279.81	208.69
280.042	207.69
280.273	215.69
280.505	215.69
280.736	216.69
280.968	208.69
281.199	225.69
281.431	223.69
281.662	206.69
281.894	218.69
282.125	218.69
282.356	234.69
282.588	259.69
282.819	268.69
283.051	210.69
283.282	206.69
283.513	220.69
283.745	224.69
283.976	222.69
284.207	228.69
284.439	205.69
284.67	203.69
284.901	218.69
285.132	225.69
285.364	219.69
285.595	216.69
285.826	216.69
286.057	211.69
286.288	217.69
286.52	233.69
286.751	228.69
286.982	228.69
287.213	224.69
287.444	223.69
287.675	230.69
287.906	227.69
288.138	239.69
288.369	235.69
288.6	255.69
288.831	226.69
289.062	230.69
289.293	231.69
289.524	218.69
289.755	217.69
289.986	211.69
290.217	232.69
290.448	215.69
290.679	213.69
290.91	217.69
291.141	218.69
291.371	208.69
291.602	234.69
291.833	216.69
292.064	217.69
292.295	216.69
292.526	210.69
292.757	222.69
292.987	216.69
293.218	224.69
293.449	215.69
293.68	218.69
293.91	228.69
294.141	220.69
294.372	222.69
294.603	229.69
294.833	227.69
295.064	212.69
295.295	232.69
295.525	231.69
295.756	235.69
295.987	233.69
296.217	271.69
296.448	293.69
296.679	265.69
296.909	224.69
297.14	208.69
297.37	247.69
297.601	227.69
297.831	223.69
298.062	239.69
298.292	230.69
298.523	233.69
298.753	242.69
298.984	226.69
299.214	235.69
299.445	238.69
299.675	230.69
299.905	250.69
300.136	247.69
300.366	233.69
300.597	242.69
300.827	246.69
301.057	230.69
301.288	259.69
301.518	264.69
301.748	243.69
301.979	234.69
302.209	267.69
302.439	255.69
302.669	255.69
302.9	274.69
303.13	254.69
303.36	254.69
303.59	260.69
303.82	256.69
304.051	266.69
304.281	248.69
304.511	239.69
304.741	246.69
304.971	254.69
305.201	256.69
305.431	247.69
305.661	258.69
305.891	243.69
306.121	262.69
306.352	276.69
306.582	276.69
306.812	275.69
307.042	255.69
307.272	240.69
307.502	248.69
307.731	282.69
307.961	272.69
308.191	257.69
308.421	266.69
308.651	255.69
308.881	257.69
309.111	283.69
309.341	288.69
309.571	308.69
309.8	307.69
310.03	319.69
310.26	313.69
310.49	316.69
310.72	322.69
310.949	346.69
311.179	356.69
311.409	327.69
311.639	315.69
311.868	314.69
312.098	325.69
312.328	330.69
312.557	327.69
312.787	362.69
313.017	343.69
313.246	336.69
313.476	327.69
313.706	316.69
313.935	315.69
314.165	339.69
314.394	341.69
314.624	354.69
314.853	330.69
315.083	299.69
315.312	302.69
315.542	310.69
315.771	307.69
316.001	319.69
316.23	312.69
316.46	302.69
316.689	315.69
316.919	315.69
317.148	319.69
317.377	312.69
317.607	326.69
317.836	309.69
318.065	330.69
318.295	310.69
318.524	314.69
318.753	308.69
318.983	314.69
319.212	300.69
319.441	315.69
319.67	324.69
319.9	314.69
320.129	313.69
320.358	310.69
320.587	332.69
320.816	316.69
321.046	346.69
321.275	342.69
321.504	325.69
321.733	331.69
321.962	359.69
322.191	371.69
322.42	389.69
322.649	430.69
322.878	414.69
323.108	424.69
323.337	460.69
323.566	494.69
323.795	523.69
324.024	617.69
324.253	722.69
324.482	1096.69
324.71	1635.69
324.939	2310.69
325.168	1978.69
325.397	1088.69
325.626	720.69
325.855	575.69
326.084	505.69
326.313	496.69
326.542	500.69
326.77	554.69
326.999	666.69
327.228	921.69
327.457	1406.69
327.686	1740.69
327.914	1186.69
328.143	800.69
328.372	648.69
328.6	624.69
328.829	559.69
329.058	582.69
329.287	594.69
329.515	527.69
329.744	488.69
329.972	460.69
330.201	454.69
330.43	522.69
330.658	527.69
330.887	591.69
331.115	604.69
331.344	490.69
331.572	444.69
331.801	437.69
332.03	446.69
332.258	400.69
332.486	377.69
332.715	364.69
332.943	376.69
333.172	354.69
333.4	374.69
333.629	360.69
333.857	376.69
334.085	366.69
334.314	368.69
334.542	373.69
334.771	364.69
334.999	355.69
335.227	373.69
335.455	342.69
335.684	346.69
335.912	343.69
336.14	343.69
336.369	343.69
336.597	354.69
336.825	350.69
337.053	350.69
337.281	352.69
337.51	351.69
337.738	350.69
337.966	363.69
338.194	370.69
338.422	363.69
338.65	338.69
338.878	323.69
339.106	318.69
339.334	326.69
339.562	342.69
339.79	336.69
340.018	322.69
340.246	349.69
340.474	345.69
340.702	342.69
340.93	314.69
341.158	348.69
341.386	342.69
341.614	346.69
341.842	336.69
342.07	341.69
342.298	327.69
342.526	323.69
342.754	327.69
342.981	315.69
343.209	339.69
343.437	335.69
343.665	342.69
343.893	330.69
344.12	333.69
344.348	349.69
344.576	333.69
344.804	360.69
345.031	351.69
345.259	380.69
345.487	357.69
345.714	368.69
345.942	340.69
346.17	335.69
346.397	348.69
346.625	358.69
346.853	336.69
347.08	342.69
347.308	335.69
347.535	361.69
347.763	357.69
347.99	366.69
348.218	356.69
348.445	353.69
348.673	371.69
348.9	360.69
349.128	341.69
349.355	325.69
349.583	328.69
349.81	314.69
350.037	329.69
350.265	335.69
350.492	341.69
350.72	339.69
350.947	334.69
351.174	348.69
351.402	368.69
351.629	367.69
351.856	366.69
352.083	368.69
352.311	379.69
352.538	390.69
352.765	378.69
352.992	362.69
353.22	346.69
353.447	367.69
353.674	349.69
353.901	345.69
354.128	340.69
354.355	330.69
354.583	328.69
354.81	327.69
355.037	304.69
355.264	321.69
355.491	303.69
355.718	300.69
355.945	296.69
356.172	306.69
356.399	311.69
356.626	303.69
356.853	324.69
357.08	308.69
357.307	304.69
357.534	312.69
357.761	303.69
357.988	320.69
358.215	304.69
358.441	309.69
358.668	311.69
358.895	319.69
359.122	346.69
359.349	312.69
359.576	340.69
359.802	372.69
360.029	417.69
360.256	444.69
360.483	418.69
360.709	370.69
360.936	388.69
361.163	359.69
361.39	359.69
361.616	345.69
361.843	338.69
362.07	366.69
362.296	357.69
362.523	362.69
362.749	342.69
362.976	320.69
363.203	343.69
363.429	320.69
363.656	338.69
363.882	347.69
364.109	323.69
364.335	326.69
364.562	323.69
364.788	327.69
365.015	324.69
365.241	328.69
365.468	324.69
365.694	346.69
365.92	342.69
366.147	319.69
366.373	326.69
366.599	311.69
366.826	318.69
367.052	337.69
367.278	313.69
367.505	322.69
367.731	323.69
367.957	321.69
368.184	338.69
368.41	332.69
368.636	314.69
368.862	342.69
369.089	322.69
369.315	319.69
369.541	332.69
369.767	328.69
369.993	302.69
370.219	339.69
370.445	323.69
370.672	302.69
370.898	308.69
371.124	308.69
371.35	306.69
371.576	312.69
371.802	330.69
372.028	304.69
372.254	306.69
372.48	327.69
372.706	316.69
372.932	295.69
373.158	322.69
373.384	323.69
373.61	313.69
373.835	307.69
374.061	321.69
374.287	311.69
374.513	321.69
374.739	327.69
374.965	320.69
375.191	315.69
375.416	316.69
375.642	304.69
375.868	312.69
376.094	322.69
376.319	310.69
376.545	309.69
376.771	305.69
376.997	311.69
377.222	296.69
377.448	296.69
377.674	294.69
377.899	307.69
378.125	308.69
378.35	310.69
378.576	303.69
378.802	307.69
379.027	312.69
379.253	304.69
379.478	310.69
379.704	310.69
379.929	313.69
380.155	317.69
380.38	311.69
380.606	321.69
380.831	309.69
381.057	318.69
381.282	323.69
381.507	334.69
381.733	317.69
381.958	302.69
382.184	307.69
382.409	324.69
382.634	331.69
382.86	328.69
383.085	303.69
383.31	315.69
383.535	325.69
383.761	316.69
383.986	326.69
384.211	321.69
384.436	323.69
384.662	326.69
384.887	334.69
385.112	321.69
385.337	342.69
385.562	331.69
385.787	331.69
386.013	327.69
386.238	344.69
386.463	350.69
386.688	328.69
386.913	320.69
387.138	344.69
387.363	333.69
387.588	327.69
387.813	334.69
388.038	315.69
388.263	334.69
388.488	335.69
388.713	328.69
388.938	317.69
389.163	338.69
389.387	343.69
389.612	321.69
389.837	338.69
390.062	322.69
390.287	321.69
390.512	340.69
390.736	327.69
390.961	316.69
391.186	323.69
391.411	337.69
391.636	352.69
391.86	326.69
392.085	330.69
392.31	338.69
392.534	329.69
392.759	331.69
392.984	346.69
393.208	344.69
393.433	332.69
393.658	355.69
393.882	337.69
394.107	326.69
394.331	348.69
394.556	304.69
394.78	320.69
395.005	332.69
395.229	329.69
395.454	336.69
395.678	350.69
395.903	331.69
396.127	366.69
396.352	374.69
396.576	368.69
396.801	363.69
397.025	345.69
397.249	340.69
397.474	376.69
397.698	372.69
397.922	380.69
398.147	371.69
398.371	375.69
398.595	379.69
398.82	375.69
399.044	369.69
399.268	376.69
399.492	407.69
399.717	405.69
399.941	438.69
400.165	475.69
400.389	460.69
400.613	432.69
400.837	410.69
401.062	391.69
401.286	394.69
401.51	389.69
401.734	397.69
401.958	393.69
402.182	392.69
402.406	404.69
402.63	408.69
402.854	377.69
403.078	391.69
403.302	397.69
403.526	410.69
403.75	383.69
403.974	398.69
404.198	391.69
404.422	400.69
404.645	417.69
404.869	391.69
405.093	411.69
405.317	441.69
405.541	463.69
405.765	420.69
405.988	431.69
406.212	430.69
406.436	457.69
406.66	480.69
406.883	442.69
407.107	478.69
407.331	502.69
407.555	542.69
407.778	543.69
408.002	498.69
408.226	457.69
408.449	453.69
408.673	450.69
408.896	486.69
409.12	510.69
409.344	480.69
409.567	424.69
409.791	419.69
410.014	420.69
410.238	409.69
410.461	409.69
410.685	420.69
410.908	405.69
411.132	468.69
411.355	491.69
411.578	467.69
411.802	422.69
412.025	414.69
412.249	412.69
412.472	402.69
412.695	399.69
412.919	406.69
413.142	369.69
413.365	386.69
413.589	385.69
413.812	371.69
414.035	374.69
414.258	363.69
414.482	370.69
414.705	354.69
414.928	372.69
415.151	362.69
415.374	371.69
415.597	364.69
415.821	374.69
416.044	388.69
416.267	375.69
416.49	389.69
416.713	370.69
416.936	374.69
417.159	380.69
417.382	377.69
417.605	391.69
417.828	387.69
418.051	411.69
418.274	401.69
418.497	391.69
418.72	400.69
418.943	360.69
419.166	387.69
419.389	408.69
419.611	411.69
419.834	424.69
420.057	424.69
420.28	396.69
420.503	410.69
420.726	408.69
420.948	419.69
421.171	440.69
421.394	500.69
421.617	454.69
421.839	420.69
422.062	415.69
422.285	446.69
422.507	492.69
422.73	540.69
422.953	534.69
423.175	486.69
423.398	443.69
423.621	430.69
423.843	445.69
424.066	471.69
424.288	465.69
424.511	510.69
424.733	532.69
424.956	601.69
425.178	584.69
425.401	570.69
425.623	609.69
425.846	532.69
426.068	498.69
426.291	498.69
426.513	464.69
426.735	485.69
426.958	524.69
427.18	609.69
427.402	696.69
427.625	766.69
427.847	724.69
428.069	630.69
428.292	536.69
428.514	510.69
428.736	470.69
428.958	456.69
429.181	444.69
429.403	436.69
429.625	460.69
429.847	498.69
430.069	556.69
430.292	560.69
430.514	462.69
430.736	451.69
430.958	446.69
431.18	394.69
431.402	412.69
431.624	404.69
431.846	388.69
432.068	426.69
432.29	401.69
432.512	407.69
432.734	406.69
432.956	389.69
433.178	414.69
433.4	443.69
433.622	397.69
433.844	414.69
434.066	410.69
434.287	429.69
434.509	417.69
434.731	413.69
434.953	427.69
435.175	433.69
435.397	446.69
435.618	472.69
435.84	510.69
436.062	597.69
436.284	641.69
436.505	571.69
436.727	509.69
436.949	495.69
437.17	452.69
437.392	464.69
437.614	460.69
437.835	515.69
438.057	625.69
438.278	712.69
438.5	684.69
438.721	742.69
438.943	678.69
439.165	591.69
439.386	540.69
439.608	492.69
439.829	507.69
440.05	540.69
440.272	566.69
440.493	529.69
440.715	502.69
440.936	461.69
441.158	470.69
441.379	463.69
441.6	459.69
441.822	479.69
442.043	524.69
442.264	618.69
442.486	663.69
442.707	542.69
442.928	491.69
443.149	520.69
443.371	535.69
443.592	574.69
443.813	648.69
444.034	681.69
444.255	563.69
444.476	510.69
444.698	475.69
444.919	488.69
445.14	574.69
445.361	538.69
445.582	520.69
445.803	581.69
446.024	708.69
446.245	694.69
446.466	619.69
446.687	539.69
446.908	473.69
447.129	460.69
447.35	458.69
447.571	460.69
447.792	447.69
448.013	424.69
448.234	498.69
448.455	533.69
448.675	620.69
448.896	683.69
449.117	635.69
449.338	600.69
449.559	704.69
449.779	759.69
450	602.69
450.221	532.69
450.442	487.69
450.662	462.69
450.883	466.69
451.104	478.69
451.324	465.69
451.545	461.69
451.766	449.69
451.986	431.69
452.207	397.69
452.428	405.69
452.648	408.69
452.869	420.69
453.089	418.69
453.31	420.69
453.53	415.69
453.751	412.69
453.971	430.69
454.192	446.69
454.412	440.69
454.633	410.69
454.853	402.69
455.073	427.69
455.294	431.69
455.514	508.69
455.734	471.69
455.955	422.69
456.175	400.69
456.395	380.69
456.616	378.69
456.836	377.69
457.056	366.69
457.276	329.69
457.497	392.69
457.717	372.69
457.937	390.69
458.157	384.69
458.377	402.69
458.598	422.69
458.818	491.69
459.038	603.69
459.258	578.69
459.478	485.69
459.698	426.69
459.918	401.69
460.138	405.69
460.358	401.69
460.578	406.69
460.798	390.69
461.018	416.69
461.238	402.69
461.458	392.69
461.678	381.69
461.898	401.69
462.118	391.69
462.338	388.69
462.558	391.69
462.777	389.69
462.997	407.69
463.217	423.69
463.437	412.69
463.657	387.69
463.876	396.69
464.096	421.69
464.316	409.69
464.536	426.69
464.755	433.69
464.975	444.69
465.195	523.69
465.414	604.69
465.634	525.69
465.854	482.69
466.073	455.69
466.293	431.69
466.512	426.69
466.732	396.69
466.951	396.69
467.171	408.69
467.391	389.69
467.61	430.69
467.829	420.69
468.049	422.69
468.268	405.69
468.488	406.69
468.707	404.69
468.927	383.69
469.146	376.69
469.365	388.69
469.585	397.69
469.804	401.69
470.023	406.69
470.243	410.69
470.462	412.69
470.681	460.69
470.901	434.69
471.12	403.69
471.339	423.69
471.558	409.69
471.777	417.69
471.997	404.69
472.216	416.69
472.435	415.69
472.654	408.69
472.873	401.69
473.092	408.69
473.311	401.69
473.53	418.69
473.749	415.69
473.968	479.69
474.187	562.69
474.406	575.69
474.625	472.69
474.844	409.69
475.063	415.69
475.282	413.69
475.501	398.69
475.72	416.69
475.939	426.69
476.158	431.69
476.377	434.69
476.596	418.69
476.814	424.69
477.033	434.69
477.252	419.69
477.471	434.69
477.69	433.69
477.908	428.69
478.127	440.69
478.346	441.69
478.564	427.69
478.783	451.69
479.002	443.69
479.22	465.69
479.439	476.69
479.658	491.69
479.876	504.69
480.095	525.69
480.313	516.69
480.532	516.69
480.751	490.69
480.969	474.69
481.188	498.69
481.406	500.69
481.624	486.69
481.843	484.69
482.061	504.69
482.28	480.69
482.498	475.69
482.717	483.69
482.935	482.69
483.153	465.69
483.372	495.69
483.59	490.69
483.808	498.69
484.027	484.69
484.245	480.69
484.463	473.69
484.681	488.69
484.9	481.69
485.118	492.69
485.336	506.69
485.554	487.69
485.772	484.69
485.99	488.69
486.209	512.69
486.427	514.69
486.645	527.69
486.863	566.69
487.081	558.69
487.299	553.69
487.517	528.69
487.735	522.69
487.953	516.69
488.171	536.69
488.389	531.69
488.607	533.69
488.825	538.69
489.043	549.69
489.261	550.69
489.479	545.69
489.696	527.69
489.914	543.69
490.132	548.69
490.35	545.69
490.568	540.69
490.786	565.69
491.003	583.69
491.221	564.69
491.439	581.69
491.657	586.69
491.874	599.69
492.092	617.69
492.31	628.69
492.527	602.69
492.745	590.69
492.963	623.69
493.18	618.69
493.398	600.69
493.615	625.69
493.833	634.69
494.05	615.69
494.268	592.69
494.485	610.69
494.703	625.69
494.92	632.69
495.138	624.69
495.355	630.69
495.573	614.69
495.79	640.69
496.008	628.69
496.225	647.69
496.442	634.69
496.66	640.69
496.877	634.69
497.094	645.69
497.312	646.69
497.529	647.69
497.746	656.69
497.963	633.69
498.181	658.69
498.398	666.69
498.615	671.69
498.832	698.69
499.049	683.69
499.267	684.69
499.484	693.69
499.701	712.69
499.918	706.69
500.135	735.69
500.352	733.69
500.569	748.69
500.786	781.69
501.003	744.69
501.22	731.69
501.437	736.69
501.654	721.69
501.871	719.69
502.088	734.69
502.305	727.69
502.522	699.69
502.739	705.69
502.956	665.69
503.172	662.69
503.389	657.69
503.606	688.69
503.823	677.69
504.04	682.69
504.256	652.69
504.473	648.69
504.69	633.69
504.907	641.69
505.123	644.69
505.34	654.69
505.557	608.69
505.773	612.69
505.99	657.69
506.207	622.69
506.423	622.69
506.64	634.69
506.856	630.69
507.073	632.69
507.289	626.69
507.506	625.69
507.722	646.69
507.939	664.69
508.155	667.69
508.372	614.69
508.588	597.69
508.805	588.69
509.021	589.69
509.238	631.69
509.454	644.69
509.67	641.69
509.887	608.69
510.103	640.69
510.319	640.69
510.536	774.69
510.752	1386.69
510.968	1143.69
511.184	646.69
511.401	626.69
511.617	617.69
511.833	609.69
512.049	584.69
512.265	608.69
512.481	585.69
512.698	625.69
512.914	588.69
513.13	609.69
513.346	590.69
513.562	586.69
513.778	616.69
513.994	650.69
514.21	634.69
514.426	662.69
514.642	742.69
514.858	781.69
515.074	850.69
515.29	1058.69
515.506	1641.69
515.721	1313.69
515.937	811.69
516.153	715.69
516.369	666.69
516.585	643.69
516.801	631.69
517.016	631.69
517.232	595.69
517.448	597.69
517.664	628.69
517.879	607.69
518.095	597.69
518.311	600.69
518.527	603.69
518.742	589.69
518.958	597.69
519.173	597.69
519.389	597.69
519.605	590.69
519.82	600.69
520.036	634.69
520.251	664.69
520.467	716.69
520.682	706.69
520.898	707.69
521.113	770.69
521.329	839.69
521.544	962.69
521.76	1276.69
521.975	2217.69
522.19	2155.69
522.406	1115.69
522.621	775.69
522.836	703.69
523.052	642.69
523.267	600.69
523.482	582.69
523.698	560.69
523.913	577.69
524.128	555.69
524.343	553.69
524.559	532.69
524.774	532.69
524.989	552.69
525.204	536.69
525.419	550.69
525.634	511.69
525.849	487.69
526.064	501.69
526.28	502.69
526.495	486.69
526.71	478.69
526.925	464.69
527.14	471.69
527.355	497.69
527.57	482.69
527.785	474.69
527.999	465.69
528.214	473.69
528.429	461.69
528.644	463.69
528.859	468.69
529.074	476.69
529.289	489.69
529.503	611.69
529.718	602.69
529.933	543.69
530.148	506.69
530.363	478.69
530.577	478.69
530.792	470.69
531.007	465.69
531.221	451.69
531.436	475.69
531.651	457.69
531.865	462.69
532.08	448.69
532.295	451.69
532.509	445.69
532.724	443.69
532.938	455.69
533.153	427.69
533.367	407.69
533.582	418.69
533.796	434.69
534.011	428.69
534.225	445.69
534.44	422.69
534.654	421.69
534.868	420.69
535.083	409.69
535.297	413.69
535.511	447.69
535.726	453.69
535.94	435.69
536.154	439.69
536.369	440.69
536.583	438.69
536.797	425.69
537.011	413.69
537.225	422.69
537.44	421.69
537.654	415.69
537.868	419.69
538.082	417.69
538.296	414.69
538.51	429.69
538.724	425.69
538.938	420.69
539.153	438.69
539.367	433.69
539.581	448.69
539.795	432.69
540.009	427.69
540.222	436.69
540.436	426.69
540.65	401.69
540.864	430.69
541.078	432.69
541.292	413.69
541.506	417.69
541.72	414.69
541.934	411.69
542.147	412.69
542.361	415.69
542.575	387.69
542.789	398.69
543.002	392.69
543.216	407.69
543.43	412.69
543.644	417.69
543.857	422.69
544.071	415.69
544.285	436.69
544.498	403.69
544.712	426.69
544.925	420.69
545.139	393.69
545.352	396.69
545.566	379.69
545.779	385.69
545.993	405.69
546.206	400.69
546.42	401.69
546.633	378.69
546.847	378.69
547.06	383.69
547.274	379.69
547.487	362.69
547.7	394.69
547.914	382.69
548.127	385.69
548.34	386.69
548.554	389.69
548.767	386.69
548.98	386.69
549.193	393.69
549.407	370.69
549.62	394.69
549.833	377.69
550.046	379.69
550.259	380.69
550.473	374.69
550.686	374.69
550.899	373.69
551.112	359.69
551.325	364.69
551.538	375.69
551.751	352.69
551.964	374.69
552.177	364.69
552.39	366.69
552.603	383.69
552.816	377.69
553.029	397.69
553.242	372.69
553.455	369.69
553.667	391.69
553.88	405.69
554.093	413.69
554.306	380.69
554.519	372.69
554.732	386.69
554.944	370.69
555.157	367.69
555.37	366.69
555.583	370.69
555.795	384.69
556.008	350.69
556.221	368.69
556.433	346.69
556.646	348.69
556.859	348.69
557.071	354.69
557.284	350.69
557.496	364.69
557.709	354.69
557.921	341.69
558.134	342.69
558.346	336.69
558.559	359.69
558.771	342.69
558.984	340.69
559.196	337.69
559.409	331.69
559.621	349.69
559.833	344.69
560.046	343.69
560.258	324.69
560.47	354.69
560.683	344.69
560.895	322.69
561.107	341.69
561.32	327.69
561.532	329.69
561.744	352.69
561.956	349.69
562.168	340.69
562.381	347.69
562.593	350.69
562.805	352.69
563.017	354.69
563.229	359.69
563.441	350.69
563.653	339.69
563.865	325.69
564.077	332.69
564.289	343.69
564.501	356.69
564.713	350.69
564.925	369.69
565.137	354.69
565.349	350.69
565.561	378.69
565.773	338.69
565.985	359.69
566.197	358.69
566.408	353.69
566.62	357.69
566.832	375.69
567.044	355.69
567.255	376.69
567.467	373.69
567.679	379.69
567.891	393.69
568.102	377.69
568.314	364.69
568.526	352.69
568.737	359.69
568.949	350.69
569.161	357.69
569.372	348.69
569.584	324.69
569.795	337.69
570.007	347.69
570.218	416.69
570.43	382.69
570.641	341.69
570.853	341.69
571.064	347.69
571.276	323.69
571.487	328.69
571.698	322.69
571.91	306.69
572.121	299.69
572.333	304.69
572.544	305.69
572.755	309.69
572.966	315.69
573.178	293.69
573.389	294.69
573.6	310.69
573.811	295.69
574.023	304.69
574.234	288.69
574.445	295.69
574.656	298.69
574.867	274.69
575.078	290.69
575.289	312.69
575.501	286.69
575.712	273.69
575.923	276.69
576.134	293.69
576.345	272.69
576.556	296.69
576.767	292.69
576.978	271.69
577.188	297.69
577.399	277.69
577.61	288.69
577.821	295.69
578.032	304.69
578.243	344.69
578.454	667.69
578.665	459.69
578.875	306.69
579.086	287.69
579.297	280.69
579.508	300.69
579.718	290.69
579.929	291.69
580.14	277.69
580.35	285.69
580.561	263.69
580.772	272.69
580.982	284.69
581.193	260.69
581.403	262.69
581.614	273.69
581.825	283.69
582.035	267.69
582.246	270.69
582.456	262.69
582.667	266.69
582.877	267.69
583.087	273.69
583.298	266.69
583.508	266.69
583.719	258.69
583.929	284.69
584.139	267.69
584.35	252.69
584.56	254.69
584.77	264.69
584.981	262.69
585.191	271.69
585.401	254.69
585.611	266.69
585.821	275.69
586.032	265.69
586.242	255.69
586.452	267.69
586.662	264.69
586.872	254.69
587.082	265.69
587.292	263.69
587.502	255.69
587.713	247.69
587.923	258.69
588.133	264.69
588.343	268.69
588.553	258.69
588.762	254.69
588.972	279.69
589.182	352.69
589.392	343.69
589.602	283.69
589.812	329.69
590.022	306.69
590.232	259.69
590.441	267.69
590.651	250.69
590.861	254.69
591.071	260.69
591.281	253.69
591.49	261.69
591.7	260.69
591.91	266.69
592.119	241.69
592.329	273.69
592.539	276.69
592.748	277.69
592.958	267.69
593.167	268.69
593.377	241.69
593.587	264.69
593.796	237.69
594.006	270.69
594.215	275.69
594.424	246.69
594.634	248.69
594.843	266.69
595.053	259.69
595.262	264.69
595.472	252.69
595.681	241.69
595.89	245.69
596.1	243.69
596.309	243.69
596.518	250.69
596.727	264.69
596.937	264.69
597.146	251.69
597.355	251.69
597.564	242.69
597.774	234.69
597.983	248.69
598.192	222.69
598.401	227.69
598.61	228.69
598.819	229.69
599.028	243.69
599.237	230.69
599.446	235.69
599.655	230.69
599.864	222.69
600.073	246.69
600.282	222.69
600.491	220.69
600.7	235.69
600.909	239.69
601.118	219.69
601.327	211.69
601.536	224.69
601.745	213.69
601.953	242.69
602.162	226.69
602.371	240.69
602.58	233.69
602.789	225.69
602.997	213.69
603.206	212.69
603.415	229.69
603.623	211.69
603.832	209.69
604.041	214.69
604.249	202.69
604.458	224.69
604.666	226.69
604.875	218.69
605.084	213.69
605.292	211.69
605.501	212.69
605.709	209.69
605.918	224.69
606.126	209.69
606.334	220.69
606.543	208.69
606.751	217.69
606.96	228.69
607.168	225.69
607.376	216.69
607.585	219.69
607.793	214.69
608.001	216.69
608.21	239.69
608.418	215.69
608.626	216.69
608.834	208.69
609.043	194.69
609.251	219.69
609.459	219.69
609.667	216.69
609.875	214.69
610.083	205.69
610.291	204.69
610.499	203.69
610.707	211.69
610.916	222.69
611.124	216.69
611.332	220.69
611.54	214.69
611.748	219.69
611.955	212.69
612.163	219.69
612.371	186.69
612.579	200.69
612.787	201.69
612.995	226.69
613.203	208.69
613.411	213.69
613.618	215.69
613.826	209.69
614.034	202.69
614.242	212.69
614.449	219.69
614.657	183.69
614.865	198.69
615.072	183.69
615.28	201.69
615.488	192.69
615.695	200.69
615.903	208.69
616.111	200.69
616.318	211.69
616.526	211.69
616.733	214.69
616.941	210.69
617.148	235.69
617.356	195.69
617.563	197.69
617.771	192.69
617.978	193.69
618.185	205.69
618.393	219.69
618.6	211.69
618.807	200.69
619.015	192.69
619.222	190.69
619.429	208.69
619.637	203.69
619.844	212.69
620.051	198.69
620.258	193.69
620.466	180.69
620.673	202.69
620.88	190.69
621.087	199.69
621.294	200.69
621.501	193.69
621.708	186.69
621.915	194.69
622.122	207.69
622.329	193.69
622.536	187.69
622.743	184.69
622.95	187.69
623.157	193.69
623.364	186.69
623.571	203.69
623.778	207.69
623.985	187.69
624.192	199.69
624.399	181.69
624.606	209.69
624.812	189.69
625.019	194.69
625.226	186.69
625.433	201.69
625.639	190.69
625.846	198.69
626.053	194.69
626.259	185.69
626.466	195.69
626.673	187.69
626.879	182.69
627.086	186.69
627.293	187.69
627.499	185.69
627.706	178.69
627.912	193.69
628.119	168.69
628.325	172.69
628.532	180.69
628.738	166.69
628.945	181.69
629.151	176.69
629.357	177.69
629.564	174.69
629.77	198.69
629.976	171.69
630.183	178.69
630.389	158.69
630.595	176.69
630.802	160.69
631.008	162.69
631.214	168.69
631.42	170.69
631.627	177.69
631.833	167.69
632.039	184.69
632.245	175.69
632.451	184.69
632.657	171.69
632.863	163.69
633.069	178.69
633.275	158.69
633.481	166.69
633.688	162.69
633.893	169.69
634.099	174.69
634.305	168.69
634.511	176.69
634.717	154.69
634.923	167.69
635.129	156.69
635.335	168.69
635.541	167.69
635.747	168.69
635.952	166.69
636.158	155.69
636.364	164.69
636.57	158.69
636.775	169.69
636.981	166.69
637.187	164.69
637.392	155.69
637.598	166.69
637.804	167.69
638.009	163.69
638.215	165.69
638.421	159.69
638.626	172.69
638.832	160.69
639.037	155.69
639.243	159.69
639.448	152.69
639.654	172.69
639.859	145.69
640.065	143.69
640.27	160.69
640.475	163.69
640.681	153.69
640.886	159.69
641.091	160.69
641.297	152.69
641.502	148.69
641.707	139.69
641.913	160.69
642.118	150.69
642.323	162.69
642.528	162.69
642.733	139.69
642.939	167.69
643.144	148.69
643.349	144.69
643.554	162.69
643.759	154.69
643.964	148.69
644.169	135.69
644.374	156.69
644.579	157.69
644.784	154.69
644.989	151.69
645.194	155.69
645.399	150.69
645.604	149.69
645.809	153.69
646.014	148.69
646.219	157.69
646.423	160.69
646.628	158.69
646.833	139.69
647.038	141.69
647.243	151.69
647.447	167.69
647.652	151.69
647.857	142.69
648.062	147.69
648.266	152.69
648.471	158.69
648.676	145.69
648.88	143.69
649.085	146.69
649.289	146.69
649.494	149.69
649.698	167.69
649.903	168.69
650.107	149.69
650.312	167.69
650.516	131.69
650.721	137.69
650.925	136.69
651.13	153.69
651.334	138.69
651.539	129.69
651.743	140.69
651.947	133.69
652.152	134.69
652.356	124.69
652.56	127.69
652.764	133.69
652.969	130.69
653.173	116.69
653.377	114.69
653.581	130.69
653.785	135.69
653.99	126.69
654.194	122.69
654.398	123.69
654.602	134.69
654.806	130.69
655.01	134.69
655.214	127.69
655.418	134.69
655.622	131.69
655.826	128.69
656.03	108.69
656.234	131.69
656.438	112.69
656.642	119.69
656.846	118.69
657.049	112.69
657.253	120.69
657.457	104.69
657.661	112.69
657.865	124.69
658.068	99.69
658.272	116.69
658.476	99.69
658.68	110.69
658.883	100.69
659.087	84.69
659.291	90.69
659.494	99.69
659.698	99.69
659.901	91.69
660.105	94.69
660.309	97.69
660.512	88.69
660.716	86.69
660.919	93.69
661.123	85.69
661.326	98.69
661.53	85.69
661.733	92.69
661.936	96.69
662.14	84.69
662.343	93.69
662.546	94.69
662.75	85.69
662.953	78.69
663.156	81.69
663.36	87.69
663.563	85.69
663.766	76.69
663.969	80.69
664.173	70.69
664.376	88.69
664.579	84.69
664.782	79.69
664.985	73.69
665.188	82.69
665.391	80.69
665.594	88.69
665.797	87.69
666	90.69
666.203	89.69
666.406	76.69
666.609	76.69
666.812	92.69
667.015	74.69
667.218	81.69
667.421	87.69
667.624	76.69
667.827	85.69
668.03	78.69
668.232	89.69
668.435	84.69
668.638	79.69
668.841	89.69
669.043	87.69
669.246	87.69
669.449	92.69
669.651	71.69
669.854	69.69
670.057	82.69
670.259	72.69
670.462	81.69
670.665	85.69
670.867	87.69
671.07	81.69
671.272	79.69
671.475	77.69
671.677	74.69
671.88	76.69
672.082	79.69
672.284	69.69
672.487	69.69
672.689	83.69
672.892	76.69
