Data from 1987.PennyLincolnUp.Lamp.En5.5.200Scan.071819.P2_HRD10591_17-14-16-979.txt Node
Date: Thu Jul 18 17:14:16 EDT 2019
User: cochatt
Spectrometer: HR+D1059
Trigger mode: 1
Integration Time (sec): 1.000000E-1
Scans to average: 1
Electric dark correction enabled: true
Nonlinearity correction enabled: false
Boxcar width: 0
XAxis mode: Wavelengths
Number of Pixels in Spectrum: 2048
>>>>>Begin Spectral Data<<<<<
223.165	-12.25
223.4	-12.25
223.635	-12.25
223.869	-17.25
224.104	-17.25
224.338	-2.25
224.573	-15.25
224.808	-8.25
225.042	1.75
225.277	-11.25
225.511	-8.25
225.746	-9.25
225.98	5.75
226.215	4.75
226.449	19.75
226.683	23.75
226.918	15.75
227.152	29.75
227.387	28.75
227.621	46.75
227.856	51.75
228.09	40.75
228.324	50.75
228.559	44.75
228.793	62.75
229.027	106.75
229.262	104.75
229.496	116.75
229.73	134.75
229.964	152.75
230.199	131.75
230.433	117.75
230.667	127.75
230.901	116.75
231.136	113.75
231.37	118.75
231.604	118.75
231.838	102.75
232.072	122.75
232.306	119.75
232.541	100.75
232.775	106.75
233.009	103.75
233.243	116.75
233.477	110.75
233.711	126.75
233.945	105.75
234.179	122.75
234.413	121.75
234.647	111.75
234.881	100.75
235.115	124.75
235.349	109.75
235.583	105.75
235.817	117.75
236.051	121.75
236.285	115.75
236.519	114.75
236.753	134.75
236.987	154.75
237.221	183.75
237.455	242.75
237.689	168.75
237.922	134.75
238.156	116.75
238.39	130.75
238.624	120.75
238.858	119.75
239.091	124.75
239.325	114.75
239.559	119.75
239.793	127.75
240.027	140.75
240.26	142.75
240.494	158.75
240.728	139.75
240.961	144.75
241.195	142.75
241.429	133.75
241.662	124.75
241.896	130.75
242.13	137.75
242.363	112.75
242.597	134.75
242.83	135.75
243.064	122.75
243.298	146.75
243.531	135.75
243.765	144.75
243.998	143.75
244.232	125.75
244.465	118.75
244.699	137.75
244.932	132.75
245.166	131.75
245.399	142.75
245.633	143.75
245.866	151.75
246.099	135.75
246.333	134.75
246.566	132.75
246.8	143.75
247.033	137.75
247.266	129.75
247.5	152.75
247.733	139.75
247.966	173.75
248.2	156.75
248.433	151.75
248.666	155.75
248.899	167.75
249.133	179.75
249.366	199.75
249.599	201.75
249.832	164.75
250.066	162.75
250.299	147.75
250.532	176.75
250.765	191.75
250.998	207.75
251.231	208.75
251.465	191.75
251.698	197.75
251.931	183.75
252.164	192.75
252.397	184.75
252.63	188.75
252.863	195.75
253.096	196.75
253.329	214.75
253.562	215.75
253.795	202.75
254.028	202.75
254.261	207.75
254.494	205.75
254.727	230.75
254.96	253.75
255.193	258.75
255.426	237.75
255.659	219.75
255.892	208.75
256.124	195.75
256.357	197.75
256.59	203.75
256.823	198.75
257.056	194.75
257.289	203.75
257.521	175.75
257.754	186.75
257.987	196.75
258.22	185.75
258.452	182.75
258.685	165.75
258.918	181.75
259.151	164.75
259.383	197.75
259.616	207.75
259.849	199.75
260.081	195.75
260.314	221.75
260.547	231.75
260.779	218.75
261.012	214.75
261.244	228.75
261.477	208.75
261.71	219.75
261.942	220.75
262.175	229.75
262.407	211.75
262.64	185.75
262.872	190.75
263.105	195.75
263.337	185.75
263.57	170.75
263.802	182.75
264.035	184.75
264.267	189.75
264.499	180.75
264.732	165.75
264.964	178.75
265.197	174.75
265.429	183.75
265.661	175.75
265.894	173.75
266.126	186.75
266.358	172.75
266.591	190.75
266.823	180.75
267.055	201.75
267.287	194.75
267.52	166.75
267.752	187.75
267.984	206.75
268.216	183.75
268.448	192.75
268.681	194.75
268.913	204.75
269.145	232.75
269.377	240.75
269.609	241.75
269.841	219.75
270.073	227.75
270.306	259.75
270.538	260.75
270.77	270.75
271.002	282.75
271.234	264.75
271.466	263.75
271.698	296.75
271.93	264.75
272.162	273.75
272.394	266.75
272.626	250.75
272.858	255.75
273.09	239.75
273.322	232.75
273.553	237.75
273.785	223.75
274.017	187.75
274.249	216.75
274.481	226.75
274.713	230.75
274.945	222.75
275.176	233.75
275.408	230.75
275.64	234.75
275.872	229.75
276.104	233.75
276.335	204.75
276.567	234.75
276.799	231.75
277.031	257.75
277.262	252.75
277.494	260.75
277.726	256.75
277.957	246.75
278.189	244.75
278.421	239.75
278.652	228.75
278.884	216.75
279.115	218.75
279.347	221.75
279.579	212.75
279.81	220.75
280.042	216.75
280.273	197.75
280.505	202.75
280.736	204.75
280.968	199.75
281.199	199.75
281.431	202.75
281.662	214.75
281.894	207.75
282.125	216.75
282.356	232.75
282.588	268.75
282.819	257.75
283.051	228.75
283.282	214.75
283.513	203.75
283.745	210.75
283.976	208.75
284.207	217.75
284.439	223.75
284.67	218.75
284.901	220.75
285.132	222.75
285.364	219.75
285.595	207.75
285.826	214.75
286.057	230.75
286.288	206.75
286.52	214.75
286.751	209.75
286.982	211.75
287.213	227.75
287.444	211.75
287.675	214.75
287.906	211.75
288.138	246.75
288.369	222.75
288.6	240.75
288.831	221.75
289.062	232.75
289.293	230.75
289.524	217.75
289.755	214.75
289.986	232.75
290.217	215.75
290.448	217.75
290.679	208.75
290.91	229.75
291.141	201.75
291.371	211.75
291.602	225.75
291.833	207.75
292.064	218.75
292.295	217.75
292.526	213.75
292.757	213.75
292.987	213.75
293.218	216.75
293.449	217.75
293.68	242.75
293.91	208.75
294.141	235.75
294.372	223.75
294.603	229.75
294.833	227.75
295.064	217.75
295.295	222.75
295.525	215.75
295.756	235.75
295.987	239.75
296.217	227.75
296.448	271.75
296.679	242.75
296.909	206.75
297.14	224.75
297.37	212.75
297.601	228.75
297.831	221.75
298.062	223.75
298.292	214.75
298.523	224.75
298.753	233.75
298.984	208.75
299.214	254.75
299.445	219.75
299.675	229.75
299.905	245.75
300.136	231.75
300.366	234.75
300.597	222.75
300.827	244.75
301.057	238.75
301.288	245.75
301.518	230.75
301.748	238.75
301.979	247.75
302.209	253.75
302.439	243.75
302.669	261.75
302.9	236.75
303.13	225.75
303.36	234.75
303.59	262.75
303.82	249.75
304.051	258.75
304.281	238.75
304.511	224.75
304.741	237.75
304.971	270.75
305.201	243.75
305.431	232.75
305.661	238.75
305.891	239.75
306.121	256.75
306.352	256.75
306.582	252.75
306.812	249.75
307.042	255.75
307.272	247.75
307.502	250.75
307.731	255.75
307.961	251.75
308.191	262.75
308.421	266.75
308.651	263.75
308.881	268.75
309.111	276.75
309.341	262.75
309.571	262.75
309.8	274.75
310.03	299.75
310.26	308.75
310.49	317.75
310.72	318.75
310.949	341.75
311.179	315.75
311.409	301.75
311.639	311.75
311.868	314.75
312.098	310.75
312.328	301.75
312.557	327.75
312.787	343.75
313.017	330.75
313.246	324.75
313.476	302.75
313.706	299.75
313.935	312.75
314.165	320.75
314.394	331.75
314.624	330.75
314.853	299.75
315.083	294.75
315.312	297.75
315.542	287.75
315.771	284.75
316.001	291.75
316.23	302.75
316.46	306.75
316.689	292.75
316.919	306.75
317.148	312.75
317.377	297.75
317.607	284.75
317.836	316.75
318.065	312.75
318.295	303.75
318.524	286.75
318.753	284.75
318.983	298.75
319.212	304.75
319.441	296.75
319.67	311.75
319.9	310.75
320.129	281.75
320.358	297.75
320.587	314.75
320.816	318.75
321.046	335.75
321.275	318.75
321.504	305.75
321.733	302.75
321.962	328.75
322.191	341.75
322.42	355.75
322.649	393.75
322.878	402.75
323.108	410.75
323.337	431.75
323.566	454.75
323.795	494.75
324.024	541.75
324.253	706.75
324.482	971.75
324.71	1478.75
324.939	2087.75
325.168	1868.75
325.397	1001.75
325.626	670.75
325.855	534.75
326.084	486.75
326.313	458.75
326.542	457.75
326.77	504.75
326.999	609.75
327.228	836.75
327.457	1298.75
327.686	1590.75
327.914	1114.75
328.143	710.75
328.372	607.75
328.6	559.75
328.829	519.75
329.058	537.75
329.287	575.75
329.515	506.75
329.744	453.75
329.972	426.75
330.201	438.75
330.43	460.75
330.658	523.75
330.887	558.75
331.115	553.75
331.344	455.75
331.572	414.75
331.801	419.75
332.03	415.75
332.258	387.75
332.486	366.75
332.715	362.75
332.943	371.75
333.172	342.75
333.4	344.75
333.629	354.75
333.857	368.75
334.085	358.75
334.314	361.75
334.542	345.75
334.771	362.75
334.999	373.75
335.227	375.75
335.455	347.75
335.684	342.75
335.912	335.75
336.14	339.75
336.369	341.75
336.597	330.75
336.825	338.75
337.053	349.75
337.281	335.75
337.51	342.75
337.738	329.75
337.966	328.75
338.194	330.75
338.422	337.75
338.65	325.75
338.878	330.75
339.106	308.75
339.334	321.75
339.562	331.75
339.79	321.75
340.018	319.75
340.246	344.75
340.474	348.75
340.702	343.75
340.93	339.75
341.158	333.75
341.386	348.75
341.614	347.75
341.842	351.75
342.07	326.75
342.298	328.75
342.526	325.75
342.754	310.75
342.981	331.75
343.209	308.75
343.437	320.75
343.665	302.75
343.893	325.75
344.12	322.75
344.348	317.75
344.576	324.75
344.804	319.75
345.031	375.75
345.259	351.75
345.487	358.75
345.714	356.75
345.942	339.75
346.17	339.75
346.397	355.75
346.625	339.75
346.853	311.75
347.08	340.75
347.308	340.75
347.535	348.75
347.763	355.75
347.99	338.75
348.218	339.75
348.445	353.75
348.673	350.75
348.9	355.75
349.128	320.75
349.355	342.75
349.583	326.75
349.81	306.75
350.037	324.75
350.265	316.75
350.492	312.75
350.72	333.75
350.947	334.75
351.174	349.75
351.402	359.75
351.629	328.75
351.856	330.75
352.083	370.75
352.311	346.75
352.538	373.75
352.765	352.75
352.992	355.75
353.22	336.75
353.447	332.75
353.674	306.75
353.901	318.75
354.128	302.75
354.355	319.75
354.583	298.75
354.81	321.75
355.037	309.75
355.264	311.75
355.491	297.75
355.718	319.75
355.945	298.75
356.172	316.75
356.399	316.75
356.626	301.75
356.853	301.75
357.08	317.75
357.307	288.75
357.534	294.75
357.761	293.75
357.988	303.75
358.215	309.75
358.441	298.75
358.668	286.75
358.895	316.75
359.122	315.75
359.349	325.75
359.576	352.75
359.802	353.75
360.029	400.75
360.256	394.75
360.483	398.75
360.709	344.75
360.936	336.75
361.163	339.75
361.39	340.75
361.616	346.75
361.843	336.75
362.07	360.75
362.296	347.75
362.523	337.75
362.749	323.75
362.976	323.75
363.203	318.75
363.429	311.75
363.656	313.75
363.882	309.75
364.109	328.75
364.335	315.75
364.562	313.75
364.788	298.75
365.015	318.75
365.241	307.75
365.468	342.75
365.694	336.75
365.92	308.75
366.147	323.75
366.373	333.75
366.599	318.75
366.826	333.75
367.052	314.75
367.278	308.75
367.505	311.75
367.731	316.75
367.957	313.75
368.184	306.75
368.41	316.75
368.636	317.75
368.862	340.75
369.089	326.75
369.315	303.75
369.541	304.75
369.767	302.75
369.993	320.75
370.219	300.75
370.445	320.75
370.672	316.75
370.898	303.75
371.124	304.75
371.35	307.75
371.576	288.75
371.802	286.75
372.028	314.75
372.254	306.75
372.48	307.75
372.706	308.75
372.932	308.75
373.158	318.75
373.384	297.75
373.61	288.75
373.835	317.75
374.061	286.75
374.287	303.75
374.513	284.75
374.739	317.75
374.965	298.75
375.191	314.75
375.416	328.75
375.642	298.75
375.868	298.75
376.094	294.75
376.319	294.75
376.545	314.75
376.771	311.75
376.997	315.75
377.222	302.75
377.448	293.75
377.674	291.75
377.899	295.75
378.125	318.75
378.35	300.75
378.576	306.75
378.802	304.75
379.027	267.75
379.253	287.75
379.478	312.75
379.704	309.75
379.929	321.75
380.155	301.75
380.38	315.75
380.606	313.75
380.831	295.75
381.057	309.75
381.282	322.75
381.507	312.75
381.733	304.75
381.958	331.75
382.184	312.75
382.409	318.75
382.634	316.75
382.86	319.75
383.085	326.75
383.31	318.75
383.535	322.75
383.761	282.75
383.986	298.75
384.211	307.75
384.436	318.75
384.662	312.75
384.887	325.75
385.112	311.75
385.337	311.75
385.562	328.75
385.787	322.75
386.013	334.75
386.238	336.75
386.463	337.75
386.688	306.75
386.913	315.75
387.138	343.75
387.363	333.75
387.588	320.75
387.813	327.75
388.038	323.75
388.263	339.75
388.488	326.75
388.713	320.75
388.938	329.75
389.163	320.75
389.387	328.75
389.612	328.75
389.837	314.75
390.062	317.75
390.287	327.75
390.512	312.75
390.736	328.75
390.961	319.75
391.186	326.75
391.411	325.75
391.636	307.75
391.86	307.75
392.085	335.75
392.31	335.75
392.534	332.75
392.759	351.75
392.984	340.75
393.208	337.75
393.433	347.75
393.658	349.75
393.882	331.75
394.107	314.75
394.331	302.75
394.556	321.75
394.78	326.75
395.005	311.75
395.229	303.75
395.454	326.75
395.678	339.75
395.903	352.75
396.127	379.75
396.352	354.75
396.576	344.75
396.801	343.75
397.025	349.75
397.249	351.75
397.474	332.75
397.698	352.75
397.922	353.75
398.147	363.75
398.371	366.75
398.595	366.75
398.82	336.75
399.044	363.75
399.268	363.75
399.492	379.75
399.717	395.75
399.941	436.75
400.165	454.75
400.389	457.75
400.613	425.75
400.837	404.75
401.062	376.75
401.286	383.75
401.51	376.75
401.734	362.75
401.958	354.75
402.182	361.75
402.406	390.75
402.63	394.75
402.854	377.75
403.078	403.75
403.302	390.75
403.526	380.75
403.75	393.75
403.974	388.75
404.198	384.75
404.422	394.75
404.645	409.75
404.869	395.75
405.093	397.75
405.317	419.75
405.541	432.75
405.765	420.75
405.988	401.75
406.212	416.75
406.436	450.75
406.66	462.75
406.883	441.75
407.107	460.75
407.331	477.75
407.555	536.75
407.778	524.75
408.002	476.75
408.226	451.75
408.449	436.75
408.673	429.75
408.896	485.75
409.12	488.75
409.344	474.75
409.567	412.75
409.791	415.75
410.014	391.75
410.238	386.75
410.461	421.75
410.685	398.75
410.908	415.75
411.132	446.75
411.355	464.75
411.578	463.75
411.802	413.75
412.025	403.75
412.249	392.75
412.472	388.75
412.695	400.75
412.919	393.75
413.142	365.75
413.365	376.75
413.589	388.75
413.812	398.75
414.035	384.75
414.258	374.75
414.482	376.75
414.705	377.75
414.928	361.75
415.151	356.75
415.374	374.75
415.597	374.75
415.821	380.75
416.044	359.75
416.267	384.75
416.49	380.75
416.713	355.75
416.936	394.75
417.159	365.75
417.382	383.75
417.605	382.75
417.828	383.75
418.051	393.75
418.274	385.75
418.497	380.75
418.72	371.75
418.943	357.75
419.166	400.75
419.389	406.75
419.611	401.75
419.834	391.75
420.057	404.75
420.28	387.75
420.503	384.75
420.726	387.75
420.948	422.75
421.171	454.75
421.394	498.75
421.617	427.75
421.839	396.75
422.062	401.75
422.285	417.75
422.507	501.75
422.73	529.75
422.953	572.75
423.175	481.75
423.398	445.75
423.621	431.75
423.843	444.75
424.066	453.75
424.288	456.75
424.511	465.75
424.733	529.75
424.956	590.75
425.178	573.75
425.401	575.75
425.623	590.75
425.846	508.75
426.068	486.75
426.291	483.75
426.513	459.75
426.735	477.75
426.958	504.75
427.18	584.75
427.402	701.75
427.625	748.75
427.847	695.75
428.069	587.75
428.292	546.75
428.514	495.75
428.736	450.75
428.958	457.75
429.181	430.75
429.403	448.75
429.625	450.75
429.847	482.75
430.069	560.75
430.292	533.75
430.514	452.75
430.736	418.75
430.958	417.75
431.18	400.75
431.402	399.75
431.624	374.75
431.846	396.75
432.068	383.75
432.29	401.75
432.512	407.75
432.734	403.75
432.956	400.75
433.178	420.75
433.4	424.75
433.622	411.75
433.844	417.75
434.066	394.75
434.287	405.75
434.509	396.75
434.731	404.75
434.953	401.75
435.175	406.75
435.397	445.75
435.618	464.75
435.84	488.75
436.062	612.75
436.284	645.75
436.505	542.75
436.727	490.75
436.949	469.75
437.17	461.75
437.392	455.75
437.614	471.75
437.835	483.75
438.057	597.75
438.278	673.75
438.5	666.75
438.721	704.75
438.943	694.75
439.165	577.75
439.386	530.75
439.608	501.75
439.829	491.75
440.05	510.75
440.272	552.75
440.493	521.75
440.715	476.75
440.936	458.75
441.158	441.75
441.379	458.75
441.6	430.75
441.822	452.75
442.043	513.75
442.264	574.75
442.486	620.75
442.707	512.75
442.928	510.75
443.149	522.75
443.371	521.75
443.592	552.75
443.813	632.75
444.034	648.75
444.255	564.75
444.476	491.75
444.698	474.75
444.919	461.75
445.14	572.75
445.361	528.75
445.582	525.75
445.803	587.75
446.024	631.75
446.245	663.75
446.466	622.75
446.687	527.75
446.908	489.75
447.129	474.75
447.35	452.75
447.571	438.75
447.792	449.75
448.013	448.75
448.234	462.75
448.455	511.75
448.675	604.75
448.896	706.75
449.117	600.75
449.338	560.75
449.559	631.75
449.779	716.75
450	606.75
450.221	510.75
450.442	453.75
450.662	446.75
450.883	446.75
451.104	491.75
451.324	451.75
451.545	449.75
451.766	419.75
451.986	394.75
452.207	378.75
452.428	391.75
452.648	402.75
452.869	414.75
453.089	421.75
453.31	426.75
453.53	425.75
453.751	399.75
453.971	419.75
454.192	450.75
454.412	448.75
454.633	412.75
454.853	399.75
455.073	408.75
455.294	417.75
455.514	491.75
455.734	471.75
455.955	412.75
456.175	379.75
456.395	378.75
456.616	380.75
456.836	355.75
457.056	378.75
457.276	360.75
457.497	367.75
457.717	363.75
457.937	362.75
458.157	364.75
458.377	370.75
458.598	404.75
458.818	480.75
459.038	546.75
459.258	583.75
459.478	471.75
459.698	417.75
459.918	396.75
460.138	392.75
460.358	409.75
460.578	386.75
460.798	423.75
461.018	380.75
461.238	380.75
461.458	379.75
461.678	377.75
461.898	383.75
462.118	376.75
462.338	382.75
462.558	395.75
462.777	399.75
462.997	400.75
463.217	391.75
463.437	412.75
463.657	389.75
463.876	407.75
464.096	395.75
464.316	399.75
464.536	408.75
464.755	407.75
464.975	411.75
465.195	473.75
465.414	560.75
465.634	524.75
465.854	439.75
466.073	436.75
466.293	404.75
466.512	406.75
466.732	392.75
466.951	384.75
467.171	362.75
467.391	383.75
467.61	400.75
467.829	420.75
468.049	394.75
468.268	389.75
468.488	386.75
468.707	373.75
468.927	372.75
469.146	374.75
469.365	367.75
469.585	378.75
469.804	374.75
470.023	401.75
470.243	410.75
470.462	417.75
470.681	422.75
470.901	431.75
471.12	396.75
471.339	391.75
471.558	422.75
471.777	393.75
471.997	374.75
472.216	373.75
472.435	390.75
472.654	373.75
472.873	390.75
473.092	370.75
473.311	385.75
473.53	401.75
473.749	421.75
473.968	448.75
474.187	559.75
474.406	580.75
474.625	462.75
474.844	434.75
475.063	403.75
475.282	393.75
475.501	410.75
475.72	405.75
475.939	407.75
476.158	408.75
476.377	414.75
476.596	395.75
476.814	415.75
477.033	419.75
477.252	417.75
477.471	423.75
477.69	437.75
477.908	426.75
478.127	436.75
478.346	423.75
478.564	447.75
478.783	426.75
479.002	441.75
479.22	440.75
479.439	464.75
479.658	479.75
479.876	478.75
480.095	488.75
480.313	505.75
480.532	517.75
480.751	471.75
480.969	488.75
481.188	498.75
481.406	495.75
481.624	478.75
481.843	480.75
482.061	476.75
482.28	467.75
482.498	462.75
482.717	463.75
482.935	466.75
483.153	466.75
483.372	435.75
483.59	449.75
483.808	476.75
484.027	481.75
484.245	468.75
484.463	469.75
484.681	479.75
484.9	474.75
485.118	474.75
485.336	476.75
485.554	488.75
485.772	461.75
485.99	483.75
486.209	483.75
486.427	511.75
486.645	483.75
486.863	516.75
487.081	519.75
487.299	509.75
487.517	499.75
487.735	516.75
487.953	503.75
488.171	530.75
488.389	519.75
488.607	520.75
488.825	506.75
489.043	516.75
489.261	510.75
489.479	524.75
489.696	542.75
489.914	526.75
490.132	538.75
490.35	540.75
490.568	551.75
490.786	534.75
491.003	566.75
491.221	586.75
491.439	574.75
491.657	588.75
491.874	590.75
492.092	572.75
492.31	579.75
492.527	585.75
492.745	605.75
492.963	603.75
493.18	601.75
493.398	603.75
493.615	622.75
493.833	614.75
494.05	641.75
494.268	594.75
494.485	597.75
494.703	592.75
494.92	618.75
495.138	626.75
495.355	622.75
495.573	607.75
495.79	619.75
496.008	611.75
496.225	619.75
496.442	611.75
496.66	623.75
496.877	635.75
497.094	623.75
497.312	617.75
497.529	647.75
497.746	654.75
497.963	637.75
498.181	636.75
498.398	654.75
498.615	667.75
498.832	688.75
499.049	678.75
499.267	698.75
499.484	690.75
499.701	682.75
499.918	708.75
500.135	708.75
500.352	724.75
500.569	734.75
500.786	702.75
501.003	730.75
501.22	726.75
501.437	724.75
501.654	755.75
501.871	741.75
502.088	731.75
502.305	699.75
502.522	674.75
502.739	679.75
502.956	654.75
503.172	680.75
503.389	653.75
503.606	645.75
503.823	667.75
504.04	663.75
504.256	616.75
504.473	636.75
504.69	624.75
504.907	627.75
505.123	610.75
505.34	609.75
505.557	607.75
505.773	608.75
505.99	615.75
506.207	622.75
506.423	609.75
506.64	620.75
506.856	597.75
507.073	619.75
507.289	606.75
507.506	597.75
507.722	616.75
507.939	656.75
508.155	637.75
508.372	594.75
508.588	637.75
508.805	584.75
509.021	588.75
509.238	607.75
509.454	629.75
509.67	581.75
509.887	615.75
510.103	596.75
510.319	612.75
510.536	751.75
510.752	1340.75
510.968	1048.75
511.184	649.75
511.401	599.75
511.617	597.75
511.833	591.75
512.049	562.75
512.265	558.75
512.481	569.75
512.698	571.75
512.914	563.75
513.13	577.75
513.346	554.75
513.562	587.75
513.778	574.75
513.994	586.75
514.21	623.75
514.426	655.75
514.642	696.75
514.858	729.75
515.074	777.75
515.29	964.75
515.506	1488.75
515.721	1197.75
515.937	744.75
516.153	668.75
516.369	639.75
516.585	619.75
516.801	611.75
517.016	572.75
517.232	588.75
517.448	583.75
517.664	603.75
517.879	563.75
518.095	553.75
518.311	555.75
518.527	557.75
518.742	579.75
518.958	572.75
519.173	581.75
519.389	554.75
519.605	594.75
519.82	582.75
520.036	615.75
520.251	611.75
520.467	685.75
520.682	678.75
520.898	692.75
521.113	692.75
521.329	760.75
521.544	878.75
521.76	1174.75
521.975	1950.75
522.19	1961.75
522.406	1029.75
522.621	743.75
522.836	678.75
523.052	616.75
523.267	594.75
523.482	575.75
523.698	522.75
523.913	537.75
524.128	536.75
524.343	520.75
524.559	518.75
524.774	483.75
524.989	479.75
525.204	510.75
525.419	525.75
525.634	490.75
525.849	476.75
526.064	488.75
526.28	479.75
526.495	456.75
526.71	463.75
526.925	447.75
527.14	463.75
527.355	461.75
527.57	470.75
527.785	440.75
527.999	469.75
528.214	430.75
528.429	445.75
528.644	460.75
528.859	447.75
529.074	469.75
529.289	494.75
529.503	588.75
529.718	590.75
529.933	518.75
530.148	492.75
530.363	479.75
530.577	435.75
530.792	452.75
531.007	444.75
531.221	428.75
531.436	427.75
531.651	440.75
531.865	419.75
532.08	428.75
532.295	431.75
532.509	405.75
532.724	427.75
532.938	442.75
533.153	440.75
533.367	409.75
533.582	426.75
533.796	434.75
534.011	425.75
534.225	390.75
534.44	414.75
534.654	406.75
534.868	401.75
535.083	429.75
535.297	411.75
535.511	424.75
535.726	420.75
535.94	438.75
536.154	437.75
536.369	442.75
536.583	421.75
536.797	408.75
537.011	416.75
537.225	421.75
537.44	396.75
537.654	401.75
537.868	414.75
538.082	414.75
538.296	410.75
538.51	412.75
538.724	407.75
538.938	409.75
539.153	403.75
539.367	435.75
539.581	416.75
539.795	422.75
540.009	390.75
540.222	415.75
540.436	407.75
540.65	413.75
540.864	411.75
541.078	412.75
541.292	409.75
541.506	412.75
541.72	413.75
541.934	400.75
542.147	400.75
542.361	404.75
542.575	396.75
542.789	411.75
543.002	397.75
543.216	411.75
543.43	393.75
543.644	400.75
543.857	400.75
544.071	395.75
544.285	403.75
544.498	374.75
544.712	380.75
544.925	382.75
545.139	398.75
545.352	371.75
545.566	384.75
545.779	386.75
545.993	378.75
546.206	378.75
546.42	382.75
546.633	379.75
546.847	392.75
547.06	358.75
547.274	374.75
547.487	363.75
547.7	382.75
547.914	362.75
548.127	386.75
548.34	379.75
548.554	386.75
548.767	384.75
548.98	374.75
549.193	376.75
549.407	364.75
549.62	367.75
549.833	372.75
550.046	356.75
550.259	355.75
550.473	376.75
550.686	366.75
550.899	363.75
551.112	349.75
551.325	360.75
551.538	379.75
551.751	356.75
551.964	370.75
552.177	376.75
552.39	383.75
552.603	366.75
552.816	386.75
553.029	351.75
553.242	370.75
553.455	373.75
553.667	381.75
553.88	390.75
554.093	373.75
554.306	383.75
554.519	377.75
554.732	358.75
554.944	377.75
555.157	352.75
555.37	334.75
555.583	362.75
555.795	368.75
556.008	347.75
556.221	341.75
556.433	318.75
556.646	347.75
556.859	342.75
557.071	330.75
557.284	338.75
557.496	331.75
557.709	326.75
557.921	333.75
558.134	338.75
558.346	357.75
558.559	343.75
558.771	343.75
558.984	343.75
559.196	321.75
559.409	325.75
559.621	337.75
559.833	336.75
560.046	301.75
560.258	339.75
560.47	350.75
560.683	348.75
560.895	337.75
561.107	334.75
561.32	341.75
561.532	344.75
561.744	321.75
561.956	332.75
562.168	333.75
562.381	344.75
562.593	332.75
562.805	334.75
563.017	316.75
563.229	346.75
563.441	319.75
563.653	344.75
563.865	328.75
564.077	332.75
564.289	347.75
564.501	351.75
564.713	349.75
564.925	331.75
565.137	349.75
565.349	353.75
565.561	362.75
565.773	351.75
565.985	341.75
566.197	352.75
566.408	356.75
566.62	355.75
566.832	355.75
567.044	350.75
567.255	354.75
567.467	367.75
567.679	348.75
567.891	359.75
568.102	372.75
568.314	381.75
568.526	364.75
568.737	356.75
568.949	340.75
569.161	344.75
569.372	345.75
569.584	330.75
569.795	327.75
570.007	341.75
570.218	394.75
570.43	394.75
570.641	336.75
570.853	326.75
571.064	316.75
571.276	307.75
571.487	317.75
571.698	306.75
571.91	318.75
572.121	331.75
572.333	291.75
572.544	295.75
572.755	308.75
572.966	302.75
573.178	312.75
573.389	297.75
573.6	296.75
573.811	295.75
574.023	283.75
574.234	287.75
574.445	277.75
574.656	287.75
574.867	291.75
575.078	294.75
575.289	298.75
575.501	304.75
575.712	294.75
575.923	295.75
576.134	276.75
576.345	291.75
576.556	293.75
576.767	283.75
576.978	283.75
577.188	301.75
577.399	291.75
577.61	270.75
577.821	282.75
578.032	296.75
578.243	331.75
578.454	608.75
578.665	421.75
578.875	308.75
579.086	296.75
579.297	285.75
579.508	283.75
579.718	280.75
579.929	282.75
580.14	272.75
580.35	261.75
580.561	258.75
580.772	286.75
580.982	274.75
581.193	259.75
581.403	262.75
581.614	259.75
581.825	275.75
582.035	257.75
582.246	281.75
582.456	278.75
582.667	290.75
582.877	275.75
583.087	271.75
583.298	262.75
583.508	257.75
583.719	249.75
583.929	259.75
584.139	255.75
584.35	271.75
584.56	262.75
584.77	268.75
584.981	267.75
585.191	258.75
585.401	252.75
585.611	259.75
585.821	252.75
586.032	272.75
586.242	261.75
586.452	256.75
586.662	266.75
586.872	250.75
587.082	259.75
587.292	272.75
587.502	250.75
587.713	252.75
587.923	242.75
588.133	261.75
588.343	264.75
588.553	260.75
588.762	264.75
588.972	275.75
589.182	367.75
589.392	371.75
589.602	286.75
589.812	357.75
590.022	298.75
590.232	268.75
590.441	248.75
590.651	254.75
590.861	247.75
591.071	242.75
591.281	269.75
591.49	262.75
591.7	233.75
591.91	245.75
592.119	232.75
592.329	245.75
592.539	242.75
592.748	254.75
592.958	261.75
593.167	260.75
593.377	246.75
593.587	279.75
593.796	252.75
594.006	268.75
594.215	251.75
594.424	257.75
594.634	248.75
594.843	264.75
595.053	254.75
595.262	246.75
595.472	262.75
595.681	238.75
595.89	248.75
596.1	254.75
596.309	232.75
596.518	233.75
596.727	220.75
596.937	206.75
597.146	234.75
597.355	250.75
597.564	222.75
597.774	231.75
597.983	235.75
598.192	246.75
598.401	235.75
598.61	223.75
598.819	220.75
599.028	232.75
599.237	238.75
599.446	224.75
599.655	250.75
599.864	240.75
600.073	232.75
600.282	238.75
600.491	225.75
600.7	221.75
600.909	222.75
601.118	237.75
601.327	234.75
601.536	238.75
601.745	215.75
601.953	214.75
602.162	236.75
602.371	212.75
602.58	219.75
602.789	208.75
602.997	234.75
603.206	221.75
603.415	204.75
603.623	215.75
603.832	221.75
604.041	212.75
604.249	213.75
604.458	203.75
604.666	230.75
604.875	208.75
605.084	220.75
605.292	208.75
605.501	231.75
605.709	221.75
605.918	202.75
606.126	204.75
606.334	195.75
606.543	219.75
606.751	208.75
606.96	207.75
607.168	211.75
607.376	220.75
607.585	219.75
607.793	219.75
608.001	199.75
608.21	225.75
608.418	215.75
608.626	218.75
608.834	218.75
609.043	218.75
609.251	215.75
609.459	216.75
609.667	210.75
609.875	203.75
610.083	209.75
610.291	220.75
610.499	220.75
610.707	202.75
610.916	203.75
611.124	207.75
611.332	216.75
611.54	214.75
611.748	202.75
611.955	197.75
612.163	212.75
612.371	209.75
612.579	199.75
612.787	194.75
612.995	200.75
613.203	210.75
613.411	214.75
613.618	223.75
613.826	213.75
614.034	227.75
614.242	210.75
614.449	191.75
614.657	228.75
614.865	216.75
615.072	199.75
615.28	201.75
615.488	224.75
615.695	200.75
615.903	202.75
616.111	209.75
616.318	207.75
616.526	191.75
616.733	207.75
616.941	203.75
617.148	220.75
617.356	209.75
617.563	218.75
617.771	222.75
617.978	184.75
618.185	187.75
618.393	206.75
618.6	211.75
618.807	222.75
619.015	215.75
619.222	200.75
619.429	201.75
619.637	210.75
619.844	205.75
620.051	215.75
620.258	200.75
620.466	192.75
620.673	207.75
620.88	209.75
621.087	198.75
621.294	196.75
621.501	195.75
621.708	214.75
621.915	206.75
622.122	203.75
622.329	202.75
622.536	198.75
622.743	184.75
622.95	201.75
623.157	191.75
623.364	189.75
623.571	189.75
623.778	200.75
623.985	197.75
624.192	198.75
624.399	192.75
624.606	197.75
624.812	192.75
625.019	173.75
625.226	182.75
625.433	197.75
625.639	192.75
625.846	183.75
626.053	182.75
626.259	197.75
626.466	197.75
626.673	187.75
626.879	186.75
627.086	182.75
627.293	201.75
627.499	201.75
627.706	179.75
627.912	190.75
628.119	190.75
628.325	184.75
628.532	192.75
628.738	175.75
628.945	190.75
629.151	182.75
629.357	175.75
629.564	165.75
629.77	173.75
629.976	195.75
630.183	183.75
630.389	188.75
630.595	195.75
630.802	175.75
631.008	174.75
631.214	167.75
631.42	175.75
631.627	180.75
631.833	180.75
632.039	170.75
632.245	174.75
632.451	165.75
632.657	175.75
632.863	164.75
633.069	166.75
633.275	171.75
633.481	171.75
633.688	182.75
633.893	176.75
634.099	174.75
634.305	150.75
634.511	171.75
634.717	158.75
634.923	165.75
635.129	160.75
635.335	175.75
635.541	166.75
635.747	171.75
635.952	165.75
636.158	161.75
636.364	165.75
636.57	181.75
636.775	150.75
636.981	144.75
637.187	160.75
637.392	157.75
637.598	165.75
637.804	157.75
638.009	166.75
638.215	154.75
638.421	152.75
638.626	168.75
638.832	156.75
639.037	169.75
639.243	138.75
639.448	165.75
639.654	175.75
639.859	164.75
640.065	156.75
640.27	159.75
640.475	164.75
640.681	152.75
640.886	181.75
641.091	154.75
641.297	146.75
641.502	167.75
641.707	161.75
641.913	164.75
642.118	159.75
642.323	150.75
642.528	149.75
642.733	158.75
642.939	154.75
643.144	153.75
643.349	148.75
643.554	152.75
643.759	141.75
643.964	159.75
644.169	160.75
644.374	158.75
644.579	160.75
644.784	152.75
644.989	144.75
645.194	159.75
645.399	158.75
645.604	132.75
645.809	155.75
646.014	144.75
646.219	166.75
646.423	155.75
646.628	144.75
646.833	148.75
647.038	141.75
647.243	160.75
647.447	137.75
647.652	152.75
647.857	134.75
648.062	154.75
648.266	142.75
648.471	155.75
648.676	149.75
648.88	160.75
649.085	156.75
649.289	157.75
649.494	159.75
649.698	155.75
649.903	163.75
650.107	171.75
650.312	155.75
650.516	146.75
650.721	158.75
650.925	150.75
651.13	137.75
651.334	140.75
651.539	139.75
651.743	132.75
651.947	142.75
652.152	147.75
652.356	139.75
652.56	131.75
652.764	152.75
652.969	125.75
653.173	120.75
653.377	125.75
653.581	131.75
653.785	117.75
653.99	127.75
654.194	118.75
654.398	123.75
654.602	132.75
654.806	129.75
655.01	128.75
655.214	144.75
655.418	127.75
655.622	127.75
655.826	114.75
656.03	116.75
656.234	124.75
656.438	130.75
656.642	134.75
656.846	118.75
657.049	124.75
657.253	108.75
657.457	117.75
657.661	116.75
657.865	110.75
658.068	105.75
658.272	112.75
658.476	117.75
658.68	106.75
658.883	104.75
659.087	100.75
659.291	119.75
659.494	102.75
659.698	101.75
659.901	119.75
660.105	80.75
660.309	94.75
660.512	87.75
660.716	99.75
660.919	91.75
661.123	95.75
661.326	79.75
661.53	90.75
661.733	84.75
661.936	85.75
662.14	88.75
662.343	92.75
662.546	88.75
662.75	105.75
662.953	80.75
663.156	83.75
663.36	98.75
663.563	89.75
663.766	82.75
663.969	78.75
664.173	87.75
664.376	91.75
664.579	84.75
664.782	90.75
664.985	76.75
665.188	78.75
665.391	87.75
665.594	86.75
665.797	101.75
666	94.75
666.203	85.75
666.406	93.75
666.609	95.75
666.812	73.75
667.015	100.75
667.218	80.75
667.421	92.75
667.624	84.75
667.827	77.75
668.03	86.75
668.232	86.75
668.435	101.75
668.638	84.75
668.841	81.75
669.043	99.75
669.246	75.75
669.449	88.75
669.651	79.75
669.854	77.75
670.057	100.75
670.259	90.75
670.462	82.75
670.665	86.75
670.867	93.75
671.07	83.75
671.272	92.75
671.475	80.75
671.677	84.75
671.88	82.75
672.082	66.75
672.284	93.75
672.487	97.75
672.689	85.75
672.892	84.75
