Data from 1987.PennyLincolnUp.Lamp.En5.5.200Scan.071819.P2_HRD10591_17-17-04-971.txt Node
Date: Thu Jul 18 17:17:04 EDT 2019
User: cochatt
Spectrometer: HR+D1059
Trigger mode: 1
Integration Time (sec): 1.000000E-1
Scans to average: 1
Electric dark correction enabled: true
Nonlinearity correction enabled: false
Boxcar width: 0
XAxis mode: Wavelengths
Number of Pixels in Spectrum: 2048
>>>>>Begin Spectral Data<<<<<
223.165	-25.25
223.4	-25.25
223.635	-25.25
223.869	-15.25
224.104	-11.25
224.338	-17.25
224.573	-0.25
224.808	3.75
225.042	-26.25
225.277	-1.25
225.511	-7.25
225.746	7.75
225.98	-2.25
226.215	9.75
226.449	11.75
226.683	19.75
226.918	13.75
227.152	39.75
227.387	31.75
227.621	40.75
227.856	48.75
228.09	48.75
228.324	42.75
228.559	76.75
228.793	71.75
229.027	108.75
229.262	99.75
229.496	128.75
229.73	143.75
229.964	175.75
230.199	143.75
230.433	107.75
230.667	139.75
230.901	128.75
231.136	122.75
231.37	133.75
231.604	135.75
231.838	118.75
232.072	111.75
232.306	110.75
232.541	116.75
232.775	122.75
233.009	134.75
233.243	133.75
233.477	121.75
233.711	120.75
233.945	121.75
234.179	108.75
234.413	126.75
234.647	125.75
234.881	131.75
235.115	124.75
235.349	124.75
235.583	131.75
235.817	137.75
236.051	120.75
236.285	122.75
236.519	120.75
236.753	137.75
236.987	151.75
237.221	209.75
237.455	271.75
237.689	206.75
237.922	146.75
238.156	143.75
238.39	133.75
238.624	144.75
238.858	132.75
239.091	124.75
239.325	130.75
239.559	127.75
239.793	130.75
240.027	152.75
240.26	158.75
240.494	173.75
240.728	160.75
240.961	177.75
241.195	148.75
241.429	148.75
241.662	124.75
241.896	135.75
242.13	148.75
242.363	128.75
242.597	148.75
242.83	144.75
243.064	145.75
243.298	133.75
243.531	133.75
243.765	126.75
243.998	143.75
244.232	140.75
244.465	140.75
244.699	145.75
244.932	140.75
245.166	136.75
245.399	143.75
245.633	148.75
245.866	149.75
246.099	143.75
246.333	147.75
246.566	151.75
246.8	156.75
247.033	153.75
247.266	149.75
247.5	160.75
247.733	162.75
247.966	175.75
248.2	168.75
248.433	187.75
248.666	177.75
248.899	168.75
249.133	209.75
249.366	239.75
249.599	211.75
249.832	189.75
250.066	175.75
250.299	181.75
250.532	184.75
250.765	202.75
250.998	213.75
251.231	245.75
251.465	218.75
251.698	211.75
251.931	202.75
252.164	202.75
252.397	195.75
252.63	200.75
252.863	202.75
253.096	206.75
253.329	221.75
253.562	227.75
253.795	236.75
254.028	206.75
254.261	208.75
254.494	236.75
254.727	250.75
254.96	294.75
255.193	282.75
255.426	251.75
255.659	249.75
255.892	237.75
256.124	234.75
256.357	220.75
256.59	219.75
256.823	209.75
257.056	199.75
257.289	203.75
257.521	210.75
257.754	192.75
257.987	198.75
258.22	194.75
258.452	213.75
258.685	197.75
258.918	199.75
259.151	204.75
259.383	222.75
259.616	216.75
259.849	226.75
260.081	246.75
260.314	264.75
260.547	262.75
260.779	252.75
261.012	254.75
261.244	222.75
261.477	225.75
261.71	201.75
261.942	223.75
262.175	248.75
262.407	236.75
262.64	230.75
262.872	221.75
263.105	218.75
263.337	203.75
263.57	205.75
263.802	206.75
264.035	205.75
264.267	196.75
264.499	191.75
264.732	203.75
264.964	193.75
265.197	199.75
265.429	189.75
265.661	204.75
265.894	198.75
266.126	191.75
266.358	204.75
266.591	209.75
266.823	202.75
267.055	212.75
267.287	221.75
267.52	215.75
267.752	200.75
267.984	213.75
268.216	204.75
268.448	225.75
268.681	220.75
268.913	229.75
269.145	252.75
269.377	266.75
269.609	265.75
269.841	257.75
270.073	276.75
270.306	291.75
270.538	307.75
270.77	312.75
271.002	298.75
271.234	293.75
271.466	283.75
271.698	309.75
271.93	334.75
272.162	320.75
272.394	315.75
272.626	314.75
272.858	300.75
273.09	268.75
273.322	266.75
273.553	249.75
273.785	261.75
274.017	254.75
274.249	260.75
274.481	277.75
274.713	266.75
274.945	253.75
275.176	260.75
275.408	255.75
275.64	262.75
275.872	245.75
276.104	251.75
276.335	236.75
276.567	263.75
276.799	277.75
277.031	314.75
277.262	321.75
277.494	309.75
277.726	296.75
277.957	283.75
278.189	278.75
278.421	255.75
278.652	271.75
278.884	255.75
279.115	244.75
279.347	268.75
279.579	239.75
279.81	225.75
280.042	224.75
280.273	257.75
280.505	218.75
280.736	232.75
280.968	228.75
281.199	244.75
281.431	245.75
281.662	237.75
281.894	221.75
282.125	252.75
282.356	264.75
282.588	298.75
282.819	301.75
283.051	264.75
283.282	245.75
283.513	219.75
283.745	238.75
283.976	252.75
284.207	242.75
284.439	231.75
284.67	236.75
284.901	249.75
285.132	239.75
285.364	238.75
285.595	226.75
285.826	230.75
286.057	249.75
286.288	239.75
286.52	243.75
286.751	244.75
286.982	238.75
287.213	239.75
287.444	244.75
287.675	241.75
287.906	271.75
288.138	269.75
288.369	249.75
288.6	269.75
288.831	242.75
289.062	247.75
289.293	276.75
289.524	231.75
289.755	245.75
289.986	246.75
290.217	243.75
290.448	246.75
290.679	251.75
290.91	234.75
291.141	230.75
291.371	251.75
291.602	247.75
291.833	246.75
292.064	245.75
292.295	247.75
292.526	239.75
292.757	247.75
292.987	255.75
293.218	261.75
293.449	247.75
293.68	259.75
293.91	240.75
294.141	265.75
294.372	259.75
294.603	245.75
294.833	251.75
295.064	230.75
295.295	260.75
295.525	262.75
295.756	265.75
295.987	267.75
296.217	303.75
296.448	301.75
296.679	276.75
296.909	238.75
297.14	265.75
297.37	249.75
297.601	250.75
297.831	252.75
298.062	249.75
298.292	245.75
298.523	252.75
298.753	253.75
298.984	260.75
299.214	274.75
299.445	260.75
299.675	270.75
299.905	273.75
300.136	251.75
300.366	261.75
300.597	265.75
300.827	273.75
301.057	293.75
301.288	286.75
301.518	299.75
301.748	280.75
301.979	273.75
302.209	272.75
302.439	288.75
302.669	283.75
302.9	282.75
303.13	268.75
303.36	277.75
303.59	287.75
303.82	309.75
304.051	294.75
304.281	297.75
304.511	281.75
304.741	281.75
304.971	287.75
305.201	280.75
305.431	272.75
305.661	276.75
305.891	265.75
306.121	285.75
306.352	281.75
306.582	303.75
306.812	288.75
307.042	271.75
307.272	269.75
307.502	283.75
307.731	284.75
307.961	273.75
308.191	288.75
308.421	305.75
308.651	285.75
308.881	294.75
309.111	325.75
309.341	311.75
309.571	326.75
309.8	340.75
310.03	356.75
310.26	342.75
310.49	368.75
310.72	369.75
310.949	389.75
311.179	403.75
311.409	364.75
311.639	360.75
311.868	363.75
312.098	363.75
312.328	381.75
312.557	387.75
312.787	416.75
313.017	395.75
313.246	367.75
313.476	363.75
313.706	350.75
313.935	363.75
314.165	379.75
314.394	391.75
314.624	386.75
314.853	351.75
315.083	364.75
315.312	352.75
315.542	335.75
315.771	320.75
316.001	315.75
316.23	340.75
316.46	327.75
316.689	325.75
316.919	358.75
317.148	369.75
317.377	367.75
317.607	364.75
317.836	363.75
318.065	341.75
318.295	348.75
318.524	328.75
318.753	359.75
318.983	332.75
319.212	347.75
319.441	361.75
319.67	349.75
319.9	364.75
320.129	340.75
320.358	333.75
320.587	341.75
320.816	355.75
321.046	389.75
321.275	385.75
321.504	389.75
321.733	407.75
321.962	393.75
322.191	426.75
322.42	429.75
322.649	470.75
322.878	466.75
323.108	491.75
323.337	541.75
323.566	563.75
323.795	615.75
324.024	692.75
324.253	888.75
324.482	1299.75
324.71	2043.75
324.939	2851.75
325.168	2491.75
325.397	1329.75
325.626	861.75
325.855	680.75
326.084	611.75
326.313	561.75
326.542	593.75
326.77	643.75
326.999	803.75
327.228	1133.75
327.457	1805.75
327.686	2151.75
327.914	1471.75
328.143	918.75
328.372	784.75
328.6	709.75
328.829	677.75
329.058	705.75
329.287	691.75
329.515	627.75
329.744	543.75
329.972	524.75
330.201	544.75
330.43	599.75
330.658	643.75
330.887	705.75
331.115	701.75
331.344	581.75
331.572	516.75
331.801	511.75
332.03	504.75
332.258	459.75
332.486	425.75
332.715	410.75
332.943	395.75
333.172	414.75
333.4	388.75
333.629	399.75
333.857	431.75
334.085	415.75
334.314	412.75
334.542	420.75
334.771	426.75
334.999	428.75
335.227	406.75
335.455	391.75
335.684	397.75
335.912	383.75
336.14	409.75
336.369	378.75
336.597	396.75
336.825	422.75
337.053	404.75
337.281	380.75
337.51	369.75
337.738	389.75
337.966	377.75
338.194	396.75
338.422	424.75
338.65	379.75
338.878	396.75
339.106	380.75
339.334	372.75
339.562	360.75
339.79	348.75
340.018	386.75
340.246	399.75
340.474	414.75
340.702	411.75
340.93	376.75
341.158	374.75
341.386	412.75
341.614	399.75
341.842	393.75
342.07	381.75
342.298	378.75
342.526	355.75
342.754	356.75
342.981	342.75
343.209	360.75
343.437	369.75
343.665	359.75
343.893	356.75
344.12	372.75
344.348	370.75
344.576	381.75
344.804	408.75
345.031	408.75
345.259	431.75
345.487	405.75
345.714	393.75
345.942	368.75
346.17	393.75
346.397	380.75
346.625	383.75
346.853	374.75
347.08	381.75
347.308	388.75
347.535	394.75
347.763	393.75
347.99	403.75
348.218	396.75
348.445	430.75
348.673	405.75
348.9	385.75
349.128	379.75
349.355	366.75
349.583	353.75
349.81	334.75
350.037	363.75
350.265	360.75
350.492	368.75
350.72	362.75
350.947	378.75
351.174	398.75
351.402	415.75
351.629	407.75
351.856	392.75
352.083	402.75
352.311	408.75
352.538	435.75
352.765	428.75
352.992	412.75
353.22	401.75
353.447	392.75
353.674	379.75
353.901	350.75
354.128	360.75
354.355	331.75
354.583	338.75
354.81	334.75
355.037	333.75
355.264	327.75
355.491	325.75
355.718	333.75
355.945	333.75
356.172	334.75
356.399	346.75
356.626	332.75
356.853	335.75
357.08	333.75
357.307	308.75
357.534	345.75
357.761	332.75
357.988	345.75
358.215	331.75
358.441	327.75
358.668	341.75
358.895	347.75
359.122	349.75
359.349	356.75
359.576	372.75
359.802	435.75
360.029	491.75
360.256	500.75
360.483	465.75
360.709	406.75
360.936	400.75
361.163	405.75
361.39	381.75
361.616	409.75
361.843	403.75
362.07	385.75
362.296	385.75
362.523	400.75
362.749	405.75
362.976	401.75
363.203	371.75
363.429	358.75
363.656	346.75
363.882	341.75
364.109	349.75
364.335	347.75
364.562	334.75
364.788	357.75
365.015	350.75
365.241	357.75
365.468	379.75
365.694	389.75
365.92	368.75
366.147	388.75
366.373	368.75
366.599	356.75
366.826	345.75
367.052	347.75
367.278	349.75
367.505	350.75
367.731	366.75
367.957	359.75
368.184	367.75
368.41	353.75
368.636	379.75
368.862	364.75
369.089	373.75
369.315	334.75
369.541	341.75
369.767	352.75
369.993	347.75
370.219	339.75
370.445	327.75
370.672	331.75
370.898	334.75
371.124	323.75
371.35	323.75
371.576	325.75
371.802	341.75
372.028	335.75
372.254	337.75
372.48	328.75
372.706	345.75
372.932	332.75
373.158	330.75
373.384	362.75
373.61	356.75
373.835	317.75
374.061	329.75
374.287	341.75
374.513	343.75
374.739	329.75
374.965	333.75
375.191	345.75
375.416	343.75
375.642	325.75
375.868	339.75
376.094	329.75
376.319	331.75
376.545	337.75
376.771	353.75
376.997	323.75
377.222	326.75
377.448	346.75
377.674	319.75
377.899	326.75
378.125	331.75
378.35	335.75
378.576	315.75
378.802	344.75
379.027	316.75
379.253	330.75
379.478	328.75
379.704	334.75
379.929	336.75
380.155	330.75
380.38	324.75
380.606	332.75
380.831	328.75
381.057	332.75
381.282	345.75
381.507	341.75
381.733	332.75
381.958	353.75
382.184	357.75
382.409	339.75
382.634	347.75
382.86	342.75
383.085	329.75
383.31	360.75
383.535	344.75
383.761	348.75
383.986	343.75
384.211	340.75
384.436	374.75
384.662	341.75
384.887	350.75
385.112	339.75
385.337	359.75
385.562	352.75
385.787	357.75
386.013	370.75
386.238	358.75
386.463	365.75
386.688	374.75
386.913	335.75
387.138	335.75
387.363	363.75
387.588	355.75
387.813	356.75
388.038	343.75
388.263	352.75
388.488	344.75
388.713	349.75
388.938	363.75
389.163	353.75
389.387	369.75
389.612	351.75
389.837	364.75
390.062	351.75
390.287	349.75
390.512	337.75
390.736	344.75
390.961	348.75
391.186	353.75
391.411	365.75
391.636	361.75
391.86	343.75
392.085	354.75
392.31	360.75
392.534	363.75
392.759	363.75
392.984	358.75
393.208	346.75
393.433	343.75
393.658	352.75
393.882	364.75
394.107	357.75
394.331	383.75
394.556	355.75
394.78	367.75
395.005	367.75
395.229	348.75
395.454	353.75
395.678	373.75
395.903	374.75
396.127	377.75
396.352	425.75
396.576	372.75
396.801	372.75
397.025	374.75
397.249	363.75
397.474	366.75
397.698	389.75
397.922	385.75
398.147	391.75
398.371	411.75
398.595	404.75
398.82	409.75
399.044	407.75
399.268	405.75
399.492	420.75
399.717	439.75
399.941	442.75
400.165	489.75
400.389	511.75
400.613	445.75
400.837	439.75
401.062	416.75
401.286	407.75
401.51	414.75
401.734	403.75
401.958	408.75
402.182	411.75
402.406	421.75
402.63	424.75
402.854	425.75
403.078	411.75
403.302	433.75
403.526	447.75
403.75	436.75
403.974	420.75
404.198	414.75
404.422	409.75
404.645	441.75
404.869	436.75
405.093	472.75
405.317	476.75
405.541	492.75
405.765	452.75
405.988	456.75
406.212	470.75
406.436	511.75
406.66	524.75
406.883	504.75
407.107	492.75
407.331	539.75
407.555	597.75
407.778	576.75
408.002	549.75
408.226	519.75
408.449	471.75
408.673	489.75
408.896	505.75
409.12	558.75
409.344	511.75
409.567	480.75
409.791	468.75
410.014	447.75
410.238	445.75
410.461	446.75
410.685	437.75
410.908	471.75
411.132	492.75
411.355	542.75
411.578	502.75
411.802	439.75
412.025	426.75
412.249	436.75
412.472	451.75
412.695	452.75
412.919	453.75
413.142	426.75
413.365	397.75
413.589	416.75
413.812	394.75
414.035	400.75
414.258	404.75
414.482	404.75
414.705	415.75
414.928	390.75
415.151	397.75
415.374	412.75
415.597	400.75
415.821	398.75
416.044	413.75
416.267	413.75
416.49	413.75
416.713	407.75
416.936	393.75
417.159	413.75
417.382	432.75
417.605	409.75
417.828	440.75
418.051	442.75
418.274	453.75
418.497	424.75
418.72	416.75
418.943	395.75
419.166	422.75
419.389	428.75
419.611	415.75
419.834	415.75
420.057	433.75
420.28	451.75
420.503	435.75
420.726	465.75
420.948	462.75
421.171	495.75
421.394	540.75
421.617	487.75
421.839	453.75
422.062	453.75
422.285	482.75
422.507	534.75
422.73	596.75
422.953	562.75
423.175	517.75
423.398	492.75
423.621	488.75
423.843	503.75
424.066	487.75
424.288	525.75
424.511	535.75
424.733	593.75
424.956	653.75
425.178	631.75
425.401	637.75
425.623	658.75
425.846	556.75
426.068	539.75
426.291	536.75
426.513	525.75
426.735	538.75
426.958	569.75
427.18	639.75
427.402	763.75
427.625	868.75
427.847	823.75
428.069	666.75
428.292	605.75
428.514	536.75
428.736	507.75
428.958	507.75
429.181	484.75
429.403	490.75
429.625	479.75
429.847	519.75
430.069	607.75
430.292	577.75
430.514	513.75
430.736	494.75
430.958	471.75
431.18	449.75
431.402	440.75
431.624	429.75
431.846	437.75
432.068	418.75
432.29	424.75
432.512	432.75
432.734	458.75
432.956	443.75
433.178	455.75
433.4	476.75
433.622	454.75
433.844	439.75
434.066	427.75
434.287	407.75
434.509	432.75
434.731	431.75
434.953	447.75
435.175	455.75
435.397	504.75
435.618	525.75
435.84	556.75
436.062	646.75
436.284	719.75
436.505	614.75
436.727	560.75
436.949	491.75
437.17	495.75
437.392	482.75
437.614	525.75
437.835	572.75
438.057	689.75
438.278	776.75
438.5	781.75
438.721	819.75
438.943	784.75
439.165	643.75
439.386	579.75
439.608	552.75
439.829	559.75
440.05	620.75
440.272	660.75
440.493	593.75
440.715	555.75
440.936	524.75
441.158	503.75
441.379	492.75
441.6	506.75
441.822	547.75
442.043	565.75
442.264	660.75
442.486	714.75
442.707	593.75
442.928	570.75
443.149	555.75
443.371	582.75
443.592	614.75
443.813	704.75
444.034	747.75
444.255	597.75
444.476	541.75
444.698	536.75
444.919	520.75
445.14	591.75
445.361	573.75
445.582	574.75
445.803	663.75
446.024	755.75
446.245	748.75
446.466	691.75
446.687	619.75
446.908	560.75
447.129	518.75
447.35	509.75
447.571	484.75
447.792	486.75
448.013	494.75
448.234	539.75
448.455	577.75
448.675	707.75
448.896	757.75
449.117	684.75
449.338	645.75
449.559	746.75
449.779	809.75
450	648.75
450.221	564.75
450.442	524.75
450.662	517.75
450.883	539.75
451.104	554.75
451.324	550.75
451.545	490.75
451.766	483.75
451.986	474.75
452.207	469.75
452.428	456.75
452.648	434.75
452.869	461.75
453.089	463.75
453.31	479.75
453.53	476.75
453.751	455.75
453.971	463.75
454.192	494.75
454.412	494.75
454.633	469.75
454.853	449.75
455.073	446.75
455.294	469.75
455.514	546.75
455.734	542.75
455.955	453.75
456.175	435.75
456.395	412.75
456.616	400.75
456.836	401.75
457.056	395.75
457.276	403.75
457.497	391.75
457.717	416.75
457.937	401.75
458.157	422.75
458.377	410.75
458.598	469.75
458.818	570.75
459.038	675.75
459.258	661.75
459.478	536.75
459.698	462.75
459.918	468.75
460.138	448.75
460.358	431.75
460.578	429.75
460.798	428.75
461.018	454.75
461.238	427.75
461.458	416.75
461.678	438.75
461.898	415.75
462.118	401.75
462.338	411.75
462.558	415.75
462.777	424.75
462.997	415.75
463.217	420.75
463.437	438.75
463.657	429.75
463.876	423.75
464.096	426.75
464.316	430.75
464.536	462.75
464.755	458.75
464.975	496.75
465.195	582.75
465.414	726.75
465.634	592.75
465.854	536.75
466.073	461.75
466.293	478.75
466.512	460.75
466.732	438.75
466.951	432.75
467.171	432.75
467.391	441.75
467.61	459.75
467.829	464.75
468.049	461.75
468.268	429.75
468.488	420.75
468.707	416.75
468.927	426.75
469.146	410.75
469.365	427.75
469.585	401.75
469.804	420.75
470.023	463.75
470.243	449.75
470.462	461.75
470.681	476.75
470.901	478.75
471.12	469.75
471.339	453.75
471.558	453.75
471.777	461.75
471.997	438.75
472.216	435.75
472.435	445.75
472.654	432.75
472.873	425.75
473.092	421.75
473.311	444.75
473.53	444.75
473.749	438.75
473.968	521.75
474.187	639.75
474.406	631.75
474.625	509.75
474.844	461.75
475.063	465.75
475.282	432.75
475.501	447.75
475.72	438.75
475.939	428.75
476.158	431.75
476.377	448.75
476.596	468.75
476.814	486.75
477.033	480.75
477.252	460.75
477.471	471.75
477.69	476.75
477.908	475.75
478.127	464.75
478.346	469.75
478.564	467.75
478.783	443.75
479.002	488.75
479.22	504.75
479.439	499.75
479.658	533.75
479.876	565.75
480.095	565.75
480.313	597.75
480.532	529.75
480.751	524.75
480.969	541.75
481.188	567.75
481.406	553.75
481.624	534.75
481.843	533.75
482.061	517.75
482.28	525.75
482.498	520.75
482.717	521.75
482.935	500.75
483.153	513.75
483.372	521.75
483.59	520.75
483.808	522.75
484.027	524.75
484.245	503.75
484.463	521.75
484.681	515.75
484.9	540.75
485.118	526.75
485.336	543.75
485.554	508.75
485.772	529.75
485.99	535.75
486.209	536.75
486.427	569.75
486.645	553.75
486.863	607.75
487.081	609.75
487.299	596.75
487.517	579.75
487.735	574.75
487.953	565.75
488.171	566.75
488.389	545.75
488.607	578.75
488.825	591.75
489.043	565.75
489.261	587.75
489.479	585.75
489.696	557.75
489.914	565.75
490.132	574.75
490.35	600.75
490.568	601.75
490.786	602.75
491.003	635.75
491.221	616.75
491.439	629.75
491.657	652.75
491.874	654.75
492.092	672.75
492.31	674.75
492.527	665.75
492.745	635.75
492.963	645.75
493.18	655.75
493.398	686.75
493.615	658.75
493.833	679.75
494.05	699.75
494.268	651.75
494.485	676.75
494.703	677.75
494.92	688.75
495.138	697.75
495.355	673.75
495.573	674.75
495.79	660.75
496.008	692.75
496.225	689.75
496.442	675.75
496.66	660.75
496.877	709.75
497.094	675.75
497.312	684.75
497.529	691.75
497.746	709.75
497.963	710.75
498.181	726.75
498.398	732.75
498.615	737.75
498.832	735.75
499.049	727.75
499.267	737.75
499.484	761.75
499.701	764.75
499.918	761.75
500.135	779.75
500.352	786.75
500.569	789.75
500.786	799.75
501.003	786.75
501.22	801.75
501.437	803.75
501.654	794.75
501.871	857.75
502.088	823.75
502.305	756.75
502.522	783.75
502.739	733.75
502.956	723.75
503.172	727.75
503.389	730.75
503.606	728.75
503.823	719.75
504.04	719.75
504.256	695.75
504.473	687.75
504.69	675.75
504.907	675.75
505.123	669.75
505.34	672.75
505.557	669.75
505.773	691.75
505.99	688.75
506.207	695.75
506.423	654.75
506.64	673.75
506.856	671.75
507.073	675.75
507.289	653.75
507.506	687.75
507.722	707.75
507.939	729.75
508.155	710.75
508.372	708.75
508.588	657.75
508.805	665.75
509.021	677.75
509.238	704.75
509.454	712.75
509.67	697.75
509.887	670.75
510.103	688.75
510.319	713.75
510.536	899.75
510.752	1623.75
510.968	1301.75
511.184	780.75
511.401	699.75
511.617	699.75
511.833	668.75
512.049	613.75
512.265	637.75
512.481	655.75
512.698	642.75
512.914	668.75
513.13	625.75
513.346	669.75
513.562	653.75
513.778	668.75
513.994	694.75
514.21	711.75
514.426	781.75
514.642	822.75
514.858	891.75
515.074	998.75
515.29	1251.75
515.506	1951.75
515.721	1520.75
515.937	927.75
516.153	802.75
516.369	735.75
516.585	718.75
516.801	676.75
517.016	670.75
517.232	674.75
517.448	675.75
517.664	657.75
517.879	667.75
518.095	653.75
518.311	644.75
518.527	645.75
518.742	663.75
518.958	657.75
519.173	653.75
519.389	664.75
519.605	665.75
519.82	670.75
520.036	734.75
520.251	748.75
520.467	800.75
520.682	830.75
520.898	802.75
521.113	886.75
521.329	973.75
521.544	1133.75
521.76	1536.75
521.975	2640.75
522.19	2607.75
522.406	1341.75
522.621	931.75
522.836	809.75
523.052	734.75
523.267	681.75
523.482	651.75
523.698	648.75
523.913	647.75
524.128	634.75
524.343	611.75
524.559	607.75
524.774	594.75
524.989	589.75
525.204	594.75
525.419	598.75
525.634	561.75
525.849	556.75
526.064	558.75
526.28	529.75
526.495	516.75
526.71	518.75
526.925	510.75
527.14	506.75
527.355	502.75
527.57	513.75
527.785	487.75
527.999	511.75
528.214	512.75
528.429	526.75
528.644	503.75
528.859	510.75
529.074	496.75
529.289	553.75
529.503	705.75
529.718	667.75
529.933	597.75
530.148	549.75
530.363	539.75
530.577	513.75
530.792	531.75
531.007	504.75
531.221	500.75
531.436	472.75
531.651	488.75
531.865	484.75
532.08	457.75
532.295	491.75
532.509	470.75
532.724	474.75
532.938	480.75
533.153	459.75
533.367	478.75
533.582	475.75
533.796	471.75
534.011	470.75
534.225	459.75
534.44	446.75
534.654	455.75
534.868	473.75
535.083	465.75
535.297	459.75
535.511	487.75
535.726	477.75
535.94	486.75
536.154	466.75
536.369	463.75
536.583	449.75
536.797	444.75
537.011	462.75
537.225	435.75
537.44	455.75
537.654	451.75
537.868	439.75
538.082	471.75
538.296	449.75
538.51	441.75
538.724	462.75
538.938	441.75
539.153	437.75
539.367	485.75
539.581	496.75
539.795	467.75
540.009	463.75
540.222	454.75
540.436	443.75
540.65	465.75
540.864	458.75
541.078	459.75
541.292	460.75
541.506	447.75
541.72	451.75
541.934	445.75
542.147	442.75
542.361	439.75
542.575	448.75
542.789	448.75
543.002	432.75
543.216	446.75
543.43	440.75
543.644	456.75
543.857	457.75
544.071	461.75
544.285	445.75
544.498	442.75
544.712	426.75
544.925	426.75
545.139	433.75
545.352	412.75
545.566	427.75
545.779	439.75
545.993	413.75
546.206	426.75
546.42	421.75
546.633	413.75
546.847	421.75
547.06	419.75
547.274	426.75
547.487	420.75
547.7	418.75
547.914	401.75
548.127	411.75
548.34	405.75
548.554	408.75
548.767	393.75
548.98	404.75
549.193	417.75
549.407	400.75
549.62	399.75
549.833	402.75
550.046	404.75
550.259	379.75
550.473	400.75
550.686	382.75
550.899	386.75
551.112	396.75
551.325	402.75
551.538	394.75
551.751	386.75
551.964	388.75
552.177	385.75
552.39	372.75
552.603	402.75
552.816	393.75
553.029	390.75
553.242	397.75
553.455	421.75
553.667	416.75
553.88	424.75
554.093	429.75
554.306	390.75
554.519	404.75
554.732	403.75
554.944	384.75
555.157	395.75
555.37	384.75
555.583	389.75
555.795	393.75
556.008	388.75
556.221	393.75
556.433	381.75
556.646	381.75
556.859	365.75
557.071	377.75
557.284	359.75
557.496	363.75
557.709	364.75
557.921	354.75
558.134	364.75
558.346	366.75
558.559	356.75
558.771	377.75
558.984	367.75
559.196	379.75
559.409	345.75
559.621	350.75
559.833	340.75
560.046	342.75
560.258	357.75
560.47	361.75
560.683	355.75
560.895	357.75
561.107	336.75
561.32	364.75
561.532	348.75
561.744	373.75
561.956	369.75
562.168	365.75
562.381	366.75
562.593	353.75
562.805	366.75
563.017	361.75
563.229	364.75
563.441	354.75
563.653	354.75
563.865	344.75
564.077	359.75
564.289	359.75
564.501	364.75
564.713	371.75
564.925	352.75
565.137	379.75
565.349	371.75
565.561	377.75
565.773	364.75
565.985	391.75
566.197	361.75
566.408	384.75
566.62	399.75
566.832	389.75
567.044	383.75
567.255	376.75
567.467	361.75
567.679	368.75
567.891	395.75
568.102	393.75
568.314	405.75
568.526	374.75
568.737	369.75
568.949	363.75
569.161	347.75
569.372	376.75
569.584	364.75
569.795	368.75
570.007	382.75
570.218	448.75
570.43	410.75
570.641	337.75
570.853	336.75
571.064	338.75
571.276	345.75
571.487	333.75
571.698	336.75
571.91	337.75
572.121	338.75
572.333	329.75
572.544	313.75
572.755	335.75
572.966	308.75
573.178	321.75
573.389	311.75
573.6	355.75
573.811	326.75
574.023	315.75
574.234	311.75
574.445	305.75
574.656	305.75
574.867	313.75
575.078	314.75
575.289	304.75
575.501	317.75
575.712	309.75
575.923	309.75
576.134	301.75
576.345	314.75
576.556	299.75
576.767	307.75
576.978	322.75
577.188	311.75
577.399	319.75
577.61	303.75
577.821	311.75
578.032	316.75
578.243	371.75
578.454	749.75
578.665	519.75
578.875	327.75
579.086	314.75
579.297	295.75
579.508	292.75
579.718	291.75
579.929	297.75
580.14	282.75
580.35	290.75
580.561	294.75
580.772	269.75
580.982	304.75
581.193	303.75
581.403	290.75
581.614	293.75
581.825	276.75
582.035	295.75
582.246	285.75
582.456	292.75
582.667	284.75
582.877	286.75
583.087	287.75
583.298	286.75
583.508	277.75
583.719	293.75
583.929	291.75
584.139	286.75
584.35	295.75
584.56	285.75
584.77	288.75
584.981	284.75
585.191	291.75
585.401	272.75
585.611	303.75
585.821	282.75
586.032	274.75
586.242	290.75
586.452	281.75
586.662	273.75
586.872	268.75
587.082	249.75
587.292	278.75
587.502	275.75
587.713	267.75
587.923	279.75
588.133	263.75
588.343	279.75
588.553	279.75
588.762	277.75
588.972	275.75
589.182	272.75
589.392	277.75
589.602	263.75
589.812	266.75
590.022	272.75
590.232	279.75
590.441	275.75
590.651	272.75
590.861	287.75
591.071	273.75
591.281	257.75
591.49	248.75
591.7	268.75
591.91	273.75
592.119	278.75
592.329	269.75
592.539	269.75
592.748	263.75
592.958	265.75
593.167	266.75
593.377	281.75
593.587	287.75
593.796	295.75
594.006	251.75
594.215	280.75
594.424	278.75
594.634	278.75
594.843	273.75
595.053	261.75
595.262	251.75
595.472	288.75
595.681	280.75
595.89	271.75
596.1	256.75
596.309	259.75
596.518	252.75
596.727	266.75
596.937	247.75
597.146	245.75
597.355	259.75
597.564	253.75
597.774	250.75
597.983	261.75
598.192	237.75
598.401	250.75
598.61	245.75
598.819	252.75
599.028	242.75
599.237	246.75
599.446	236.75
599.655	230.75
599.864	244.75
600.073	245.75
600.282	254.75
600.491	258.75
600.7	261.75
600.909	249.75
601.118	240.75
601.327	247.75
601.536	227.75
601.745	236.75
601.953	238.75
602.162	249.75
602.371	236.75
602.58	221.75
602.789	231.75
602.997	236.75
603.206	236.75
603.415	228.75
603.623	203.75
603.832	246.75
604.041	228.75
604.249	232.75
604.458	228.75
604.666	232.75
604.875	236.75
605.084	241.75
605.292	226.75
605.501	228.75
605.709	232.75
605.918	219.75
606.126	236.75
606.334	246.75
606.543	235.75
606.751	243.75
606.96	235.75
607.168	237.75
607.376	245.75
607.585	222.75
607.793	240.75
608.001	235.75
608.21	233.75
608.418	225.75
608.626	227.75
608.834	227.75
609.043	219.75
609.251	232.75
609.459	209.75
609.667	227.75
609.875	218.75
610.083	222.75
610.291	235.75
610.499	216.75
610.707	232.75
610.916	207.75
611.124	228.75
611.332	214.75
611.54	233.75
611.748	225.75
611.955	216.75
612.163	232.75
612.371	215.75
612.579	228.75
612.787	219.75
612.995	229.75
613.203	212.75
613.411	217.75
613.618	220.75
613.826	218.75
614.034	222.75
614.242	228.75
614.449	220.75
614.657	232.75
614.865	217.75
615.072	218.75
615.28	219.75
615.488	218.75
615.695	221.75
615.903	217.75
616.111	206.75
616.318	230.75
616.526	216.75
616.733	204.75
616.941	213.75
617.148	213.75
617.356	220.75
617.563	221.75
617.771	224.75
617.978	204.75
618.185	236.75
618.393	198.75
618.6	227.75
618.807	213.75
619.015	203.75
619.222	210.75
619.429	219.75
619.637	217.75
619.844	207.75
620.051	221.75
620.258	213.75
620.466	216.75
620.673	199.75
620.88	206.75
621.087	207.75
621.294	213.75
621.501	209.75
621.708	210.75
621.915	211.75
622.122	209.75
622.329	213.75
622.536	215.75
622.743	203.75
622.95	204.75
623.157	195.75
623.364	204.75
623.571	209.75
623.778	207.75
623.985	196.75
624.192	198.75
624.399	188.75
624.606	198.75
624.812	200.75
625.019	210.75
625.226	188.75
625.433	199.75
625.639	197.75
625.846	206.75
626.053	209.75
626.259	205.75
626.466	209.75
626.673	192.75
626.879	191.75
627.086	186.75
627.293	203.75
627.499	184.75
627.706	214.75
627.912	188.75
628.119	191.75
628.325	190.75
628.532	200.75
628.738	189.75
628.945	183.75
629.151	187.75
629.357	192.75
629.564	197.75
629.77	187.75
629.976	202.75
630.183	195.75
630.389	191.75
630.595	189.75
630.802	190.75
631.008	201.75
631.214	188.75
631.42	187.75
631.627	196.75
631.833	192.75
632.039	182.75
632.245	152.75
632.451	174.75
632.657	174.75
632.863	170.75
633.069	187.75
633.275	163.75
633.481	177.75
633.688	169.75
633.893	193.75
634.099	186.75
634.305	185.75
634.511	166.75
634.717	168.75
634.923	169.75
635.129	172.75
635.335	175.75
635.541	180.75
635.747	169.75
635.952	167.75
636.158	159.75
636.364	182.75
636.57	172.75
636.775	174.75
636.981	169.75
637.187	173.75
637.392	171.75
637.598	175.75
637.804	165.75
638.009	174.75
638.215	161.75
638.421	157.75
638.626	166.75
638.832	169.75
639.037	152.75
639.243	168.75
639.448	171.75
639.654	169.75
639.859	144.75
640.065	175.75
640.27	169.75
640.475	172.75
640.681	163.75
640.886	171.75
641.091	165.75
641.297	179.75
641.502	165.75
641.707	156.75
641.913	163.75
642.118	159.75
642.323	152.75
642.528	165.75
642.733	160.75
642.939	161.75
643.144	156.75
643.349	163.75
643.554	153.75
643.759	154.75
643.964	156.75
644.169	152.75
644.374	175.75
644.579	152.75
644.784	150.75
644.989	160.75
645.194	152.75
645.399	172.75
645.604	153.75
645.809	164.75
646.014	169.75
646.219	145.75
646.423	151.75
646.628	147.75
646.833	156.75
647.038	145.75
647.243	158.75
647.447	155.75
647.652	161.75
647.857	140.75
648.062	157.75
648.266	164.75
648.471	160.75
648.676	159.75
648.88	163.75
649.085	144.75
649.289	156.75
649.494	165.75
649.698	181.75
649.903	177.75
650.107	161.75
650.312	170.75
650.516	156.75
650.721	145.75
650.925	128.75
651.13	154.75
651.334	142.75
651.539	139.75
651.743	134.75
651.947	137.75
652.152	135.75
652.356	146.75
652.56	127.75
652.764	140.75
652.969	143.75
653.173	124.75
653.377	128.75
653.581	116.75
653.785	126.75
653.99	127.75
654.194	131.75
654.398	133.75
654.602	127.75
654.806	123.75
655.01	132.75
655.214	139.75
655.418	117.75
655.622	126.75
655.826	128.75
656.03	125.75
656.234	123.75
656.438	112.75
656.642	127.75
656.846	121.75
657.049	112.75
657.253	116.75
657.457	123.75
657.661	123.75
657.865	126.75
658.068	94.75
658.272	105.75
658.476	117.75
658.68	111.75
658.883	108.75
659.087	113.75
659.291	96.75
659.494	91.75
659.698	103.75
659.901	99.75
660.105	111.75
660.309	91.75
660.512	82.75
660.716	82.75
660.919	80.75
661.123	107.75
661.326	100.75
661.53	95.75
661.733	83.75
661.936	77.75
662.14	96.75
662.343	81.75
662.546	83.75
662.75	89.75
662.953	92.75
663.156	85.75
663.36	94.75
663.563	85.75
663.766	88.75
663.969	75.75
664.173	103.75
664.376	89.75
664.579	106.75
664.782	74.75
664.985	83.75
665.188	81.75
665.391	89.75
665.594	85.75
665.797	72.75
666	80.75
666.203	74.75
666.406	79.75
666.609	88.75
666.812	89.75
667.015	82.75
667.218	79.75
667.421	79.75
667.624	76.75
667.827	89.75
668.03	88.75
668.232	89.75
668.435	79.75
668.638	82.75
668.841	73.75
669.043	63.75
669.246	82.75
669.449	88.75
669.651	80.75
669.854	84.75
670.057	91.75
670.259	77.75
670.462	93.75
670.665	79.75
670.867	89.75
671.07	75.75
671.272	89.75
671.475	81.75
671.677	86.75
671.88	95.75
672.082	84.75
672.284	73.75
672.487	94.75
672.689	73.75
672.892	87.75
