Data from 1987.PennyLincolnUp.Lamp.En5.5.200Scan.071819.P2_HRD10591_17-15-03-971.txt Node
Date: Thu Jul 18 17:15:03 EDT 2019
User: cochatt
Spectrometer: HR+D1059
Trigger mode: 1
Integration Time (sec): 1.000000E-1
Scans to average: 1
Electric dark correction enabled: true
Nonlinearity correction enabled: false
Boxcar width: 0
XAxis mode: Wavelengths
Number of Pixels in Spectrum: 2048
>>>>>Begin Spectral Data<<<<<
223.165	-11.12
223.4	-11.12
223.635	-11.12
223.869	-5.12
224.104	-22.12
224.338	-13.12
224.573	-19.12
224.808	-24.12
225.042	-11.12
225.277	5.88
225.511	1.88
225.746	7.88
225.98	-0.12
226.215	4.88
226.449	13.88
226.683	17.88
226.918	21.88
227.152	31.88
227.387	29.88
227.621	44.88
227.856	47.88
228.09	41.88
228.324	47.88
228.559	64.88
228.793	62.88
229.027	101.88
229.262	115.88
229.496	115.88
229.73	135.88
229.964	158.88
230.199	140.88
230.433	119.88
230.667	118.88
230.901	123.88
231.136	119.88
231.37	102.88
231.604	117.88
231.838	113.88
232.072	104.88
232.306	106.88
232.541	111.88
232.775	104.88
233.009	115.88
233.243	102.88
233.477	115.88
233.711	113.88
233.945	110.88
234.179	124.88
234.413	109.88
234.647	106.88
234.881	99.88
235.115	108.88
235.349	99.88
235.583	135.88
235.817	110.88
236.051	117.88
236.285	130.88
236.519	128.88
236.753	141.88
236.987	139.88
237.221	192.88
237.455	254.88
237.689	192.88
237.922	131.88
238.156	128.88
238.39	137.88
238.624	128.88
238.858	115.88
239.091	121.88
239.325	125.88
239.559	114.88
239.793	128.88
240.027	121.88
240.26	137.88
240.494	159.88
240.728	146.88
240.961	140.88
241.195	132.88
241.429	128.88
241.662	120.88
241.896	123.88
242.13	133.88
242.363	140.88
242.597	139.88
242.83	121.88
243.064	123.88
243.298	133.88
243.531	119.88
243.765	104.88
243.998	125.88
244.232	121.88
244.465	133.88
244.699	128.88
244.932	147.88
245.166	125.88
245.399	129.88
245.633	137.88
245.866	147.88
246.099	142.88
246.333	137.88
246.566	137.88
246.8	156.88
247.033	146.88
247.266	149.88
247.5	160.88
247.733	150.88
247.966	149.88
248.2	162.88
248.433	163.88
248.666	176.88
248.899	177.88
249.133	195.88
249.366	198.88
249.599	204.88
249.832	171.88
250.066	171.88
250.299	185.88
250.532	175.88
250.765	183.88
250.998	207.88
251.231	222.88
251.465	190.88
251.698	192.88
251.931	199.88
252.164	185.88
252.397	187.88
252.63	193.88
252.863	196.88
253.096	208.88
253.329	219.88
253.562	232.88
253.795	206.88
254.028	215.88
254.261	194.88
254.494	229.88
254.727	246.88
254.96	258.88
255.193	263.88
255.426	237.88
255.659	213.88
255.892	210.88
256.124	222.88
256.357	224.88
256.59	202.88
256.823	181.88
257.056	197.88
257.289	206.88
257.521	196.88
257.754	199.88
257.987	194.88
258.22	187.88
258.452	192.88
258.685	196.88
258.918	192.88
259.151	196.88
259.383	200.88
259.616	203.88
259.849	213.88
260.081	211.88
260.314	247.88
260.547	236.88
260.779	227.88
261.012	210.88
261.244	216.88
261.477	195.88
261.71	196.88
261.942	216.88
262.175	217.88
262.407	220.88
262.64	205.88
262.872	205.88
263.105	197.88
263.337	184.88
263.57	194.88
263.802	183.88
264.035	188.88
264.267	181.88
264.499	205.88
264.732	188.88
264.964	193.88
265.197	171.88
265.429	179.88
265.661	170.88
265.894	177.88
266.126	181.88
266.358	185.88
266.591	192.88
266.823	188.88
267.055	200.88
267.287	205.88
267.52	207.88
267.752	199.88
267.984	197.88
268.216	188.88
268.448	195.88
268.681	205.88
268.913	219.88
269.145	237.88
269.377	262.88
269.609	255.88
269.841	244.88
270.073	242.88
270.306	252.88
270.538	284.88
270.77	290.88
271.002	284.88
271.234	271.88
271.466	277.88
271.698	291.88
271.93	291.88
272.162	295.88
272.394	311.88
272.626	275.88
272.858	282.88
273.09	268.88
273.322	255.88
273.553	241.88
273.785	255.88
274.017	239.88
274.249	234.88
274.481	226.88
274.713	235.88
274.945	217.88
275.176	247.88
275.408	238.88
275.64	220.88
275.872	244.88
276.104	251.88
276.335	243.88
276.567	245.88
276.799	253.88
277.031	291.88
277.262	273.88
277.494	276.88
277.726	289.88
277.957	258.88
278.189	239.88
278.421	235.88
278.652	243.88
278.884	247.88
279.115	211.88
279.347	222.88
279.579	216.88
279.81	229.88
280.042	226.88
280.273	214.88
280.505	231.88
280.736	223.88
280.968	213.88
281.199	201.88
281.431	222.88
281.662	225.88
281.894	219.88
282.125	218.88
282.356	252.88
282.588	279.88
282.819	282.88
283.051	240.88
283.282	219.88
283.513	229.88
283.745	228.88
283.976	206.88
284.207	231.88
284.439	227.88
284.67	234.88
284.901	215.88
285.132	208.88
285.364	227.88
285.595	213.88
285.826	224.88
286.057	209.88
286.288	219.88
286.52	222.88
286.751	236.88
286.982	222.88
287.213	234.88
287.444	221.88
287.675	237.88
287.906	233.88
288.138	247.88
288.369	253.88
288.6	228.88
288.831	251.88
289.062	232.88
289.293	238.88
289.524	231.88
289.755	238.88
289.986	259.88
290.217	232.88
290.448	239.88
290.679	232.88
290.91	216.88
291.141	226.88
291.371	240.88
291.602	249.88
291.833	242.88
292.064	238.88
292.295	251.88
292.526	230.88
292.757	222.88
292.987	237.88
293.218	245.88
293.449	228.88
293.68	232.88
293.91	236.88
294.141	223.88
294.372	240.88
294.603	235.88
294.833	246.88
295.064	216.88
295.295	224.88
295.525	236.88
295.756	239.88
295.987	252.88
296.217	286.88
296.448	295.88
296.679	279.88
296.909	214.88
297.14	228.88
297.37	249.88
297.601	239.88
297.831	241.88
298.062	245.88
298.292	240.88
298.523	244.88
298.753	253.88
298.984	224.88
299.214	246.88
299.445	248.88
299.675	253.88
299.905	257.88
300.136	268.88
300.366	238.88
300.597	249.88
300.827	238.88
301.057	256.88
301.288	267.88
301.518	259.88
301.748	246.88
301.979	279.88
302.209	264.88
302.439	275.88
302.669	253.88
302.9	271.88
303.13	278.88
303.36	274.88
303.59	255.88
303.82	279.88
304.051	269.88
304.281	274.88
304.511	245.88
304.741	261.88
304.971	269.88
305.201	259.88
305.431	250.88
305.661	260.88
305.891	273.88
306.121	259.88
306.352	280.88
306.582	291.88
306.812	291.88
307.042	276.88
307.272	274.88
307.502	270.88
307.731	285.88
307.961	275.88
308.191	277.88
308.421	278.88
308.651	262.88
308.881	275.88
309.111	289.88
309.341	296.88
309.571	308.88
309.8	301.88
310.03	321.88
310.26	345.88
310.49	323.88
310.72	349.88
310.949	388.88
311.179	355.88
311.409	337.88
311.639	316.88
311.868	349.88
312.098	339.88
312.328	347.88
312.557	361.88
312.787	374.88
313.017	399.88
313.246	348.88
313.476	320.88
313.706	330.88
313.935	317.88
314.165	370.88
314.394	369.88
314.624	353.88
314.853	344.88
315.083	345.88
315.312	308.88
315.542	303.88
315.771	310.88
316.001	303.88
316.23	324.88
316.46	322.88
316.689	335.88
316.919	335.88
317.148	345.88
317.377	334.88
317.607	323.88
317.836	325.88
318.065	326.88
318.295	307.88
318.524	333.88
318.753	321.88
318.983	316.88
319.212	319.88
319.441	340.88
319.67	363.88
319.9	323.88
320.129	339.88
320.358	319.88
320.587	327.88
320.816	343.88
321.046	356.88
321.275	378.88
321.504	355.88
321.733	369.88
321.962	377.88
322.191	393.88
322.42	405.88
322.649	429.88
322.878	450.88
323.108	462.88
323.337	498.88
323.566	525.88
323.795	586.88
324.024	635.88
324.253	827.88
324.482	1166.88
324.71	1840.88
324.939	2534.88
325.168	2238.88
325.397	1223.88
325.626	808.88
325.855	639.88
326.084	563.88
326.313	530.88
326.542	527.88
326.77	592.88
326.999	719.88
327.228	1025.88
327.457	1599.88
327.686	1909.88
327.914	1334.88
328.143	829.88
328.372	708.88
328.6	664.88
328.829	600.88
329.058	621.88
329.287	658.88
329.515	575.88
329.744	517.88
329.972	496.88
330.201	497.88
330.43	519.88
330.658	587.88
330.887	654.88
331.115	633.88
331.344	546.88
331.572	483.88
331.801	453.88
332.03	469.88
332.258	433.88
332.486	417.88
332.715	390.88
332.943	394.88
333.172	389.88
333.4	397.88
333.629	373.88
333.857	382.88
334.085	393.88
334.314	365.88
334.542	372.88
334.771	378.88
334.999	376.88
335.227	373.88
335.455	396.88
335.684	391.88
335.912	371.88
336.14	365.88
336.369	368.88
336.597	387.88
336.825	403.88
337.053	382.88
337.281	365.88
337.51	369.88
337.738	370.88
337.966	376.88
338.194	387.88
338.422	383.88
338.65	374.88
338.878	351.88
339.106	355.88
339.334	363.88
339.562	379.88
339.79	365.88
340.018	378.88
340.246	355.88
340.474	395.88
340.702	369.88
340.93	364.88
341.158	354.88
341.386	368.88
341.614	352.88
341.842	345.88
342.07	352.88
342.298	347.88
342.526	344.88
342.754	346.88
342.981	337.88
343.209	348.88
343.437	344.88
343.665	349.88
343.893	328.88
344.12	362.88
344.348	356.88
344.576	363.88
344.804	363.88
345.031	408.88
345.259	399.88
345.487	382.88
345.714	385.88
345.942	371.88
346.17	357.88
346.397	367.88
346.625	373.88
346.853	359.88
347.08	353.88
347.308	349.88
347.535	367.88
347.763	391.88
347.99	385.88
348.218	394.88
348.445	399.88
348.673	393.88
348.9	369.88
349.128	357.88
349.355	335.88
349.583	339.88
349.81	342.88
350.037	340.88
350.265	334.88
350.492	339.88
350.72	354.88
350.947	365.88
351.174	369.88
351.402	404.88
351.629	389.88
351.856	372.88
352.083	379.88
352.311	402.88
352.538	385.88
352.765	381.88
352.992	387.88
353.22	408.88
353.447	363.88
353.674	386.88
353.901	352.88
354.128	316.88
354.355	322.88
354.583	309.88
354.81	327.88
355.037	331.88
355.264	302.88
355.491	329.88
355.718	327.88
355.945	309.88
356.172	319.88
356.399	313.88
356.626	328.88
356.853	322.88
357.08	319.88
357.307	309.88
357.534	308.88
357.761	317.88
357.988	316.88
358.215	347.88
358.441	327.88
358.668	320.88
358.895	340.88
359.122	337.88
359.349	352.88
359.576	372.88
359.802	409.88
360.029	446.88
360.256	467.88
360.483	437.88
360.709	394.88
360.936	373.88
361.163	379.88
361.39	377.88
361.616	396.88
361.843	365.88
362.07	379.88
362.296	392.88
362.523	372.88
362.749	379.88
362.976	380.88
363.203	356.88
363.429	354.88
363.656	359.88
363.882	348.88
364.109	346.88
364.335	329.88
364.562	340.88
364.788	354.88
365.015	367.88
365.241	365.88
365.468	345.88
365.694	341.88
365.92	350.88
366.147	353.88
366.373	327.88
366.599	337.88
366.826	337.88
367.052	318.88
367.278	333.88
367.505	351.88
367.731	340.88
367.957	347.88
368.184	349.88
368.41	358.88
368.636	357.88
368.862	377.88
369.089	353.88
369.315	335.88
369.541	333.88
369.767	334.88
369.993	329.88
370.219	333.88
370.445	349.88
370.672	344.88
370.898	309.88
371.124	331.88
371.35	333.88
371.576	321.88
371.802	329.88
372.028	324.88
372.254	317.88
372.48	323.88
372.706	317.88
372.932	309.88
373.158	313.88
373.384	316.88
373.61	336.88
373.835	326.88
374.061	321.88
374.287	340.88
374.513	329.88
374.739	329.88
374.965	327.88
375.191	324.88
375.416	317.88
375.642	322.88
375.868	327.88
376.094	338.88
376.319	346.88
376.545	320.88
376.771	319.88
376.997	327.88
377.222	321.88
377.448	302.88
377.674	334.88
377.899	335.88
378.125	336.88
378.35	313.88
378.576	332.88
378.802	311.88
379.027	315.88
379.253	325.88
379.478	302.88
379.704	328.88
379.929	326.88
380.155	326.88
380.38	318.88
380.606	342.88
380.831	336.88
381.057	350.88
381.282	323.88
381.507	343.88
381.733	332.88
381.958	332.88
382.184	316.88
382.409	322.88
382.634	335.88
382.86	335.88
383.085	360.88
383.31	324.88
383.535	305.88
383.761	334.88
383.986	356.88
384.211	327.88
384.436	340.88
384.662	331.88
384.887	341.88
385.112	331.88
385.337	332.88
385.562	350.88
385.787	326.88
386.013	341.88
386.238	360.88
386.463	342.88
386.688	339.88
386.913	351.88
387.138	334.88
387.363	347.88
387.588	334.88
387.813	364.88
388.038	329.88
388.263	333.88
388.488	357.88
388.713	336.88
388.938	340.88
389.163	338.88
389.387	341.88
389.612	333.88
389.837	344.88
390.062	341.88
390.287	337.88
390.512	342.88
390.736	356.88
390.961	336.88
391.186	351.88
391.411	359.88
391.636	351.88
391.86	370.88
392.085	348.88
392.31	349.88
392.534	334.88
392.759	320.88
392.984	339.88
393.208	352.88
393.433	344.88
393.658	364.88
393.882	348.88
394.107	338.88
394.331	348.88
394.556	323.88
394.78	337.88
395.005	342.88
395.229	333.88
395.454	356.88
395.678	368.88
395.903	349.88
396.127	363.88
396.352	402.88
396.576	364.88
396.801	352.88
397.025	365.88
397.249	374.88
397.474	356.88
397.698	360.88
397.922	385.88
398.147	387.88
398.371	394.88
398.595	412.88
398.82	389.88
399.044	401.88
399.268	398.88
399.492	410.88
399.717	415.88
399.941	445.88
400.165	478.88
400.389	492.88
400.613	462.88
400.837	422.88
401.062	403.88
401.286	388.88
401.51	381.88
401.734	399.88
401.958	397.88
402.182	412.88
402.406	425.88
402.63	419.88
402.854	422.88
403.078	408.88
403.302	391.88
403.526	431.88
403.75	407.88
403.974	404.88
404.198	388.88
404.422	417.88
404.645	427.88
404.869	406.88
405.093	449.88
405.317	455.88
405.541	481.88
405.765	447.88
405.988	460.88
406.212	448.88
406.436	473.88
406.66	500.88
406.883	477.88
407.107	492.88
407.331	535.88
407.555	596.88
407.778	585.88
408.002	524.88
408.226	471.88
408.449	472.88
408.673	456.88
408.896	483.88
409.12	544.88
409.344	511.88
409.567	464.88
409.791	447.88
410.014	444.88
410.238	413.88
410.461	412.88
410.685	425.88
410.908	439.88
411.132	489.88
411.355	540.88
411.578	495.88
411.802	467.88
412.025	409.88
412.249	429.88
412.472	421.88
412.695	434.88
412.919	435.88
413.142	406.88
413.365	414.88
413.589	394.88
413.812	389.88
414.035	406.88
414.258	397.88
414.482	385.88
414.705	389.88
414.928	371.88
415.151	379.88
415.374	379.88
415.597	391.88
415.821	400.88
416.044	405.88
416.267	411.88
416.49	395.88
416.713	386.88
416.936	399.88
417.159	406.88
417.382	387.88
417.605	402.88
417.828	407.88
418.051	423.88
418.274	417.88
418.497	408.88
418.72	416.88
418.943	413.88
419.166	412.88
419.389	425.88
419.611	436.88
419.834	440.88
420.057	425.88
420.28	430.88
420.503	423.88
420.726	417.88
420.948	456.88
421.171	490.88
421.394	526.88
421.617	471.88
421.839	439.88
422.062	431.88
422.285	462.88
422.507	517.88
422.73	585.88
422.953	572.88
423.175	504.88
423.398	475.88
423.621	462.88
423.843	475.88
424.066	467.88
424.288	492.88
424.511	509.88
424.733	577.88
424.956	642.88
425.178	616.88
425.401	624.88
425.623	616.88
425.846	555.88
426.068	503.88
426.291	507.88
426.513	513.88
426.735	528.88
426.958	545.88
427.18	620.88
427.402	758.88
427.625	851.88
427.847	766.88
428.069	639.88
428.292	582.88
428.514	521.88
428.736	512.88
428.958	482.88
429.181	468.88
429.403	441.88
429.625	486.88
429.847	540.88
430.069	580.88
430.292	565.88
430.514	524.88
430.736	468.88
430.958	452.88
431.18	439.88
431.402	419.88
431.624	414.88
431.846	396.88
432.068	412.88
432.29	427.88
432.512	424.88
432.734	434.88
432.956	439.88
433.178	430.88
433.4	444.88
433.622	439.88
433.844	430.88
434.066	447.88
434.287	431.88
434.509	421.88
434.731	435.88
434.953	437.88
435.175	451.88
435.397	481.88
435.618	497.88
435.84	551.88
436.062	654.88
436.284	701.88
436.505	599.88
436.727	529.88
436.949	467.88
437.17	466.88
437.392	465.88
437.614	509.88
437.835	555.88
438.057	660.88
438.278	755.88
438.5	728.88
438.721	753.88
438.943	720.88
439.165	593.88
439.386	525.88
439.608	524.88
439.829	563.88
440.05	563.88
440.272	607.88
440.493	576.88
440.715	531.88
440.936	507.88
441.158	492.88
441.379	479.88
441.6	482.88
441.822	496.88
442.043	556.88
442.264	640.88
442.486	679.88
442.707	593.88
442.928	562.88
443.149	543.88
443.371	540.88
443.592	607.88
443.813	676.88
444.034	713.88
444.255	604.88
444.476	549.88
444.698	504.88
444.919	498.88
445.14	592.88
445.361	556.88
445.582	559.88
445.803	632.88
446.024	708.88
446.245	736.88
446.466	676.88
446.687	581.88
446.908	529.88
447.129	489.88
447.35	466.88
447.571	477.88
447.792	447.88
448.013	510.88
448.234	532.88
448.455	575.88
448.675	685.88
448.896	747.88
449.117	655.88
449.338	631.88
449.559	711.88
449.779	778.88
450	675.88
450.221	574.88
450.442	513.88
450.662	510.88
450.883	509.88
451.104	521.88
451.324	521.88
451.545	498.88
451.766	452.88
451.986	420.88
452.207	420.88
452.428	429.88
452.648	416.88
452.869	413.88
453.089	437.88
453.31	460.88
453.53	442.88
453.751	416.88
453.971	454.88
454.192	474.88
454.412	450.88
454.633	445.88
454.853	440.88
455.073	430.88
455.294	469.88
455.514	530.88
455.734	507.88
455.955	423.88
456.175	428.88
456.395	391.88
456.616	392.88
456.836	398.88
457.056	388.88
457.276	352.88
457.497	401.88
457.717	405.88
457.937	399.88
458.157	404.88
458.377	420.88
458.598	445.88
458.818	521.88
459.038	631.88
459.258	626.88
459.478	512.88
459.698	439.88
459.918	413.88
460.138	440.88
460.358	406.88
460.578	413.88
460.798	437.88
461.018	411.88
461.238	401.88
461.458	415.88
461.678	409.88
461.898	423.88
462.118	403.88
462.338	415.88
462.558	424.88
462.777	432.88
462.997	435.88
463.217	429.88
463.437	438.88
463.657	445.88
463.876	433.88
464.096	436.88
464.316	435.88
464.536	443.88
464.755	454.88
464.975	476.88
465.195	549.88
465.414	663.88
465.634	577.88
465.854	512.88
466.073	479.88
466.293	430.88
466.512	429.88
466.732	430.88
466.951	404.88
467.171	401.88
467.391	414.88
467.61	439.88
467.829	440.88
468.049	444.88
468.268	422.88
468.488	403.88
468.707	422.88
468.927	410.88
469.146	381.88
469.365	389.88
469.585	419.88
469.804	421.88
470.023	434.88
470.243	431.88
470.462	460.88
470.681	488.88
470.901	458.88
471.12	430.88
471.339	457.88
471.558	436.88
471.777	438.88
471.997	420.88
472.216	416.88
472.435	424.88
472.654	437.88
472.873	430.88
473.092	410.88
473.311	438.88
473.53	420.88
473.749	448.88
473.968	492.88
474.187	586.88
474.406	593.88
474.625	487.88
474.844	446.88
475.063	431.88
475.282	436.88
475.501	423.88
475.72	435.88
475.939	435.88
476.158	433.88
476.377	436.88
476.596	436.88
476.814	454.88
477.033	454.88
477.252	437.88
477.471	451.88
477.69	456.88
477.908	455.88
478.127	437.88
478.346	457.88
478.564	457.88
478.783	465.88
479.002	465.88
479.22	472.88
479.439	505.88
479.658	513.88
479.876	556.88
480.095	541.88
480.313	571.88
480.532	518.88
480.751	520.88
480.969	516.88
481.188	543.88
481.406	531.88
481.624	506.88
481.843	499.88
482.061	497.88
482.28	489.88
482.498	513.88
482.717	500.88
482.935	496.88
483.153	512.88
483.372	495.88
483.59	518.88
483.808	495.88
484.027	499.88
484.245	527.88
484.463	504.88
484.681	522.88
484.9	519.88
485.118	511.88
485.336	507.88
485.554	515.88
485.772	538.88
485.99	549.88
486.209	523.88
486.427	519.88
486.645	553.88
486.863	564.88
487.081	561.88
487.299	549.88
487.517	582.88
487.735	553.88
487.953	541.88
488.171	560.88
488.389	549.88
488.607	539.88
488.825	561.88
489.043	573.88
489.261	564.88
489.479	547.88
489.696	576.88
489.914	563.88
490.132	563.88
490.35	564.88
490.568	576.88
490.786	572.88
491.003	598.88
491.221	604.88
491.439	621.88
491.657	633.88
491.874	609.88
492.092	624.88
492.31	626.88
492.527	657.88
492.745	657.88
492.963	638.88
493.18	629.88
493.398	647.88
493.615	685.88
493.833	653.88
494.05	645.88
494.268	675.88
494.485	657.88
494.703	661.88
494.92	668.88
495.138	663.88
495.355	677.88
495.573	685.88
495.79	641.88
496.008	664.88
496.225	672.88
496.442	659.88
496.66	679.88
496.877	660.88
497.094	676.88
497.312	658.88
497.529	687.88
497.746	698.88
497.963	699.88
498.181	699.88
498.398	702.88
498.615	715.88
498.832	747.88
499.049	709.88
499.267	727.88
499.484	727.88
499.701	722.88
499.918	743.88
500.135	768.88
500.352	785.88
500.569	814.88
500.786	779.88
501.003	785.88
501.22	768.88
501.437	788.88
501.654	802.88
501.871	820.88
502.088	784.88
502.305	776.88
502.522	734.88
502.739	726.88
502.956	720.88
503.172	705.88
503.389	693.88
503.606	721.88
503.823	683.88
504.04	693.88
504.256	677.88
504.473	675.88
504.69	661.88
504.907	665.88
505.123	676.88
505.34	665.88
505.557	661.88
505.773	654.88
505.99	674.88
506.207	637.88
506.423	656.88
506.64	653.88
506.856	632.88
507.073	649.88
507.289	648.88
507.506	663.88
507.722	667.88
507.939	688.88
508.155	669.88
508.372	665.88
508.588	645.88
508.805	676.88
509.021	662.88
509.238	670.88
509.454	637.88
509.67	637.88
509.887	650.88
510.103	651.88
510.319	687.88
510.536	828.88
510.752	1566.88
510.968	1246.88
511.184	736.88
511.401	664.88
511.617	662.88
511.833	653.88
512.049	642.88
512.265	611.88
512.481	621.88
512.698	620.88
512.914	619.88
513.13	622.88
513.346	631.88
513.562	646.88
513.778	630.88
513.994	652.88
514.21	684.88
514.426	733.88
514.642	802.88
514.858	811.88
515.074	917.88
515.29	1129.88
515.506	1807.88
515.721	1423.88
515.937	863.88
516.153	770.88
516.369	719.88
516.585	683.88
516.801	661.88
517.016	669.88
517.232	660.88
517.448	620.88
517.664	648.88
517.879	632.88
518.095	644.88
518.311	638.88
518.527	625.88
518.742	644.88
518.958	630.88
519.173	621.88
519.389	651.88
519.605	644.88
519.82	643.88
520.036	671.88
520.251	727.88
520.467	777.88
520.682	775.88
520.898	784.88
521.113	824.88
521.329	903.88
521.544	1090.88
521.76	1413.88
521.975	2475.88
522.19	2397.88
522.406	1263.88
522.621	851.88
522.836	725.88
523.052	701.88
523.267	634.88
523.482	631.88
523.698	598.88
523.913	601.88
524.128	606.88
524.343	579.88
524.559	566.88
524.774	561.88
524.989	536.88
525.204	540.88
525.419	562.88
525.634	551.88
525.849	537.88
526.064	513.88
526.28	516.88
526.495	500.88
526.71	523.88
526.925	492.88
527.14	492.88
527.355	494.88
527.57	489.88
527.785	496.88
527.999	473.88
528.214	496.88
528.429	481.88
528.644	484.88
528.859	498.88
529.074	483.88
529.289	547.88
529.503	681.88
529.718	648.88
529.933	575.88
530.148	528.88
530.363	513.88
530.577	494.88
530.792	484.88
531.007	476.88
531.221	488.88
531.436	462.88
531.651	466.88
531.865	497.88
532.08	479.88
532.295	453.88
532.509	424.88
532.724	472.88
532.938	478.88
533.153	455.88
533.367	447.88
533.582	447.88
533.796	453.88
534.011	455.88
534.225	461.88
534.44	439.88
534.654	439.88
534.868	449.88
535.083	444.88
535.297	464.88
535.511	449.88
535.726	463.88
535.94	468.88
536.154	457.88
536.369	451.88
536.583	463.88
536.797	452.88
537.011	427.88
537.225	420.88
537.44	438.88
537.654	443.88
537.868	437.88
538.082	431.88
538.296	417.88
538.51	440.88
538.724	433.88
538.938	436.88
539.153	447.88
539.367	459.88
539.581	440.88
539.795	443.88
540.009	467.88
540.222	453.88
540.436	429.88
540.65	419.88
540.864	453.88
541.078	455.88
541.292	439.88
541.506	435.88
541.72	452.88
541.934	427.88
542.147	432.88
542.361	429.88
542.575	445.88
542.789	437.88
543.002	427.88
543.216	433.88
543.43	453.88
543.644	432.88
543.857	427.88
544.071	416.88
544.285	424.88
544.498	435.88
544.712	406.88
544.925	416.88
545.139	411.88
545.352	412.88
545.566	422.88
545.779	417.88
545.993	401.88
546.206	422.88
546.42	413.88
546.633	409.88
546.847	415.88
547.06	401.88
547.274	400.88
547.487	411.88
547.7	397.88
547.914	375.88
548.127	398.88
548.34	416.88
548.554	376.88
548.767	383.88
548.98	392.88
549.193	405.88
549.407	399.88
549.62	387.88
549.833	400.88
550.046	393.88
550.259	394.88
550.473	395.88
550.686	368.88
550.899	380.88
551.112	395.88
551.325	383.88
551.538	403.88
551.751	395.88
551.964	384.88
552.177	379.88
552.39	371.88
552.603	390.88
552.816	376.88
553.029	392.88
553.242	393.88
553.455	385.88
553.667	406.88
553.88	416.88
554.093	424.88
554.306	395.88
554.519	387.88
554.732	403.88
554.944	379.88
555.157	389.88
555.37	383.88
555.583	386.88
555.795	359.88
556.008	369.88
556.221	359.88
556.433	333.88
556.646	364.88
556.859	363.88
557.071	353.88
557.284	356.88
557.496	367.88
557.709	357.88
557.921	347.88
558.134	347.88
558.346	340.88
558.559	358.88
558.771	363.88
558.984	341.88
559.196	341.88
559.409	334.88
559.621	353.88
559.833	365.88
560.046	363.88
560.258	345.88
560.47	349.88
560.683	353.88
560.895	368.88
561.107	367.88
561.32	368.88
561.532	335.88
561.744	345.88
561.956	333.88
562.168	340.88
562.381	340.88
562.593	357.88
562.805	351.88
563.017	369.88
563.229	347.88
563.441	356.88
563.653	360.88
563.865	334.88
564.077	350.88
564.289	356.88
564.501	366.88
564.713	349.88
564.925	376.88
565.137	371.88
565.349	365.88
565.561	365.88
565.773	372.88
565.985	379.88
566.197	347.88
566.408	351.88
566.62	389.88
566.832	371.88
567.044	356.88
567.255	387.88
567.467	381.88
567.679	365.88
567.891	382.88
568.102	383.88
568.314	387.88
568.526	381.88
568.737	372.88
568.949	369.88
569.161	370.88
569.372	333.88
569.584	348.88
569.795	341.88
570.007	366.88
570.218	437.88
570.43	409.88
570.641	363.88
570.853	350.88
571.064	317.88
571.276	327.88
571.487	324.88
571.698	337.88
571.91	324.88
572.121	324.88
572.333	313.88
572.544	315.88
572.755	314.88
572.966	328.88
573.178	332.88
573.389	323.88
573.6	309.88
573.811	314.88
574.023	317.88
574.234	292.88
574.445	301.88
574.656	296.88
574.867	316.88
575.078	306.88
575.289	307.88
575.501	311.88
575.712	302.88
575.923	310.88
576.134	298.88
576.345	309.88
576.556	293.88
576.767	280.88
576.978	304.88
577.188	307.88
577.399	299.88
577.61	297.88
577.821	310.88
578.032	311.88
578.243	359.88
578.454	712.88
578.665	495.88
578.875	347.88
579.086	300.88
579.297	296.88
579.508	293.88
579.718	289.88
579.929	295.88
580.14	283.88
580.35	288.88
580.561	278.88
580.772	281.88
580.982	278.88
581.193	280.88
581.403	271.88
581.614	300.88
581.825	285.88
582.035	259.88
582.246	291.88
582.456	282.88
582.667	280.88
582.877	282.88
583.087	278.88
583.298	273.88
583.508	284.88
583.719	269.88
583.929	278.88
584.139	298.88
584.35	272.88
584.56	263.88
584.77	261.88
584.981	262.88
585.191	277.88
585.401	258.88
585.611	287.88
585.821	280.88
586.032	275.88
586.242	280.88
586.452	278.88
586.662	277.88
586.872	273.88
587.082	278.88
587.292	260.88
587.502	271.88
587.713	287.88
587.923	278.88
588.133	268.88
588.343	260.88
588.553	261.88
588.762	255.88
588.972	269.88
589.182	322.88
589.392	316.88
589.602	279.88
589.812	303.88
590.022	283.88
590.232	256.88
590.441	269.88
590.651	254.88
590.861	263.88
591.071	273.88
591.281	261.88
591.49	273.88
591.7	253.88
591.91	268.88
592.119	263.88
592.329	264.88
592.539	282.88
592.748	283.88
592.958	271.88
593.167	266.88
593.377	268.88
593.587	269.88
593.796	256.88
594.006	260.88
594.215	259.88
594.424	257.88
594.634	277.88
594.843	254.88
595.053	253.88
595.262	256.88
595.472	253.88
595.681	257.88
595.89	253.88
596.1	248.88
596.309	255.88
596.518	253.88
596.727	249.88
596.937	270.88
597.146	235.88
597.355	240.88
597.564	261.88
597.774	229.88
597.983	236.88
598.192	240.88
598.401	241.88
598.61	257.88
598.819	240.88
599.028	251.88
599.237	237.88
599.446	231.88
599.655	239.88
599.864	243.88
600.073	239.88
600.282	235.88
600.491	228.88
600.7	240.88
600.909	244.88
601.118	228.88
601.327	224.88
601.536	240.88
601.745	242.88
601.953	235.88
602.162	218.88
602.371	232.88
602.58	227.88
602.789	208.88
602.997	228.88
603.206	225.88
603.415	226.88
603.623	214.88
603.832	231.88
604.041	231.88
604.249	228.88
604.458	232.88
604.666	227.88
604.875	213.88
605.084	208.88
605.292	240.88
605.501	230.88
605.709	222.88
605.918	213.88
606.126	232.88
606.334	215.88
606.543	225.88
606.751	223.88
606.96	224.88
607.168	218.88
607.376	201.88
607.585	216.88
607.793	215.88
608.001	225.88
608.21	235.88
608.418	221.88
608.626	200.88
608.834	217.88
609.043	223.88
609.251	208.88
609.459	214.88
609.667	198.88
609.875	219.88
610.083	214.88
610.291	204.88
610.499	212.88
610.707	206.88
610.916	211.88
611.124	232.88
611.332	236.88
611.54	223.88
611.748	214.88
611.955	198.88
612.163	215.88
612.371	211.88
612.579	235.88
612.787	223.88
612.995	220.88
613.203	217.88
613.411	195.88
613.618	216.88
613.826	207.88
614.034	200.88
614.242	221.88
614.449	219.88
614.657	212.88
614.865	214.88
615.072	209.88
615.28	211.88
615.488	204.88
615.695	206.88
615.903	223.88
616.111	204.88
616.318	223.88
616.526	205.88
616.733	212.88
616.941	200.88
617.148	202.88
617.356	217.88
617.563	199.88
617.771	197.88
617.978	199.88
618.185	202.88
618.393	189.88
618.6	203.88
618.807	201.88
619.015	210.88
619.222	199.88
619.429	206.88
619.637	205.88
619.844	215.88
620.051	212.88
620.258	206.88
620.466	201.88
620.673	200.88
620.88	215.88
621.087	199.88
621.294	201.88
621.501	222.88
621.708	195.88
621.915	207.88
622.122	205.88
622.329	212.88
622.536	192.88
622.743	204.88
622.95	199.88
623.157	197.88
623.364	215.88
623.571	191.88
623.778	196.88
623.985	205.88
624.192	189.88
624.399	190.88
624.606	203.88
624.812	195.88
625.019	203.88
625.226	186.88
625.433	189.88
625.639	202.88
625.846	203.88
626.053	187.88
626.259	200.88
626.466	192.88
626.673	206.88
626.879	176.88
627.086	188.88
627.293	199.88
627.499	175.88
627.706	187.88
627.912	185.88
628.119	190.88
628.325	183.88
628.532	187.88
628.738	172.88
628.945	195.88
629.151	184.88
629.357	183.88
629.564	189.88
629.77	185.88
629.976	181.88
630.183	183.88
630.389	189.88
630.595	175.88
630.802	172.88
631.008	175.88
631.214	171.88
631.42	182.88
631.627	184.88
631.833	177.88
632.039	178.88
632.245	171.88
632.451	147.88
632.657	146.88
632.863	178.88
633.069	194.88
633.275	158.88
633.481	173.88
633.688	157.88
633.893	177.88
634.099	168.88
634.305	172.88
634.511	152.88
634.717	153.88
634.923	162.88
635.129	165.88
635.335	161.88
635.541	177.88
635.747	177.88
635.952	162.88
636.158	161.88
636.364	168.88
636.57	166.88
636.775	165.88
636.981	156.88
637.187	155.88
637.392	159.88
637.598	164.88
637.804	171.88
638.009	160.88
638.215	166.88
638.421	149.88
638.626	149.88
638.832	171.88
639.037	157.88
639.243	143.88
639.448	146.88
639.654	166.88
639.859	144.88
640.065	147.88
640.27	156.88
640.475	155.88
640.681	161.88
640.886	151.88
641.091	146.88
641.297	158.88
641.502	156.88
641.707	150.88
641.913	137.88
642.118	168.88
642.323	142.88
642.528	168.88
642.733	163.88
642.939	158.88
643.144	149.88
643.349	152.88
643.554	147.88
643.759	152.88
643.964	152.88
644.169	129.88
644.374	140.88
644.579	152.88
644.784	153.88
644.989	152.88
645.194	145.88
645.399	137.88
645.604	142.88
645.809	147.88
646.014	151.88
646.219	140.88
646.423	142.88
646.628	141.88
646.833	151.88
647.038	147.88
647.243	155.88
647.447	149.88
647.652	146.88
647.857	143.88
648.062	146.88
648.266	141.88
648.471	147.88
648.676	155.88
648.88	153.88
649.085	150.88
649.289	158.88
649.494	159.88
649.698	178.88
649.903	163.88
650.107	154.88
650.312	163.88
650.516	144.88
650.721	143.88
650.925	128.88
651.13	128.88
651.334	133.88
651.539	149.88
651.743	128.88
651.947	144.88
652.152	133.88
652.356	124.88
652.56	119.88
652.764	136.88
652.969	139.88
653.173	133.88
653.377	125.88
653.581	124.88
653.785	117.88
653.99	121.88
654.194	119.88
654.398	126.88
654.602	123.88
654.806	126.88
655.01	132.88
655.214	136.88
655.418	123.88
655.622	112.88
655.826	125.88
656.03	124.88
656.234	115.88
656.438	97.88
656.642	123.88
656.846	121.88
657.049	126.88
657.253	111.88
657.457	115.88
657.661	103.88
657.865	104.88
658.068	89.88
658.272	93.88
658.476	102.88
658.68	96.88
658.883	111.88
659.087	99.88
659.291	100.88
659.494	91.88
659.698	94.88
659.901	86.88
660.105	84.88
660.309	78.88
660.512	79.88
660.716	79.88
660.919	76.88
661.123	87.88
661.326	86.88
661.53	77.88
661.733	68.88
661.936	94.88
662.14	86.88
662.343	83.88
662.546	79.88
662.75	83.88
662.953	70.88
663.156	84.88
663.36	76.88
663.563	77.88
663.766	81.88
663.969	85.88
664.173	78.88
664.376	62.88
664.579	73.88
664.782	76.88
664.985	81.88
665.188	77.88
665.391	64.88
665.594	66.88
665.797	79.88
666	87.88
666.203	77.88
666.406	75.88
666.609	76.88
666.812	75.88
667.015	77.88
667.218	79.88
667.421	83.88
667.624	69.88
667.827	86.88
668.03	80.88
668.232	76.88
668.435	82.88
668.638	79.88
668.841	76.88
669.043	83.88
669.246	65.88
669.449	80.88
669.651	84.88
669.854	76.88
670.057	85.88
670.259	80.88
670.462	83.88
670.665	76.88
670.867	79.88
671.07	78.88
671.272	89.88
671.475	77.88
671.677	81.88
671.88	83.88
672.082	95.88
672.284	78.88
672.487	77.88
672.689	87.88
672.892	74.88
