Data from 1987.PennyLincolnUp.Lamp.En5.5.200Scan.071819.P2_HRD10591_17-14-53-971.txt Node
Date: Thu Jul 18 17:14:53 EDT 2019
User: cochatt
Spectrometer: HR+D1059
Trigger mode: 1
Integration Time (sec): 1.000000E-1
Scans to average: 1
Electric dark correction enabled: true
Nonlinearity correction enabled: false
Boxcar width: 0
XAxis mode: Wavelengths
Number of Pixels in Spectrum: 2048
>>>>>Begin Spectral Data<<<<<
223.165	-10.12
223.4	-10.12
223.635	-10.12
223.869	-14.12
224.104	-27.12
224.338	-16.12
224.573	-26.12
224.808	-12.12
225.042	-7.12
225.277	-7.12
225.511	8.88
225.746	-7.12
225.98	-7.12
226.215	0.88
226.449	18.88
226.683	30.88
226.918	34.88
227.152	39.88
227.387	24.88
227.621	24.88
227.856	39.88
228.09	33.88
228.324	44.88
228.559	41.88
228.793	71.88
229.027	103.88
229.262	123.88
229.496	108.88
229.73	145.88
229.964	167.88
230.199	149.88
230.433	111.88
230.667	122.88
230.901	122.88
231.136	100.88
231.37	119.88
231.604	122.88
231.838	112.88
232.072	111.88
232.306	97.88
232.541	104.88
232.775	118.88
233.009	108.88
233.243	113.88
233.477	117.88
233.711	123.88
233.945	115.88
234.179	115.88
234.413	118.88
234.647	132.88
234.881	124.88
235.115	114.88
235.349	109.88
235.583	134.88
235.817	128.88
236.051	124.88
236.285	128.88
236.519	112.88
236.753	127.88
236.987	150.88
237.221	185.88
237.455	242.88
237.689	197.88
237.922	153.88
238.156	134.88
238.39	136.88
238.624	132.88
238.858	112.88
239.091	123.88
239.325	121.88
239.559	132.88
239.793	124.88
240.027	133.88
240.26	145.88
240.494	147.88
240.728	148.88
240.961	137.88
241.195	138.88
241.429	132.88
241.662	123.88
241.896	131.88
242.13	140.88
242.363	123.88
242.597	124.88
242.83	121.88
243.064	127.88
243.298	118.88
243.531	127.88
243.765	141.88
243.998	114.88
244.232	127.88
244.465	139.88
244.699	146.88
244.932	143.88
245.166	121.88
245.399	138.88
245.633	123.88
245.866	140.88
246.099	139.88
246.333	151.88
246.566	145.88
246.8	153.88
247.033	139.88
247.266	153.88
247.5	150.88
247.733	146.88
247.966	162.88
248.2	141.88
248.433	168.88
248.666	168.88
248.899	181.88
249.133	181.88
249.366	209.88
249.599	193.88
249.832	171.88
250.066	185.88
250.299	157.88
250.532	175.88
250.765	183.88
250.998	213.88
251.231	208.88
251.465	198.88
251.698	202.88
251.931	199.88
252.164	181.88
252.397	183.88
252.63	195.88
252.863	205.88
253.096	200.88
253.329	217.88
253.562	216.88
253.795	220.88
254.028	195.88
254.261	223.88
254.494	219.88
254.727	243.88
254.96	275.88
255.193	268.88
255.426	244.88
255.659	221.88
255.892	214.88
256.124	197.88
256.357	206.88
256.59	207.88
256.823	197.88
257.056	193.88
257.289	178.88
257.521	191.88
257.754	198.88
257.987	202.88
258.22	187.88
258.452	181.88
258.685	176.88
258.918	177.88
259.151	207.88
259.383	201.88
259.616	203.88
259.849	202.88
260.081	233.88
260.314	232.88
260.547	235.88
260.779	233.88
261.012	209.88
261.244	212.88
261.477	219.88
261.71	218.88
261.942	212.88
262.175	219.88
262.407	212.88
262.64	199.88
262.872	199.88
263.105	196.88
263.337	199.88
263.57	199.88
263.802	183.88
264.035	175.88
264.267	187.88
264.499	182.88
264.732	189.88
264.964	184.88
265.197	187.88
265.429	179.88
265.661	201.88
265.894	183.88
266.126	181.88
266.358	200.88
266.591	208.88
266.823	199.88
267.055	200.88
267.287	195.88
267.52	196.88
267.752	189.88
267.984	189.88
268.216	192.88
268.448	217.88
268.681	205.88
268.913	227.88
269.145	229.88
269.377	236.88
269.609	255.88
269.841	240.88
270.073	241.88
270.306	259.88
270.538	296.88
270.77	282.88
271.002	292.88
271.234	276.88
271.466	279.88
271.698	299.88
271.93	300.88
272.162	285.88
272.394	300.88
272.626	289.88
272.858	291.88
273.09	264.88
273.322	258.88
273.553	231.88
273.785	235.88
274.017	223.88
274.249	229.88
274.481	224.88
274.713	240.88
274.945	244.88
275.176	233.88
275.408	232.88
275.64	211.88
275.872	231.88
276.104	240.88
276.335	232.88
276.567	225.88
276.799	258.88
277.031	281.88
277.262	293.88
277.494	281.88
277.726	281.88
277.957	246.88
278.189	241.88
278.421	225.88
278.652	224.88
278.884	243.88
279.115	251.88
279.347	224.88
279.579	228.88
279.81	216.88
280.042	233.88
280.273	223.88
280.505	204.88
280.736	221.88
280.968	232.88
281.199	203.88
281.431	200.88
281.662	231.88
281.894	220.88
282.125	213.88
282.356	236.88
282.588	288.88
282.819	277.88
283.051	230.88
283.282	213.88
283.513	217.88
283.745	220.88
283.976	228.88
284.207	237.88
284.439	223.88
284.67	240.88
284.901	230.88
285.132	230.88
285.364	229.88
285.595	235.88
285.826	234.88
286.057	251.88
286.288	223.88
286.52	220.88
286.751	227.88
286.982	232.88
287.213	232.88
287.444	218.88
287.675	219.88
287.906	229.88
288.138	257.88
288.369	235.88
288.6	257.88
288.831	244.88
289.062	237.88
289.293	220.88
289.524	254.88
289.755	247.88
289.986	232.88
290.217	257.88
290.448	237.88
290.679	230.88
290.91	221.88
291.141	222.88
291.371	220.88
291.602	239.88
291.833	239.88
292.064	221.88
292.295	243.88
292.526	240.88
292.757	223.88
292.987	256.88
293.218	248.88
293.449	242.88
293.68	233.88
293.91	251.88
294.141	243.88
294.372	225.88
294.603	233.88
294.833	231.88
295.064	236.88
295.295	241.88
295.525	230.88
295.756	241.88
295.987	236.88
296.217	275.88
296.448	309.88
296.679	254.88
296.909	237.88
297.14	226.88
297.37	234.88
297.601	245.88
297.831	244.88
298.062	225.88
298.292	234.88
298.523	233.88
298.753	246.88
298.984	257.88
299.214	235.88
299.445	243.88
299.675	247.88
299.905	259.88
300.136	262.88
300.366	264.88
300.597	249.88
300.827	244.88
301.057	263.88
301.288	255.88
301.518	277.88
301.748	262.88
301.979	255.88
302.209	275.88
302.439	266.88
302.669	264.88
302.9	284.88
303.13	257.88
303.36	261.88
303.59	273.88
303.82	284.88
304.051	292.88
304.281	287.88
304.511	277.88
304.741	255.88
304.971	257.88
305.201	273.88
305.431	258.88
305.661	262.88
305.891	262.88
306.121	252.88
306.352	289.88
306.582	293.88
306.812	267.88
307.042	285.88
307.272	257.88
307.502	278.88
307.731	283.88
307.961	279.88
308.191	272.88
308.421	279.88
308.651	261.88
308.881	275.88
309.111	288.88
309.341	295.88
309.571	297.88
309.8	304.88
310.03	313.88
310.26	348.88
310.49	333.88
310.72	352.88
310.949	371.88
311.179	367.88
311.409	333.88
311.639	325.88
311.868	335.88
312.098	336.88
312.328	339.88
312.557	362.88
312.787	373.88
313.017	363.88
313.246	357.88
313.476	322.88
313.706	328.88
313.935	329.88
314.165	348.88
314.394	359.88
314.624	367.88
314.853	340.88
315.083	330.88
315.312	316.88
315.542	292.88
315.771	307.88
316.001	324.88
316.23	303.88
316.46	316.88
316.689	327.88
316.919	332.88
317.148	342.88
317.377	340.88
317.607	340.88
317.836	331.88
318.065	317.88
318.295	304.88
318.524	312.88
318.753	311.88
318.983	316.88
319.212	329.88
319.441	317.88
319.67	345.88
319.9	321.88
320.129	329.88
320.358	339.88
320.587	326.88
320.816	335.88
321.046	374.88
321.275	360.88
321.504	341.88
321.733	345.88
321.962	355.88
322.191	374.88
322.42	395.88
322.649	405.88
322.878	434.88
323.108	444.88
323.337	500.88
323.566	504.88
323.795	572.88
324.024	641.88
324.253	788.88
324.482	1167.88
324.71	1798.88
324.939	2474.88
325.168	2164.88
325.397	1205.88
325.626	782.88
325.855	613.88
326.084	571.88
326.313	522.88
326.542	543.88
326.77	577.88
326.999	697.88
327.228	996.88
327.457	1525.88
327.686	1873.88
327.914	1331.88
328.143	850.88
328.372	701.88
328.6	632.88
328.829	604.88
329.058	623.88
329.287	615.88
329.515	556.88
329.744	493.88
329.972	491.88
330.201	493.88
330.43	519.88
330.658	559.88
330.887	629.88
331.115	640.88
331.344	529.88
331.572	462.88
331.801	457.88
332.03	462.88
332.258	429.88
332.486	383.88
332.715	361.88
332.943	387.88
333.172	376.88
333.4	372.88
333.629	392.88
333.857	387.88
334.085	386.88
334.314	382.88
334.542	384.88
334.771	390.88
334.999	385.88
335.227	387.88
335.455	377.88
335.684	371.88
335.912	372.88
336.14	373.88
336.369	369.88
336.597	372.88
336.825	378.88
337.053	382.88
337.281	351.88
337.51	369.88
337.738	359.88
337.966	365.88
338.194	365.88
338.422	380.88
338.65	373.88
338.878	375.88
339.106	343.88
339.334	354.88
339.562	359.88
339.79	351.88
340.018	356.88
340.246	352.88
340.474	355.88
340.702	359.88
340.93	345.88
341.158	342.88
341.386	365.88
341.614	377.88
341.842	380.88
342.07	366.88
342.298	352.88
342.526	324.88
342.754	349.88
342.981	334.88
343.209	344.88
343.437	339.88
343.665	338.88
343.893	372.88
344.12	355.88
344.348	339.88
344.576	358.88
344.804	364.88
345.031	397.88
345.259	394.88
345.487	387.88
345.714	373.88
345.942	367.88
346.17	387.88
346.397	353.88
346.625	357.88
346.853	361.88
347.08	372.88
347.308	359.88
347.535	389.88
347.763	391.88
347.99	363.88
348.218	381.88
348.445	387.88
348.673	396.88
348.9	359.88
349.128	369.88
349.355	343.88
349.583	351.88
349.81	329.88
350.037	342.88
350.265	325.88
350.492	344.88
350.72	340.88
350.947	372.88
351.174	386.88
351.402	393.88
351.629	391.88
351.856	373.88
352.083	382.88
352.311	393.88
352.538	385.88
352.765	417.88
352.992	373.88
353.22	368.88
353.447	364.88
353.674	339.88
353.901	336.88
354.128	338.88
354.355	327.88
354.583	319.88
354.81	341.88
355.037	323.88
355.264	317.88
355.491	316.88
355.718	317.88
355.945	325.88
356.172	316.88
356.399	297.88
356.626	312.88
356.853	313.88
357.08	331.88
357.307	330.88
357.534	317.88
357.761	312.88
357.988	322.88
358.215	333.88
358.441	341.88
358.668	327.88
358.895	329.88
359.122	335.88
359.349	340.88
359.576	370.88
359.802	395.88
360.029	443.88
360.256	461.88
360.483	414.88
360.709	378.88
360.936	361.88
361.163	359.88
361.39	382.88
361.616	376.88
361.843	361.88
362.07	331.88
362.296	396.88
362.523	377.88
362.749	382.88
362.976	355.88
363.203	359.88
363.429	332.88
363.656	356.88
363.882	362.88
364.109	332.88
364.335	342.88
364.562	351.88
364.788	336.88
365.015	351.88
365.241	348.88
365.468	341.88
365.694	361.88
365.92	385.88
366.147	346.88
366.373	332.88
366.599	349.88
366.826	336.88
367.052	327.88
367.278	348.88
367.505	316.88
367.731	338.88
367.957	335.88
368.184	345.88
368.41	334.88
368.636	347.88
368.862	355.88
369.089	341.88
369.315	340.88
369.541	332.88
369.767	338.88
369.993	329.88
370.219	331.88
370.445	341.88
370.672	329.88
370.898	339.88
371.124	315.88
371.35	336.88
371.576	348.88
371.802	304.88
372.028	311.88
372.254	331.88
372.48	323.88
372.706	316.88
372.932	313.88
373.158	336.88
373.384	341.88
373.61	339.88
373.835	331.88
374.061	331.88
374.287	341.88
374.513	328.88
374.739	307.88
374.965	341.88
375.191	320.88
375.416	310.88
375.642	323.88
375.868	320.88
376.094	338.88
376.319	331.88
376.545	325.88
376.771	338.88
376.997	311.88
377.222	324.88
377.448	333.88
377.674	331.88
377.899	315.88
378.125	319.88
378.35	307.88
378.576	313.88
378.802	309.88
379.027	323.88
379.253	329.88
379.478	313.88
379.704	322.88
379.929	317.88
380.155	332.88
380.38	358.88
380.606	344.88
380.831	328.88
381.057	324.88
381.282	320.88
381.507	339.88
381.733	315.88
381.958	337.88
382.184	331.88
382.409	333.88
382.634	331.88
382.86	324.88
383.085	315.88
383.31	347.88
383.535	322.88
383.761	329.88
383.986	344.88
384.211	334.88
384.436	342.88
384.662	330.88
384.887	341.88
385.112	335.88
385.337	331.88
385.562	330.88
385.787	334.88
386.013	349.88
386.238	357.88
386.463	352.88
386.688	339.88
386.913	327.88
387.138	327.88
387.363	345.88
387.588	357.88
387.813	344.88
388.038	360.88
388.263	338.88
388.488	339.88
388.713	339.88
388.938	352.88
389.163	350.88
389.387	354.88
389.612	337.88
389.837	357.88
390.062	332.88
390.287	342.88
390.512	333.88
390.736	345.88
390.961	352.88
391.186	316.88
391.411	331.88
391.636	333.88
391.86	338.88
392.085	355.88
392.31	361.88
392.534	365.88
392.759	347.88
392.984	347.88
393.208	362.88
393.433	331.88
393.658	352.88
393.882	333.88
394.107	341.88
394.331	346.88
394.556	344.88
394.78	356.88
395.005	349.88
395.229	352.88
395.454	353.88
395.678	349.88
395.903	354.88
396.127	378.88
396.352	379.88
396.576	373.88
396.801	374.88
397.025	359.88
397.249	361.88
397.474	348.88
397.698	360.88
397.922	384.88
398.147	407.88
398.371	419.88
398.595	371.88
398.82	379.88
399.044	396.88
399.268	390.88
399.492	425.88
399.717	412.88
399.941	426.88
400.165	469.88
400.389	480.88
400.613	459.88
400.837	439.88
401.062	403.88
401.286	391.88
401.51	388.88
401.734	401.88
401.958	388.88
402.182	407.88
402.406	405.88
402.63	407.88
402.854	415.88
403.078	412.88
403.302	405.88
403.526	416.88
403.75	411.88
403.974	415.88
404.198	396.88
404.422	428.88
404.645	430.88
404.869	418.88
405.093	423.88
405.317	459.88
405.541	482.88
405.765	481.88
405.988	467.88
406.212	451.88
406.436	480.88
406.66	503.88
406.883	479.88
407.107	505.88
407.331	516.88
407.555	575.88
407.778	600.88
408.002	531.88
408.226	492.88
408.449	491.88
408.673	483.88
408.896	502.88
409.12	541.88
409.344	491.88
409.567	466.88
409.791	459.88
410.014	431.88
410.238	391.88
410.461	430.88
410.685	420.88
410.908	431.88
411.132	484.88
411.355	536.88
411.578	492.88
411.802	433.88
412.025	433.88
412.249	419.88
412.472	416.88
412.695	453.88
412.919	418.88
413.142	425.88
413.365	401.88
413.589	402.88
413.812	393.88
414.035	393.88
414.258	396.88
414.482	399.88
414.705	389.88
414.928	415.88
415.151	397.88
415.374	397.88
415.597	375.88
415.821	373.88
416.044	381.88
416.267	388.88
416.49	394.88
416.713	407.88
416.936	408.88
417.159	401.88
417.382	394.88
417.605	389.88
417.828	408.88
418.051	441.88
418.274	438.88
418.497	396.88
418.72	417.88
418.943	403.88
419.166	402.88
419.389	428.88
419.611	429.88
419.834	416.88
420.057	414.88
420.28	404.88
420.503	417.88
420.726	441.88
420.948	459.88
421.171	485.88
421.394	495.88
421.617	461.88
421.839	448.88
422.062	443.88
422.285	458.88
422.507	524.88
422.73	578.88
422.953	583.88
423.175	509.88
423.398	479.88
423.621	468.88
423.843	469.88
424.066	481.88
424.288	501.88
424.511	515.88
424.733	573.88
424.956	625.88
425.178	598.88
425.401	621.88
425.623	634.88
425.846	543.88
426.068	525.88
426.291	496.88
426.513	513.88
426.735	523.88
426.958	573.88
427.18	637.88
427.402	738.88
427.625	842.88
427.847	780.88
428.069	662.88
428.292	579.88
428.514	541.88
428.736	504.88
428.958	495.88
429.181	476.88
429.403	467.88
429.625	465.88
429.847	519.88
430.069	568.88
430.292	558.88
430.514	489.88
430.736	455.88
430.958	446.88
431.18	433.88
431.402	433.88
431.624	420.88
431.846	429.88
432.068	435.88
432.29	442.88
432.512	427.88
432.734	444.88
432.956	427.88
433.178	442.88
433.4	445.88
433.622	405.88
433.844	423.88
434.066	413.88
434.287	420.88
434.509	433.88
434.731	422.88
434.953	448.88
435.175	465.88
435.397	497.88
435.618	514.88
435.84	554.88
436.062	641.88
436.284	708.88
436.505	613.88
436.727	536.88
436.949	491.88
437.17	502.88
437.392	474.88
437.614	501.88
437.835	551.88
438.057	671.88
438.278	732.88
438.5	722.88
438.721	786.88
438.943	739.88
439.165	624.88
439.386	555.88
439.608	543.88
439.829	542.88
440.05	561.88
440.272	585.88
440.493	595.88
440.715	516.88
440.936	488.88
441.158	469.88
441.379	471.88
441.6	495.88
441.822	522.88
442.043	556.88
442.264	635.88
442.486	661.88
442.707	571.88
442.928	541.88
443.149	546.88
443.371	570.88
443.592	592.88
443.813	683.88
444.034	729.88
444.255	619.88
444.476	531.88
444.698	500.88
444.919	484.88
445.14	579.88
445.361	573.88
445.582	565.88
445.803	621.88
446.024	714.88
446.245	736.88
446.466	655.88
446.687	559.88
446.908	530.88
447.129	503.88
447.35	493.88
447.571	487.88
447.792	478.88
448.013	475.88
448.234	534.88
448.455	574.88
448.675	631.88
448.896	767.88
449.117	683.88
449.338	643.88
449.559	708.88
449.779	797.88
450	649.88
450.221	561.88
450.442	524.88
450.662	481.88
450.883	486.88
451.104	532.88
451.324	515.88
451.545	477.88
451.766	431.88
451.986	447.88
452.207	438.88
452.428	432.88
452.648	439.88
452.869	429.88
453.089	448.88
453.31	453.88
453.53	422.88
453.751	434.88
453.971	438.88
454.192	473.88
454.412	450.88
454.633	439.88
454.853	426.88
455.073	404.88
455.294	453.88
455.514	541.88
455.734	515.88
455.955	420.88
456.175	407.88
456.395	409.88
456.616	381.88
456.836	376.88
457.056	395.88
457.276	382.88
457.497	395.88
457.717	384.88
457.937	411.88
458.157	393.88
458.377	431.88
458.598	427.88
458.818	534.88
459.038	627.88
459.258	615.88
459.478	511.88
459.698	472.88
459.918	448.88
460.138	415.88
460.358	430.88
460.578	404.88
460.798	426.88
461.018	428.88
461.238	408.88
461.458	427.88
461.678	399.88
461.898	405.88
462.118	405.88
462.338	413.88
462.558	423.88
462.777	423.88
462.997	421.88
463.217	412.88
463.437	421.88
463.657	415.88
463.876	441.88
464.096	435.88
464.316	431.88
464.536	461.88
464.755	456.88
464.975	451.88
465.195	546.88
465.414	668.88
465.634	557.88
465.854	495.88
466.073	478.88
466.293	441.88
466.512	436.88
466.732	406.88
466.951	412.88
467.171	417.88
467.391	425.88
467.61	433.88
467.829	449.88
468.049	436.88
468.268	427.88
468.488	416.88
468.707	401.88
468.927	396.88
469.146	397.88
469.365	406.88
469.585	393.88
469.804	429.88
470.023	446.88
470.243	435.88
470.462	456.88
470.681	468.88
470.901	449.88
471.12	419.88
471.339	416.88
471.558	429.88
471.777	434.88
471.997	417.88
472.216	403.88
472.435	425.88
472.654	404.88
472.873	416.88
473.092	403.88
473.311	428.88
473.53	430.88
473.749	445.88
473.968	467.88
474.187	597.88
474.406	615.88
474.625	483.88
474.844	443.88
475.063	439.88
475.282	434.88
475.501	441.88
475.72	437.88
475.939	447.88
476.158	417.88
476.377	441.88
476.596	441.88
476.814	438.88
477.033	455.88
477.252	469.88
477.471	464.88
477.69	453.88
477.908	469.88
478.127	444.88
478.346	445.88
478.564	454.88
478.783	468.88
479.002	473.88
479.22	495.88
479.439	495.88
479.658	506.88
479.876	515.88
480.095	540.88
480.313	530.88
480.532	509.88
480.751	513.88
480.969	533.88
481.188	514.88
481.406	523.88
481.624	526.88
481.843	490.88
482.061	497.88
482.28	492.88
482.498	510.88
482.717	507.88
482.935	487.88
483.153	488.88
483.372	480.88
483.59	491.88
483.808	492.88
484.027	519.88
484.245	486.88
484.463	500.88
484.681	517.88
484.9	507.88
485.118	504.88
485.336	511.88
485.554	531.88
485.772	533.88
485.99	521.88
486.209	516.88
486.427	518.88
486.645	559.88
486.863	573.88
487.081	557.88
487.299	568.88
487.517	559.88
487.735	545.88
487.953	551.88
488.171	559.88
488.389	564.88
488.607	549.88
488.825	568.88
489.043	559.88
489.261	579.88
489.479	553.88
489.696	557.88
489.914	564.88
490.132	591.88
490.35	592.88
490.568	583.88
490.786	575.88
491.003	608.88
491.221	615.88
491.439	604.88
491.657	633.88
491.874	639.88
492.092	641.88
492.31	642.88
492.527	636.88
492.745	638.88
492.963	633.88
493.18	632.88
493.398	657.88
493.615	649.88
493.833	647.88
494.05	648.88
494.268	645.88
494.485	662.88
494.703	651.88
494.92	653.88
495.138	646.88
495.355	667.88
495.573	675.88
495.79	644.88
496.008	671.88
496.225	669.88
496.442	674.88
496.66	671.88
496.877	665.88
497.094	689.88
497.312	682.88
497.529	659.88
497.746	675.88
497.963	701.88
498.181	699.88
498.398	681.88
498.615	745.88
498.832	731.88
499.049	721.88
499.267	711.88
499.484	737.88
499.701	727.88
499.918	761.88
500.135	766.88
500.352	773.88
500.569	780.88
500.786	779.88
501.003	767.88
501.22	779.88
501.437	781.88
501.654	792.88
501.871	783.88
502.088	790.88
502.305	761.88
502.522	736.88
502.739	710.88
502.956	710.88
503.172	687.88
503.389	691.88
503.606	713.88
503.823	733.88
504.04	682.88
504.256	678.88
504.473	665.88
504.69	673.88
504.907	679.88
505.123	650.88
505.34	635.88
505.557	661.88
505.773	664.88
505.99	693.88
506.207	653.88
506.423	669.88
506.64	653.88
506.856	644.88
507.073	660.88
507.289	673.88
507.506	649.88
507.722	681.88
507.939	714.88
508.155	675.88
508.372	664.88
508.588	662.88
508.805	641.88
509.021	651.88
509.238	645.88
509.454	681.88
509.67	677.88
509.887	625.88
510.103	656.88
510.319	685.88
510.536	817.88
510.752	1510.88
510.968	1193.88
511.184	689.88
511.401	666.88
511.617	639.88
511.833	637.88
512.049	612.88
512.265	604.88
512.481	628.88
512.698	635.88
512.914	657.88
513.13	635.88
513.346	616.88
513.562	623.88
513.778	623.88
513.994	648.88
514.21	666.88
514.426	703.88
514.642	795.88
514.858	840.88
515.074	899.88
515.29	1138.88
515.506	1757.88
515.721	1424.88
515.937	881.88
516.153	740.88
516.369	707.88
516.585	701.88
516.801	664.88
517.016	649.88
517.232	627.88
517.448	634.88
517.664	629.88
517.879	634.88
518.095	609.88
518.311	623.88
518.527	613.88
518.742	606.88
518.958	617.88
519.173	603.88
519.389	637.88
519.605	612.88
519.82	616.88
520.036	673.88
520.251	705.88
520.467	749.88
520.682	754.88
520.898	783.88
521.113	801.88
521.329	910.88
521.544	1058.88
521.76	1403.88
521.975	2347.88
522.19	2323.88
522.406	1199.88
522.621	882.88
522.836	747.88
523.052	695.88
523.267	640.88
523.482	587.88
523.698	609.88
523.913	588.88
524.128	619.88
524.343	582.88
524.559	544.88
524.774	532.88
524.989	541.88
525.204	560.88
525.419	558.88
525.634	528.88
525.849	516.88
526.064	522.88
526.28	520.88
526.495	503.88
526.71	509.88
526.925	486.88
527.14	488.88
527.355	491.88
527.57	495.88
527.785	473.88
527.999	482.88
528.214	475.88
528.429	480.88
528.644	497.88
528.859	496.88
529.074	481.88
529.289	527.88
529.503	669.88
529.718	658.88
529.933	569.88
530.148	513.88
530.363	517.88
530.577	495.88
530.792	468.88
531.007	488.88
531.221	490.88
531.436	501.88
531.651	469.88
531.865	448.88
532.08	441.88
532.295	444.88
532.509	455.88
532.724	461.88
532.938	457.88
533.153	469.88
533.367	451.88
533.582	437.88
533.796	456.88
534.011	462.88
534.225	452.88
534.44	431.88
534.654	426.88
534.868	435.88
535.083	433.88
535.297	458.88
535.511	451.88
535.726	477.88
535.94	466.88
536.154	468.88
536.369	458.88
536.583	448.88
536.797	445.88
537.011	437.88
537.225	459.88
537.44	449.88
537.654	422.88
537.868	435.88
538.082	433.88
538.296	451.88
538.51	432.88
538.724	429.88
538.938	449.88
539.153	431.88
539.367	474.88
539.581	463.88
539.795	449.88
540.009	448.88
540.222	412.88
540.436	447.88
540.65	453.88
540.864	461.88
541.078	451.88
541.292	435.88
541.506	439.88
541.72	420.88
541.934	423.88
542.147	447.88
542.361	430.88
542.575	415.88
542.789	414.88
543.002	419.88
543.216	441.88
543.43	441.88
543.644	436.88
543.857	447.88
544.071	428.88
544.285	443.88
544.498	424.88
544.712	427.88
544.925	411.88
545.139	406.88
545.352	414.88
545.566	403.88
545.779	419.88
545.993	431.88
546.206	407.88
546.42	405.88
546.633	394.88
546.847	378.88
547.06	385.88
547.274	392.88
547.487	397.88
547.7	413.88
547.914	404.88
548.127	389.88
548.34	406.88
548.554	391.88
548.767	397.88
548.98	397.88
549.193	388.88
549.407	403.88
549.62	394.88
549.833	391.88
550.046	380.88
550.259	369.88
550.473	381.88
550.686	377.88
550.899	389.88
551.112	391.88
551.325	384.88
551.538	376.88
551.751	378.88
551.964	361.88
552.177	383.88
552.39	393.88
552.603	407.88
552.816	401.88
553.029	386.88
553.242	383.88
553.455	398.88
553.667	407.88
553.88	445.88
554.093	407.88
554.306	411.88
554.519	387.88
554.732	395.88
554.944	377.88
555.157	375.88
555.37	373.88
555.583	368.88
555.795	394.88
556.008	380.88
556.221	376.88
556.433	361.88
556.646	395.88
556.859	353.88
557.071	373.88
557.284	355.88
557.496	347.88
557.709	354.88
557.921	339.88
558.134	362.88
558.346	348.88
558.559	371.88
558.771	362.88
558.984	334.88
559.196	353.88
559.409	355.88
559.621	361.88
559.833	370.88
560.046	347.88
560.258	371.88
560.47	378.88
560.683	362.88
560.895	343.88
561.107	360.88
561.32	373.88
561.532	340.88
561.744	345.88
561.956	346.88
562.168	344.88
562.381	373.88
562.593	346.88
562.805	365.88
563.017	351.88
563.229	351.88
563.441	341.88
563.653	354.88
563.865	366.88
564.077	347.88
564.289	358.88
564.501	361.88
564.713	349.88
564.925	365.88
565.137	371.88
565.349	343.88
565.561	367.88
565.773	371.88
565.985	380.88
566.197	363.88
566.408	389.88
566.62	387.88
566.832	385.88
567.044	379.88
567.255	398.88
567.467	369.88
567.679	384.88
567.891	396.88
568.102	376.88
568.314	367.88
568.526	388.88
568.737	393.88
568.949	351.88
569.161	369.88
569.372	353.88
569.584	359.88
569.795	357.88
570.007	359.88
570.218	415.88
570.43	403.88
570.641	358.88
570.853	347.88
571.064	328.88
571.276	341.88
571.487	334.88
571.698	336.88
571.91	348.88
572.121	325.88
572.333	355.88
572.544	301.88
572.755	333.88
572.966	295.88
573.178	315.88
573.389	311.88
573.6	318.88
573.811	327.88
574.023	298.88
574.234	305.88
574.445	312.88
574.656	307.88
574.867	297.88
575.078	324.88
575.289	312.88
575.501	300.88
575.712	290.88
575.923	313.88
576.134	290.88
576.345	296.88
576.556	307.88
576.767	288.88
576.978	299.88
577.188	303.88
577.399	311.88
577.61	293.88
577.821	297.88
578.032	315.88
578.243	379.88
578.454	699.88
578.665	466.88
578.875	341.88
579.086	290.88
579.297	298.88
579.508	282.88
579.718	278.88
579.929	288.88
580.14	295.88
580.35	283.88
580.561	273.88
580.772	275.88
580.982	273.88
581.193	274.88
581.403	266.88
581.614	266.88
581.825	263.88
582.035	284.88
582.246	294.88
582.456	285.88
582.667	285.88
582.877	297.88
583.087	279.88
583.298	282.88
583.508	259.88
583.719	281.88
583.929	277.88
584.139	304.88
584.35	291.88
584.56	267.88
584.77	278.88
584.981	275.88
585.191	267.88
585.401	268.88
585.611	283.88
585.821	278.88
586.032	270.88
586.242	280.88
586.452	279.88
586.662	279.88
586.872	271.88
587.082	291.88
587.292	264.88
587.502	281.88
587.713	272.88
587.923	271.88
588.133	266.88
588.343	265.88
588.553	258.88
588.762	279.88
588.972	270.88
589.182	321.88
589.392	328.88
589.602	293.88
589.812	313.88
590.022	286.88
590.232	265.88
590.441	275.88
590.651	256.88
590.861	272.88
591.071	253.88
591.281	275.88
591.49	256.88
591.7	269.88
591.91	281.88
592.119	263.88
592.329	270.88
592.539	275.88
592.748	295.88
592.958	272.88
593.167	248.88
593.377	259.88
593.587	263.88
593.796	278.88
594.006	277.88
594.215	267.88
594.424	268.88
594.634	272.88
594.843	263.88
595.053	260.88
595.262	255.88
595.472	248.88
595.681	239.88
595.89	255.88
596.1	263.88
596.309	265.88
596.518	260.88
596.727	242.88
596.937	255.88
597.146	261.88
597.355	263.88
597.564	227.88
597.774	261.88
597.983	241.88
598.192	234.88
598.401	267.88
598.61	245.88
598.819	240.88
599.028	252.88
599.237	241.88
599.446	251.88
599.655	253.88
599.864	245.88
600.073	236.88
600.282	224.88
600.491	219.88
600.7	216.88
600.909	233.88
601.118	226.88
601.327	225.88
601.536	233.88
601.745	224.88
601.953	232.88
602.162	236.88
602.371	241.88
602.58	224.88
602.789	241.88
602.997	239.88
603.206	231.88
603.415	215.88
603.623	236.88
603.832	216.88
604.041	234.88
604.249	231.88
604.458	219.88
604.666	222.88
604.875	221.88
605.084	215.88
605.292	211.88
605.501	201.88
605.709	207.88
605.918	227.88
606.126	221.88
606.334	240.88
606.543	221.88
606.751	213.88
606.96	218.88
607.168	231.88
607.376	216.88
607.585	232.88
607.793	216.88
608.001	227.88
608.21	209.88
608.418	226.88
608.626	229.88
608.834	213.88
609.043	228.88
609.251	223.88
609.459	225.88
609.667	227.88
609.875	213.88
610.083	223.88
610.291	208.88
610.499	213.88
610.707	211.88
610.916	217.88
611.124	213.88
611.332	220.88
611.54	202.88
611.748	218.88
611.955	226.88
612.163	213.88
612.371	197.88
612.579	218.88
612.787	230.88
612.995	200.88
613.203	219.88
613.411	201.88
613.618	220.88
613.826	235.88
614.034	212.88
614.242	200.88
614.449	202.88
614.657	209.88
614.865	208.88
615.072	200.88
615.28	219.88
615.488	221.88
615.695	211.88
615.903	220.88
616.111	206.88
616.318	221.88
616.526	212.88
616.733	218.88
616.941	236.88
617.148	228.88
617.356	215.88
617.563	213.88
617.771	208.88
617.978	203.88
618.185	198.88
618.393	201.88
618.6	210.88
618.807	199.88
619.015	183.88
619.222	216.88
619.429	215.88
619.637	207.88
619.844	212.88
620.051	209.88
620.258	216.88
620.466	201.88
620.673	212.88
620.88	191.88
621.087	203.88
621.294	214.88
621.501	204.88
621.708	195.88
621.915	206.88
622.122	192.88
622.329	203.88
622.536	209.88
622.743	193.88
622.95	203.88
623.157	204.88
623.364	208.88
623.571	195.88
623.778	206.88
623.985	183.88
624.192	188.88
624.399	201.88
624.606	195.88
624.812	187.88
625.019	204.88
625.226	194.88
625.433	191.88
625.639	192.88
625.846	169.88
626.053	195.88
626.259	197.88
626.466	175.88
626.673	196.88
626.879	194.88
627.086	218.88
627.293	201.88
627.499	195.88
627.706	189.88
627.912	166.88
628.119	198.88
628.325	181.88
628.532	195.88
628.738	193.88
628.945	174.88
629.151	173.88
629.357	195.88
629.564	185.88
629.77	193.88
629.976	187.88
630.183	175.88
630.389	165.88
630.595	179.88
630.802	190.88
631.008	162.88
631.214	192.88
631.42	187.88
631.627	175.88
631.833	168.88
632.039	178.88
632.245	166.88
632.451	179.88
632.657	168.88
632.863	170.88
633.069	166.88
633.275	170.88
633.481	175.88
633.688	161.88
633.893	177.88
634.099	171.88
634.305	167.88
634.511	165.88
634.717	176.88
634.923	184.88
635.129	171.88
635.335	170.88
635.541	176.88
635.747	183.88
635.952	163.88
636.158	172.88
636.364	168.88
636.57	154.88
636.775	177.88
636.981	165.88
637.187	159.88
637.392	154.88
637.598	183.88
637.804	154.88
638.009	170.88
638.215	159.88
638.421	140.88
638.626	165.88
638.832	164.88
639.037	145.88
639.243	168.88
639.448	167.88
639.654	162.88
639.859	172.88
640.065	168.88
640.27	162.88
640.475	180.88
640.681	145.88
640.886	151.88
641.091	163.88
641.297	156.88
641.502	157.88
641.707	141.88
641.913	162.88
642.118	157.88
642.323	153.88
642.528	159.88
642.733	140.88
642.939	171.88
643.144	141.88
643.349	148.88
643.554	155.88
643.759	152.88
643.964	154.88
644.169	146.88
644.374	154.88
644.579	146.88
644.784	142.88
644.989	153.88
645.194	158.88
645.399	151.88
645.604	154.88
645.809	138.88
646.014	170.88
646.219	160.88
646.423	149.88
646.628	149.88
646.833	165.88
647.038	162.88
647.243	137.88
647.447	166.88
647.652	156.88
647.857	154.88
648.062	150.88
648.266	156.88
648.471	142.88
648.676	154.88
648.88	152.88
649.085	165.88
649.289	157.88
649.494	165.88
649.698	165.88
649.903	182.88
650.107	155.88
650.312	146.88
650.516	142.88
650.721	138.88
650.925	146.88
651.13	141.88
651.334	143.88
651.539	147.88
651.743	133.88
651.947	144.88
652.152	144.88
652.356	133.88
652.56	142.88
652.764	154.88
652.969	132.88
653.173	132.88
653.377	136.88
653.581	133.88
653.785	124.88
653.99	136.88
654.194	133.88
654.398	117.88
654.602	124.88
654.806	108.88
655.01	133.88
655.214	125.88
655.418	120.88
655.622	129.88
655.826	117.88
656.03	118.88
656.234	118.88
656.438	116.88
656.642	120.88
656.846	123.88
657.049	112.88
657.253	117.88
657.457	117.88
657.661	111.88
657.865	101.88
658.068	97.88
658.272	80.88
658.476	97.88
658.68	99.88
658.883	96.88
659.087	95.88
659.291	91.88
659.494	91.88
659.698	103.88
659.901	92.88
660.105	90.88
660.309	77.88
660.512	94.88
660.716	88.88
660.919	93.88
661.123	95.88
661.326	89.88
661.53	93.88
661.733	102.88
661.936	77.88
662.14	99.88
662.343	72.88
662.546	71.88
662.75	93.88
662.953	84.88
663.156	96.88
663.36	77.88
663.563	70.88
663.766	83.88
663.969	71.88
664.173	84.88
664.376	71.88
664.579	87.88
664.782	84.88
664.985	81.88
665.188	98.88
665.391	67.88
665.594	73.88
665.797	89.88
666	82.88
666.203	85.88
666.406	75.88
666.609	80.88
666.812	90.88
667.015	60.88
667.218	81.88
667.421	85.88
667.624	74.88
667.827	82.88
668.03	78.88
668.232	80.88
668.435	85.88
668.638	84.88
668.841	89.88
669.043	70.88
669.246	79.88
669.449	74.88
669.651	71.88
669.854	85.88
670.057	77.88
670.259	94.88
670.462	92.88
670.665	93.88
670.867	89.88
671.07	87.88
671.272	88.88
671.475	91.88
671.677	82.88
671.88	93.88
672.082	82.88
672.284	67.88
672.487	92.88
672.689	68.88
672.892	64.88
