Data from 1987.PennyLincolnUp.Lamp.En5.5.200Scan.071819.P2_HRD10591_17-14-35-972.txt Node
Date: Thu Jul 18 17:14:35 EDT 2019
User: cochatt
Spectrometer: HR+D1059
Trigger mode: 1
Integration Time (sec): 1.000000E-1
Scans to average: 1
Electric dark correction enabled: true
Nonlinearity correction enabled: false
Boxcar width: 0
XAxis mode: Wavelengths
Number of Pixels in Spectrum: 2048
>>>>>Begin Spectral Data<<<<<
223.165	-28.94
223.4	-28.94
223.635	-28.94
223.869	-20.94
224.104	-14.94
224.338	-15.94
224.573	-4.94
224.808	4.06
225.042	8.06
225.277	-13.94
225.511	-6.94
225.746	-2.94
225.98	4.06
226.215	21.06
226.449	20.06
226.683	10.06
226.918	19.06
227.152	23.06
227.387	34.06
227.621	43.06
227.856	40.06
228.09	40.06
228.324	55.06
228.559	48.06
228.793	63.06
229.027	107.06
229.262	120.06
229.496	123.06
229.73	131.06
229.964	177.06
230.199	125.06
230.433	138.06
230.667	115.06
230.901	110.06
231.136	120.06
231.37	120.06
231.604	111.06
231.838	117.06
232.072	124.06
232.306	100.06
232.541	118.06
232.775	114.06
233.009	116.06
233.243	104.06
233.477	116.06
233.711	112.06
233.945	121.06
234.179	119.06
234.413	110.06
234.647	112.06
234.881	113.06
235.115	107.06
235.349	121.06
235.583	118.06
235.817	117.06
236.051	129.06
236.285	129.06
236.519	110.06
236.753	130.06
236.987	160.06
237.221	190.06
237.455	238.06
237.689	198.06
237.922	151.06
238.156	142.06
238.39	108.06
238.624	129.06
238.858	126.06
239.091	128.06
239.325	123.06
239.559	129.06
239.793	112.06
240.027	128.06
240.26	141.06
240.494	159.06
240.728	157.06
240.961	136.06
241.195	132.06
241.429	126.06
241.662	128.06
241.896	133.06
242.13	136.06
242.363	113.06
242.597	130.06
242.83	124.06
243.064	133.06
243.298	130.06
243.531	132.06
243.765	130.06
243.998	137.06
244.232	132.06
244.465	132.06
244.699	133.06
244.932	138.06
245.166	134.06
245.399	138.06
245.633	142.06
245.866	130.06
246.099	129.06
246.333	142.06
246.566	132.06
246.8	152.06
247.033	129.06
247.266	152.06
247.5	133.06
247.733	154.06
247.966	177.06
248.2	164.06
248.433	159.06
248.666	163.06
248.899	177.06
249.133	191.06
249.366	197.06
249.599	202.06
249.832	168.06
250.066	169.06
250.299	164.06
250.532	177.06
250.765	187.06
250.998	199.06
251.231	214.06
251.465	210.06
251.698	200.06
251.931	189.06
252.164	199.06
252.397	182.06
252.63	199.06
252.863	194.06
253.096	202.06
253.329	224.06
253.562	205.06
253.795	201.06
254.028	195.06
254.261	195.06
254.494	208.06
254.727	239.06
254.96	285.06
255.193	234.06
255.426	221.06
255.659	233.06
255.892	223.06
256.124	202.06
256.357	206.06
256.59	201.06
256.823	200.06
257.056	210.06
257.289	182.06
257.521	198.06
257.754	192.06
257.987	180.06
258.22	187.06
258.452	200.06
258.685	188.06
258.918	176.06
259.151	215.06
259.383	194.06
259.616	204.06
259.849	191.06
260.081	221.06
260.314	220.06
260.547	234.06
260.779	229.06
261.012	230.06
261.244	221.06
261.477	214.06
261.71	207.06
261.942	224.06
262.175	218.06
262.407	233.06
262.64	208.06
262.872	194.06
263.105	184.06
263.337	207.06
263.57	192.06
263.802	192.06
264.035	192.06
264.267	189.06
264.499	183.06
264.732	182.06
264.964	183.06
265.197	199.06
265.429	186.06
265.661	185.06
265.894	180.06
266.126	185.06
266.358	183.06
266.591	177.06
266.823	199.06
267.055	190.06
267.287	200.06
267.52	181.06
267.752	198.06
267.984	193.06
268.216	206.06
268.448	206.06
268.681	208.06
268.913	225.06
269.145	222.06
269.377	258.06
269.609	244.06
269.841	246.06
270.073	236.06
270.306	264.06
270.538	289.06
270.77	287.06
271.002	292.06
271.234	272.06
271.466	267.06
271.698	279.06
271.93	282.06
272.162	305.06
272.394	296.06
272.626	280.06
272.858	272.06
273.09	248.06
273.322	233.06
273.553	239.06
273.785	234.06
274.017	237.06
274.249	226.06
274.481	216.06
274.713	237.06
274.945	209.06
275.176	227.06
275.408	227.06
275.64	235.06
275.872	214.06
276.104	214.06
276.335	223.06
276.567	254.06
276.799	265.06
277.031	280.06
277.262	287.06
277.494	275.06
277.726	272.06
277.957	260.06
278.189	237.06
278.421	239.06
278.652	241.06
278.884	209.06
279.115	213.06
279.347	221.06
279.579	226.06
279.81	209.06
280.042	219.06
280.273	224.06
280.505	216.06
280.736	238.06
280.968	207.06
281.199	228.06
281.431	201.06
281.662	201.06
281.894	236.06
282.125	221.06
282.356	236.06
282.588	271.06
282.819	281.06
283.051	224.06
283.282	203.06
283.513	212.06
283.745	215.06
283.976	215.06
284.207	223.06
284.439	253.06
284.67	217.06
284.901	227.06
285.132	222.06
285.364	227.06
285.595	228.06
285.826	219.06
286.057	223.06
286.288	232.06
286.52	228.06
286.751	229.06
286.982	234.06
287.213	217.06
287.444	224.06
287.675	224.06
287.906	231.06
288.138	244.06
288.369	257.06
288.6	241.06
288.831	235.06
289.062	249.06
289.293	216.06
289.524	238.06
289.755	237.06
289.986	231.06
290.217	212.06
290.448	223.06
290.679	241.06
290.91	236.06
291.141	223.06
291.371	237.06
291.602	214.06
291.833	232.06
292.064	229.06
292.295	223.06
292.526	237.06
292.757	240.06
292.987	230.06
293.218	229.06
293.449	223.06
293.68	204.06
293.91	229.06
294.141	232.06
294.372	239.06
294.603	225.06
294.833	231.06
295.064	218.06
295.295	229.06
295.525	229.06
295.756	223.06
295.987	241.06
296.217	278.06
296.448	287.06
296.679	239.06
296.909	232.06
297.14	240.06
297.37	226.06
297.601	252.06
297.831	224.06
298.062	239.06
298.292	235.06
298.523	240.06
298.753	221.06
298.984	246.06
299.214	233.06
299.445	249.06
299.675	214.06
299.905	247.06
300.136	224.06
300.366	240.06
300.597	229.06
300.827	248.06
301.057	240.06
301.288	267.06
301.518	253.06
301.748	253.06
301.979	259.06
302.209	262.06
302.439	255.06
302.669	262.06
302.9	251.06
303.13	255.06
303.36	289.06
303.59	265.06
303.82	292.06
304.051	278.06
304.281	271.06
304.511	264.06
304.741	248.06
304.971	258.06
305.201	240.06
305.431	245.06
305.661	253.06
305.891	263.06
306.121	258.06
306.352	260.06
306.582	258.06
306.812	269.06
307.042	266.06
307.272	256.06
307.502	250.06
307.731	264.06
307.961	270.06
308.191	252.06
308.421	263.06
308.651	282.06
308.881	282.06
309.111	257.06
309.341	281.06
309.571	285.06
309.8	300.06
310.03	316.06
310.26	328.06
310.49	301.06
310.72	330.06
310.949	330.06
311.179	355.06
311.409	340.06
311.639	329.06
311.868	317.06
312.098	329.06
312.328	326.06
312.557	337.06
312.787	362.06
313.017	349.06
313.246	342.06
313.476	324.06
313.706	336.06
313.935	318.06
314.165	335.06
314.394	361.06
314.624	342.06
314.853	322.06
315.083	313.06
315.312	309.06
315.542	311.06
315.771	303.06
316.001	304.06
316.23	290.06
316.46	328.06
316.689	310.06
316.919	305.06
317.148	324.06
317.377	328.06
317.607	336.06
317.836	328.06
318.065	337.06
318.295	289.06
318.524	280.06
318.753	316.06
318.983	289.06
319.212	320.06
319.441	332.06
319.67	340.06
319.9	317.06
320.129	312.06
320.358	302.06
320.587	322.06
320.816	319.06
321.046	333.06
321.275	342.06
321.504	330.06
321.733	338.06
321.962	360.06
322.191	382.06
322.42	386.06
322.649	408.06
322.878	419.06
323.108	422.06
323.337	456.06
323.566	492.06
323.795	529.06
324.024	568.06
324.253	718.06
324.482	1058.06
324.71	1592.06
324.939	2261.06
325.168	1970.06
325.397	1098.06
325.626	722.06
325.855	587.06
326.084	524.06
326.313	494.06
326.542	527.06
326.77	570.06
326.999	685.06
327.228	927.06
327.457	1416.06
327.686	1759.06
327.914	1200.06
328.143	809.06
328.372	642.06
328.6	612.06
328.829	560.06
329.058	577.06
329.287	609.06
329.515	542.06
329.744	489.06
329.972	446.06
330.201	457.06
330.43	491.06
330.658	548.06
330.887	612.06
331.115	591.06
331.344	479.06
331.572	443.06
331.801	443.06
332.03	453.06
332.258	401.06
332.486	374.06
332.715	376.06
332.943	378.06
333.172	362.06
333.4	350.06
333.629	375.06
333.857	365.06
334.085	372.06
334.314	376.06
334.542	380.06
334.771	382.06
334.999	361.06
335.227	359.06
335.455	362.06
335.684	344.06
335.912	346.06
336.14	344.06
336.369	353.06
336.597	367.06
336.825	383.06
337.053	375.06
337.281	350.06
337.51	344.06
337.738	356.06
337.966	345.06
338.194	352.06
338.422	370.06
338.65	344.06
338.878	338.06
339.106	336.06
339.334	345.06
339.562	353.06
339.79	350.06
340.018	356.06
340.246	355.06
340.474	358.06
340.702	346.06
340.93	340.06
341.158	326.06
341.386	346.06
341.614	360.06
341.842	346.06
342.07	344.06
342.298	358.06
342.526	337.06
342.754	321.06
342.981	339.06
343.209	336.06
343.437	352.06
343.665	328.06
343.893	331.06
344.12	341.06
344.348	363.06
344.576	357.06
344.804	354.06
345.031	379.06
345.259	380.06
345.487	380.06
345.714	356.06
345.942	358.06
346.17	349.06
346.397	352.06
346.625	330.06
346.853	353.06
347.08	338.06
347.308	340.06
347.535	368.06
347.763	405.06
347.99	358.06
348.218	363.06
348.445	367.06
348.673	372.06
348.9	364.06
349.128	342.06
349.355	349.06
349.583	328.06
349.81	348.06
350.037	333.06
350.265	338.06
350.492	328.06
350.72	314.06
350.947	339.06
351.174	364.06
351.402	373.06
351.629	372.06
351.856	350.06
352.083	373.06
352.311	376.06
352.538	393.06
352.765	394.06
352.992	362.06
353.22	374.06
353.447	368.06
353.674	344.06
353.901	316.06
354.128	313.06
354.355	325.06
354.583	329.06
354.81	305.06
355.037	329.06
355.264	317.06
355.491	305.06
355.718	317.06
355.945	296.06
356.172	295.06
356.399	289.06
356.626	308.06
356.853	321.06
357.08	309.06
357.307	297.06
357.534	308.06
357.761	298.06
357.988	320.06
358.215	335.06
358.441	309.06
358.668	333.06
358.895	337.06
359.122	344.06
359.349	324.06
359.576	352.06
359.802	390.06
360.029	428.06
360.256	429.06
360.483	399.06
360.709	356.06
360.936	364.06
361.163	357.06
361.39	374.06
361.616	353.06
361.843	360.06
362.07	364.06
362.296	347.06
362.523	336.06
362.749	355.06
362.976	358.06
363.203	330.06
363.429	337.06
363.656	332.06
363.882	352.06
364.109	335.06
364.335	326.06
364.562	340.06
364.788	354.06
365.015	333.06
365.241	345.06
365.468	335.06
365.694	343.06
365.92	353.06
366.147	336.06
366.373	328.06
366.599	303.06
366.826	317.06
367.052	311.06
367.278	329.06
367.505	326.06
367.731	337.06
367.957	333.06
368.184	314.06
368.41	353.06
368.636	350.06
368.862	356.06
369.089	356.06
369.315	325.06
369.541	323.06
369.767	325.06
369.993	322.06
370.219	323.06
370.445	301.06
370.672	322.06
370.898	329.06
371.124	322.06
371.35	314.06
371.576	318.06
371.802	332.06
372.028	309.06
372.254	317.06
372.48	309.06
372.706	316.06
372.932	312.06
373.158	318.06
373.384	320.06
373.61	314.06
373.835	341.06
374.061	312.06
374.287	331.06
374.513	327.06
374.739	313.06
374.965	331.06
375.191	312.06
375.416	322.06
375.642	297.06
375.868	305.06
376.094	336.06
376.319	300.06
376.545	293.06
376.771	316.06
376.997	313.06
377.222	305.06
377.448	312.06
377.674	316.06
377.899	318.06
378.125	301.06
378.35	314.06
378.576	322.06
378.802	302.06
379.027	291.06
379.253	312.06
379.478	310.06
379.704	319.06
379.929	312.06
380.155	322.06
380.38	325.06
380.606	316.06
380.831	310.06
381.057	337.06
381.282	316.06
381.507	320.06
381.733	330.06
381.958	328.06
382.184	324.06
382.409	302.06
382.634	318.06
382.86	342.06
383.085	339.06
383.31	340.06
383.535	353.06
383.761	323.06
383.986	326.06
384.211	316.06
384.436	307.06
384.662	320.06
384.887	322.06
385.112	329.06
385.337	323.06
385.562	326.06
385.787	317.06
386.013	366.06
386.238	365.06
386.463	355.06
386.688	344.06
386.913	334.06
387.138	334.06
387.363	347.06
387.588	330.06
387.813	334.06
388.038	318.06
388.263	351.06
388.488	327.06
388.713	343.06
388.938	337.06
389.163	345.06
389.387	347.06
389.612	349.06
389.837	357.06
390.062	342.06
390.287	342.06
390.512	348.06
390.736	342.06
390.961	328.06
391.186	343.06
391.411	344.06
391.636	328.06
391.86	337.06
392.085	336.06
392.31	345.06
392.534	329.06
392.759	334.06
392.984	342.06
393.208	350.06
393.433	351.06
393.658	362.06
393.882	335.06
394.107	322.06
394.331	324.06
394.556	330.06
394.78	356.06
395.005	317.06
395.229	337.06
395.454	344.06
395.678	348.06
395.903	358.06
396.127	384.06
396.352	383.06
396.576	371.06
396.801	364.06
397.025	353.06
397.249	360.06
397.474	362.06
397.698	356.06
397.922	377.06
398.147	392.06
398.371	403.06
398.595	372.06
398.82	359.06
399.044	366.06
399.268	378.06
399.492	384.06
399.717	416.06
399.941	430.06
400.165	452.06
400.389	468.06
400.613	432.06
400.837	420.06
401.062	418.06
401.286	397.06
401.51	390.06
401.734	367.06
401.958	388.06
402.182	412.06
402.406	411.06
402.63	405.06
402.854	379.06
403.078	399.06
403.302	402.06
403.526	410.06
403.75	425.06
403.974	394.06
404.198	405.06
404.422	398.06
404.645	404.06
404.869	401.06
405.093	447.06
405.317	448.06
405.541	488.06
405.765	445.06
405.988	423.06
406.212	416.06
406.436	485.06
406.66	474.06
406.883	453.06
407.107	480.06
407.331	497.06
407.555	546.06
407.778	548.06
408.002	521.06
408.226	478.06
408.449	471.06
408.673	450.06
408.896	494.06
409.12	520.06
409.344	486.06
409.567	425.06
409.791	425.06
410.014	410.06
410.238	412.06
410.461	409.06
410.685	423.06
410.908	421.06
411.132	451.06
411.355	490.06
411.578	481.06
411.802	455.06
412.025	426.06
412.249	391.06
412.472	401.06
412.695	414.06
412.919	445.06
413.142	394.06
413.365	386.06
413.589	387.06
413.812	393.06
414.035	368.06
414.258	382.06
414.482	378.06
414.705	375.06
414.928	379.06
415.151	391.06
415.374	372.06
415.597	378.06
415.821	379.06
416.044	376.06
416.267	379.06
416.49	380.06
416.713	370.06
416.936	394.06
417.159	383.06
417.382	380.06
417.605	384.06
417.828	413.06
418.051	415.06
418.274	411.06
418.497	396.06
418.72	390.06
418.943	398.06
419.166	413.06
419.389	425.06
419.611	445.06
419.834	401.06
420.057	418.06
420.28	421.06
420.503	401.06
420.726	414.06
420.948	402.06
421.171	475.06
421.394	495.06
421.617	457.06
421.839	441.06
422.062	415.06
422.285	443.06
422.507	479.06
422.73	574.06
422.953	529.06
423.175	473.06
423.398	463.06
423.621	450.06
423.843	444.06
424.066	473.06
424.288	444.06
424.511	460.06
424.733	539.06
424.956	630.06
425.178	620.06
425.401	598.06
425.623	596.06
425.846	526.06
426.068	475.06
426.291	479.06
426.513	480.06
426.735	490.06
426.958	540.06
427.18	608.06
427.402	713.06
427.625	769.06
427.847	736.06
428.069	607.06
428.292	566.06
428.514	520.06
428.736	474.06
428.958	468.06
429.181	455.06
429.403	451.06
429.625	448.06
429.847	479.06
430.069	570.06
430.292	545.06
430.514	478.06
430.736	456.06
430.958	423.06
431.18	422.06
431.402	417.06
431.624	415.06
431.846	414.06
432.068	401.06
432.29	402.06
432.512	407.06
432.734	417.06
432.956	404.06
433.178	419.06
433.4	436.06
433.622	424.06
433.844	418.06
434.066	420.06
434.287	406.06
434.509	417.06
434.731	433.06
434.953	428.06
435.175	428.06
435.397	478.06
435.618	469.06
435.84	507.06
436.062	620.06
436.284	665.06
436.505	585.06
436.727	522.06
436.949	474.06
437.17	454.06
437.392	454.06
437.614	486.06
437.835	518.06
438.057	595.06
438.278	693.06
438.5	726.06
438.721	731.06
438.943	697.06
439.165	571.06
439.386	550.06
439.608	522.06
439.829	508.06
440.05	541.06
440.272	582.06
440.493	550.06
440.715	492.06
440.936	471.06
441.158	462.06
441.379	442.06
441.6	488.06
441.822	489.06
442.043	548.06
442.264	603.06
442.486	625.06
442.707	558.06
442.928	522.06
443.149	495.06
443.371	533.06
443.592	580.06
443.813	652.06
444.034	704.06
444.255	599.06
444.476	500.06
444.698	493.06
444.919	480.06
445.14	566.06
445.361	537.06
445.582	523.06
445.803	604.06
446.024	690.06
446.245	685.06
446.466	623.06
446.687	543.06
446.908	512.06
447.129	480.06
447.35	436.06
447.571	457.06
447.792	466.06
448.013	465.06
448.234	512.06
448.455	513.06
448.675	640.06
448.896	723.06
449.117	653.06
449.338	596.06
449.559	694.06
449.779	744.06
450	607.06
450.221	542.06
450.442	485.06
450.662	456.06
450.883	476.06
451.104	526.06
451.324	485.06
451.545	471.06
451.766	449.06
451.986	420.06
452.207	414.06
452.428	421.06
452.648	424.06
452.869	422.06
453.089	426.06
453.31	445.06
453.53	424.06
453.751	392.06
453.971	414.06
454.192	453.06
454.412	447.06
454.633	430.06
454.853	438.06
455.073	416.06
455.294	428.06
455.514	513.06
455.734	493.06
455.955	438.06
456.175	412.06
456.395	398.06
456.616	393.06
456.836	386.06
457.056	361.06
457.276	382.06
457.497	377.06
457.717	362.06
457.937	378.06
458.157	397.06
458.377	396.06
458.598	438.06
458.818	476.06
459.038	609.06
459.258	598.06
459.478	504.06
459.698	454.06
459.918	418.06
460.138	410.06
460.358	405.06
460.578	404.06
460.798	406.06
461.018	392.06
461.238	410.06
461.458	386.06
461.678	394.06
461.898	414.06
462.118	400.06
462.338	388.06
462.558	408.06
462.777	396.06
462.997	398.06
463.217	415.06
463.437	421.06
463.657	408.06
463.876	416.06
464.096	422.06
464.316	430.06
464.536	416.06
464.755	461.06
464.975	432.06
465.195	514.06
465.414	625.06
465.634	547.06
465.854	487.06
466.073	449.06
466.293	440.06
466.512	405.06
466.732	408.06
466.951	410.06
467.171	396.06
467.391	414.06
467.61	402.06
467.829	447.06
468.049	425.06
468.268	410.06
468.488	397.06
468.707	398.06
468.927	386.06
469.146	414.06
469.365	400.06
469.585	390.06
469.804	405.06
470.023	424.06
470.243	428.06
470.462	424.06
470.681	452.06
470.901	454.06
471.12	421.06
471.339	407.06
471.558	425.06
471.777	419.06
471.997	393.06
472.216	418.06
472.435	412.06
472.654	399.06
472.873	403.06
473.092	402.06
473.311	394.06
473.53	411.06
473.749	438.06
473.968	484.06
474.187	566.06
474.406	592.06
474.625	485.06
474.844	440.06
475.063	431.06
475.282	414.06
475.501	429.06
475.72	424.06
475.939	430.06
476.158	420.06
476.377	421.06
476.596	423.06
476.814	416.06
477.033	453.06
477.252	462.06
477.471	441.06
477.69	436.06
477.908	450.06
478.127	473.06
478.346	432.06
478.564	438.06
478.783	447.06
479.002	445.06
479.22	467.06
479.439	470.06
479.658	516.06
479.876	507.06
480.095	520.06
480.313	528.06
480.532	497.06
480.751	485.06
480.969	490.06
481.188	515.06
481.406	520.06
481.624	489.06
481.843	490.06
482.061	484.06
482.28	486.06
482.498	474.06
482.717	482.06
482.935	496.06
483.153	501.06
483.372	474.06
483.59	500.06
483.808	492.06
484.027	488.06
484.245	491.06
484.463	496.06
484.681	497.06
484.9	497.06
485.118	493.06
485.336	472.06
485.554	514.06
485.772	507.06
485.99	512.06
486.209	516.06
486.427	522.06
486.645	528.06
486.863	531.06
487.081	550.06
487.299	516.06
487.517	542.06
487.735	542.06
487.953	493.06
488.171	520.06
488.389	517.06
488.607	536.06
488.825	543.06
489.043	544.06
489.261	545.06
489.479	538.06
489.696	550.06
489.914	548.06
490.132	566.06
490.35	564.06
490.568	565.06
490.786	575.06
491.003	565.06
491.221	594.06
491.439	574.06
491.657	591.06
491.874	628.06
492.092	608.06
492.31	619.06
492.527	605.06
492.745	605.06
492.963	629.06
493.18	621.06
493.398	640.06
493.615	630.06
493.833	621.06
494.05	628.06
494.268	640.06
494.485	645.06
494.703	640.06
494.92	629.06
495.138	638.06
495.355	635.06
495.573	629.06
495.79	649.06
496.008	616.06
496.225	646.06
496.442	644.06
496.66	650.06
496.877	651.06
497.094	634.06
497.312	625.06
497.529	631.06
497.746	666.06
497.963	674.06
498.181	690.06
498.398	664.06
498.615	661.06
498.832	682.06
499.049	677.06
499.267	679.06
499.484	716.06
499.701	706.06
499.918	713.06
500.135	765.06
500.352	748.06
500.569	718.06
500.786	745.06
501.003	767.06
501.22	739.06
501.437	756.06
501.654	720.06
501.871	750.06
502.088	737.06
502.305	732.06
502.522	684.06
502.739	702.06
502.956	692.06
503.172	682.06
503.389	664.06
503.606	679.06
503.823	677.06
504.04	656.06
504.256	652.06
504.473	653.06
504.69	648.06
504.907	647.06
505.123	640.06
505.34	636.06
505.557	612.06
505.773	641.06
505.99	625.06
506.207	617.06
506.423	629.06
506.64	621.06
506.856	641.06
507.073	607.06
507.289	633.06
507.506	634.06
507.722	621.06
507.939	666.06
508.155	667.06
508.372	633.06
508.588	654.06
508.805	617.06
509.021	628.06
509.238	619.06
509.454	628.06
509.67	627.06
509.887	620.06
510.103	646.06
510.319	643.06
510.536	794.06
510.752	1398.06
510.968	1137.06
511.184	695.06
511.401	616.06
511.617	612.06
511.833	590.06
512.049	582.06
512.265	622.06
512.481	630.06
512.698	600.06
512.914	590.06
513.13	588.06
513.346	573.06
513.562	605.06
513.778	596.06
513.994	644.06
514.21	637.06
514.426	673.06
514.642	756.06
514.858	780.06
515.074	837.06
515.29	1040.06
515.506	1632.06
515.721	1314.06
515.937	811.06
516.153	737.06
516.369	673.06
516.585	663.06
516.801	606.06
517.016	593.06
517.232	613.06
517.448	620.06
517.664	612.06
517.879	616.06
518.095	595.06
518.311	590.06
518.527	573.06
518.742	615.06
518.958	592.06
519.173	586.06
519.389	589.06
519.605	640.06
519.82	614.06
520.036	638.06
520.251	653.06
520.467	729.06
520.682	698.06
520.898	735.06
521.113	763.06
521.329	833.06
521.544	950.06
521.76	1295.06
521.975	2200.06
522.19	2188.06
522.406	1130.06
522.621	804.06
522.836	682.06
523.052	614.06
523.267	614.06
523.482	596.06
523.698	582.06
523.913	573.06
524.128	570.06
524.343	565.06
524.559	525.06
524.774	521.06
524.989	530.06
525.204	550.06
525.419	533.06
525.634	526.06
525.849	510.06
526.064	508.06
526.28	504.06
526.495	488.06
526.71	490.06
526.925	480.06
527.14	484.06
527.355	477.06
527.57	472.06
527.785	477.06
527.999	463.06
528.214	464.06
528.429	464.06
528.644	477.06
528.859	471.06
529.074	489.06
529.289	491.06
529.503	617.06
529.718	599.06
529.933	553.06
530.148	515.06
530.363	489.06
530.577	469.06
530.792	449.06
531.007	461.06
531.221	461.06
531.436	466.06
531.651	461.06
531.865	438.06
532.08	460.06
532.295	448.06
532.509	461.06
532.724	441.06
532.938	461.06
533.153	452.06
533.367	461.06
533.582	445.06
533.796	432.06
534.011	440.06
534.225	438.06
534.44	416.06
534.654	443.06
534.868	452.06
535.083	442.06
535.297	429.06
535.511	421.06
535.726	449.06
535.94	485.06
536.154	458.06
536.369	442.06
536.583	440.06
536.797	438.06
537.011	423.06
537.225	426.06
537.44	440.06
537.654	433.06
537.868	422.06
538.082	420.06
538.296	422.06
538.51	412.06
538.724	411.06
538.938	422.06
539.153	402.06
539.367	463.06
539.581	463.06
539.795	413.06
540.009	444.06
540.222	426.06
540.436	425.06
540.65	433.06
540.864	429.06
541.078	425.06
541.292	448.06
541.506	400.06
541.72	414.06
541.934	411.06
542.147	426.06
542.361	404.06
542.575	394.06
542.789	413.06
543.002	417.06
543.216	423.06
543.43	429.06
543.644	415.06
543.857	426.06
544.071	422.06
544.285	425.06
544.498	425.06
544.712	415.06
544.925	420.06
545.139	409.06
545.352	400.06
545.566	404.06
545.779	405.06
545.993	394.06
546.206	409.06
546.42	412.06
546.633	402.06
546.847	407.06
547.06	400.06
547.274	401.06
547.487	372.06
547.7	398.06
547.914	369.06
548.127	398.06
548.34	396.06
548.554	380.06
548.767	392.06
548.98	385.06
549.193	396.06
549.407	370.06
549.62	380.06
549.833	372.06
550.046	370.06
550.259	384.06
550.473	364.06
550.686	384.06
550.899	386.06
551.112	379.06
551.325	377.06
551.538	367.06
551.751	369.06
551.964	370.06
552.177	358.06
552.39	360.06
552.603	388.06
552.816	389.06
553.029	362.06
553.242	388.06
553.455	390.06
553.667	402.06
553.88	403.06
554.093	380.06
554.306	382.06
554.519	374.06
554.732	380.06
554.944	375.06
555.157	372.06
555.37	370.06
555.583	374.06
555.795	363.06
556.008	384.06
556.221	366.06
556.433	368.06
556.646	359.06
556.859	369.06
557.071	338.06
557.284	334.06
557.496	351.06
557.709	361.06
557.921	351.06
558.134	336.06
558.346	338.06
558.559	356.06
558.771	348.06
558.984	339.06
559.196	349.06
559.409	341.06
559.621	350.06
559.833	362.06
560.046	374.06
560.258	344.06
560.47	329.06
560.683	353.06
560.895	346.06
561.107	356.06
561.32	347.06
561.532	338.06
561.744	344.06
561.956	352.06
562.168	352.06
562.381	358.06
562.593	349.06
562.805	328.06
563.017	344.06
563.229	344.06
563.441	340.06
563.653	354.06
563.865	349.06
564.077	352.06
564.289	338.06
564.501	375.06
564.713	343.06
564.925	352.06
565.137	360.06
565.349	366.06
565.561	346.06
565.773	387.06
565.985	363.06
566.197	374.06
566.408	369.06
566.62	372.06
566.832	380.06
567.044	379.06
567.255	367.06
567.467	386.06
567.679	386.06
567.891	380.06
568.102	363.06
568.314	385.06
568.526	371.06
568.737	357.06
568.949	343.06
569.161	347.06
569.372	349.06
569.584	355.06
569.795	361.06
570.007	351.06
570.218	417.06
570.43	389.06
570.641	344.06
570.853	340.06
571.064	326.06
571.276	330.06
571.487	329.06
571.698	325.06
571.91	320.06
572.121	322.06
572.333	336.06
572.544	327.06
572.755	307.06
572.966	304.06
573.178	329.06
573.389	308.06
573.6	329.06
573.811	314.06
574.023	314.06
574.234	300.06
574.445	301.06
574.656	301.06
574.867	310.06
575.078	301.06
575.289	302.06
575.501	298.06
575.712	292.06
575.923	300.06
576.134	298.06
576.345	303.06
576.556	297.06
576.767	310.06
576.978	290.06
577.188	304.06
577.399	302.06
577.61	318.06
577.821	292.06
578.032	302.06
578.243	348.06
578.454	668.06
578.665	490.06
578.875	312.06
579.086	302.06
579.297	296.06
579.508	282.06
579.718	288.06
579.929	309.06
580.14	289.06
580.35	287.06
580.561	292.06
580.772	262.06
580.982	269.06
581.193	275.06
581.403	270.06
581.614	294.06
581.825	284.06
582.035	282.06
582.246	266.06
582.456	263.06
582.667	282.06
582.877	300.06
583.087	275.06
583.298	280.06
583.508	258.06
583.719	292.06
583.929	259.06
584.139	281.06
584.35	280.06
584.56	281.06
584.77	287.06
584.981	291.06
585.191	270.06
585.401	276.06
585.611	274.06
585.821	258.06
586.032	263.06
586.242	253.06
586.452	270.06
586.662	279.06
586.872	278.06
587.082	254.06
587.292	262.06
587.502	246.06
587.713	279.06
587.923	243.06
588.133	268.06
588.343	258.06
588.553	266.06
588.762	268.06
588.972	278.06
589.182	360.06
589.392	360.06
589.602	288.06
589.812	314.06
590.022	305.06
590.232	280.06
590.441	288.06
590.651	267.06
590.861	272.06
591.071	255.06
591.281	283.06
591.49	254.06
591.7	256.06
591.91	273.06
592.119	260.06
592.329	259.06
592.539	275.06
592.748	277.06
592.958	255.06
593.167	271.06
593.377	263.06
593.587	252.06
593.796	266.06
594.006	256.06
594.215	261.06
594.424	261.06
594.634	247.06
594.843	253.06
595.053	263.06
595.262	249.06
595.472	257.06
595.681	274.06
595.89	232.06
596.1	246.06
596.309	233.06
596.518	268.06
596.727	262.06
596.937	244.06
597.146	264.06
597.355	262.06
597.564	260.06
597.774	249.06
597.983	238.06
598.192	232.06
598.401	232.06
598.61	225.06
598.819	235.06
599.028	224.06
599.237	231.06
599.446	255.06
599.655	239.06
599.864	229.06
600.073	228.06
600.282	248.06
600.491	238.06
600.7	232.06
600.909	225.06
601.118	239.06
601.327	228.06
601.536	232.06
601.745	235.06
601.953	214.06
602.162	244.06
602.371	233.06
602.58	237.06
602.789	240.06
602.997	230.06
603.206	233.06
603.415	239.06
603.623	218.06
603.832	226.06
604.041	227.06
604.249	203.06
604.458	210.06
604.666	214.06
604.875	228.06
605.084	220.06
605.292	219.06
605.501	226.06
605.709	217.06
605.918	205.06
606.126	236.06
606.334	236.06
606.543	203.06
606.751	220.06
606.96	204.06
607.168	212.06
607.376	221.06
607.585	229.06
607.793	225.06
608.001	229.06
608.21	220.06
608.418	222.06
608.626	211.06
608.834	226.06
609.043	229.06
609.251	215.06
609.459	202.06
609.667	220.06
609.875	212.06
610.083	214.06
610.291	214.06
610.499	218.06
610.707	212.06
610.916	220.06
611.124	222.06
611.332	231.06
611.54	236.06
611.748	235.06
611.955	217.06
612.163	217.06
612.371	223.06
612.579	205.06
612.787	208.06
612.995	227.06
613.203	203.06
613.411	213.06
613.618	207.06
613.826	219.06
614.034	233.06
614.242	213.06
614.449	194.06
614.657	199.06
614.865	215.06
615.072	214.06
615.28	211.06
615.488	224.06
615.695	211.06
615.903	215.06
616.111	210.06
616.318	207.06
616.526	198.06
616.733	222.06
616.941	209.06
617.148	204.06
617.356	216.06
617.563	212.06
617.771	204.06
617.978	207.06
618.185	203.06
618.393	215.06
618.6	186.06
618.807	212.06
619.015	199.06
619.222	198.06
619.429	205.06
619.637	213.06
619.844	219.06
620.051	212.06
620.258	218.06
620.466	195.06
620.673	210.06
620.88	220.06
621.087	200.06
621.294	200.06
621.501	200.06
621.708	199.06
621.915	198.06
622.122	203.06
622.329	198.06
622.536	205.06
622.743	196.06
622.95	198.06
623.157	186.06
623.364	198.06
623.571	206.06
623.778	213.06
623.985	194.06
624.192	196.06
624.399	188.06
624.606	201.06
624.812	216.06
625.019	179.06
625.226	209.06
625.433	199.06
625.639	196.06
625.846	194.06
626.053	190.06
626.259	191.06
626.466	185.06
626.673	185.06
626.879	196.06
627.086	196.06
627.293	195.06
627.499	196.06
627.706	172.06
627.912	184.06
628.119	190.06
628.325	185.06
628.532	184.06
628.738	190.06
628.945	187.06
629.151	184.06
629.357	177.06
629.564	195.06
629.77	202.06
629.976	180.06
630.183	175.06
630.389	171.06
630.595	179.06
630.802	168.06
631.008	180.06
631.214	183.06
631.42	200.06
631.627	173.06
631.833	184.06
632.039	180.06
632.245	181.06
632.451	175.06
632.657	182.06
632.863	167.06
633.069	170.06
633.275	186.06
633.481	180.06
633.688	186.06
633.893	185.06
634.099	183.06
634.305	174.06
634.511	174.06
634.717	162.06
634.923	170.06
635.129	162.06
635.335	180.06
635.541	170.06
635.747	184.06
635.952	171.06
636.158	173.06
636.364	174.06
636.57	156.06
636.775	170.06
636.981	168.06
637.187	160.06
637.392	164.06
637.598	165.06
637.804	158.06
638.009	162.06
638.215	165.06
638.421	168.06
638.626	162.06
638.832	158.06
639.037	170.06
639.243	152.06
639.448	151.06
639.654	177.06
639.859	168.06
640.065	148.06
640.27	177.06
640.475	172.06
640.681	164.06
640.886	174.06
641.091	160.06
641.297	164.06
641.502	156.06
641.707	197.06
641.913	158.06
642.118	147.06
642.323	162.06
642.528	157.06
642.733	176.06
642.939	154.06
643.144	159.06
643.349	164.06
643.554	148.06
643.759	159.06
643.964	158.06
644.169	161.06
644.374	144.06
644.579	153.06
644.784	154.06
644.989	159.06
645.194	147.06
645.399	152.06
645.604	154.06
645.809	170.06
646.014	155.06
646.219	160.06
646.423	176.06
646.628	161.06
646.833	153.06
647.038	149.06
647.243	147.06
647.447	151.06
647.652	155.06
647.857	158.06
648.062	156.06
648.266	162.06
648.471	159.06
648.676	144.06
648.88	157.06
649.085	154.06
649.289	140.06
649.494	164.06
649.698	181.06
649.903	180.06
650.107	164.06
650.312	152.06
650.516	141.06
650.721	169.06
650.925	154.06
651.13	147.06
651.334	145.06
651.539	144.06
651.743	137.06
651.947	149.06
652.152	138.06
652.356	145.06
652.56	156.06
652.764	140.06
652.969	126.06
653.173	124.06
653.377	132.06
653.581	136.06
653.785	155.06
653.99	132.06
654.194	126.06
654.398	144.06
654.602	133.06
654.806	138.06
655.01	148.06
655.214	140.06
655.418	132.06
655.622	126.06
655.826	132.06
656.03	144.06
656.234	130.06
656.438	125.06
656.642	136.06
656.846	132.06
657.049	134.06
657.253	121.06
657.457	117.06
657.661	122.06
657.865	116.06
658.068	106.06
658.272	112.06
658.476	118.06
658.68	97.06
658.883	96.06
659.087	104.06
659.291	105.06
659.494	107.06
659.698	103.06
659.901	89.06
660.105	96.06
660.309	96.06
660.512	90.06
660.716	100.06
660.919	94.06
661.123	104.06
661.326	94.06
661.53	90.06
661.733	98.06
661.936	96.06
662.14	95.06
662.343	90.06
662.546	82.06
662.75	76.06
662.953	82.06
663.156	85.06
663.36	70.06
663.563	99.06
663.766	81.06
663.969	90.06
664.173	81.06
664.376	92.06
664.579	93.06
664.782	88.06
664.985	87.06
665.188	84.06
665.391	83.06
665.594	85.06
665.797	78.06
666	73.06
666.203	81.06
666.406	96.06
666.609	84.06
666.812	78.06
667.015	82.06
667.218	89.06
667.421	92.06
667.624	80.06
667.827	90.06
668.03	92.06
668.232	79.06
668.435	106.06
668.638	68.06
668.841	90.06
669.043	76.06
669.246	79.06
669.449	74.06
669.651	85.06
669.854	78.06
670.057	95.06
670.259	95.06
670.462	84.06
670.665	86.06
670.867	88.06
671.07	93.06
671.272	82.06
671.475	81.06
671.677	84.06
671.88	76.06
672.082	93.06
672.284	92.06
672.487	90.06
672.689	92.06
672.892	71.06
