Data from 1987.PennyLincolnUp.Lamp.En5.5.200Scan.071819.P2_HRD10591_17-15-28-971.txt Node
Date: Thu Jul 18 17:15:28 EDT 2019
User: cochatt
Spectrometer: HR+D1059
Trigger mode: 1
Integration Time (sec): 1.000000E-1
Scans to average: 1
Electric dark correction enabled: true
Nonlinearity correction enabled: false
Boxcar width: 0
XAxis mode: Wavelengths
Number of Pixels in Spectrum: 2048
>>>>>Begin Spectral Data<<<<<
223.165	-25.62
223.4	-25.62
223.635	-25.62
223.869	-21.62
224.104	-1.62
224.338	-17.62
224.573	-12.62
224.808	-10.62
225.042	-8.62
225.277	-7.62
225.511	4.38
225.746	-7.62
225.98	22.38
226.215	10.38
226.449	9.38
226.683	17.38
226.918	22.38
227.152	27.38
227.387	25.38
227.621	45.38
227.856	41.38
228.09	40.38
228.324	40.38
228.559	66.38
228.793	56.38
229.027	93.38
229.262	96.38
229.496	123.38
229.73	151.38
229.964	182.38
230.199	134.38
230.433	117.38
230.667	116.38
230.901	120.38
231.136	120.38
231.37	102.38
231.604	118.38
231.838	105.38
232.072	109.38
232.306	111.38
232.541	117.38
232.775	106.38
233.009	117.38
233.243	110.38
233.477	108.38
233.711	114.38
233.945	114.38
234.179	122.38
234.413	125.38
234.647	99.38
234.881	123.38
235.115	114.38
235.349	120.38
235.583	117.38
235.817	118.38
236.051	130.38
236.285	132.38
236.519	127.38
236.753	127.38
236.987	152.38
237.221	184.38
237.455	235.38
237.689	210.38
237.922	164.38
238.156	146.38
238.39	140.38
238.624	127.38
238.858	125.38
239.091	111.38
239.325	134.38
239.559	136.38
239.793	132.38
240.027	130.38
240.26	138.38
240.494	168.38
240.728	168.38
240.961	147.38
241.195	136.38
241.429	124.38
241.662	134.38
241.896	124.38
242.13	137.38
242.363	134.38
242.597	139.38
242.83	135.38
243.064	142.38
243.298	125.38
243.531	131.38
243.765	130.38
243.998	134.38
244.232	139.38
244.465	151.38
244.699	134.38
244.932	143.38
245.166	128.38
245.399	131.38
245.633	152.38
245.866	148.38
246.099	140.38
246.333	134.38
246.566	140.38
246.8	152.38
247.033	160.38
247.266	151.38
247.5	159.38
247.733	171.38
247.966	169.38
248.2	180.38
248.433	183.38
248.666	162.38
248.899	180.38
249.133	205.38
249.366	214.38
249.599	206.38
249.832	178.38
250.066	180.38
250.299	178.38
250.532	178.38
250.765	195.38
250.998	238.38
251.231	221.38
251.465	214.38
251.698	193.38
251.931	192.38
252.164	186.38
252.397	201.38
252.63	199.38
252.863	207.38
253.096	195.38
253.329	229.38
253.562	223.38
253.795	218.38
254.028	211.38
254.261	206.38
254.494	226.38
254.727	266.38
254.96	277.38
255.193	275.38
255.426	262.38
255.659	234.38
255.892	221.38
256.124	229.38
256.357	216.38
256.59	206.38
256.823	218.38
257.056	205.38
257.289	186.38
257.521	213.38
257.754	201.38
257.987	194.38
258.22	206.38
258.452	191.38
258.685	199.38
258.918	197.38
259.151	203.38
259.383	223.38
259.616	205.38
259.849	215.38
260.081	219.38
260.314	263.38
260.547	237.38
260.779	247.38
261.012	231.38
261.244	215.38
261.477	220.38
261.71	202.38
261.942	227.38
262.175	242.38
262.407	231.38
262.64	197.38
262.872	218.38
263.105	196.38
263.337	211.38
263.57	201.38
263.802	186.38
264.035	203.38
264.267	200.38
264.499	194.38
264.732	180.38
264.964	186.38
265.197	183.38
265.429	193.38
265.661	189.38
265.894	201.38
266.126	196.38
266.358	189.38
266.591	188.38
266.823	186.38
267.055	202.38
267.287	202.38
267.52	205.38
267.752	209.38
267.984	213.38
268.216	201.38
268.448	208.38
268.681	217.38
268.913	227.38
269.145	229.38
269.377	263.38
269.609	267.38
269.841	242.38
270.073	252.38
270.306	276.38
270.538	298.38
270.77	310.38
271.002	295.38
271.234	287.38
271.466	291.38
271.698	278.38
271.93	308.38
272.162	293.38
272.394	300.38
272.626	286.38
272.858	279.38
273.09	251.38
273.322	267.38
273.553	263.38
273.785	236.38
274.017	225.38
274.249	227.38
274.481	232.38
274.713	234.38
274.945	255.38
275.176	262.38
275.408	257.38
275.64	222.38
275.872	236.38
276.104	234.38
276.335	250.38
276.567	259.38
276.799	273.38
277.031	288.38
277.262	308.38
277.494	289.38
277.726	270.38
277.957	261.38
278.189	227.38
278.421	250.38
278.652	243.38
278.884	244.38
279.115	227.38
279.347	234.38
279.579	232.38
279.81	249.38
280.042	230.38
280.273	230.38
280.505	223.38
280.736	215.38
280.968	216.38
281.199	228.38
281.431	219.38
281.662	235.38
281.894	232.38
282.125	238.38
282.356	232.38
282.588	285.38
282.819	270.38
283.051	238.38
283.282	224.38
283.513	239.38
283.745	226.38
283.976	230.38
284.207	235.38
284.439	244.38
284.67	235.38
284.901	229.38
285.132	242.38
285.364	234.38
285.595	238.38
285.826	239.38
286.057	223.38
286.288	214.38
286.52	213.38
286.751	236.38
286.982	228.38
287.213	243.38
287.444	238.38
287.675	239.38
287.906	242.38
288.138	269.38
288.369	260.38
288.6	259.38
288.831	244.38
289.062	246.38
289.293	248.38
289.524	231.38
289.755	235.38
289.986	238.38
290.217	239.38
290.448	253.38
290.679	243.38
290.91	251.38
291.141	221.38
291.371	244.38
291.602	225.38
291.833	230.38
292.064	243.38
292.295	236.38
292.526	252.38
292.757	232.38
292.987	249.38
293.218	243.38
293.449	240.38
293.68	229.38
293.91	231.38
294.141	242.38
294.372	229.38
294.603	229.38
294.833	235.38
295.064	230.38
295.295	224.38
295.525	228.38
295.756	230.38
295.987	254.38
296.217	286.38
296.448	291.38
296.679	262.38
296.909	237.38
297.14	258.38
297.37	243.38
297.601	244.38
297.831	234.38
298.062	243.38
298.292	254.38
298.523	252.38
298.753	267.38
298.984	256.38
299.214	264.38
299.445	252.38
299.675	248.38
299.905	262.38
300.136	263.38
300.366	246.38
300.597	244.38
300.827	277.38
301.057	278.38
301.288	266.38
301.518	278.38
301.748	249.38
301.979	250.38
302.209	272.38
302.439	259.38
302.669	267.38
302.9	272.38
303.13	282.38
303.36	277.38
303.59	277.38
303.82	283.38
304.051	279.38
304.281	263.38
304.511	279.38
304.741	271.38
304.971	265.38
305.201	264.38
305.431	266.38
305.661	260.38
305.891	265.38
306.121	284.38
306.352	263.38
306.582	268.38
306.812	273.38
307.042	282.38
307.272	276.38
307.502	266.38
307.731	267.38
307.961	280.38
308.191	276.38
308.421	274.38
308.651	300.38
308.881	291.38
309.111	299.38
309.341	284.38
309.571	319.38
309.8	342.38
310.03	339.38
310.26	334.38
310.49	347.38
310.72	349.38
310.949	382.38
311.179	388.38
311.409	351.38
311.639	342.38
311.868	333.38
312.098	345.38
312.328	350.38
312.557	346.38
312.787	386.38
313.017	386.38
313.246	382.38
313.476	338.38
313.706	334.38
313.935	346.38
314.165	342.38
314.394	378.38
314.624	390.38
314.853	358.38
315.083	356.38
315.312	332.38
315.542	328.38
315.771	323.38
316.001	345.38
316.23	317.38
316.46	335.38
316.689	346.38
316.919	326.38
317.148	353.38
317.377	345.38
317.607	332.38
317.836	356.38
318.065	331.38
318.295	334.38
318.524	335.38
318.753	324.38
318.983	333.38
319.212	331.38
319.441	332.38
319.67	343.38
319.9	333.38
320.129	348.38
320.358	334.38
320.587	347.38
320.816	354.38
321.046	357.38
321.275	375.38
321.504	382.38
321.733	359.38
321.962	373.38
322.191	397.38
322.42	416.38
322.649	449.38
322.878	459.38
323.108	485.38
323.337	524.38
323.566	532.38
323.795	607.38
324.024	665.38
324.253	828.38
324.482	1224.38
324.71	1868.38
324.939	2653.38
325.168	2311.38
325.397	1255.38
325.626	798.38
325.855	633.38
326.084	557.38
326.313	531.38
326.542	531.38
326.77	619.38
326.999	756.38
327.228	1038.38
327.457	1623.38
327.686	1967.38
327.914	1350.38
328.143	875.38
328.372	719.38
328.6	675.38
328.829	622.38
329.058	662.38
329.287	670.38
329.515	609.38
329.744	515.38
329.972	489.38
330.201	495.38
330.43	552.38
330.658	603.38
330.887	642.38
331.115	644.38
331.344	562.38
331.572	480.38
331.801	494.38
332.03	485.38
332.258	461.38
332.486	437.38
332.715	397.38
332.943	385.38
333.172	383.38
333.4	399.38
333.629	412.38
333.857	408.38
334.085	398.38
334.314	390.38
334.542	406.38
334.771	389.38
334.999	407.38
335.227	382.38
335.455	381.38
335.684	401.38
335.912	377.38
336.14	376.38
336.369	380.38
336.597	381.38
336.825	393.38
337.053	389.38
337.281	383.38
337.51	361.38
337.738	388.38
337.966	394.38
338.194	419.38
338.422	381.38
338.65	383.38
338.878	360.38
339.106	370.38
339.334	362.38
339.562	372.38
339.79	349.38
340.018	374.38
340.246	354.38
340.474	370.38
340.702	367.38
340.93	372.38
341.158	362.38
341.386	382.38
341.614	374.38
341.842	375.38
342.07	366.38
342.298	366.38
342.526	363.38
342.754	356.38
342.981	359.38
343.209	331.38
343.437	319.38
343.665	354.38
343.893	347.38
344.12	352.38
344.348	379.38
344.576	364.38
344.804	384.38
345.031	384.38
345.259	417.38
345.487	398.38
345.714	398.38
345.942	352.38
346.17	360.38
346.397	363.38
346.625	370.38
346.853	392.38
347.08	363.38
347.308	372.38
347.535	392.38
347.763	405.38
347.99	408.38
348.218	399.38
348.445	400.38
348.673	385.38
348.9	377.38
349.128	332.38
349.355	354.38
349.583	363.38
349.81	340.38
350.037	343.38
350.265	360.38
350.492	349.38
350.72	370.38
350.947	377.38
351.174	383.38
351.402	376.38
351.629	399.38
351.856	399.38
352.083	393.38
352.311	407.38
352.538	414.38
352.765	411.38
352.992	395.38
353.22	382.38
353.447	365.38
353.674	365.38
353.901	373.38
354.128	349.38
354.355	339.38
354.583	325.38
354.81	346.38
355.037	337.38
355.264	334.38
355.491	313.38
355.718	324.38
355.945	334.38
356.172	339.38
356.399	319.38
356.626	322.38
356.853	331.38
357.08	341.38
357.307	314.38
357.534	332.38
357.761	327.38
357.988	333.38
358.215	334.38
358.441	331.38
358.668	342.38
358.895	352.38
359.122	348.38
359.349	354.38
359.576	391.38
359.802	442.38
360.029	450.38
360.256	472.38
360.483	441.38
360.709	382.38
360.936	383.38
361.163	373.38
361.39	389.38
361.616	391.38
361.843	371.38
362.07	390.38
362.296	404.38
362.523	381.38
362.749	352.38
362.976	355.38
363.203	368.38
363.429	373.38
363.656	349.38
363.882	337.38
364.109	341.38
364.335	344.38
364.562	338.38
364.788	349.38
365.015	348.38
365.241	347.38
365.468	349.38
365.694	367.38
365.92	371.38
366.147	366.38
366.373	370.38
366.599	350.38
366.826	336.38
367.052	327.38
367.278	339.38
367.505	340.38
367.731	364.38
367.957	337.38
368.184	341.38
368.41	360.38
368.636	362.38
368.862	375.38
369.089	351.38
369.315	345.38
369.541	339.38
369.767	342.38
369.993	334.38
370.219	356.38
370.445	348.38
370.672	343.38
370.898	344.38
371.124	328.38
371.35	348.38
371.576	330.38
371.802	345.38
372.028	307.38
372.254	335.38
372.48	324.38
372.706	323.38
372.932	336.38
373.158	332.38
373.384	330.38
373.61	343.38
373.835	335.38
374.061	342.38
374.287	337.38
374.513	335.38
374.739	324.38
374.965	334.38
375.191	308.38
375.416	331.38
375.642	328.38
375.868	317.38
376.094	343.38
376.319	336.38
376.545	329.38
376.771	314.38
376.997	332.38
377.222	331.38
377.448	343.38
377.674	343.38
377.899	329.38
378.125	322.38
378.35	328.38
378.576	309.38
378.802	315.38
379.027	316.38
379.253	312.38
379.478	332.38
379.704	330.38
379.929	333.38
380.155	336.38
380.38	327.38
380.606	344.38
380.831	324.38
381.057	337.38
381.282	319.38
381.507	344.38
381.733	342.38
381.958	326.38
382.184	302.38
382.409	326.38
382.634	318.38
382.86	347.38
383.085	337.38
383.31	343.38
383.535	331.38
383.761	340.38
383.986	327.38
384.211	340.38
384.436	351.38
384.662	354.38
384.887	336.38
385.112	334.38
385.337	335.38
385.562	345.38
385.787	334.38
386.013	336.38
386.238	367.38
386.463	376.38
386.688	354.38
386.913	342.38
387.138	360.38
387.363	330.38
387.588	351.38
387.813	344.38
388.038	343.38
388.263	336.38
388.488	356.38
388.713	340.38
388.938	338.38
389.163	372.38
389.387	347.38
389.612	361.38
389.837	352.38
390.062	334.38
390.287	333.38
390.512	339.38
390.736	336.38
390.961	350.38
391.186	330.38
391.411	358.38
391.636	347.38
391.86	346.38
392.085	340.38
392.31	340.38
392.534	354.38
392.759	349.38
392.984	332.38
393.208	355.38
393.433	338.38
393.658	342.38
393.882	330.38
394.107	346.38
394.331	343.38
394.556	349.38
394.78	351.38
395.005	362.38
395.229	368.38
395.454	373.38
395.678	352.38
395.903	378.38
396.127	392.38
396.352	384.38
396.576	395.38
396.801	380.38
397.025	391.38
397.249	370.38
397.474	388.38
397.698	360.38
397.922	380.38
398.147	379.38
398.371	378.38
398.595	379.38
398.82	382.38
399.044	387.38
399.268	384.38
399.492	420.38
399.717	436.38
399.941	452.38
400.165	471.38
400.389	487.38
400.613	464.38
400.837	405.38
401.062	406.38
401.286	389.38
401.51	406.38
401.734	388.38
401.958	394.38
402.182	407.38
402.406	418.38
402.63	410.38
402.854	407.38
403.078	405.38
403.302	409.38
403.526	419.38
403.75	413.38
403.974	421.38
404.198	390.38
404.422	421.38
404.645	445.38
404.869	411.38
405.093	433.38
405.317	446.38
405.541	479.38
405.765	463.38
405.988	449.38
406.212	471.38
406.436	511.38
406.66	503.38
406.883	504.38
407.107	502.38
407.331	514.38
407.555	579.38
407.778	578.38
408.002	547.38
408.226	479.38
408.449	475.38
408.673	476.38
408.896	532.38
409.12	520.38
409.344	503.38
409.567	459.38
409.791	440.38
410.014	446.38
410.238	415.38
410.461	445.38
410.685	428.38
410.908	443.38
411.132	469.38
411.355	476.38
411.578	499.38
411.802	447.38
412.025	438.38
412.249	416.38
412.472	420.38
412.695	428.38
412.919	427.38
413.142	421.38
413.365	404.38
413.589	407.38
413.812	424.38
414.035	380.38
414.258	393.38
414.482	391.38
414.705	387.38
414.928	389.38
415.151	380.38
415.374	388.38
415.597	379.38
415.821	394.38
416.044	402.38
416.267	419.38
416.49	414.38
416.713	394.38
416.936	370.38
417.159	363.38
417.382	418.38
417.605	421.38
417.828	423.38
418.051	459.38
418.274	419.38
418.497	406.38
418.72	400.38
418.943	412.38
419.166	413.38
419.389	439.38
419.611	428.38
419.834	421.38
420.057	438.38
420.28	463.38
420.503	430.38
420.726	438.38
420.948	426.38
421.171	492.38
421.394	549.38
421.617	458.38
421.839	429.38
422.062	454.38
422.285	443.38
422.507	511.38
422.73	585.38
422.953	570.38
423.175	504.38
423.398	466.38
423.621	470.38
423.843	463.38
424.066	476.38
424.288	468.38
424.511	508.38
424.733	549.38
424.956	640.38
425.178	629.38
425.401	606.38
425.623	635.38
425.846	550.38
426.068	500.38
426.291	527.38
426.513	528.38
426.735	500.38
426.958	560.38
427.18	658.38
427.402	757.38
427.625	863.38
427.847	803.38
428.069	659.38
428.292	578.38
428.514	523.38
428.736	491.38
428.958	494.38
429.181	498.38
429.403	470.38
429.625	482.38
429.847	519.38
430.069	568.38
430.292	575.38
430.514	512.38
430.736	481.38
430.958	470.38
431.18	422.38
431.402	447.38
431.624	409.38
431.846	429.38
432.068	449.38
432.29	417.38
432.512	444.38
432.734	449.38
432.956	442.38
433.178	439.38
433.4	464.38
433.622	451.38
433.844	436.38
434.066	430.38
434.287	424.38
434.509	444.38
434.731	447.38
434.953	445.38
435.175	456.38
435.397	506.38
435.618	510.38
435.84	559.38
436.062	643.38
436.284	696.38
436.505	594.38
436.727	542.38
436.949	498.38
437.17	462.38
437.392	484.38
437.614	494.38
437.835	545.38
438.057	639.38
438.278	750.38
438.5	722.38
438.721	775.38
438.943	755.38
439.165	609.38
439.386	570.38
439.608	537.38
439.829	540.38
440.05	587.38
440.272	605.38
440.493	595.38
440.715	527.38
440.936	506.38
441.158	501.38
441.379	478.38
441.6	501.38
441.822	517.38
442.043	575.38
442.264	623.38
442.486	674.38
442.707	594.38
442.928	550.38
443.149	566.38
443.371	575.38
443.592	591.38
443.813	690.38
444.034	748.38
444.255	620.38
444.476	533.38
444.698	511.38
444.919	514.38
445.14	600.38
445.361	560.38
445.582	536.38
445.803	616.38
446.024	722.38
446.245	732.38
446.466	670.38
446.687	572.38
446.908	510.38
447.129	493.38
447.35	490.38
447.571	461.38
447.792	472.38
448.013	486.38
448.234	510.38
448.455	570.38
448.675	678.38
448.896	743.38
449.117	652.38
449.338	637.38
449.559	725.38
449.779	809.38
450	653.38
450.221	544.38
450.442	492.38
450.662	499.38
450.883	508.38
451.104	505.38
451.324	516.38
451.545	482.38
451.766	460.38
451.986	459.38
452.207	432.38
452.428	440.38
452.648	424.38
452.869	441.38
453.089	434.38
453.31	468.38
453.53	471.38
453.751	434.38
453.971	442.38
454.192	474.38
454.412	476.38
454.633	435.38
454.853	429.38
455.073	438.38
455.294	459.38
455.514	545.38
455.734	517.38
455.955	465.38
456.175	404.38
456.395	394.38
456.616	396.38
456.836	414.38
457.056	388.38
457.276	388.38
457.497	395.38
457.717	385.38
457.937	413.38
458.157	421.38
458.377	413.38
458.598	453.38
458.818	540.38
459.038	632.38
459.258	652.38
459.478	543.38
459.698	462.38
459.918	451.38
460.138	421.38
460.358	460.38
460.578	434.38
460.798	437.38
461.018	424.38
461.238	430.38
461.458	406.38
461.678	401.38
461.898	398.38
462.118	414.38
462.338	416.38
462.558	420.38
462.777	438.38
462.997	418.38
463.217	434.38
463.437	427.38
463.657	431.38
463.876	436.38
464.096	440.38
464.316	442.38
464.536	458.38
464.755	451.38
464.975	471.38
465.195	543.38
465.414	681.38
465.634	585.38
465.854	520.38
466.073	496.38
466.293	458.38
466.512	456.38
466.732	427.38
466.951	431.38
467.171	403.38
467.391	439.38
467.61	448.38
467.829	472.38
468.049	446.38
468.268	426.38
468.488	409.38
468.707	413.38
468.927	405.38
469.146	405.38
469.365	410.38
469.585	404.38
469.804	429.38
470.023	469.38
470.243	431.38
470.462	443.38
470.681	459.38
470.901	471.38
471.12	435.38
471.339	445.38
471.558	445.38
471.777	411.38
471.997	414.38
472.216	418.38
472.435	426.38
472.654	407.38
472.873	426.38
473.092	397.38
473.311	414.38
473.53	440.38
473.749	451.38
473.968	484.38
474.187	597.38
474.406	622.38
474.625	490.38
474.844	452.38
475.063	438.38
475.282	431.38
475.501	437.38
475.72	446.38
475.939	438.38
476.158	455.38
476.377	452.38
476.596	438.38
476.814	438.38
477.033	443.38
477.252	460.38
477.471	452.38
477.69	442.38
477.908	465.38
478.127	453.38
478.346	458.38
478.564	468.38
478.783	465.38
479.002	466.38
479.22	482.38
479.439	513.38
479.658	548.38
479.876	536.38
480.095	532.38
480.313	555.38
480.532	544.38
480.751	489.38
480.969	518.38
481.188	525.38
481.406	532.38
481.624	517.38
481.843	524.38
482.061	499.38
482.28	515.38
482.498	502.38
482.717	488.38
482.935	504.38
483.153	507.38
483.372	502.38
483.59	524.38
483.808	505.38
484.027	519.38
484.245	523.38
484.463	515.38
484.681	519.38
484.9	536.38
485.118	509.38
485.336	508.38
485.554	534.38
485.772	527.38
485.99	522.38
486.209	535.38
486.427	524.38
486.645	555.38
486.863	578.38
487.081	555.38
487.299	570.38
487.517	564.38
487.735	552.38
487.953	562.38
488.171	568.38
488.389	551.38
488.607	567.38
488.825	582.38
489.043	555.38
489.261	549.38
489.479	569.38
489.696	572.38
489.914	560.38
490.132	591.38
490.35	589.38
490.568	589.38
490.786	596.38
491.003	600.38
491.221	628.38
491.439	611.38
491.657	623.38
491.874	644.38
492.092	638.38
492.31	648.38
492.527	632.38
492.745	660.38
492.963	632.38
493.18	623.38
493.398	654.38
493.615	644.38
493.833	655.38
494.05	645.38
494.268	656.38
494.485	668.38
494.703	661.38
494.92	677.38
495.138	680.38
495.355	680.38
495.573	684.38
495.79	667.38
496.008	680.38
496.225	660.38
496.442	670.38
496.66	665.38
496.877	655.38
497.094	667.38
497.312	666.38
497.529	673.38
497.746	707.38
497.963	706.38
498.181	717.38
498.398	736.38
498.615	716.38
498.832	717.38
499.049	718.38
499.267	733.38
499.484	747.38
499.701	738.38
499.918	740.38
500.135	783.38
500.352	754.38
500.569	781.38
500.786	790.38
501.003	783.38
501.22	765.38
501.437	796.38
501.654	794.38
501.871	817.38
502.088	806.38
502.305	744.38
502.522	721.38
502.739	718.38
502.956	713.38
503.172	685.38
503.389	706.38
503.606	751.38
503.823	716.38
504.04	693.38
504.256	666.38
504.473	698.38
504.69	692.38
504.907	656.38
505.123	678.38
505.34	667.38
505.557	658.38
505.773	677.38
505.99	657.38
506.207	672.38
506.423	669.38
506.64	673.38
506.856	651.38
507.073	648.38
507.289	653.38
507.506	647.38
507.722	675.38
507.939	742.38
508.155	698.38
508.372	661.38
508.588	664.38
508.805	674.38
509.021	655.38
509.238	656.38
509.454	664.38
509.67	684.38
509.887	645.38
510.103	664.38
510.319	693.38
510.536	821.38
510.752	1529.38
510.968	1276.38
511.184	741.38
511.401	702.38
511.617	672.38
511.833	640.38
512.049	646.38
512.265	630.38
512.481	605.38
512.698	616.38
512.914	624.38
513.13	638.38
513.346	622.38
513.562	619.38
513.778	661.38
513.994	690.38
514.21	672.38
514.426	706.38
514.642	782.38
514.858	832.38
515.074	943.38
515.29	1170.38
515.506	1841.38
515.721	1446.38
515.937	866.38
516.153	768.38
516.369	713.38
516.585	686.38
516.801	664.38
517.016	654.38
517.232	648.38
517.448	637.38
517.664	643.38
517.879	638.38
518.095	645.38
518.311	606.38
518.527	628.38
518.742	651.38
518.958	628.38
519.173	634.38
519.389	642.38
519.605	671.38
519.82	648.38
520.036	686.38
520.251	728.38
520.467	764.38
520.682	742.38
520.898	808.38
521.113	818.38
521.329	922.38
521.544	1081.38
521.76	1483.38
521.975	2492.38
522.19	2434.38
522.406	1248.38
522.621	873.38
522.836	738.38
523.052	720.38
523.267	664.38
523.482	640.38
523.698	620.38
523.913	590.38
524.128	614.38
524.343	586.38
524.559	568.38
524.774	577.38
524.989	576.38
525.204	572.38
525.419	590.38
525.634	563.38
525.849	512.38
526.064	528.38
526.28	532.38
526.495	493.38
526.71	500.38
526.925	495.38
527.14	486.38
527.355	483.38
527.57	475.38
527.785	478.38
527.999	483.38
528.214	516.38
528.429	503.38
528.644	490.38
528.859	508.38
529.074	498.38
529.289	537.38
529.503	682.38
529.718	665.38
529.933	585.38
530.148	535.38
530.363	513.38
530.577	502.38
530.792	501.38
531.007	486.38
531.221	474.38
531.436	486.38
531.651	453.38
531.865	477.38
532.08	473.38
532.295	478.38
532.509	460.38
532.724	464.38
532.938	453.38
533.153	452.38
533.367	445.38
533.582	455.38
533.796	434.38
534.011	448.38
534.225	427.38
534.44	444.38
534.654	440.38
534.868	448.38
535.083	460.38
535.297	453.38
535.511	473.38
535.726	466.38
535.94	487.38
536.154	459.38
536.369	458.38
536.583	443.38
536.797	460.38
537.011	446.38
537.225	427.38
537.44	430.38
537.654	430.38
537.868	435.38
538.082	442.38
538.296	460.38
538.51	450.38
538.724	439.38
538.938	427.38
539.153	441.38
539.367	440.38
539.581	463.38
539.795	442.38
540.009	450.38
540.222	440.38
540.436	447.38
540.65	452.38
540.864	442.38
541.078	457.38
541.292	463.38
541.506	432.38
541.72	430.38
541.934	406.38
542.147	468.38
542.361	444.38
542.575	409.38
542.789	427.38
543.002	431.38
543.216	437.38
543.43	438.38
543.644	440.38
543.857	437.38
544.071	422.38
544.285	438.38
544.498	422.38
544.712	414.38
544.925	420.38
545.139	408.38
545.352	397.38
545.566	406.38
545.779	424.38
545.993	418.38
546.206	390.38
546.42	414.38
546.633	400.38
546.847	406.38
547.06	414.38
547.274	406.38
547.487	405.38
547.7	398.38
547.914	374.38
548.127	403.38
548.34	412.38
548.554	386.38
548.767	398.38
548.98	414.38
549.193	400.38
549.407	413.38
549.62	408.38
549.833	388.38
550.046	394.38
550.259	380.38
550.473	366.38
550.686	414.38
550.899	383.38
551.112	394.38
551.325	376.38
551.538	365.38
551.751	380.38
551.964	391.38
552.177	387.38
552.39	383.38
552.603	389.38
552.816	375.38
553.029	367.38
553.242	390.38
553.455	391.38
553.667	412.38
553.88	427.38
554.093	424.38
554.306	388.38
554.519	404.38
554.732	384.38
554.944	380.38
555.157	387.38
555.37	384.38
555.583	394.38
555.795	392.38
556.008	366.38
556.221	378.38
556.433	387.38
556.646	367.38
556.859	364.38
557.071	372.38
557.284	361.38
557.496	375.38
557.709	368.38
557.921	340.38
558.134	355.38
558.346	367.38
558.559	350.38
558.771	362.38
558.984	345.38
559.196	353.38
559.409	362.38
559.621	350.38
559.833	334.38
560.046	361.38
560.258	372.38
560.47	344.38
560.683	364.38
560.895	346.38
561.107	348.38
561.32	344.38
561.532	354.38
561.744	357.38
561.956	360.38
562.168	343.38
562.381	367.38
562.593	356.38
562.805	340.38
563.017	350.38
563.229	359.38
563.441	384.38
563.653	362.38
563.865	338.38
564.077	363.38
564.289	372.38
564.501	347.38
564.713	361.38
564.925	355.38
565.137	373.38
565.349	366.38
565.561	383.38
565.773	386.38
565.985	372.38
566.197	358.38
566.408	386.38
566.62	374.38
566.832	396.38
567.044	376.38
567.255	408.38
567.467	383.38
567.679	379.38
567.891	406.38
568.102	380.38
568.314	379.38
568.526	376.38
568.737	363.38
568.949	352.38
569.161	355.38
569.372	354.38
569.584	350.38
569.795	346.38
570.007	352.38
570.218	435.38
570.43	410.38
570.641	366.38
570.853	329.38
571.064	332.38
571.276	330.38
571.487	333.38
571.698	344.38
571.91	320.38
572.121	343.38
572.333	318.38
572.544	316.38
572.755	320.38
572.966	314.38
573.178	320.38
573.389	311.38
573.6	326.38
573.811	319.38
574.023	326.38
574.234	322.38
574.445	311.38
574.656	306.38
574.867	324.38
575.078	315.38
575.289	308.38
575.501	310.38
575.712	308.38
575.923	297.38
576.134	285.38
576.345	297.38
576.556	289.38
576.767	290.38
576.978	302.38
577.188	299.38
577.399	279.38
577.61	301.38
577.821	298.38
578.032	313.38
578.243	347.38
578.454	712.38
578.665	506.38
578.875	324.38
579.086	304.38
579.297	310.38
579.508	292.38
579.718	306.38
579.929	299.38
580.14	284.38
580.35	282.38
580.561	296.38
580.772	294.38
580.982	290.38
581.193	269.38
581.403	275.38
581.614	290.38
581.825	280.38
582.035	272.38
582.246	280.38
582.456	277.38
582.667	295.38
582.877	279.38
583.087	276.38
583.298	301.38
583.508	286.38
583.719	271.38
583.929	279.38
584.139	294.38
584.35	284.38
584.56	301.38
584.77	296.38
584.981	286.38
585.191	271.38
585.401	267.38
585.611	281.38
585.821	270.38
586.032	274.38
586.242	269.38
586.452	280.38
586.662	268.38
586.872	264.38
587.082	259.38
587.292	259.38
587.502	257.38
587.713	286.38
587.923	272.38
588.133	277.38
588.343	253.38
588.553	264.38
588.762	273.38
588.972	266.38
589.182	289.38
589.392	308.38
589.602	265.38
589.812	288.38
590.022	270.38
590.232	281.38
590.441	273.38
590.651	272.38
590.861	248.38
591.071	245.38
591.281	265.38
591.49	264.38
591.7	246.38
591.91	277.38
592.119	257.38
592.329	260.38
592.539	282.38
592.748	273.38
592.958	270.38
593.167	259.38
593.377	261.38
593.587	272.38
593.796	279.38
594.006	260.38
594.215	274.38
594.424	260.38
594.634	259.38
594.843	261.38
595.053	259.38
595.262	275.38
595.472	265.38
595.681	266.38
595.89	255.38
596.1	248.38
596.309	244.38
596.518	245.38
596.727	262.38
596.937	253.38
597.146	252.38
597.355	248.38
597.564	261.38
597.774	243.38
597.983	248.38
598.192	248.38
598.401	237.38
598.61	244.38
598.819	236.38
599.028	235.38
599.237	248.38
599.446	236.38
599.655	243.38
599.864	228.38
600.073	239.38
600.282	224.38
600.491	238.38
600.7	245.38
600.909	236.38
601.118	236.38
601.327	231.38
601.536	222.38
601.745	224.38
601.953	244.38
602.162	226.38
602.371	223.38
602.58	229.38
602.789	233.38
602.997	231.38
603.206	231.38
603.415	258.38
603.623	229.38
603.832	215.38
604.041	208.38
604.249	228.38
604.458	230.38
604.666	217.38
604.875	240.38
605.084	232.38
605.292	207.38
605.501	217.38
605.709	224.38
605.918	211.38
606.126	228.38
606.334	214.38
606.543	221.38
606.751	222.38
606.96	228.38
607.168	244.38
607.376	217.38
607.585	211.38
607.793	213.38
608.001	216.38
608.21	222.38
608.418	222.38
608.626	237.38
608.834	227.38
609.043	229.38
609.251	239.38
609.459	233.38
609.667	231.38
609.875	217.38
610.083	214.38
610.291	225.38
610.499	200.38
610.707	222.38
610.916	220.38
611.124	224.38
611.332	211.38
611.54	228.38
611.748	228.38
611.955	224.38
612.163	223.38
612.371	219.38
612.579	211.38
612.787	222.38
612.995	219.38
613.203	217.38
613.411	210.38
613.618	201.38
613.826	240.38
614.034	204.38
614.242	210.38
614.449	216.38
614.657	213.38
614.865	218.38
615.072	216.38
615.28	205.38
615.488	204.38
615.695	208.38
615.903	218.38
616.111	214.38
616.318	237.38
616.526	210.38
616.733	218.38
616.941	224.38
617.148	223.38
617.356	227.38
617.563	221.38
617.771	227.38
617.978	194.38
618.185	206.38
618.393	210.38
618.6	215.38
618.807	223.38
619.015	201.38
619.222	210.38
619.429	214.38
619.637	200.38
619.844	210.38
620.051	214.38
620.258	204.38
620.466	184.38
620.673	211.38
620.88	205.38
621.087	192.38
621.294	211.38
621.501	200.38
621.708	212.38
621.915	199.38
622.122	216.38
622.329	205.38
622.536	218.38
622.743	216.38
622.95	208.38
623.157	221.38
623.364	197.38
623.571	203.38
623.778	206.38
623.985	200.38
624.192	196.38
624.399	207.38
624.606	222.38
624.812	197.38
625.019	184.38
625.226	203.38
625.433	189.38
625.639	191.38
625.846	202.38
626.053	194.38
626.259	208.38
626.466	190.38
626.673	180.38
626.879	192.38
627.086	202.38
627.293	198.38
627.499	203.38
627.706	195.38
627.912	198.38
628.119	200.38
628.325	199.38
628.532	211.38
628.738	188.38
628.945	185.38
629.151	194.38
629.357	183.38
629.564	179.38
629.77	191.38
629.976	180.38
630.183	192.38
630.389	170.38
630.595	171.38
630.802	177.38
631.008	171.38
631.214	192.38
631.42	178.38
631.627	182.38
631.833	178.38
632.039	175.38
632.245	168.38
632.451	179.38
632.657	185.38
632.863	182.38
633.069	176.38
633.275	169.38
633.481	172.38
633.688	172.38
633.893	191.38
634.099	186.38
634.305	174.38
634.511	180.38
634.717	175.38
634.923	172.38
635.129	170.38
635.335	182.38
635.541	178.38
635.747	170.38
635.952	162.38
636.158	182.38
636.364	177.38
636.57	178.38
636.775	166.38
636.981	157.38
637.187	163.38
637.392	162.38
637.598	169.38
637.804	171.38
638.009	168.38
638.215	179.38
638.421	157.38
638.626	167.38
638.832	160.38
639.037	166.38
639.243	163.38
639.448	162.38
639.654	168.38
639.859	164.38
640.065	170.38
640.27	162.38
640.475	166.38
640.681	182.38
640.886	155.38
641.091	162.38
641.297	171.38
641.502	170.38
641.707	172.38
641.913	162.38
642.118	158.38
642.323	167.38
642.528	156.38
642.733	150.38
642.939	156.38
643.144	170.38
643.349	156.38
643.554	150.38
643.759	150.38
643.964	147.38
644.169	164.38
644.374	161.38
644.579	147.38
644.784	149.38
644.989	169.38
645.194	145.38
645.399	160.38
645.604	155.38
645.809	159.38
646.014	149.38
646.219	151.38
646.423	155.38
646.628	164.38
646.833	153.38
647.038	155.38
647.243	160.38
647.447	156.38
647.652	175.38
647.857	158.38
648.062	139.38
648.266	158.38
648.471	160.38
648.676	173.38
648.88	151.38
649.085	156.38
649.289	166.38
649.494	171.38
649.698	166.38
649.903	170.38
650.107	174.38
650.312	164.38
650.516	141.38
650.721	161.38
650.925	145.38
651.13	148.38
651.334	132.38
651.539	131.38
651.743	148.38
651.947	132.38
652.152	136.38
652.356	137.38
652.56	133.38
652.764	128.38
652.969	127.38
653.173	124.38
653.377	134.38
653.581	139.38
653.785	152.38
653.99	128.38
654.194	122.38
654.398	139.38
654.602	141.38
654.806	129.38
655.01	141.38
655.214	129.38
655.418	143.38
655.622	127.38
655.826	135.38
656.03	124.38
656.234	131.38
656.438	126.38
656.642	124.38
656.846	126.38
657.049	119.38
657.253	119.38
657.457	129.38
657.661	103.38
657.865	104.38
658.068	120.38
658.272	106.38
658.476	107.38
658.68	107.38
658.883	101.38
659.087	89.38
659.291	102.38
659.494	104.38
659.698	98.38
659.901	92.38
660.105	93.38
660.309	109.38
660.512	112.38
660.716	86.38
660.919	83.38
661.123	94.38
661.326	88.38
661.53	110.38
661.733	80.38
661.936	99.38
662.14	96.38
662.343	76.38
662.546	92.38
662.75	84.38
662.953	83.38
663.156	80.38
663.36	80.38
663.563	97.38
663.766	87.38
663.969	74.38
664.173	90.38
664.376	110.38
664.579	79.38
664.782	82.38
664.985	77.38
665.188	92.38
665.391	91.38
665.594	87.38
665.797	86.38
666	86.38
666.203	81.38
666.406	94.38
666.609	77.38
666.812	93.38
667.015	81.38
667.218	80.38
667.421	91.38
667.624	95.38
667.827	95.38
668.03	80.38
668.232	70.38
668.435	85.38
668.638	79.38
668.841	87.38
669.043	91.38
669.246	90.38
669.449	83.38
669.651	75.38
669.854	84.38
670.057	94.38
670.259	80.38
670.462	73.38
670.665	99.38
670.867	78.38
671.07	84.38
671.272	84.38
671.475	80.38
671.677	84.38
671.88	88.38
672.082	86.38
672.284	78.38
672.487	95.38
672.689	85.38
672.892	71.38
