Data from 1987.PennyLincolnUp.Lamp.En5.5.200Scan.071819.P2_HRD10591_17-16-39-971.txt Node
Date: Thu Jul 18 17:16:39 EDT 2019
User: cochatt
Spectrometer: HR+D1059
Trigger mode: 1
Integration Time (sec): 1.000000E-1
Scans to average: 1
Electric dark correction enabled: true
Nonlinearity correction enabled: false
Boxcar width: 0
XAxis mode: Wavelengths
Number of Pixels in Spectrum: 2048
>>>>>Begin Spectral Data<<<<<
223.165	-13.94
223.4	-13.94
223.635	-13.94
223.869	-14.94
224.104	-24.94
224.338	-23.94
224.573	-21.94
224.808	-0.94
225.042	-6.94
225.277	-4.94
225.511	-1.94
225.746	14.06
225.98	8.06
226.215	19.06
226.449	13.06
226.683	19.06
226.918	15.06
227.152	26.06
227.387	22.06
227.621	42.06
227.856	50.06
228.09	28.06
228.324	34.06
228.559	41.06
228.793	62.06
229.027	117.06
229.262	123.06
229.496	139.06
229.73	155.06
229.964	176.06
230.199	146.06
230.433	120.06
230.667	133.06
230.901	129.06
231.136	123.06
231.37	119.06
231.604	99.06
231.838	117.06
232.072	96.06
232.306	116.06
232.541	108.06
232.775	112.06
233.009	115.06
233.243	111.06
233.477	115.06
233.711	101.06
233.945	111.06
234.179	115.06
234.413	112.06
234.647	127.06
234.881	113.06
235.115	116.06
235.349	101.06
235.583	117.06
235.817	119.06
236.051	127.06
236.285	117.06
236.519	129.06
236.753	146.06
236.987	161.06
237.221	218.06
237.455	263.06
237.689	199.06
237.922	154.06
238.156	138.06
238.39	136.06
238.624	122.06
238.858	116.06
239.091	124.06
239.325	121.06
239.559	130.06
239.793	131.06
240.027	128.06
240.26	153.06
240.494	189.06
240.728	157.06
240.961	148.06
241.195	146.06
241.429	143.06
241.662	136.06
241.896	129.06
242.13	107.06
242.363	120.06
242.597	135.06
242.83	140.06
243.064	148.06
243.298	150.06
243.531	136.06
243.765	126.06
243.998	134.06
244.232	129.06
244.465	139.06
244.699	140.06
244.932	137.06
245.166	142.06
245.399	128.06
245.633	131.06
245.866	126.06
246.099	147.06
246.333	140.06
246.566	151.06
246.8	150.06
247.033	152.06
247.266	139.06
247.5	153.06
247.733	164.06
247.966	161.06
248.2	167.06
248.433	150.06
248.666	175.06
248.899	201.06
249.133	208.06
249.366	235.06
249.599	200.06
249.832	199.06
250.066	193.06
250.299	161.06
250.532	183.06
250.765	194.06
250.998	223.06
251.231	219.06
251.465	223.06
251.698	209.06
251.931	209.06
252.164	187.06
252.397	205.06
252.63	200.06
252.863	199.06
253.096	215.06
253.329	233.06
253.562	224.06
253.795	241.06
254.028	232.06
254.261	234.06
254.494	235.06
254.727	266.06
254.96	304.06
255.193	291.06
255.426	261.06
255.659	237.06
255.892	228.06
256.124	221.06
256.357	216.06
256.59	213.06
256.823	200.06
257.056	199.06
257.289	202.06
257.521	213.06
257.754	206.06
257.987	198.06
258.22	200.06
258.452	199.06
258.685	198.06
258.918	193.06
259.151	191.06
259.383	221.06
259.616	216.06
259.849	215.06
260.081	231.06
260.314	228.06
260.547	255.06
260.779	241.06
261.012	241.06
261.244	220.06
261.477	213.06
261.71	222.06
261.942	247.06
262.175	244.06
262.407	236.06
262.64	220.06
262.872	207.06
263.105	204.06
263.337	205.06
263.57	196.06
263.802	190.06
264.035	210.06
264.267	188.06
264.499	190.06
264.732	203.06
264.964	195.06
265.197	188.06
265.429	199.06
265.661	189.06
265.894	215.06
266.126	213.06
266.358	188.06
266.591	194.06
266.823	197.06
267.055	214.06
267.287	219.06
267.52	197.06
267.752	218.06
267.984	211.06
268.216	204.06
268.448	223.06
268.681	214.06
268.913	220.06
269.145	229.06
269.377	278.06
269.609	273.06
269.841	261.06
270.073	255.06
270.306	300.06
270.538	305.06
270.77	319.06
271.002	306.06
271.234	300.06
271.466	292.06
271.698	306.06
271.93	328.06
272.162	308.06
272.394	311.06
272.626	301.06
272.858	285.06
273.09	266.06
273.322	251.06
273.553	256.06
273.785	252.06
274.017	263.06
274.249	246.06
274.481	246.06
274.713	239.06
274.945	270.06
275.176	251.06
275.408	257.06
275.64	246.06
275.872	242.06
276.104	247.06
276.335	239.06
276.567	250.06
276.799	280.06
277.031	302.06
277.262	315.06
277.494	291.06
277.726	297.06
277.957	247.06
278.189	267.06
278.421	244.06
278.652	259.06
278.884	243.06
279.115	227.06
279.347	217.06
279.579	219.06
279.81	233.06
280.042	229.06
280.273	235.06
280.505	231.06
280.736	233.06
280.968	232.06
281.199	230.06
281.431	221.06
281.662	218.06
281.894	239.06
282.125	230.06
282.356	237.06
282.588	281.06
282.819	305.06
283.051	267.06
283.282	246.06
283.513	238.06
283.745	244.06
283.976	235.06
284.207	255.06
284.439	233.06
284.67	229.06
284.901	233.06
285.132	233.06
285.364	246.06
285.595	231.06
285.826	237.06
286.057	214.06
286.288	227.06
286.52	224.06
286.751	226.06
286.982	249.06
287.213	220.06
287.444	232.06
287.675	242.06
287.906	252.06
288.138	259.06
288.369	262.06
288.6	276.06
288.831	263.06
289.062	250.06
289.293	233.06
289.524	258.06
289.755	223.06
289.986	235.06
290.217	223.06
290.448	250.06
290.679	239.06
290.91	229.06
291.141	247.06
291.371	250.06
291.602	241.06
291.833	231.06
292.064	241.06
292.295	234.06
292.526	243.06
292.757	243.06
292.987	231.06
293.218	241.06
293.449	257.06
293.68	255.06
293.91	240.06
294.141	225.06
294.372	232.06
294.603	240.06
294.833	247.06
295.064	241.06
295.295	254.06
295.525	242.06
295.756	261.06
295.987	256.06
296.217	296.06
296.448	315.06
296.679	273.06
296.909	247.06
297.14	251.06
297.37	266.06
297.601	239.06
297.831	233.06
298.062	237.06
298.292	265.06
298.523	255.06
298.753	261.06
298.984	267.06
299.214	243.06
299.445	264.06
299.675	244.06
299.905	254.06
300.136	277.06
300.366	235.06
300.597	249.06
300.827	260.06
301.057	275.06
301.288	298.06
301.518	292.06
301.748	282.06
301.979	280.06
302.209	267.06
302.439	279.06
302.669	281.06
302.9	258.06
303.13	277.06
303.36	274.06
303.59	268.06
303.82	289.06
304.051	288.06
304.281	275.06
304.511	259.06
304.741	265.06
304.971	269.06
305.201	276.06
305.431	266.06
305.661	276.06
305.891	280.06
306.121	269.06
306.352	285.06
306.582	295.06
306.812	277.06
307.042	287.06
307.272	262.06
307.502	267.06
307.731	299.06
307.961	272.06
308.191	268.06
308.421	275.06
308.651	295.06
308.881	298.06
309.111	323.06
309.341	301.06
309.571	323.06
309.8	327.06
310.03	328.06
310.26	345.06
310.49	353.06
310.72	368.06
310.949	373.06
311.179	392.06
311.409	381.06
311.639	341.06
311.868	356.06
312.098	346.06
312.328	367.06
312.557	392.06
312.787	410.06
313.017	417.06
313.246	382.06
313.476	345.06
313.706	340.06
313.935	352.06
314.165	368.06
314.394	388.06
314.624	386.06
314.853	355.06
315.083	347.06
315.312	343.06
315.542	339.06
315.771	330.06
316.001	316.06
316.23	331.06
316.46	336.06
316.689	331.06
316.919	337.06
317.148	364.06
317.377	350.06
317.607	368.06
317.836	353.06
318.065	349.06
318.295	339.06
318.524	332.06
318.753	337.06
318.983	324.06
319.212	334.06
319.441	357.06
319.67	368.06
319.9	355.06
320.129	348.06
320.358	347.06
320.587	346.06
320.816	371.06
321.046	387.06
321.275	392.06
321.504	375.06
321.733	377.06
321.962	405.06
322.191	423.06
322.42	435.06
322.649	454.06
322.878	472.06
323.108	479.06
323.337	522.06
323.566	562.06
323.795	595.06
324.024	712.06
324.253	894.06
324.482	1301.06
324.71	2026.06
324.939	2830.06
325.168	2445.06
325.397	1340.06
325.626	867.06
325.855	667.06
326.084	597.06
326.313	548.06
326.542	587.06
326.77	595.06
326.999	785.06
327.228	1108.06
327.457	1734.06
327.686	2163.06
327.914	1477.06
328.143	947.06
328.372	766.06
328.6	687.06
328.829	672.06
329.058	709.06
329.287	698.06
329.515	615.06
329.744	547.06
329.972	521.06
330.201	534.06
330.43	584.06
330.658	641.06
330.887	718.06
331.115	675.06
331.344	564.06
331.572	493.06
331.801	513.06
332.03	492.06
332.258	471.06
332.486	435.06
332.715	407.06
332.943	402.06
333.172	386.06
333.4	396.06
333.629	400.06
333.857	435.06
334.085	415.06
334.314	404.06
334.542	390.06
334.771	415.06
334.999	405.06
335.227	415.06
335.455	393.06
335.684	394.06
335.912	377.06
336.14	379.06
336.369	393.06
336.597	381.06
336.825	420.06
337.053	405.06
337.281	379.06
337.51	376.06
337.738	395.06
337.966	394.06
338.194	401.06
338.422	393.06
338.65	368.06
338.878	387.06
339.106	403.06
339.334	382.06
339.562	374.06
339.79	371.06
340.018	383.06
340.246	391.06
340.474	381.06
340.702	393.06
340.93	360.06
341.158	393.06
341.386	377.06
341.614	404.06
341.842	385.06
342.07	383.06
342.298	386.06
342.526	365.06
342.754	359.06
342.981	364.06
343.209	367.06
343.437	353.06
343.665	340.06
343.893	367.06
344.12	372.06
344.348	366.06
344.576	369.06
344.804	395.06
345.031	396.06
345.259	426.06
345.487	396.06
345.714	392.06
345.942	396.06
346.17	382.06
346.397	362.06
346.625	357.06
346.853	384.06
347.08	363.06
347.308	374.06
347.535	387.06
347.763	416.06
347.99	396.06
348.218	401.06
348.445	420.06
348.673	392.06
348.9	378.06
349.128	385.06
349.355	359.06
349.583	371.06
349.81	374.06
350.037	360.06
350.265	349.06
350.492	350.06
350.72	374.06
350.947	362.06
351.174	381.06
351.402	405.06
351.629	401.06
351.856	396.06
352.083	427.06
352.311	426.06
352.538	437.06
352.765	425.06
352.992	417.06
353.22	392.06
353.447	381.06
353.674	396.06
353.901	353.06
354.128	347.06
354.355	349.06
354.583	349.06
354.81	325.06
355.037	345.06
355.264	338.06
355.491	321.06
355.718	313.06
355.945	338.06
356.172	319.06
356.399	320.06
356.626	333.06
356.853	339.06
357.08	333.06
357.307	328.06
357.534	337.06
357.761	336.06
357.988	360.06
358.215	332.06
358.441	332.06
358.668	326.06
358.895	328.06
359.122	353.06
359.349	367.06
359.576	375.06
359.802	415.06
360.029	485.06
360.256	499.06
360.483	472.06
360.709	411.06
360.936	392.06
361.163	377.06
361.39	403.06
361.616	415.06
361.843	395.06
362.07	393.06
362.296	386.06
362.523	393.06
362.749	391.06
362.976	374.06
363.203	377.06
363.429	387.06
363.656	362.06
363.882	357.06
364.109	379.06
364.335	357.06
364.562	371.06
364.788	369.06
365.015	359.06
365.241	359.06
365.468	369.06
365.694	379.06
365.92	351.06
366.147	367.06
366.373	360.06
366.599	350.06
366.826	349.06
367.052	340.06
367.278	333.06
367.505	348.06
367.731	353.06
367.957	352.06
368.184	356.06
368.41	353.06
368.636	350.06
368.862	362.06
369.089	358.06
369.315	328.06
369.541	359.06
369.767	348.06
369.993	353.06
370.219	341.06
370.445	353.06
370.672	339.06
370.898	323.06
371.124	340.06
371.35	309.06
371.576	336.06
371.802	341.06
372.028	339.06
372.254	338.06
372.48	335.06
372.706	332.06
372.932	339.06
373.158	334.06
373.384	328.06
373.61	329.06
373.835	345.06
374.061	349.06
374.287	331.06
374.513	345.06
374.739	331.06
374.965	324.06
375.191	332.06
375.416	338.06
375.642	332.06
375.868	338.06
376.094	340.06
376.319	313.06
376.545	336.06
376.771	343.06
376.997	333.06
377.222	336.06
377.448	342.06
377.674	322.06
377.899	333.06
378.125	313.06
378.35	319.06
378.576	307.06
378.802	320.06
379.027	316.06
379.253	325.06
379.478	323.06
379.704	332.06
379.929	317.06
380.155	349.06
380.38	362.06
380.606	325.06
380.831	334.06
381.057	334.06
381.282	331.06
381.507	316.06
381.733	333.06
381.958	347.06
382.184	337.06
382.409	349.06
382.634	344.06
382.86	320.06
383.085	347.06
383.31	341.06
383.535	326.06
383.761	327.06
383.986	324.06
384.211	339.06
384.436	326.06
384.662	362.06
384.887	352.06
385.112	342.06
385.337	344.06
385.562	353.06
385.787	337.06
386.013	389.06
386.238	349.06
386.463	372.06
386.688	358.06
386.913	342.06
387.138	336.06
387.363	348.06
387.588	340.06
387.813	354.06
388.038	342.06
388.263	322.06
388.488	327.06
388.713	346.06
388.938	339.06
389.163	376.06
389.387	359.06
389.612	367.06
389.837	345.06
390.062	346.06
390.287	359.06
390.512	351.06
390.736	353.06
390.961	363.06
391.186	354.06
391.411	357.06
391.636	357.06
391.86	356.06
392.085	355.06
392.31	359.06
392.534	360.06
392.759	333.06
392.984	324.06
393.208	349.06
393.433	347.06
393.658	337.06
393.882	358.06
394.107	359.06
394.331	355.06
394.556	342.06
394.78	336.06
395.005	351.06
395.229	359.06
395.454	355.06
395.678	345.06
395.903	364.06
396.127	389.06
396.352	392.06
396.576	381.06
396.801	369.06
397.025	365.06
397.249	365.06
397.474	374.06
397.698	383.06
397.922	401.06
398.147	391.06
398.371	403.06
398.595	396.06
398.82	391.06
399.044	384.06
399.268	396.06
399.492	415.06
399.717	427.06
399.941	452.06
400.165	488.06
400.389	500.06
400.613	451.06
400.837	433.06
401.062	429.06
401.286	418.06
401.51	426.06
401.734	410.06
401.958	384.06
402.182	407.06
402.406	419.06
402.63	445.06
402.854	427.06
403.078	412.06
403.302	423.06
403.526	433.06
403.75	430.06
403.974	440.06
404.198	423.06
404.422	429.06
404.645	435.06
404.869	427.06
405.093	445.06
405.317	490.06
405.541	496.06
405.765	459.06
405.988	448.06
406.212	472.06
406.436	494.06
406.66	525.06
406.883	477.06
407.107	482.06
407.331	534.06
407.555	616.06
407.778	588.06
408.002	531.06
408.226	497.06
408.449	497.06
408.673	485.06
408.896	514.06
409.12	553.06
409.344	520.06
409.567	465.06
409.791	459.06
410.014	443.06
410.238	416.06
410.461	436.06
410.685	442.06
410.908	436.06
411.132	489.06
411.355	517.06
411.578	495.06
411.802	455.06
412.025	441.06
412.249	435.06
412.472	431.06
412.695	462.06
412.919	466.06
413.142	415.06
413.365	418.06
413.589	396.06
413.812	415.06
414.035	385.06
414.258	394.06
414.482	397.06
414.705	389.06
414.928	388.06
415.151	388.06
415.374	394.06
415.597	400.06
415.821	393.06
416.044	401.06
416.267	431.06
416.49	404.06
416.713	416.06
416.936	414.06
417.159	409.06
417.382	416.06
417.605	408.06
417.828	426.06
418.051	474.06
418.274	434.06
418.497	413.06
418.72	409.06
418.943	404.06
419.166	425.06
419.389	447.06
419.611	442.06
419.834	427.06
420.057	437.06
420.28	460.06
420.503	424.06
420.726	450.06
420.948	473.06
421.171	488.06
421.394	560.06
421.617	470.06
421.839	453.06
422.062	446.06
422.285	468.06
422.507	516.06
422.73	603.06
422.953	598.06
423.175	517.06
423.398	488.06
423.621	474.06
423.843	464.06
424.066	500.06
424.288	478.06
424.511	507.06
424.733	576.06
424.956	679.06
425.178	647.06
425.401	658.06
425.623	659.06
425.846	569.06
426.068	498.06
426.291	529.06
426.513	529.06
426.735	521.06
426.958	562.06
427.18	672.06
427.402	761.06
427.625	852.06
427.847	817.06
428.069	687.06
428.292	599.06
428.514	551.06
428.736	525.06
428.958	509.06
429.181	500.06
429.403	462.06
429.625	483.06
429.847	534.06
430.069	612.06
430.292	603.06
430.514	513.06
430.736	479.06
430.958	476.06
431.18	463.06
431.402	445.06
431.624	449.06
431.846	434.06
432.068	432.06
432.29	450.06
432.512	435.06
432.734	451.06
432.956	440.06
433.178	433.06
433.4	456.06
433.622	436.06
433.844	460.06
434.066	435.06
434.287	432.06
434.509	426.06
434.731	457.06
434.953	440.06
435.175	476.06
435.397	503.06
435.618	526.06
435.84	572.06
436.062	654.06
436.284	735.06
436.505	619.06
436.727	551.06
436.949	512.06
437.17	460.06
437.392	496.06
437.614	492.06
437.835	564.06
438.057	678.06
438.278	772.06
438.5	757.06
438.721	826.06
438.943	771.06
439.165	617.06
439.386	585.06
439.608	572.06
439.829	554.06
440.05	609.06
440.272	652.06
440.493	614.06
440.715	539.06
440.936	508.06
441.158	500.06
441.379	486.06
441.6	504.06
441.822	535.06
442.043	589.06
442.264	652.06
442.486	712.06
442.707	593.06
442.928	541.06
443.149	554.06
443.371	591.06
443.592	635.06
443.813	705.06
444.034	759.06
444.255	631.06
444.476	568.06
444.698	539.06
444.919	520.06
445.14	613.06
445.361	572.06
445.582	575.06
445.803	659.06
446.024	748.06
446.245	771.06
446.466	705.06
446.687	615.06
446.908	580.06
447.129	510.06
447.35	498.06
447.571	497.06
447.792	478.06
448.013	486.06
448.234	536.06
448.455	595.06
448.675	687.06
448.896	799.06
449.117	688.06
449.338	643.06
449.559	743.06
449.779	819.06
450	712.06
450.221	580.06
450.442	554.06
450.662	501.06
450.883	514.06
451.104	551.06
451.324	539.06
451.545	511.06
451.766	496.06
451.986	463.06
452.207	433.06
452.428	443.06
452.648	427.06
452.869	442.06
453.089	443.06
453.31	462.06
453.53	469.06
453.751	449.06
453.971	455.06
454.192	493.06
454.412	484.06
454.633	460.06
454.853	443.06
455.073	460.06
455.294	456.06
455.514	585.06
455.734	539.06
455.955	463.06
456.175	438.06
456.395	402.06
456.616	386.06
456.836	418.06
457.056	407.06
457.276	376.06
457.497	402.06
457.717	421.06
457.937	414.06
458.157	415.06
458.377	429.06
458.598	459.06
458.818	557.06
459.038	699.06
459.258	643.06
459.478	544.06
459.698	485.06
459.918	458.06
460.138	444.06
460.358	427.06
460.578	427.06
460.798	417.06
461.018	423.06
461.238	415.06
461.458	410.06
461.678	411.06
461.898	408.06
462.118	423.06
462.338	441.06
462.558	416.06
462.777	403.06
462.997	421.06
463.217	421.06
463.437	447.06
463.657	431.06
463.876	445.06
464.096	460.06
464.316	424.06
464.536	448.06
464.755	461.06
464.975	484.06
465.195	559.06
465.414	705.06
465.634	621.06
465.854	532.06
466.073	470.06
466.293	469.06
466.512	439.06
466.732	420.06
466.951	427.06
467.171	435.06
467.391	445.06
467.61	472.06
467.829	496.06
468.049	453.06
468.268	446.06
468.488	432.06
468.707	396.06
468.927	411.06
469.146	384.06
469.365	428.06
469.585	392.06
469.804	404.06
470.023	432.06
470.243	457.06
470.462	450.06
470.681	472.06
470.901	484.06
471.12	440.06
471.339	434.06
471.558	440.06
471.777	447.06
471.997	443.06
472.216	426.06
472.435	423.06
472.654	444.06
472.873	435.06
473.092	423.06
473.311	428.06
473.53	428.06
473.749	465.06
473.968	513.06
474.187	608.06
474.406	637.06
474.625	497.06
474.844	453.06
475.063	469.06
475.282	444.06
475.501	433.06
475.72	455.06
475.939	457.06
476.158	451.06
476.377	471.06
476.596	458.06
476.814	464.06
477.033	478.06
477.252	490.06
477.471	469.06
477.69	445.06
477.908	464.06
478.127	460.06
478.346	485.06
478.564	472.06
478.783	479.06
479.002	473.06
479.22	484.06
479.439	498.06
479.658	562.06
479.876	541.06
480.095	549.06
480.313	563.06
480.532	534.06
480.751	532.06
480.969	553.06
481.188	565.06
481.406	555.06
481.624	521.06
481.843	513.06
482.061	514.06
482.28	501.06
482.498	514.06
482.717	539.06
482.935	514.06
483.153	485.06
483.372	502.06
483.59	517.06
483.808	511.06
484.027	505.06
484.245	542.06
484.463	532.06
484.681	543.06
484.9	545.06
485.118	532.06
485.336	533.06
485.554	542.06
485.772	549.06
485.99	552.06
486.209	545.06
486.427	545.06
486.645	556.06
486.863	557.06
487.081	581.06
487.299	583.06
487.517	578.06
487.735	571.06
487.953	556.06
488.171	570.06
488.389	579.06
488.607	565.06
488.825	565.06
489.043	553.06
489.261	593.06
489.479	584.06
489.696	585.06
489.914	596.06
490.132	588.06
490.35	609.06
490.568	585.06
490.786	608.06
491.003	608.06
491.221	656.06
491.439	636.06
491.657	612.06
491.874	647.06
492.092	634.06
492.31	637.06
492.527	665.06
492.745	684.06
492.963	687.06
493.18	665.06
493.398	673.06
493.615	676.06
493.833	672.06
494.05	673.06
494.268	683.06
494.485	657.06
494.703	682.06
494.92	685.06
495.138	679.06
495.355	717.06
495.573	684.06
495.79	690.06
496.008	705.06
496.225	691.06
496.442	690.06
496.66	671.06
496.877	658.06
497.094	697.06
497.312	707.06
497.529	705.06
497.746	704.06
497.963	685.06
498.181	722.06
498.398	747.06
498.615	749.06
498.832	740.06
499.049	744.06
499.267	742.06
499.484	737.06
499.701	776.06
499.918	755.06
500.135	778.06
500.352	797.06
500.569	795.06
500.786	801.06
501.003	815.06
501.22	797.06
501.437	796.06
501.654	819.06
501.871	827.06
502.088	796.06
502.305	795.06
502.522	748.06
502.739	739.06
502.956	707.06
503.172	712.06
503.389	717.06
503.606	706.06
503.823	747.06
504.04	707.06
504.256	732.06
504.473	691.06
504.69	684.06
504.907	682.06
505.123	683.06
505.34	680.06
505.557	699.06
505.773	691.06
505.99	689.06
506.207	669.06
506.423	682.06
506.64	692.06
506.856	647.06
507.073	683.06
507.289	664.06
507.506	659.06
507.722	714.06
507.939	732.06
508.155	720.06
508.372	683.06
508.588	669.06
508.805	668.06
509.021	706.06
509.238	699.06
509.454	675.06
509.67	685.06
509.887	669.06
510.103	660.06
510.319	714.06
510.536	879.06
510.752	1589.06
510.968	1315.06
511.184	766.06
511.401	691.06
511.617	689.06
511.833	680.06
512.049	657.06
512.265	645.06
512.481	644.06
512.698	635.06
512.914	633.06
513.13	653.06
513.346	655.06
513.562	665.06
513.778	663.06
513.994	676.06
514.21	720.06
514.426	754.06
514.642	843.06
514.858	916.06
515.074	986.06
515.29	1235.06
515.506	1915.06
515.721	1507.06
515.937	911.06
516.153	805.06
516.369	737.06
516.585	722.06
516.801	694.06
517.016	679.06
517.232	671.06
517.448	650.06
517.664	659.06
517.879	680.06
518.095	665.06
518.311	630.06
518.527	677.06
518.742	647.06
518.958	654.06
519.173	642.06
519.389	671.06
519.605	646.06
519.82	700.06
520.036	693.06
520.251	757.06
520.467	825.06
520.682	800.06
520.898	817.06
521.113	867.06
521.329	956.06
521.544	1106.06
521.76	1509.06
521.975	2691.06
522.19	2607.06
522.406	1353.06
522.621	935.06
522.836	795.06
523.052	733.06
523.267	653.06
523.482	661.06
523.698	635.06
523.913	637.06
524.128	644.06
524.343	605.06
524.559	580.06
524.774	569.06
524.989	576.06
525.204	578.06
525.419	574.06
525.634	557.06
525.849	561.06
526.064	544.06
526.28	527.06
526.495	526.06
526.71	524.06
526.925	521.06
527.14	522.06
527.355	497.06
527.57	524.06
527.785	515.06
527.999	502.06
528.214	509.06
528.429	491.06
528.644	513.06
528.859	520.06
529.074	498.06
529.289	526.06
529.503	710.06
529.718	673.06
529.933	603.06
530.148	553.06
530.363	511.06
530.577	497.06
530.792	496.06
531.007	496.06
531.221	489.06
531.436	486.06
531.651	515.06
531.865	491.06
532.08	511.06
532.295	480.06
532.509	475.06
532.724	483.06
532.938	465.06
533.153	469.06
533.367	461.06
533.582	477.06
533.796	457.06
534.011	470.06
534.225	454.06
534.44	449.06
534.654	456.06
534.868	465.06
535.083	471.06
535.297	467.06
535.511	470.06
535.726	500.06
535.94	491.06
536.154	480.06
536.369	477.06
536.583	472.06
536.797	445.06
537.011	461.06
537.225	468.06
537.44	451.06
537.654	443.06
537.868	432.06
538.082	453.06
538.296	431.06
538.51	453.06
538.724	438.06
538.938	458.06
539.153	452.06
539.367	465.06
539.581	473.06
539.795	461.06
540.009	461.06
540.222	442.06
540.436	438.06
540.65	435.06
540.864	473.06
541.078	479.06
541.292	465.06
541.506	455.06
541.72	447.06
541.934	442.06
542.147	461.06
542.361	425.06
542.575	413.06
542.789	436.06
543.002	431.06
543.216	433.06
543.43	443.06
543.644	456.06
543.857	460.06
544.071	440.06
544.285	440.06
544.498	423.06
544.712	410.06
544.925	432.06
545.139	437.06
545.352	412.06
545.566	416.06
545.779	410.06
545.993	425.06
546.206	413.06
546.42	435.06
546.633	431.06
546.847	389.06
547.06	402.06
547.274	401.06
547.487	427.06
547.7	419.06
547.914	400.06
548.127	406.06
548.34	401.06
548.554	415.06
548.767	406.06
548.98	381.06
549.193	386.06
549.407	417.06
549.62	393.06
549.833	397.06
550.046	410.06
550.259	375.06
550.473	391.06
550.686	390.06
550.899	381.06
551.112	378.06
551.325	368.06
551.538	381.06
551.751	407.06
551.964	363.06
552.177	404.06
552.39	393.06
552.603	413.06
552.816	387.06
553.029	376.06
553.242	393.06
553.455	412.06
553.667	423.06
553.88	426.06
554.093	421.06
554.306	409.06
554.519	384.06
554.732	428.06
554.944	405.06
555.157	389.06
555.37	375.06
555.583	380.06
555.795	381.06
556.008	377.06
556.221	377.06
556.433	378.06
556.646	376.06
556.859	386.06
557.071	380.06
557.284	372.06
557.496	363.06
557.709	358.06
557.921	373.06
558.134	379.06
558.346	372.06
558.559	362.06
558.771	361.06
558.984	363.06
559.196	346.06
559.409	368.06
559.621	354.06
559.833	348.06
560.046	349.06
560.258	338.06
560.47	372.06
560.683	374.06
560.895	358.06
561.107	363.06
561.32	358.06
561.532	359.06
561.744	353.06
561.956	353.06
562.168	354.06
562.381	354.06
562.593	353.06
562.805	339.06
563.017	360.06
563.229	370.06
563.441	355.06
563.653	357.06
563.865	362.06
564.077	351.06
564.289	369.06
564.501	363.06
564.713	369.06
564.925	359.06
565.137	387.06
565.349	399.06
565.561	376.06
565.773	363.06
565.985	376.06
566.197	355.06
566.408	397.06
566.62	379.06
566.832	375.06
567.044	409.06
567.255	391.06
567.467	397.06
567.679	388.06
567.891	410.06
568.102	390.06
568.314	383.06
568.526	373.06
568.737	384.06
568.949	368.06
569.161	358.06
569.372	351.06
569.584	360.06
569.795	335.06
570.007	377.06
570.218	460.06
570.43	438.06
570.641	368.06
570.853	352.06
571.064	346.06
571.276	353.06
571.487	355.06
571.698	332.06
571.91	340.06
572.121	349.06
572.333	329.06
572.544	330.06
572.755	328.06
572.966	337.06
573.178	306.06
573.389	321.06
573.6	314.06
573.811	319.06
574.023	306.06
574.234	304.06
574.445	306.06
574.656	300.06
574.867	309.06
575.078	328.06
575.289	311.06
575.501	304.06
575.712	305.06
575.923	302.06
576.134	311.06
576.345	296.06
576.556	307.06
576.767	317.06
576.978	307.06
577.188	309.06
577.399	307.06
577.61	311.06
577.821	303.06
578.032	322.06
578.243	367.06
578.454	721.06
578.665	503.06
578.875	329.06
579.086	309.06
579.297	285.06
579.508	295.06
579.718	313.06
579.929	299.06
580.14	297.06
580.35	290.06
580.561	298.06
580.772	293.06
580.982	292.06
581.193	266.06
581.403	286.06
581.614	288.06
581.825	284.06
582.035	271.06
582.246	281.06
582.456	278.06
582.667	267.06
582.877	288.06
583.087	276.06
583.298	284.06
583.508	277.06
583.719	271.06
583.929	276.06
584.139	288.06
584.35	283.06
584.56	268.06
584.77	291.06
584.981	286.06
585.191	273.06
585.401	277.06
585.611	292.06
585.821	280.06
586.032	280.06
586.242	279.06
586.452	275.06
586.662	287.06
586.872	283.06
587.082	275.06
587.292	273.06
587.502	284.06
587.713	265.06
587.923	264.06
588.133	265.06
588.343	252.06
588.553	264.06
588.762	268.06
588.972	273.06
589.182	281.06
589.392	282.06
589.602	270.06
589.812	280.06
590.022	288.06
590.232	272.06
590.441	273.06
590.651	282.06
590.861	267.06
591.071	284.06
591.281	249.06
591.49	264.06
591.7	275.06
591.91	283.06
592.119	283.06
592.329	266.06
592.539	277.06
592.748	269.06
592.958	284.06
593.167	273.06
593.377	265.06
593.587	285.06
593.796	278.06
594.006	271.06
594.215	265.06
594.424	261.06
594.634	262.06
594.843	271.06
595.053	273.06
595.262	260.06
595.472	267.06
595.681	262.06
595.89	266.06
596.1	251.06
596.309	243.06
596.518	258.06
596.727	265.06
596.937	257.06
597.146	256.06
597.355	264.06
597.564	258.06
597.774	255.06
597.983	259.06
598.192	266.06
598.401	229.06
598.61	259.06
598.819	237.06
599.028	257.06
599.237	257.06
599.446	230.06
599.655	239.06
599.864	225.06
600.073	246.06
600.282	240.06
600.491	228.06
600.7	239.06
600.909	255.06
601.118	249.06
601.327	255.06
601.536	241.06
601.745	223.06
601.953	227.06
602.162	238.06
602.371	215.06
602.58	238.06
602.789	248.06
602.997	215.06
603.206	243.06
603.415	248.06
603.623	221.06
603.832	225.06
604.041	225.06
604.249	224.06
604.458	236.06
604.666	220.06
604.875	232.06
605.084	225.06
605.292	226.06
605.501	245.06
605.709	231.06
605.918	220.06
606.126	226.06
606.334	235.06
606.543	231.06
606.751	216.06
606.96	227.06
607.168	224.06
607.376	254.06
607.585	232.06
607.793	220.06
608.001	208.06
608.21	227.06
608.418	223.06
608.626	218.06
608.834	233.06
609.043	243.06
609.251	220.06
609.459	228.06
609.667	222.06
609.875	216.06
610.083	218.06
610.291	219.06
610.499	236.06
610.707	220.06
610.916	227.06
611.124	215.06
611.332	216.06
611.54	220.06
611.748	221.06
611.955	240.06
612.163	213.06
612.371	232.06
612.579	239.06
612.787	231.06
612.995	215.06
613.203	223.06
613.411	217.06
613.618	219.06
613.826	219.06
614.034	208.06
614.242	204.06
614.449	204.06
614.657	211.06
614.865	223.06
615.072	212.06
615.28	207.06
615.488	202.06
615.695	204.06
615.903	220.06
616.111	205.06
616.318	219.06
616.526	224.06
616.733	214.06
616.941	217.06
617.148	209.06
617.356	224.06
617.563	220.06
617.771	213.06
617.978	212.06
618.185	214.06
618.393	187.06
618.6	228.06
618.807	221.06
619.015	217.06
619.222	199.06
619.429	210.06
619.637	230.06
619.844	209.06
620.051	205.06
620.258	209.06
620.466	213.06
620.673	200.06
620.88	205.06
621.087	214.06
621.294	210.06
621.501	203.06
621.708	212.06
621.915	212.06
622.122	196.06
622.329	209.06
622.536	213.06
622.743	205.06
622.95	209.06
623.157	204.06
623.364	218.06
623.571	197.06
623.778	185.06
623.985	183.06
624.192	202.06
624.399	205.06
624.606	193.06
624.812	204.06
625.019	219.06
625.226	216.06
625.433	191.06
625.639	200.06
625.846	204.06
626.053	196.06
626.259	196.06
626.466	212.06
626.673	187.06
626.879	196.06
627.086	189.06
627.293	186.06
627.499	194.06
627.706	192.06
627.912	193.06
628.119	203.06
628.325	187.06
628.532	178.06
628.738	189.06
628.945	193.06
629.151	171.06
629.357	189.06
629.564	180.06
629.77	173.06
629.976	187.06
630.183	179.06
630.389	179.06
630.595	193.06
630.802	170.06
631.008	166.06
631.214	194.06
631.42	185.06
631.627	190.06
631.833	171.06
632.039	186.06
632.245	172.06
632.451	150.06
632.657	170.06
632.863	187.06
633.069	185.06
633.275	181.06
633.481	177.06
633.688	184.06
633.893	179.06
634.099	181.06
634.305	186.06
634.511	168.06
634.717	168.06
634.923	167.06
635.129	156.06
635.335	182.06
635.541	167.06
635.747	157.06
635.952	162.06
636.158	153.06
636.364	168.06
636.57	180.06
636.775	173.06
636.981	163.06
637.187	166.06
637.392	167.06
637.598	175.06
637.804	150.06
638.009	177.06
638.215	158.06
638.421	159.06
638.626	155.06
638.832	170.06
639.037	170.06
639.243	163.06
639.448	170.06
639.654	159.06
639.859	147.06
640.065	156.06
640.27	164.06
640.475	167.06
640.681	165.06
640.886	167.06
641.091	169.06
641.297	163.06
641.502	160.06
641.707	166.06
641.913	166.06
642.118	161.06
642.323	147.06
642.528	154.06
642.733	169.06
642.939	150.06
643.144	159.06
643.349	154.06
643.554	155.06
643.759	139.06
643.964	136.06
644.169	163.06
644.374	153.06
644.579	148.06
644.784	147.06
644.989	155.06
645.194	141.06
645.399	138.06
645.604	150.06
645.809	142.06
646.014	154.06
646.219	147.06
646.423	149.06
646.628	168.06
646.833	157.06
647.038	163.06
647.243	148.06
647.447	148.06
647.652	150.06
647.857	147.06
648.062	160.06
648.266	161.06
648.471	141.06
648.676	140.06
648.88	161.06
649.085	159.06
649.289	149.06
649.494	179.06
649.698	165.06
649.903	178.06
650.107	163.06
650.312	173.06
650.516	168.06
650.721	146.06
650.925	153.06
651.13	132.06
651.334	137.06
651.539	134.06
651.743	127.06
651.947	147.06
652.152	141.06
652.356	129.06
652.56	120.06
652.764	127.06
652.969	135.06
653.173	134.06
653.377	126.06
653.581	127.06
653.785	128.06
653.99	136.06
654.194	141.06
654.398	125.06
654.602	125.06
654.806	133.06
655.01	129.06
655.214	144.06
655.418	123.06
655.622	127.06
655.826	127.06
656.03	120.06
656.234	106.06
656.438	123.06
656.642	119.06
656.846	124.06
657.049	107.06
657.253	114.06
657.457	103.06
657.661	107.06
657.865	100.06
658.068	105.06
658.272	113.06
658.476	95.06
658.68	99.06
658.883	109.06
659.087	98.06
659.291	95.06
659.494	98.06
659.698	96.06
659.901	87.06
660.105	95.06
660.309	84.06
660.512	103.06
660.716	92.06
660.919	88.06
661.123	97.06
661.326	91.06
661.53	77.06
661.733	96.06
661.936	92.06
662.14	82.06
662.343	95.06
662.546	82.06
662.75	93.06
662.953	95.06
663.156	83.06
663.36	77.06
663.563	89.06
663.766	64.06
663.969	69.06
664.173	91.06
664.376	87.06
664.579	71.06
664.782	95.06
664.985	94.06
665.188	85.06
665.391	81.06
665.594	85.06
665.797	92.06
666	83.06
666.203	73.06
666.406	85.06
666.609	80.06
666.812	85.06
667.015	73.06
667.218	90.06
667.421	83.06
667.624	70.06
667.827	81.06
668.03	87.06
668.232	75.06
668.435	70.06
668.638	78.06
668.841	92.06
669.043	81.06
669.246	93.06
669.449	76.06
669.651	72.06
669.854	68.06
670.057	57.06
670.259	75.06
670.462	71.06
670.665	75.06
670.867	70.06
671.07	79.06
671.272	76.06
671.475	76.06
671.677	89.06
671.88	80.06
672.082	75.06
672.284	81.06
672.487	80.06
672.689	64.06
672.892	74.06
