Data from 1987.PennyLincolnUp.Lamp.En5.5.200Scan.071819.P2_HRD10591_17-16-29-971.txt Node
Date: Thu Jul 18 17:16:29 EDT 2019
User: cochatt
Spectrometer: HR+D1059
Trigger mode: 1
Integration Time (sec): 1.000000E-1
Scans to average: 1
Electric dark correction enabled: true
Nonlinearity correction enabled: false
Boxcar width: 0
XAxis mode: Wavelengths
Number of Pixels in Spectrum: 2048
>>>>>Begin Spectral Data<<<<<
223.165	-25.31
223.4	-25.31
223.635	-25.31
223.869	-18.31
224.104	-21.31
224.338	5.69
224.573	-13.31
224.808	-9.31
225.042	-16.31
225.277	-10.31
225.511	0.69
225.746	-0.31
225.98	-0.31
226.215	12.69
226.449	17.69
226.683	20.69
226.918	23.69
227.152	33.69
227.387	26.69
227.621	30.69
227.856	28.69
228.09	35.69
228.324	47.69
228.559	40.69
228.793	69.69
229.027	88.69
229.262	104.69
229.496	125.69
229.73	147.69
229.964	171.69
230.199	146.69
230.433	127.69
230.667	105.69
230.901	123.69
231.136	133.69
231.37	125.69
231.604	115.69
231.838	111.69
232.072	97.69
232.306	117.69
232.541	117.69
232.775	95.69
233.009	116.69
233.243	119.69
233.477	104.69
233.711	98.69
233.945	110.69
234.179	105.69
234.413	125.69
234.647	99.69
234.881	117.69
235.115	125.69
235.349	129.69
235.583	128.69
235.817	118.69
236.051	121.69
236.285	137.69
236.519	117.69
236.753	118.69
236.987	149.69
237.221	208.69
237.455	254.69
237.689	205.69
237.922	149.69
238.156	143.69
238.39	123.69
238.624	120.69
238.858	124.69
239.091	120.69
239.325	134.69
239.559	103.69
239.793	119.69
240.027	117.69
240.26	139.69
240.494	178.69
240.728	154.69
240.961	154.69
241.195	140.69
241.429	127.69
241.662	137.69
241.896	117.69
242.13	142.69
242.363	129.69
242.597	122.69
242.83	119.69
243.064	150.69
243.298	135.69
243.531	135.69
243.765	142.69
243.998	129.69
244.232	132.69
244.465	124.69
244.699	147.69
244.932	146.69
245.166	140.69
245.399	147.69
245.633	154.69
245.866	136.69
246.099	139.69
246.333	157.69
246.566	135.69
246.8	136.69
247.033	139.69
247.266	168.69
247.5	152.69
247.733	165.69
247.966	168.69
248.2	168.69
248.433	142.69
248.666	171.69
248.899	198.69
249.133	196.69
249.366	208.69
249.599	195.69
249.832	181.69
250.066	179.69
250.299	179.69
250.532	183.69
250.765	189.69
250.998	229.69
251.231	233.69
251.465	218.69
251.698	209.69
251.931	195.69
252.164	206.69
252.397	193.69
252.63	193.69
252.863	202.69
253.096	205.69
253.329	224.69
253.562	215.69
253.795	219.69
254.028	209.69
254.261	195.69
254.494	229.69
254.727	263.69
254.96	282.69
255.193	278.69
255.426	253.69
255.659	244.69
255.892	216.69
256.124	215.69
256.357	206.69
256.59	196.69
256.823	192.69
257.056	207.69
257.289	197.69
257.521	192.69
257.754	199.69
257.987	189.69
258.22	187.69
258.452	192.69
258.685	206.69
258.918	186.69
259.151	201.69
259.383	209.69
259.616	209.69
259.849	194.69
260.081	235.69
260.314	237.69
260.547	257.69
260.779	245.69
261.012	226.69
261.244	222.69
261.477	231.69
261.71	223.69
261.942	230.69
262.175	231.69
262.407	229.69
262.64	210.69
262.872	204.69
263.105	202.69
263.337	203.69
263.57	190.69
263.802	181.69
264.035	200.69
264.267	195.69
264.499	188.69
264.732	198.69
264.964	201.69
265.197	199.69
265.429	201.69
265.661	183.69
265.894	198.69
266.126	199.69
266.358	207.69
266.591	216.69
266.823	204.69
267.055	197.69
267.287	203.69
267.52	183.69
267.752	194.69
267.984	211.69
268.216	210.69
268.448	221.69
268.681	208.69
268.913	212.69
269.145	249.69
269.377	239.69
269.609	251.69
269.841	257.69
270.073	259.69
270.306	295.69
270.538	298.69
270.77	330.69
271.002	318.69
271.234	288.69
271.466	292.69
271.698	317.69
271.93	334.69
272.162	322.69
272.394	323.69
272.626	303.69
272.858	269.69
273.09	260.69
273.322	260.69
273.553	256.69
273.785	259.69
274.017	241.69
274.249	251.69
274.481	247.69
274.713	248.69
274.945	231.69
275.176	242.69
275.408	243.69
275.64	224.69
275.872	230.69
276.104	239.69
276.335	219.69
276.567	253.69
276.799	250.69
277.031	297.69
277.262	309.69
277.494	286.69
277.726	289.69
277.957	260.69
278.189	246.69
278.421	257.69
278.652	230.69
278.884	244.69
279.115	242.69
279.347	224.69
279.579	224.69
279.81	229.69
280.042	233.69
280.273	227.69
280.505	226.69
280.736	230.69
280.968	223.69
281.199	221.69
281.431	217.69
281.662	237.69
281.894	219.69
282.125	234.69
282.356	281.69
282.588	275.69
282.819	284.69
283.051	249.69
283.282	227.69
283.513	237.69
283.745	249.69
283.976	243.69
284.207	219.69
284.439	227.69
284.67	236.69
284.901	218.69
285.132	239.69
285.364	234.69
285.595	243.69
285.826	227.69
286.057	229.69
286.288	236.69
286.52	221.69
286.751	247.69
286.982	242.69
287.213	245.69
287.444	263.69
287.675	232.69
287.906	248.69
288.138	255.69
288.369	259.69
288.6	277.69
288.831	241.69
289.062	250.69
289.293	237.69
289.524	243.69
289.755	241.69
289.986	250.69
290.217	243.69
290.448	225.69
290.679	242.69
290.91	245.69
291.141	243.69
291.371	245.69
291.602	229.69
291.833	254.69
292.064	237.69
292.295	229.69
292.526	239.69
292.757	242.69
292.987	251.69
293.218	240.69
293.449	230.69
293.68	238.69
293.91	225.69
294.141	231.69
294.372	233.69
294.603	238.69
294.833	247.69
295.064	247.69
295.295	238.69
295.525	234.69
295.756	257.69
295.987	261.69
296.217	291.69
296.448	287.69
296.679	269.69
296.909	253.69
297.14	257.69
297.37	246.69
297.601	239.69
297.831	227.69
298.062	232.69
298.292	238.69
298.523	251.69
298.753	246.69
298.984	260.69
299.214	245.69
299.445	255.69
299.675	256.69
299.905	266.69
300.136	254.69
300.366	238.69
300.597	251.69
300.827	259.69
301.057	272.69
301.288	273.69
301.518	286.69
301.748	281.69
301.979	249.69
302.209	278.69
302.439	277.69
302.669	265.69
302.9	266.69
303.13	269.69
303.36	277.69
303.59	287.69
303.82	302.69
304.051	307.69
304.281	274.69
304.511	275.69
304.741	263.69
304.971	255.69
305.201	284.69
305.431	259.69
305.661	267.69
305.891	267.69
306.121	276.69
306.352	275.69
306.582	293.69
306.812	264.69
307.042	282.69
307.272	287.69
307.502	258.69
307.731	289.69
307.961	287.69
308.191	304.69
308.421	279.69
308.651	289.69
308.881	291.69
309.111	295.69
309.341	306.69
309.571	329.69
309.8	336.69
310.03	355.69
310.26	349.69
310.49	350.69
310.72	365.69
310.949	385.69
311.179	397.69
311.409	352.69
311.639	354.69
311.868	335.69
312.098	361.69
312.328	366.69
312.557	378.69
312.787	399.69
313.017	378.69
313.246	363.69
313.476	351.69
313.706	333.69
313.935	358.69
314.165	360.69
314.394	387.69
314.624	385.69
314.853	355.69
315.083	355.69
315.312	348.69
315.542	327.69
315.771	320.69
316.001	330.69
316.23	317.69
316.46	341.69
316.689	326.69
316.919	340.69
317.148	358.69
317.377	360.69
317.607	344.69
317.836	341.69
318.065	345.69
318.295	343.69
318.524	342.69
318.753	318.69
318.983	341.69
319.212	352.69
319.441	359.69
319.67	358.69
319.9	349.69
320.129	352.69
320.358	335.69
320.587	357.69
320.816	349.69
321.046	358.69
321.275	389.69
321.504	369.69
321.733	373.69
321.962	366.69
322.191	417.69
322.42	452.69
322.649	471.69
322.878	484.69
323.108	475.69
323.337	485.69
323.566	534.69
323.795	610.69
324.024	699.69
324.253	863.69
324.482	1285.69
324.71	2017.69
324.939	2758.69
325.168	2393.69
325.397	1323.69
325.626	853.69
325.855	643.69
326.084	579.69
326.313	564.69
326.542	581.69
326.77	631.69
326.999	793.69
327.228	1077.69
327.457	1719.69
327.686	2083.69
327.914	1463.69
328.143	927.69
328.372	793.69
328.6	681.69
328.829	666.69
329.058	685.69
329.287	675.69
329.515	599.69
329.744	546.69
329.972	517.69
330.201	545.69
330.43	559.69
330.658	631.69
330.887	698.69
331.115	697.69
331.344	552.69
331.572	516.69
331.801	485.69
332.03	483.69
332.258	457.69
332.486	418.69
332.715	405.69
332.943	394.69
333.172	415.69
333.4	390.69
333.629	399.69
333.857	424.69
334.085	426.69
334.314	415.69
334.542	391.69
334.771	411.69
334.999	410.69
335.227	407.69
335.455	400.69
335.684	398.69
335.912	372.69
336.14	376.69
336.369	366.69
336.597	395.69
336.825	406.69
337.053	381.69
337.281	381.69
337.51	386.69
337.738	387.69
337.966	387.69
338.194	384.69
338.422	392.69
338.65	396.69
338.878	381.69
339.106	373.69
339.334	376.69
339.562	363.69
339.79	357.69
340.018	373.69
340.246	377.69
340.474	394.69
340.702	373.69
340.93	378.69
341.158	368.69
341.386	376.69
341.614	384.69
341.842	393.69
342.07	381.69
342.298	367.69
342.526	356.69
342.754	365.69
342.981	346.69
343.209	362.69
343.437	345.69
343.665	352.69
343.893	360.69
344.12	357.69
344.348	366.69
344.576	378.69
344.804	396.69
345.031	416.69
345.259	433.69
345.487	393.69
345.714	394.69
345.942	378.69
346.17	374.69
346.397	369.69
346.625	365.69
346.853	367.69
347.08	383.69
347.308	375.69
347.535	413.69
347.763	399.69
347.99	394.69
348.218	384.69
348.445	401.69
348.673	416.69
348.9	393.69
349.128	382.69
349.355	355.69
349.583	360.69
349.81	359.69
350.037	354.69
350.265	362.69
350.492	354.69
350.72	358.69
350.947	392.69
351.174	388.69
351.402	409.69
351.629	400.69
351.856	395.69
352.083	402.69
352.311	409.69
352.538	409.69
352.765	404.69
352.992	398.69
353.22	398.69
353.447	386.69
353.674	362.69
353.901	364.69
354.128	335.69
354.355	348.69
354.583	336.69
354.81	363.69
355.037	349.69
355.264	325.69
355.491	318.69
355.718	326.69
355.945	327.69
356.172	359.69
356.399	325.69
356.626	343.69
356.853	326.69
357.08	319.69
357.307	340.69
357.534	317.69
357.761	313.69
357.988	335.69
358.215	342.69
358.441	336.69
358.668	335.69
358.895	350.69
359.122	345.69
359.349	350.69
359.576	381.69
359.802	423.69
360.029	486.69
360.256	501.69
360.483	442.69
360.709	411.69
360.936	398.69
361.163	393.69
361.39	391.69
361.616	403.69
361.843	384.69
362.07	390.69
362.296	385.69
362.523	375.69
362.749	374.69
362.976	355.69
363.203	362.69
363.429	379.69
363.656	358.69
363.882	363.69
364.109	374.69
364.335	343.69
364.562	356.69
364.788	337.69
365.015	349.69
365.241	358.69
365.468	353.69
365.694	373.69
365.92	375.69
366.147	343.69
366.373	352.69
366.599	336.69
366.826	344.69
367.052	346.69
367.278	349.69
367.505	352.69
367.731	346.69
367.957	342.69
368.184	346.69
368.41	373.69
368.636	362.69
368.862	365.69
369.089	349.69
369.315	326.69
369.541	355.69
369.767	347.69
369.993	341.69
370.219	337.69
370.445	338.69
370.672	351.69
370.898	335.69
371.124	333.69
371.35	322.69
371.576	338.69
371.802	338.69
372.028	343.69
372.254	336.69
372.48	338.69
372.706	337.69
372.932	335.69
373.158	336.69
373.384	341.69
373.61	333.69
373.835	337.69
374.061	345.69
374.287	327.69
374.513	347.69
374.739	344.69
374.965	322.69
375.191	343.69
375.416	346.69
375.642	334.69
375.868	349.69
376.094	340.69
376.319	316.69
376.545	312.69
376.771	319.69
376.997	323.69
377.222	327.69
377.448	324.69
377.674	338.69
377.899	331.69
378.125	318.69
378.35	321.69
378.576	318.69
378.802	335.69
379.027	335.69
379.253	339.69
379.478	323.69
379.704	325.69
379.929	341.69
380.155	350.69
380.38	332.69
380.606	338.69
380.831	351.69
381.057	325.69
381.282	347.69
381.507	319.69
381.733	317.69
381.958	315.69
382.184	326.69
382.409	342.69
382.634	335.69
382.86	343.69
383.085	337.69
383.31	339.69
383.535	342.69
383.761	341.69
383.986	333.69
384.211	341.69
384.436	325.69
384.662	326.69
384.887	320.69
385.112	345.69
385.337	347.69
385.562	353.69
385.787	328.69
386.013	376.69
386.238	375.69
386.463	345.69
386.688	353.69
386.913	354.69
387.138	343.69
387.363	345.69
387.588	343.69
387.813	359.69
388.038	361.69
388.263	369.69
388.488	334.69
388.713	335.69
388.938	357.69
389.163	358.69
389.387	353.69
389.612	354.69
389.837	349.69
390.062	350.69
390.287	358.69
390.512	351.69
390.736	347.69
390.961	344.69
391.186	347.69
391.411	334.69
391.636	343.69
391.86	346.69
392.085	343.69
392.31	379.69
392.534	356.69
392.759	354.69
392.984	345.69
393.208	357.69
393.433	365.69
393.658	359.69
393.882	340.69
394.107	351.69
394.331	348.69
394.556	338.69
394.78	360.69
395.005	355.69
395.229	371.69
395.454	355.69
395.678	355.69
395.903	385.69
396.127	382.69
396.352	395.69
396.576	381.69
396.801	378.69
397.025	368.69
397.249	368.69
397.474	351.69
397.698	394.69
397.922	399.69
398.147	417.69
398.371	402.69
398.595	387.69
398.82	385.69
399.044	394.69
399.268	374.69
399.492	400.69
399.717	419.69
399.941	465.69
400.165	466.69
400.389	492.69
400.613	471.69
400.837	446.69
401.062	425.69
401.286	405.69
401.51	413.69
401.734	420.69
401.958	415.69
402.182	394.69
402.406	424.69
402.63	439.69
402.854	421.69
403.078	407.69
403.302	407.69
403.526	427.69
403.75	425.69
403.974	395.69
404.198	416.69
404.422	427.69
404.645	447.69
404.869	450.69
405.093	456.69
405.317	501.69
405.541	515.69
405.765	448.69
405.988	446.69
406.212	458.69
406.436	496.69
406.66	518.69
406.883	486.69
407.107	502.69
407.331	537.69
407.555	582.69
407.778	583.69
408.002	540.69
408.226	497.69
408.449	481.69
408.673	465.69
408.896	510.69
409.12	549.69
409.344	529.69
409.567	483.69
409.791	464.69
410.014	441.69
410.238	433.69
410.461	429.69
410.685	451.69
410.908	452.69
411.132	476.69
411.355	546.69
411.578	507.69
411.802	446.69
412.025	456.69
412.249	433.69
412.472	440.69
412.695	459.69
412.919	425.69
413.142	428.69
413.365	419.69
413.589	420.69
413.812	397.69
414.035	392.69
414.258	394.69
414.482	401.69
414.705	411.69
414.928	384.69
415.151	386.69
415.374	391.69
415.597	399.69
415.821	380.69
416.044	410.69
416.267	410.69
416.49	411.69
416.713	391.69
416.936	396.69
417.159	413.69
417.382	417.69
417.605	404.69
417.828	409.69
418.051	459.69
418.274	431.69
418.497	410.69
418.72	427.69
418.943	405.69
419.166	427.69
419.389	432.69
419.611	420.69
419.834	424.69
420.057	442.69
420.28	440.69
420.503	420.69
420.726	423.69
420.948	455.69
421.171	482.69
421.394	550.69
421.617	478.69
421.839	436.69
422.062	435.69
422.285	473.69
422.507	530.69
422.73	607.69
422.953	587.69
423.175	523.69
423.398	468.69
423.621	458.69
423.843	485.69
424.066	491.69
424.288	488.69
424.511	510.69
424.733	605.69
424.956	662.69
425.178	633.69
425.401	640.69
425.623	637.69
425.846	563.69
426.068	518.69
426.291	511.69
426.513	527.69
426.735	531.69
426.958	563.69
427.18	651.69
427.402	801.69
427.625	891.69
427.847	799.69
428.069	685.69
428.292	588.69
428.514	531.69
428.736	509.69
428.958	495.69
429.181	473.69
429.403	473.69
429.625	499.69
429.847	523.69
430.069	592.69
430.292	575.69
430.514	497.69
430.736	483.69
430.958	492.69
431.18	452.69
431.402	434.69
431.624	435.69
431.846	436.69
432.068	412.69
432.29	440.69
432.512	437.69
432.734	458.69
432.956	454.69
433.178	459.69
433.4	480.69
433.622	445.69
433.844	450.69
434.066	421.69
434.287	445.69
434.509	424.69
434.731	421.69
434.953	459.69
435.175	453.69
435.397	491.69
435.618	528.69
435.84	563.69
436.062	650.69
436.284	736.69
436.505	629.69
436.727	520.69
436.949	505.69
437.17	502.69
437.392	478.69
437.614	499.69
437.835	587.69
438.057	662.69
438.278	753.69
438.5	740.69
438.721	787.69
438.943	775.69
439.165	616.69
439.386	566.69
439.608	558.69
439.829	534.69
440.05	581.69
440.272	636.69
440.493	609.69
440.715	557.69
440.936	502.69
441.158	496.69
441.379	491.69
441.6	482.69
441.822	515.69
442.043	561.69
442.264	657.69
442.486	691.69
442.707	606.69
442.928	557.69
443.149	531.69
443.371	578.69
443.592	618.69
443.813	682.69
444.034	738.69
444.255	635.69
444.476	532.69
444.698	517.69
444.919	510.69
445.14	614.69
445.361	587.69
445.582	577.69
445.803	651.69
446.024	739.69
446.245	753.69
446.466	693.69
446.687	608.69
446.908	560.69
447.129	521.69
447.35	489.69
447.571	470.69
447.792	482.69
448.013	504.69
448.234	526.69
448.455	595.69
448.675	688.69
448.896	794.69
449.117	680.69
449.338	642.69
449.559	746.69
449.779	791.69
450	680.69
450.221	565.69
450.442	519.69
450.662	503.69
450.883	529.69
451.104	551.69
451.324	552.69
451.545	501.69
451.766	463.69
451.986	442.69
452.207	439.69
452.428	447.69
452.648	443.69
452.869	433.69
453.089	458.69
453.31	471.69
453.53	458.69
453.751	438.69
453.971	425.69
454.192	489.69
454.412	478.69
454.633	457.69
454.853	454.69
455.073	440.69
455.294	477.69
455.514	547.69
455.734	553.69
455.955	454.69
456.175	421.69
456.395	406.69
456.616	400.69
456.836	407.69
457.056	395.69
457.276	390.69
457.497	404.69
457.717	406.69
457.937	398.69
458.157	410.69
458.377	433.69
458.598	451.69
458.818	546.69
459.038	653.69
459.258	655.69
459.478	558.69
459.698	469.69
459.918	456.69
460.138	429.69
460.358	429.69
460.578	419.69
460.798	428.69
461.018	441.69
461.238	433.69
461.458	425.69
461.678	417.69
461.898	434.69
462.118	397.69
462.338	417.69
462.558	434.69
462.777	439.69
462.997	449.69
463.217	419.69
463.437	443.69
463.657	421.69
463.876	431.69
464.096	442.69
464.316	464.69
464.536	472.69
464.755	464.69
464.975	483.69
465.195	559.69
465.414	704.69
465.634	610.69
465.854	527.69
466.073	477.69
466.293	433.69
466.512	433.69
466.732	442.69
466.951	431.69
467.171	424.69
467.391	431.69
467.61	457.69
467.829	473.69
468.049	458.69
468.268	447.69
468.488	424.69
468.707	415.69
468.927	419.69
469.146	408.69
469.365	413.69
469.585	408.69
469.804	426.69
470.023	439.69
470.243	451.69
470.462	446.69
470.681	496.69
470.901	464.69
471.12	453.69
471.339	432.69
471.558	431.69
471.777	443.69
471.997	411.69
472.216	422.69
472.435	422.69
472.654	419.69
472.873	433.69
473.092	403.69
473.311	437.69
473.53	454.69
473.749	462.69
473.968	491.69
474.187	621.69
474.406	683.69
474.625	514.69
474.844	456.69
475.063	445.69
475.282	435.69
475.501	411.69
475.72	460.69
475.939	438.69
476.158	449.69
476.377	464.69
476.596	432.69
476.814	470.69
477.033	479.69
477.252	467.69
477.471	458.69
477.69	460.69
477.908	459.69
478.127	470.69
478.346	482.69
478.564	444.69
478.783	471.69
479.002	479.69
479.22	504.69
479.439	523.69
479.658	549.69
479.876	538.69
480.095	541.69
480.313	574.69
480.532	541.69
480.751	516.69
480.969	537.69
481.188	534.69
481.406	550.69
481.624	547.69
481.843	519.69
482.061	517.69
482.28	511.69
482.498	516.69
482.717	515.69
482.935	531.69
483.153	538.69
483.372	510.69
483.59	519.69
483.808	522.69
484.027	506.69
484.245	522.69
484.463	527.69
484.681	524.69
484.9	523.69
485.118	523.69
485.336	529.69
485.554	549.69
485.772	537.69
485.99	527.69
486.209	565.69
486.427	528.69
486.645	559.69
486.863	602.69
487.081	593.69
487.299	571.69
487.517	563.69
487.735	547.69
487.953	570.69
488.171	582.69
488.389	574.69
488.607	588.69
488.825	576.69
489.043	572.69
489.261	573.69
489.479	572.69
489.696	589.69
489.914	576.69
490.132	579.69
490.35	592.69
490.568	630.69
490.786	597.69
491.003	614.69
491.221	628.69
491.439	621.69
491.657	640.69
491.874	677.69
492.092	644.69
492.31	661.69
492.527	659.69
492.745	662.69
492.963	680.69
493.18	680.69
493.398	666.69
493.615	695.69
493.833	670.69
494.05	701.69
494.268	667.69
494.485	701.69
494.703	655.69
494.92	685.69
495.138	693.69
495.355	690.69
495.573	692.69
495.79	707.69
496.008	664.69
496.225	705.69
496.442	689.69
496.66	697.69
496.877	693.69
497.094	685.69
497.312	682.69
497.529	676.69
497.746	695.69
497.963	694.69
498.181	736.69
498.398	729.69
498.615	727.69
498.832	756.69
499.049	736.69
499.267	733.69
499.484	733.69
499.701	763.69
499.918	762.69
500.135	798.69
500.352	778.69
500.569	793.69
500.786	783.69
501.003	787.69
501.22	797.69
501.437	779.69
501.654	778.69
501.871	812.69
502.088	825.69
502.305	769.69
502.522	767.69
502.739	742.69
502.956	707.69
503.172	718.69
503.389	725.69
503.606	713.69
503.823	719.69
504.04	717.69
504.256	708.69
504.473	690.69
504.69	710.69
504.907	713.69
505.123	685.69
505.34	664.69
505.557	663.69
505.773	701.69
505.99	696.69
506.207	673.69
506.423	691.69
506.64	682.69
506.856	661.69
507.073	651.69
507.289	657.69
507.506	673.69
507.722	696.69
507.939	722.69
508.155	690.69
508.372	663.69
508.588	681.69
508.805	675.69
509.021	703.69
509.238	717.69
509.454	683.69
509.67	665.69
509.887	672.69
510.103	678.69
510.319	697.69
510.536	877.69
510.752	1562.69
510.968	1263.69
511.184	763.69
511.401	723.69
511.617	661.69
511.833	653.69
512.049	650.69
512.265	649.69
512.481	641.69
512.698	633.69
512.914	644.69
513.13	650.69
513.346	667.69
513.562	663.69
513.778	655.69
513.994	665.69
514.21	705.69
514.426	752.69
514.642	819.69
514.858	872.69
515.074	989.69
515.29	1192.69
515.506	1834.69
515.721	1520.69
515.937	911.69
516.153	821.69
516.369	777.69
516.585	703.69
516.801	677.69
517.016	647.69
517.232	655.69
517.448	659.69
517.664	669.69
517.879	657.69
518.095	654.69
518.311	642.69
518.527	658.69
518.742	630.69
518.958	663.69
519.173	661.69
519.389	670.69
519.605	665.69
519.82	689.69
520.036	693.69
520.251	734.69
520.467	793.69
520.682	783.69
520.898	815.69
521.113	864.69
521.329	968.69
521.544	1155.69
521.76	1522.69
521.975	2581.69
522.19	2501.69
522.406	1317.69
522.621	912.69
522.836	779.69
523.052	724.69
523.267	665.69
523.482	657.69
523.698	647.69
523.913	649.69
524.128	634.69
524.343	602.69
524.559	583.69
524.774	560.69
524.989	570.69
525.204	577.69
525.419	587.69
525.634	552.69
525.849	570.69
526.064	541.69
526.28	519.69
526.495	516.69
526.71	541.69
526.925	524.69
527.14	514.69
527.355	511.69
527.57	505.69
527.785	493.69
527.999	509.69
528.214	512.69
528.429	510.69
528.644	522.69
528.859	493.69
529.074	519.69
529.289	548.69
529.503	702.69
529.718	678.69
529.933	573.69
530.148	532.69
530.363	534.69
530.577	515.69
530.792	501.69
531.007	493.69
531.221	483.69
531.436	475.69
531.651	493.69
531.865	485.69
532.08	468.69
532.295	476.69
532.509	464.69
532.724	477.69
532.938	481.69
533.153	445.69
533.367	470.69
533.582	450.69
533.796	459.69
534.011	458.69
534.225	453.69
534.44	455.69
534.654	469.69
534.868	462.69
535.083	437.69
535.297	455.69
535.511	476.69
535.726	509.69
535.94	469.69
536.154	447.69
536.369	474.69
536.583	457.69
536.797	443.69
537.011	436.69
537.225	439.69
537.44	440.69
537.654	452.69
537.868	441.69
538.082	444.69
538.296	446.69
538.51	427.69
538.724	455.69
538.938	438.69
539.153	451.69
539.367	483.69
539.581	473.69
539.795	461.69
540.009	443.69
540.222	445.69
540.436	426.69
540.65	446.69
540.864	470.69
541.078	463.69
541.292	465.69
541.506	445.69
541.72	443.69
541.934	429.69
542.147	460.69
542.361	419.69
542.575	420.69
542.789	437.69
543.002	433.69
543.216	440.69
543.43	451.69
543.644	433.69
543.857	430.69
544.071	455.69
544.285	426.69
544.498	418.69
544.712	436.69
544.925	414.69
545.139	418.69
545.352	401.69
545.566	416.69
545.779	421.69
545.993	426.69
546.206	408.69
546.42	409.69
546.633	417.69
546.847	408.69
547.06	402.69
547.274	398.69
547.487	403.69
547.7	403.69
547.914	403.69
548.127	408.69
548.34	399.69
548.554	409.69
548.767	407.69
548.98	399.69
549.193	400.69
549.407	402.69
549.62	389.69
549.833	391.69
550.046	400.69
550.259	387.69
550.473	376.69
550.686	385.69
550.899	379.69
551.112	391.69
551.325	383.69
551.538	396.69
551.751	399.69
551.964	381.69
552.177	383.69
552.39	384.69
552.603	399.69
552.816	370.69
553.029	394.69
553.242	403.69
553.455	392.69
553.667	416.69
553.88	422.69
554.093	438.69
554.306	413.69
554.519	393.69
554.732	399.69
554.944	389.69
555.157	395.69
555.37	393.69
555.583	402.69
555.795	381.69
556.008	385.69
556.221	367.69
556.433	394.69
556.646	367.69
556.859	365.69
557.071	361.69
557.284	349.69
557.496	369.69
557.709	377.69
557.921	363.69
558.134	369.69
558.346	344.69
558.559	358.69
558.771	367.69
558.984	355.69
559.196	369.69
559.409	337.69
559.621	347.69
559.833	362.69
560.046	355.69
560.258	343.69
560.47	354.69
560.683	351.69
560.895	336.69
561.107	355.69
561.32	341.69
561.532	359.69
561.744	366.69
561.956	345.69
562.168	339.69
562.381	350.69
562.593	365.69
562.805	358.69
563.017	356.69
563.229	361.69
563.441	350.69
563.653	364.69
563.865	369.69
564.077	358.69
564.289	369.69
564.501	365.69
564.713	371.69
564.925	374.69
565.137	361.69
565.349	365.69
565.561	375.69
565.773	372.69
565.985	357.69
566.197	368.69
566.408	377.69
566.62	391.69
566.832	387.69
567.044	389.69
567.255	377.69
567.467	400.69
567.679	401.69
567.891	394.69
568.102	383.69
568.314	394.69
568.526	353.69
568.737	362.69
568.949	365.69
569.161	351.69
569.372	368.69
569.584	352.69
569.795	358.69
570.007	367.69
570.218	450.69
570.43	450.69
570.641	358.69
570.853	355.69
571.064	337.69
571.276	330.69
571.487	345.69
571.698	330.69
571.91	325.69
572.121	330.69
572.333	348.69
572.544	319.69
572.755	337.69
572.966	328.69
573.178	307.69
573.389	313.69
573.6	324.69
573.811	323.69
574.023	306.69
574.234	311.69
574.445	321.69
574.656	308.69
574.867	315.69
575.078	295.69
575.289	298.69
575.501	309.69
575.712	315.69
575.923	317.69
576.134	319.69
576.345	293.69
576.556	301.69
576.767	297.69
576.978	298.69
577.188	293.69
577.399	310.69
577.61	297.69
577.821	308.69
578.032	304.69
578.243	370.69
578.454	750.69
578.665	515.69
578.875	322.69
579.086	294.69
579.297	280.69
579.508	296.69
579.718	299.69
579.929	289.69
580.14	257.69
580.35	283.69
580.561	302.69
580.772	298.69
580.982	303.69
581.193	283.69
581.403	295.69
581.614	276.69
581.825	286.69
582.035	286.69
582.246	272.69
582.456	274.69
582.667	291.69
582.877	279.69
583.087	285.69
583.298	277.69
583.508	289.69
583.719	279.69
583.929	287.69
584.139	264.69
584.35	273.69
584.56	282.69
584.77	267.69
584.981	270.69
585.191	278.69
585.401	286.69
585.611	275.69
585.821	281.69
586.032	280.69
586.242	300.69
586.452	287.69
586.662	262.69
586.872	271.69
587.082	281.69
587.292	262.69
587.502	263.69
587.713	257.69
587.923	260.69
588.133	264.69
588.343	286.69
588.553	240.69
588.762	264.69
588.972	287.69
589.182	283.69
589.392	285.69
589.602	271.69
589.812	271.69
590.022	261.69
590.232	271.69
590.441	262.69
590.651	276.69
590.861	261.69
591.071	255.69
591.281	264.69
591.49	257.69
591.7	243.69
591.91	266.69
592.119	272.69
592.329	265.69
592.539	250.69
592.748	268.69
592.958	261.69
593.167	270.69
593.377	243.69
593.587	261.69
593.796	266.69
594.006	253.69
594.215	258.69
594.424	264.69
594.634	258.69
594.843	262.69
595.053	254.69
595.262	263.69
595.472	261.69
595.681	272.69
595.89	263.69
596.1	265.69
596.309	272.69
596.518	252.69
596.727	257.69
596.937	274.69
597.146	258.69
597.355	240.69
597.564	255.69
597.774	245.69
597.983	256.69
598.192	243.69
598.401	250.69
598.61	249.69
598.819	239.69
599.028	227.69
599.237	241.69
599.446	241.69
599.655	246.69
599.864	243.69
600.073	240.69
600.282	231.69
600.491	225.69
600.7	229.69
600.909	218.69
601.118	223.69
601.327	221.69
601.536	235.69
601.745	222.69
601.953	243.69
602.162	224.69
602.371	232.69
602.58	222.69
602.789	226.69
602.997	218.69
603.206	232.69
603.415	228.69
603.623	228.69
603.832	226.69
604.041	223.69
604.249	224.69
604.458	220.69
604.666	218.69
604.875	214.69
605.084	229.69
605.292	218.69
605.501	230.69
605.709	227.69
605.918	221.69
606.126	235.69
606.334	222.69
606.543	230.69
606.751	229.69
606.96	235.69
607.168	227.69
607.376	245.69
607.585	227.69
607.793	230.69
608.001	221.69
608.21	221.69
608.418	227.69
608.626	215.69
608.834	227.69
609.043	209.69
609.251	223.69
609.459	212.69
609.667	222.69
609.875	213.69
610.083	211.69
610.291	215.69
610.499	230.69
610.707	224.69
610.916	228.69
611.124	232.69
611.332	213.69
611.54	228.69
611.748	226.69
611.955	228.69
612.163	222.69
612.371	221.69
612.579	224.69
612.787	223.69
612.995	202.69
613.203	230.69
613.411	212.69
613.618	226.69
613.826	221.69
614.034	216.69
614.242	207.69
614.449	209.69
614.657	218.69
614.865	209.69
615.072	208.69
615.28	213.69
615.488	213.69
615.695	213.69
615.903	208.69
616.111	198.69
616.318	218.69
616.526	217.69
616.733	213.69
616.941	219.69
617.148	210.69
617.356	207.69
617.563	209.69
617.771	214.69
617.978	222.69
618.185	205.69
618.393	199.69
618.6	195.69
618.807	218.69
619.015	207.69
619.222	192.69
619.429	201.69
619.637	211.69
619.844	200.69
620.051	203.69
620.258	185.69
620.466	207.69
620.673	200.69
620.88	214.69
621.087	194.69
621.294	225.69
621.501	202.69
621.708	220.69
621.915	222.69
622.122	197.69
622.329	230.69
622.536	199.69
622.743	190.69
622.95	230.69
623.157	203.69
623.364	205.69
623.571	217.69
623.778	205.69
623.985	197.69
624.192	205.69
624.399	193.69
624.606	194.69
624.812	184.69
625.019	206.69
625.226	199.69
625.433	194.69
625.639	199.69
625.846	193.69
626.053	180.69
626.259	183.69
626.466	203.69
626.673	186.69
626.879	195.69
627.086	191.69
627.293	192.69
627.499	191.69
627.706	185.69
627.912	202.69
628.119	188.69
628.325	184.69
628.532	181.69
628.738	189.69
628.945	183.69
629.151	161.69
629.357	179.69
629.564	173.69
629.77	190.69
629.976	181.69
630.183	193.69
630.389	163.69
630.595	186.69
630.802	193.69
631.008	201.69
631.214	174.69
631.42	167.69
631.627	179.69
631.833	176.69
632.039	190.69
632.245	177.69
632.451	190.69
632.657	178.69
632.863	178.69
633.069	181.69
633.275	181.69
633.481	169.69
633.688	165.69
633.893	167.69
634.099	180.69
634.305	174.69
634.511	167.69
634.717	178.69
634.923	170.69
635.129	168.69
635.335	171.69
635.541	176.69
635.747	174.69
635.952	162.69
636.158	164.69
636.364	159.69
636.57	174.69
636.775	179.69
636.981	177.69
637.187	150.69
637.392	159.69
637.598	158.69
637.804	162.69
638.009	168.69
638.215	172.69
638.421	166.69
638.626	175.69
638.832	163.69
639.037	180.69
639.243	164.69
639.448	164.69
639.654	157.69
639.859	168.69
640.065	161.69
640.27	178.69
640.475	182.69
640.681	152.69
640.886	166.69
641.091	158.69
641.297	144.69
641.502	157.69
641.707	150.69
641.913	185.69
642.118	157.69
642.323	168.69
642.528	174.69
642.733	150.69
642.939	154.69
643.144	160.69
643.349	146.69
643.554	163.69
643.759	159.69
643.964	149.69
644.169	148.69
644.374	159.69
644.579	147.69
644.784	137.69
644.989	159.69
645.194	151.69
645.399	161.69
645.604	148.69
645.809	146.69
646.014	158.69
646.219	154.69
646.423	153.69
646.628	144.69
646.833	155.69
647.038	145.69
647.243	149.69
647.447	144.69
647.652	140.69
647.857	161.69
648.062	158.69
648.266	149.69
648.471	143.69
648.676	171.69
648.88	151.69
649.085	138.69
649.289	153.69
649.494	163.69
649.698	175.69
649.903	161.69
650.107	173.69
650.312	147.69
650.516	151.69
650.721	161.69
650.925	147.69
651.13	140.69
651.334	138.69
651.539	133.69
651.743	135.69
651.947	137.69
652.152	133.69
652.356	152.69
652.56	141.69
652.764	141.69
652.969	126.69
653.173	135.69
653.377	125.69
653.581	126.69
653.785	141.69
653.99	126.69
654.194	126.69
654.398	124.69
654.602	126.69
654.806	119.69
655.01	142.69
655.214	124.69
655.418	124.69
655.622	118.69
655.826	107.69
656.03	121.69
656.234	119.69
656.438	127.69
656.642	125.69
656.846	124.69
657.049	116.69
657.253	111.69
657.457	96.69
657.661	115.69
657.865	102.69
658.068	98.69
658.272	106.69
658.476	99.69
658.68	100.69
658.883	109.69
659.087	101.69
659.291	109.69
659.494	103.69
659.698	100.69
659.901	103.69
660.105	78.69
660.309	87.69
660.512	85.69
660.716	90.69
660.919	91.69
661.123	97.69
661.326	90.69
661.53	81.69
661.733	87.69
661.936	101.69
662.14	85.69
662.343	92.69
662.546	90.69
662.75	81.69
662.953	87.69
663.156	89.69
663.36	71.69
663.563	84.69
663.766	83.69
663.969	78.69
664.173	67.69
664.376	72.69
664.579	79.69
664.782	76.69
664.985	97.69
665.188	82.69
665.391	76.69
665.594	71.69
665.797	76.69
666	89.69
666.203	78.69
666.406	86.69
666.609	72.69
666.812	89.69
667.015	90.69
667.218	90.69
667.421	86.69
667.624	75.69
667.827	82.69
668.03	69.69
668.232	86.69
668.435	85.69
668.638	65.69
668.841	90.69
669.043	75.69
669.246	80.69
669.449	75.69
669.651	85.69
669.854	82.69
670.057	73.69
670.259	72.69
670.462	80.69
670.665	93.69
670.867	89.69
671.07	90.69
671.272	89.69
671.475	91.69
671.677	102.69
671.88	80.69
672.082	80.69
672.284	80.69
672.487	75.69
672.689	83.69
672.892	77.69
