Data from 1987.PennyLincolnUp.Lamp.En5.5.200Scan.071819.P2_HRD10591_17-15-43-971.txt Node
Date: Thu Jul 18 17:15:43 EDT 2019
User: cochatt
Spectrometer: HR+D1059
Trigger mode: 1
Integration Time (sec): 1.000000E-1
Scans to average: 1
Electric dark correction enabled: true
Nonlinearity correction enabled: false
Boxcar width: 0
XAxis mode: Wavelengths
Number of Pixels in Spectrum: 2048
>>>>>Begin Spectral Data<<<<<
223.165	-6.62
223.4	-6.62
223.635	-6.62
223.869	-13.62
224.104	-28.62
224.338	-21.62
224.573	-25.62
224.808	-13.62
225.042	-0.62
225.277	-6.62
225.511	5.38
225.746	-4.62
225.98	11.38
226.215	15.38
226.449	4.38
226.683	22.38
226.918	33.38
227.152	29.38
227.387	43.38
227.621	35.38
227.856	37.38
228.09	53.38
228.324	51.38
228.559	52.38
228.793	73.38
229.027	98.38
229.262	116.38
229.496	127.38
229.73	138.38
229.964	159.38
230.199	143.38
230.433	122.38
230.667	119.38
230.901	103.38
231.136	113.38
231.37	115.38
231.604	115.38
231.838	122.38
232.072	118.38
232.306	122.38
232.541	117.38
232.775	120.38
233.009	113.38
233.243	123.38
233.477	132.38
233.711	113.38
233.945	101.38
234.179	126.38
234.413	114.38
234.647	119.38
234.881	121.38
235.115	113.38
235.349	106.38
235.583	115.38
235.817	125.38
236.051	142.38
236.285	129.38
236.519	126.38
236.753	133.38
236.987	158.38
237.221	203.38
237.455	257.38
237.689	191.38
237.922	167.38
238.156	152.38
238.39	131.38
238.624	127.38
238.858	129.38
239.091	108.38
239.325	124.38
239.559	133.38
239.793	123.38
240.027	135.38
240.26	142.38
240.494	166.38
240.728	161.38
240.961	166.38
241.195	151.38
241.429	163.38
241.662	129.38
241.896	143.38
242.13	144.38
242.363	130.38
242.597	137.38
242.83	126.38
243.064	129.38
243.298	142.38
243.531	126.38
243.765	121.38
243.998	132.38
244.232	129.38
244.465	151.38
244.699	139.38
244.932	144.38
245.166	131.38
245.399	127.38
245.633	140.38
245.866	141.38
246.099	133.38
246.333	146.38
246.566	153.38
246.8	143.38
247.033	149.38
247.266	155.38
247.5	158.38
247.733	161.38
247.966	174.38
248.2	169.38
248.433	187.38
248.666	186.38
248.899	181.38
249.133	190.38
249.366	207.38
249.599	198.38
249.832	189.38
250.066	163.38
250.299	172.38
250.532	194.38
250.765	197.38
250.998	215.38
251.231	209.38
251.465	204.38
251.698	199.38
251.931	192.38
252.164	211.38
252.397	193.38
252.63	196.38
252.863	199.38
253.096	210.38
253.329	236.38
253.562	231.38
253.795	231.38
254.028	211.38
254.261	214.38
254.494	227.38
254.727	278.38
254.96	261.38
255.193	271.38
255.426	254.38
255.659	220.38
255.892	226.38
256.124	198.38
256.357	225.38
256.59	223.38
256.823	208.38
257.056	221.38
257.289	204.38
257.521	187.38
257.754	193.38
257.987	196.38
258.22	206.38
258.452	202.38
258.685	195.38
258.918	217.38
259.151	202.38
259.383	206.38
259.616	210.38
259.849	221.38
260.081	206.38
260.314	243.38
260.547	243.38
260.779	230.38
261.012	230.38
261.244	214.38
261.477	223.38
261.71	217.38
261.942	232.38
262.175	227.38
262.407	217.38
262.64	203.38
262.872	202.38
263.105	186.38
263.337	212.38
263.57	205.38
263.802	197.38
264.035	210.38
264.267	185.38
264.499	183.38
264.732	201.38
264.964	185.38
265.197	198.38
265.429	195.38
265.661	193.38
265.894	187.38
266.126	190.38
266.358	183.38
266.591	203.38
266.823	205.38
267.055	190.38
267.287	209.38
267.52	211.38
267.752	191.38
267.984	209.38
268.216	217.38
268.448	219.38
268.681	210.38
268.913	229.38
269.145	222.38
269.377	268.38
269.609	249.38
269.841	272.38
270.073	265.38
270.306	279.38
270.538	284.38
270.77	316.38
271.002	301.38
271.234	284.38
271.466	302.38
271.698	308.38
271.93	302.38
272.162	318.38
272.394	303.38
272.626	293.38
272.858	283.38
273.09	273.38
273.322	266.38
273.553	262.38
273.785	237.38
274.017	233.38
274.249	247.38
274.481	234.38
274.713	235.38
274.945	263.38
275.176	231.38
275.408	261.38
275.64	238.38
275.872	233.38
276.104	233.38
276.335	226.38
276.567	242.38
276.799	265.38
277.031	284.38
277.262	294.38
277.494	294.38
277.726	292.38
277.957	275.38
278.189	272.38
278.421	262.38
278.652	236.38
278.884	221.38
279.115	222.38
279.347	235.38
279.579	259.38
279.81	251.38
280.042	226.38
280.273	225.38
280.505	226.38
280.736	240.38
280.968	213.38
281.199	230.38
281.431	238.38
281.662	220.38
281.894	242.38
282.125	222.38
282.356	260.38
282.588	268.38
282.819	289.38
283.051	259.38
283.282	245.38
283.513	242.38
283.745	227.38
283.976	238.38
284.207	236.38
284.439	230.38
284.67	254.38
284.901	242.38
285.132	243.38
285.364	227.38
285.595	239.38
285.826	223.38
286.057	233.38
286.288	229.38
286.52	233.38
286.751	230.38
286.982	231.38
287.213	243.38
287.444	245.38
287.675	249.38
287.906	253.38
288.138	257.38
288.369	246.38
288.6	271.38
288.831	255.38
289.062	249.38
289.293	263.38
289.524	249.38
289.755	238.38
289.986	234.38
290.217	250.38
290.448	230.38
290.679	234.38
290.91	238.38
291.141	230.38
291.371	231.38
291.602	242.38
291.833	243.38
292.064	240.38
292.295	242.38
292.526	241.38
292.757	232.38
292.987	232.38
293.218	237.38
293.449	249.38
293.68	242.38
293.91	230.38
294.141	245.38
294.372	246.38
294.603	257.38
294.833	248.38
295.064	231.38
295.295	243.38
295.525	231.38
295.756	252.38
295.987	265.38
296.217	284.38
296.448	297.38
296.679	243.38
296.909	239.38
297.14	222.38
297.37	265.38
297.601	249.38
297.831	232.38
298.062	258.38
298.292	257.38
298.523	247.38
298.753	225.38
298.984	249.38
299.214	247.38
299.445	244.38
299.675	250.38
299.905	243.38
300.136	256.38
300.366	263.38
300.597	260.38
300.827	261.38
301.057	260.38
301.288	284.38
301.518	248.38
301.748	261.38
301.979	277.38
302.209	266.38
302.439	277.38
302.669	289.38
302.9	267.38
303.13	257.38
303.36	287.38
303.59	272.38
303.82	277.38
304.051	292.38
304.281	275.38
304.511	270.38
304.741	264.38
304.971	268.38
305.201	273.38
305.431	277.38
305.661	266.38
305.891	269.38
306.121	274.38
306.352	283.38
306.582	292.38
306.812	289.38
307.042	260.38
307.272	269.38
307.502	276.38
307.731	287.38
307.961	264.38
308.191	289.38
308.421	267.38
308.651	294.38
308.881	293.38
309.111	290.38
309.341	289.38
309.571	315.38
309.8	331.38
310.03	325.38
310.26	329.38
310.49	352.38
310.72	349.38
310.949	371.38
311.179	372.38
311.409	353.38
311.639	338.38
311.868	342.38
312.098	349.38
312.328	348.38
312.557	376.38
312.787	417.38
313.017	374.38
313.246	364.38
313.476	313.38
313.706	338.38
313.935	326.38
314.165	374.38
314.394	376.38
314.624	374.38
314.853	361.38
315.083	329.38
315.312	324.38
315.542	321.38
315.771	318.38
316.001	317.38
316.23	327.38
316.46	332.38
316.689	335.38
316.919	338.38
317.148	344.38
317.377	356.38
317.607	324.38
317.836	346.38
318.065	318.38
318.295	351.38
318.524	325.38
318.753	329.38
318.983	324.38
319.212	335.38
319.441	350.38
319.67	344.38
319.9	340.38
320.129	329.38
320.358	348.38
320.587	322.38
320.816	370.38
321.046	348.38
321.275	353.38
321.504	357.38
321.733	366.38
321.962	362.38
322.191	389.38
322.42	425.38
322.649	454.38
322.878	455.38
323.108	475.38
323.337	500.38
323.566	569.38
323.795	598.38
324.024	667.38
324.253	841.38
324.482	1225.38
324.71	1879.38
324.939	2573.38
325.168	2292.38
325.397	1254.38
325.626	810.38
325.855	654.38
326.084	545.38
326.313	564.38
326.542	539.38
326.77	609.38
326.999	734.38
327.228	1037.38
327.457	1612.38
327.686	1975.38
327.914	1381.38
328.143	868.38
328.372	706.38
328.6	636.38
328.829	625.38
329.058	643.38
329.287	649.38
329.515	597.38
329.744	542.38
329.972	492.38
330.201	483.38
330.43	552.38
330.658	594.38
330.887	654.38
331.115	655.38
331.344	539.38
331.572	501.38
331.801	478.38
332.03	485.38
332.258	433.38
332.486	429.38
332.715	406.38
332.943	400.38
333.172	387.38
333.4	379.38
333.629	382.38
333.857	400.38
334.085	417.38
334.314	389.38
334.542	383.38
334.771	395.38
334.999	401.38
335.227	403.38
335.455	402.38
335.684	381.38
335.912	379.38
336.14	356.38
336.369	385.38
336.597	398.38
336.825	399.38
337.053	375.38
337.281	367.38
337.51	381.38
337.738	373.38
337.966	374.38
338.194	389.38
338.422	382.38
338.65	384.38
338.878	389.38
339.106	386.38
339.334	363.38
339.562	369.38
339.79	358.38
340.018	362.38
340.246	373.38
340.474	395.38
340.702	372.38
340.93	375.38
341.158	351.38
341.386	374.38
341.614	387.38
341.842	371.38
342.07	358.38
342.298	373.38
342.526	358.38
342.754	363.38
342.981	341.38
343.209	345.38
343.437	354.38
343.665	365.38
343.893	349.38
344.12	385.38
344.348	355.38
344.576	358.38
344.804	377.38
345.031	387.38
345.259	422.38
345.487	419.38
345.714	385.38
345.942	379.38
346.17	363.38
346.397	364.38
346.625	352.38
346.853	368.38
347.08	357.38
347.308	369.38
347.535	393.38
347.763	413.38
347.99	387.38
348.218	383.38
348.445	416.38
348.673	403.38
348.9	370.38
349.128	362.38
349.355	351.38
349.583	345.38
349.81	364.38
350.037	371.38
350.265	359.38
350.492	341.38
350.72	351.38
350.947	378.38
351.174	363.38
351.402	395.38
351.629	381.38
351.856	378.38
352.083	383.38
352.311	412.38
352.538	412.38
352.765	415.38
352.992	403.38
353.22	411.38
353.447	407.38
353.674	365.38
353.901	350.38
354.128	334.38
354.355	334.38
354.583	329.38
354.81	334.38
355.037	328.38
355.264	330.38
355.491	317.38
355.718	320.38
355.945	316.38
356.172	320.38
356.399	325.38
356.626	321.38
356.853	317.38
357.08	327.38
357.307	307.38
357.534	321.38
357.761	327.38
357.988	334.38
358.215	334.38
358.441	332.38
358.668	331.38
358.895	329.38
359.122	348.38
359.349	371.38
359.576	379.38
359.802	407.38
360.029	466.38
360.256	488.38
360.483	449.38
360.709	390.38
360.936	399.38
361.163	375.38
361.39	375.38
361.616	381.38
361.843	374.38
362.07	378.38
362.296	395.38
362.523	378.38
362.749	376.38
362.976	363.38
363.203	374.38
363.429	355.38
363.656	350.38
363.882	359.38
364.109	350.38
364.335	349.38
364.562	342.38
364.788	326.38
365.015	355.38
365.241	353.38
365.468	350.38
365.694	359.38
365.92	366.38
366.147	353.38
366.373	339.38
366.599	365.38
366.826	350.38
367.052	342.38
367.278	349.38
367.505	336.38
367.731	342.38
367.957	347.38
368.184	334.38
368.41	347.38
368.636	356.38
368.862	379.38
369.089	363.38
369.315	332.38
369.541	334.38
369.767	329.38
369.993	348.38
370.219	351.38
370.445	341.38
370.672	329.38
370.898	332.38
371.124	338.38
371.35	321.38
371.576	337.38
371.802	341.38
372.028	323.38
372.254	321.38
372.48	325.38
372.706	340.38
372.932	345.38
373.158	335.38
373.384	335.38
373.61	316.38
373.835	359.38
374.061	327.38
374.287	339.38
374.513	347.38
374.739	345.38
374.965	354.38
375.191	324.38
375.416	309.38
375.642	318.38
375.868	311.38
376.094	352.38
376.319	331.38
376.545	334.38
376.771	326.38
376.997	324.38
377.222	347.38
377.448	357.38
377.674	335.38
377.899	346.38
378.125	327.38
378.35	330.38
378.576	325.38
378.802	321.38
379.027	338.38
379.253	327.38
379.478	322.38
379.704	327.38
379.929	315.38
380.155	342.38
380.38	329.38
380.606	337.38
380.831	334.38
381.057	329.38
381.282	309.38
381.507	336.38
381.733	323.38
381.958	348.38
382.184	314.38
382.409	318.38
382.634	343.38
382.86	340.38
383.085	342.38
383.31	342.38
383.535	349.38
383.761	345.38
383.986	342.38
384.211	338.38
384.436	345.38
384.662	335.38
384.887	348.38
385.112	332.38
385.337	342.38
385.562	349.38
385.787	324.38
386.013	362.38
386.238	369.38
386.463	346.38
386.688	361.38
386.913	342.38
387.138	353.38
387.363	348.38
387.588	353.38
387.813	338.38
388.038	345.38
388.263	347.38
388.488	349.38
388.713	352.38
388.938	334.38
389.163	377.38
389.387	349.38
389.612	344.38
389.837	351.38
390.062	361.38
390.287	360.38
390.512	336.38
390.736	346.38
390.961	353.38
391.186	345.38
391.411	333.38
391.636	346.38
391.86	338.38
392.085	358.38
392.31	355.38
392.534	334.38
392.759	350.38
392.984	352.38
393.208	343.38
393.433	353.38
393.658	345.38
393.882	351.38
394.107	335.38
394.331	340.38
394.556	329.38
394.78	357.38
395.005	351.38
395.229	356.38
395.454	375.38
395.678	371.38
395.903	361.38
396.127	387.38
396.352	386.38
396.576	380.38
396.801	354.38
397.025	372.38
397.249	361.38
397.474	369.38
397.698	389.38
397.922	408.38
398.147	411.38
398.371	377.38
398.595	399.38
398.82	400.38
399.044	399.38
399.268	403.38
399.492	425.38
399.717	408.38
399.941	447.38
400.165	467.38
400.389	490.38
400.613	454.38
400.837	421.38
401.062	414.38
401.286	417.38
401.51	396.38
401.734	406.38
401.958	407.38
402.182	405.38
402.406	416.38
402.63	427.38
402.854	417.38
403.078	443.38
403.302	422.38
403.526	411.38
403.75	425.38
403.974	417.38
404.198	440.38
404.422	413.38
404.645	412.38
404.869	418.38
405.093	440.38
405.317	488.38
405.541	523.38
405.765	461.38
405.988	436.38
406.212	465.38
406.436	506.38
406.66	513.38
406.883	480.38
407.107	491.38
407.331	539.38
407.555	579.38
407.778	593.38
408.002	545.38
408.226	490.38
408.449	490.38
408.673	477.38
408.896	525.38
409.12	540.38
409.344	533.38
409.567	451.38
409.791	453.38
410.014	429.38
410.238	436.38
410.461	443.38
410.685	455.38
410.908	473.38
411.132	480.38
411.355	533.38
411.578	498.38
411.802	451.38
412.025	426.38
412.249	429.38
412.472	437.38
412.695	435.38
412.919	416.38
413.142	406.38
413.365	415.38
413.589	405.38
413.812	409.38
414.035	393.38
414.258	396.38
414.482	393.38
414.705	417.38
414.928	413.38
415.151	391.38
415.374	384.38
415.597	381.38
415.821	392.38
416.044	406.38
416.267	403.38
416.49	417.38
416.713	416.38
416.936	406.38
417.159	419.38
417.382	407.38
417.605	413.38
417.828	428.38
418.051	440.38
418.274	435.38
418.497	430.38
418.72	409.38
418.943	408.38
419.166	425.38
419.389	438.38
419.611	427.38
419.834	426.38
420.057	454.38
420.28	416.38
420.503	435.38
420.726	441.38
420.948	465.38
421.171	488.38
421.394	524.38
421.617	448.38
421.839	447.38
422.062	427.38
422.285	461.38
422.507	527.38
422.73	587.38
422.953	563.38
423.175	492.38
423.398	475.38
423.621	467.38
423.843	487.38
424.066	500.38
424.288	487.38
424.511	537.38
424.733	594.38
424.956	636.38
425.178	620.38
425.401	620.38
425.623	641.38
425.846	568.38
426.068	502.38
426.291	502.38
426.513	522.38
426.735	526.38
426.958	580.38
427.18	620.38
427.402	759.38
427.625	870.38
427.847	782.38
428.069	662.38
428.292	581.38
428.514	546.38
428.736	512.38
428.958	507.38
429.181	464.38
429.403	464.38
429.625	479.38
429.847	507.38
430.069	592.38
430.292	598.38
430.514	494.38
430.736	456.38
430.958	457.38
431.18	416.38
431.402	450.38
431.624	435.38
431.846	421.38
432.068	428.38
432.29	426.38
432.512	435.38
432.734	445.38
432.956	449.38
433.178	429.38
433.4	440.38
433.622	462.38
433.844	441.38
434.066	408.38
434.287	417.38
434.509	436.38
434.731	441.38
434.953	452.38
435.175	449.38
435.397	504.38
435.618	505.38
435.84	556.38
436.062	655.38
436.284	699.38
436.505	602.38
436.727	553.38
436.949	511.38
437.17	466.38
437.392	504.38
437.614	513.38
437.835	557.38
438.057	681.38
438.278	727.38
438.5	731.38
438.721	797.38
438.943	727.38
439.165	627.38
439.386	572.38
439.608	526.38
439.829	563.38
440.05	580.38
440.272	602.38
440.493	594.38
440.715	542.38
440.936	493.38
441.158	492.38
441.379	459.38
441.6	473.38
441.822	536.38
442.043	557.38
442.264	647.38
442.486	679.38
442.707	583.38
442.928	546.38
443.149	523.38
443.371	555.38
443.592	621.38
443.813	697.38
444.034	733.38
444.255	612.38
444.476	533.38
444.698	531.38
444.919	496.38
445.14	619.38
445.361	575.38
445.582	550.38
445.803	614.38
446.024	716.38
446.245	722.38
446.466	681.38
446.687	591.38
446.908	535.38
447.129	493.38
447.35	486.38
447.571	484.38
447.792	490.38
448.013	491.38
448.234	503.38
448.455	577.38
448.675	680.38
448.896	758.38
449.117	657.38
449.338	639.38
449.559	719.38
449.779	803.38
450	689.38
450.221	571.38
450.442	529.38
450.662	511.38
450.883	495.38
451.104	523.38
451.324	531.38
451.545	481.38
451.766	470.38
451.986	436.38
452.207	435.38
452.428	430.38
452.648	422.38
452.869	433.38
453.089	458.38
453.31	467.38
453.53	459.38
453.751	448.38
453.971	451.38
454.192	463.38
454.412	453.38
454.633	467.38
454.853	445.38
455.073	418.38
455.294	468.38
455.514	557.38
455.734	522.38
455.955	441.38
456.175	408.38
456.395	395.38
456.616	398.38
456.836	406.38
457.056	379.38
457.276	392.38
457.497	391.38
457.717	393.38
457.937	437.38
458.157	414.38
458.377	401.38
458.598	443.38
458.818	527.38
459.038	669.38
459.258	656.38
459.478	527.38
459.698	478.38
459.918	445.38
460.138	439.38
460.358	425.38
460.578	417.38
460.798	428.38
461.018	430.38
461.238	407.38
461.458	405.38
461.678	415.38
461.898	411.38
462.118	411.38
462.338	400.38
462.558	421.38
462.777	419.38
462.997	438.38
463.217	412.38
463.437	438.38
463.657	418.38
463.876	439.38
464.096	417.38
464.316	449.38
464.536	444.38
464.755	463.38
464.975	488.38
465.195	544.38
465.414	675.38
465.634	593.38
465.854	503.38
466.073	479.38
466.293	435.38
466.512	423.38
466.732	434.38
466.951	433.38
467.171	415.38
467.391	424.38
467.61	431.38
467.829	449.38
468.049	449.38
468.268	423.38
468.488	440.38
468.707	417.38
468.927	421.38
469.146	387.38
469.365	415.38
469.585	421.38
469.804	437.38
470.023	455.38
470.243	442.38
470.462	463.38
470.681	490.38
470.901	480.38
471.12	442.38
471.339	442.38
471.558	434.38
471.777	425.38
471.997	428.38
472.216	418.38
472.435	425.38
472.654	443.38
472.873	424.38
473.092	421.38
473.311	423.38
473.53	433.38
473.749	462.38
473.968	484.38
474.187	599.38
474.406	621.38
474.625	498.38
474.844	471.38
475.063	441.38
475.282	437.38
475.501	449.38
475.72	417.38
475.939	443.38
476.158	444.38
476.377	435.38
476.596	433.38
476.814	465.38
477.033	464.38
477.252	482.38
477.471	465.38
477.69	476.38
477.908	457.38
478.127	450.38
478.346	438.38
478.564	458.38
478.783	458.38
479.002	479.38
479.22	491.38
479.439	506.38
479.658	541.38
479.876	545.38
480.095	522.38
480.313	571.38
480.532	534.38
480.751	513.38
480.969	516.38
481.188	526.38
481.406	564.38
481.624	542.38
481.843	494.38
482.061	514.38
482.28	519.38
482.498	508.38
482.717	527.38
482.935	523.38
483.153	513.38
483.372	522.38
483.59	511.38
483.808	510.38
484.027	509.38
484.245	506.38
484.463	509.38
484.681	511.38
484.9	522.38
485.118	550.38
485.336	536.38
485.554	537.38
485.772	524.38
485.99	515.38
486.209	556.38
486.427	537.38
486.645	575.38
486.863	593.38
487.081	569.38
487.299	570.38
487.517	569.38
487.735	531.38
487.953	543.38
488.171	556.38
488.389	562.38
488.607	571.38
488.825	587.38
489.043	570.38
489.261	565.38
489.479	574.38
489.696	592.38
489.914	547.38
490.132	574.38
490.35	607.38
490.568	595.38
490.786	613.38
491.003	592.38
491.221	595.38
491.439	630.38
491.657	630.38
491.874	623.38
492.092	644.38
492.31	645.38
492.527	645.38
492.745	647.38
492.963	665.38
493.18	651.38
493.398	645.38
493.615	673.38
493.833	706.38
494.05	665.38
494.268	697.38
494.485	659.38
494.703	675.38
494.92	662.38
495.138	646.38
495.355	660.38
495.573	678.38
495.79	694.38
496.008	686.38
496.225	662.38
496.442	661.38
496.66	677.38
496.877	656.38
497.094	684.38
497.312	669.38
497.529	706.38
497.746	711.38
497.963	706.38
498.181	710.38
498.398	711.38
498.615	716.38
498.832	701.38
499.049	723.38
499.267	735.38
499.484	713.38
499.701	728.38
499.918	766.38
500.135	751.38
500.352	805.38
500.569	777.38
500.786	779.38
501.003	775.38
501.22	790.38
501.437	791.38
501.654	793.38
501.871	793.38
502.088	796.38
502.305	734.38
502.522	747.38
502.739	709.38
502.956	736.38
503.172	714.38
503.389	721.38
503.606	705.38
503.823	722.38
504.04	699.38
504.256	698.38
504.473	691.38
504.69	636.38
504.907	680.38
505.123	670.38
505.34	659.38
505.557	677.38
505.773	691.38
505.99	695.38
506.207	667.38
506.423	663.38
506.64	636.38
506.856	654.38
507.073	661.38
507.289	649.38
507.506	705.38
507.722	704.38
507.939	709.38
508.155	681.38
508.372	662.38
508.588	659.38
508.805	661.38
509.021	654.38
509.238	673.38
509.454	693.38
509.67	659.38
509.887	656.38
510.103	678.38
510.319	682.38
510.536	824.38
510.752	1490.38
510.968	1256.38
511.184	748.38
511.401	679.38
511.617	652.38
511.833	625.38
512.049	639.38
512.265	639.38
512.481	646.38
512.698	617.38
512.914	619.38
513.13	640.38
513.346	647.38
513.562	632.38
513.778	653.38
513.994	650.38
514.21	682.38
514.426	722.38
514.642	769.38
514.858	821.38
515.074	908.38
515.29	1131.38
515.506	1753.38
515.721	1413.38
515.937	881.38
516.153	780.38
516.369	710.38
516.585	676.38
516.801	670.38
517.016	651.38
517.232	653.38
517.448	648.38
517.664	652.38
517.879	638.38
518.095	636.38
518.311	635.38
518.527	612.38
518.742	653.38
518.958	623.38
519.173	656.38
519.389	619.38
519.605	643.38
519.82	655.38
520.036	700.38
520.251	711.38
520.467	776.38
520.682	793.38
520.898	781.38
521.113	824.38
521.329	903.38
521.544	1066.38
521.76	1382.38
521.975	2387.38
522.19	2351.38
522.406	1258.38
522.621	863.38
522.836	740.38
523.052	697.38
523.267	635.38
523.482	641.38
523.698	631.38
523.913	632.38
524.128	633.38
524.343	589.38
524.559	575.38
524.774	567.38
524.989	559.38
525.204	577.38
525.419	574.38
525.634	544.38
525.849	526.38
526.064	522.38
526.28	521.38
526.495	517.38
526.71	505.38
526.925	503.38
527.14	530.38
527.355	517.38
527.57	496.38
527.785	489.38
527.999	501.38
528.214	506.38
528.429	485.38
528.644	478.38
528.859	509.38
529.074	523.38
529.289	553.38
529.503	657.38
529.718	635.38
529.933	592.38
530.148	535.38
530.363	506.38
530.577	499.38
530.792	501.38
531.007	480.38
531.221	473.38
531.436	481.38
531.651	470.38
531.865	480.38
532.08	463.38
532.295	466.38
532.509	454.38
532.724	455.38
532.938	454.38
533.153	454.38
533.367	456.38
533.582	462.38
533.796	464.38
534.011	440.38
534.225	459.38
534.44	451.38
534.654	452.38
534.868	447.38
535.083	453.38
535.297	463.38
535.511	469.38
535.726	495.38
535.94	476.38
536.154	444.38
536.369	474.38
536.583	463.38
536.797	444.38
537.011	442.38
537.225	455.38
537.44	444.38
537.654	417.38
537.868	451.38
538.082	442.38
538.296	445.38
538.51	438.38
538.724	472.38
538.938	448.38
539.153	443.38
539.367	471.38
539.581	489.38
539.795	459.38
540.009	439.38
540.222	443.38
540.436	433.38
540.65	445.38
540.864	449.38
541.078	470.38
541.292	466.38
541.506	450.38
541.72	448.38
541.934	429.38
542.147	439.38
542.361	442.38
542.575	436.38
542.789	422.38
543.002	423.38
543.216	449.38
543.43	435.38
543.644	456.38
543.857	445.38
544.071	434.38
544.285	433.38
544.498	442.38
544.712	410.38
544.925	441.38
545.139	418.38
545.352	423.38
545.566	424.38
545.779	415.38
545.993	405.38
546.206	406.38
546.42	421.38
546.633	409.38
546.847	398.38
547.06	404.38
547.274	414.38
547.487	415.38
547.7	418.38
547.914	398.38
548.127	398.38
548.34	418.38
548.554	394.38
548.767	422.38
548.98	418.38
549.193	412.38
549.407	395.38
549.62	405.38
549.833	417.38
550.046	397.38
550.259	393.38
550.473	409.38
550.686	387.38
550.899	390.38
551.112	366.38
551.325	387.38
551.538	402.38
551.751	383.38
551.964	368.38
552.177	374.38
552.39	376.38
552.603	383.38
552.816	391.38
553.029	393.38
553.242	416.38
553.455	407.38
553.667	410.38
553.88	417.38
554.093	411.38
554.306	399.38
554.519	405.38
554.732	386.38
554.944	409.38
555.157	376.38
555.37	385.38
555.583	391.38
555.795	374.38
556.008	380.38
556.221	379.38
556.433	377.38
556.646	360.38
556.859	377.38
557.071	379.38
557.284	365.38
557.496	364.38
557.709	361.38
557.921	367.38
558.134	361.38
558.346	358.38
558.559	373.38
558.771	349.38
558.984	355.38
559.196	342.38
559.409	370.38
559.621	370.38
559.833	357.38
560.046	361.38
560.258	359.38
560.47	377.38
560.683	353.38
560.895	356.38
561.107	375.38
561.32	359.38
561.532	367.38
561.744	354.38
561.956	356.38
562.168	355.38
562.381	364.38
562.593	369.38
562.805	357.38
563.017	369.38
563.229	354.38
563.441	372.38
563.653	383.38
563.865	342.38
564.077	337.38
564.289	358.38
564.501	365.38
564.713	359.38
564.925	393.38
565.137	383.38
565.349	367.38
565.561	376.38
565.773	391.38
565.985	377.38
566.197	380.38
566.408	376.38
566.62	384.38
566.832	389.38
567.044	383.38
567.255	388.38
567.467	395.38
567.679	395.38
567.891	415.38
568.102	388.38
568.314	385.38
568.526	399.38
568.737	366.38
568.949	350.38
569.161	350.38
569.372	360.38
569.584	362.38
569.795	352.38
570.007	367.38
570.218	438.38
570.43	415.38
570.641	353.38
570.853	358.38
571.064	346.38
571.276	345.38
571.487	335.38
571.698	329.38
571.91	348.38
572.121	336.38
572.333	332.38
572.544	327.38
572.755	318.38
572.966	323.38
573.178	326.38
573.389	305.38
573.6	322.38
573.811	317.38
574.023	309.38
574.234	309.38
574.445	306.38
574.656	295.38
574.867	309.38
575.078	325.38
575.289	316.38
575.501	323.38
575.712	298.38
575.923	321.38
576.134	314.38
576.345	305.38
576.556	319.38
576.767	291.38
576.978	309.38
577.188	309.38
577.399	315.38
577.61	303.38
577.821	300.38
578.032	331.38
578.243	374.38
578.454	685.38
578.665	483.38
578.875	339.38
579.086	319.38
579.297	299.38
579.508	292.38
579.718	298.38
579.929	294.38
580.14	286.38
580.35	300.38
580.561	293.38
580.772	290.38
580.982	289.38
581.193	287.38
581.403	294.38
581.614	297.38
581.825	271.38
582.035	269.38
582.246	289.38
582.456	281.38
582.667	292.38
582.877	267.38
583.087	278.38
583.298	282.38
583.508	266.38
583.719	287.38
583.929	295.38
584.139	284.38
584.35	283.38
584.56	294.38
584.77	269.38
584.981	301.38
585.191	274.38
585.401	282.38
585.611	294.38
585.821	290.38
586.032	298.38
586.242	286.38
586.452	265.38
586.662	279.38
586.872	275.38
587.082	255.38
587.292	274.38
587.502	280.38
587.713	260.38
587.923	282.38
588.133	261.38
588.343	269.38
588.553	268.38
588.762	270.38
588.972	249.38
589.182	300.38
589.392	281.38
589.602	292.38
589.812	261.38
590.022	281.38
590.232	262.38
590.441	263.38
590.651	268.38
590.861	262.38
591.071	287.38
591.281	267.38
591.49	254.38
591.7	270.38
591.91	277.38
592.119	257.38
592.329	272.38
592.539	289.38
592.748	281.38
592.958	268.38
593.167	265.38
593.377	271.38
593.587	273.38
593.796	281.38
594.006	273.38
594.215	277.38
594.424	273.38
594.634	256.38
594.843	261.38
595.053	258.38
595.262	250.38
595.472	243.38
595.681	253.38
595.89	248.38
596.1	263.38
596.309	272.38
596.518	270.38
596.727	259.38
596.937	242.38
597.146	229.38
597.355	253.38
597.564	270.38
597.774	249.38
597.983	254.38
598.192	244.38
598.401	238.38
598.61	246.38
598.819	246.38
599.028	233.38
599.237	236.38
599.446	259.38
599.655	231.38
599.864	234.38
600.073	252.38
600.282	241.38
600.491	250.38
600.7	264.38
600.909	251.38
601.118	230.38
601.327	215.38
601.536	219.38
601.745	232.38
601.953	247.38
602.162	224.38
602.371	225.38
602.58	267.38
602.789	248.38
602.997	221.38
603.206	227.38
603.415	221.38
603.623	231.38
603.832	231.38
604.041	230.38
604.249	221.38
604.458	235.38
604.666	234.38
604.875	234.38
605.084	220.38
605.292	226.38
605.501	222.38
605.709	245.38
605.918	250.38
606.126	215.38
606.334	236.38
606.543	221.38
606.751	228.38
606.96	224.38
607.168	220.38
607.376	227.38
607.585	243.38
607.793	243.38
608.001	223.38
608.21	235.38
608.418	224.38
608.626	231.38
608.834	229.38
609.043	226.38
609.251	234.38
609.459	226.38
609.667	213.38
609.875	222.38
610.083	219.38
610.291	225.38
610.499	224.38
610.707	217.38
610.916	215.38
611.124	230.38
611.332	247.38
611.54	249.38
611.748	221.38
611.955	229.38
612.163	213.38
612.371	226.38
612.579	225.38
612.787	241.38
612.995	232.38
613.203	217.38
613.411	217.38
613.618	212.38
613.826	214.38
614.034	216.38
614.242	213.38
614.449	219.38
614.657	220.38
614.865	217.38
615.072	208.38
615.28	234.38
615.488	213.38
615.695	195.38
615.903	219.38
616.111	207.38
616.318	225.38
616.526	217.38
616.733	225.38
616.941	215.38
617.148	211.38
617.356	215.38
617.563	212.38
617.771	219.38
617.978	200.38
618.185	200.38
618.393	211.38
618.6	207.38
618.807	209.38
619.015	215.38
619.222	211.38
619.429	218.38
619.637	228.38
619.844	218.38
620.051	216.38
620.258	211.38
620.466	210.38
620.673	203.38
620.88	190.38
621.087	207.38
621.294	221.38
621.501	212.38
621.708	220.38
621.915	225.38
622.122	205.38
622.329	207.38
622.536	215.38
622.743	203.38
622.95	199.38
623.157	205.38
623.364	212.38
623.571	190.38
623.778	194.38
623.985	223.38
624.192	197.38
624.399	210.38
624.606	202.38
624.812	207.38
625.019	190.38
625.226	194.38
625.433	206.38
625.639	193.38
625.846	195.38
626.053	198.38
626.259	193.38
626.466	184.38
626.673	205.38
626.879	188.38
627.086	193.38
627.293	188.38
627.499	184.38
627.706	195.38
627.912	211.38
628.119	190.38
628.325	187.38
628.532	186.38
628.738	180.38
628.945	179.38
629.151	188.38
629.357	194.38
629.564	196.38
629.77	212.38
629.976	189.38
630.183	194.38
630.389	187.38
630.595	168.38
630.802	188.38
631.008	191.38
631.214	187.38
631.42	172.38
631.627	190.38
631.833	190.38
632.039	187.38
632.245	189.38
632.451	177.38
632.657	179.38
632.863	188.38
633.069	186.38
633.275	180.38
633.481	183.38
633.688	171.38
633.893	192.38
634.099	177.38
634.305	181.38
634.511	174.38
634.717	174.38
634.923	170.38
635.129	163.38
635.335	178.38
635.541	163.38
635.747	177.38
635.952	157.38
636.158	155.38
636.364	161.38
636.57	183.38
636.775	189.38
636.981	163.38
637.187	155.38
637.392	172.38
637.598	157.38
637.804	172.38
638.009	161.38
638.215	165.38
638.421	156.38
638.626	168.38
638.832	170.38
639.037	162.38
639.243	153.38
639.448	155.38
639.654	172.38
639.859	162.38
640.065	161.38
640.27	168.38
640.475	153.38
640.681	169.38
640.886	166.38
641.091	166.38
641.297	161.38
641.502	158.38
641.707	167.38
641.913	171.38
642.118	163.38
642.323	162.38
642.528	163.38
642.733	186.38
642.939	181.38
643.144	171.38
643.349	167.38
643.554	155.38
643.759	162.38
643.964	162.38
644.169	169.38
644.374	172.38
644.579	160.38
644.784	138.38
644.989	159.38
645.194	157.38
645.399	144.38
645.604	153.38
645.809	149.38
646.014	148.38
646.219	159.38
646.423	160.38
646.628	175.38
646.833	165.38
647.038	159.38
647.243	161.38
647.447	170.38
647.652	163.38
647.857	144.38
648.062	148.38
648.266	160.38
648.471	162.38
648.676	161.38
648.88	160.38
649.085	169.38
649.289	155.38
649.494	164.38
649.698	166.38
649.903	170.38
650.107	164.38
650.312	165.38
650.516	165.38
650.721	151.38
650.925	147.38
651.13	149.38
651.334	143.38
651.539	154.38
651.743	141.38
651.947	131.38
652.152	135.38
652.356	150.38
652.56	138.38
652.764	137.38
652.969	155.38
653.173	134.38
653.377	136.38
653.581	144.38
653.785	133.38
653.99	130.38
654.194	123.38
654.398	134.38
654.602	123.38
654.806	121.38
655.01	129.38
655.214	148.38
655.418	127.38
655.622	126.38
655.826	116.38
656.03	130.38
656.234	111.38
656.438	128.38
656.642	104.38
656.846	110.38
657.049	116.38
657.253	118.38
657.457	125.38
657.661	110.38
657.865	105.38
658.068	102.38
658.272	92.38
658.476	110.38
658.68	110.38
658.883	92.38
659.087	101.38
659.291	110.38
659.494	107.38
659.698	94.38
659.901	96.38
660.105	107.38
660.309	98.38
660.512	95.38
660.716	92.38
660.919	77.38
661.123	70.38
661.326	94.38
661.53	94.38
661.733	74.38
661.936	102.38
662.14	100.38
662.343	85.38
662.546	76.38
662.75	94.38
662.953	84.38
663.156	83.38
663.36	84.38
663.563	100.38
663.766	90.38
663.969	78.38
664.173	76.38
664.376	82.38
664.579	72.38
664.782	89.38
664.985	90.38
665.188	88.38
665.391	98.38
665.594	79.38
665.797	79.38
666	90.38
666.203	79.38
666.406	82.38
666.609	85.38
666.812	71.38
667.015	81.38
667.218	87.38
667.421	77.38
667.624	80.38
667.827	76.38
668.03	76.38
668.232	84.38
668.435	81.38
668.638	80.38
668.841	69.38
669.043	92.38
669.246	85.38
669.449	97.38
669.651	96.38
669.854	90.38
670.057	70.38
670.259	93.38
670.462	81.38
670.665	86.38
670.867	83.38
671.07	82.38
671.272	86.38
671.475	82.38
671.677	69.38
671.88	77.38
672.082	89.38
672.284	84.38
672.487	93.38
672.689	88.38
672.892	68.38
