Data from 1987.PennyLincolnUp.Lamp.En5.5.200Scan.071819.P2_HRD10591_17-16-06-971.txt Node
Date: Thu Jul 18 17:16:06 EDT 2019
User: cochatt
Spectrometer: HR+D1059
Trigger mode: 1
Integration Time (sec): 1.000000E-1
Scans to average: 1
Electric dark correction enabled: true
Nonlinearity correction enabled: false
Boxcar width: 0
XAxis mode: Wavelengths
Number of Pixels in Spectrum: 2048
>>>>>Begin Spectral Data<<<<<
223.165	-16.94
223.4	-16.94
223.635	-16.94
223.869	-17.94
224.104	-19.94
224.338	-5.94
224.573	-3.94
224.808	-25.94
225.042	-19.94
225.277	-4.94
225.511	1.06
225.746	-4.94
225.98	0.06
226.215	14.06
226.449	18.06
226.683	14.06
226.918	30.06
227.152	43.06
227.387	30.06
227.621	31.06
227.856	44.06
228.09	52.06
228.324	55.06
228.559	53.06
228.793	59.06
229.027	95.06
229.262	117.06
229.496	131.06
229.73	148.06
229.964	174.06
230.199	146.06
230.433	117.06
230.667	118.06
230.901	137.06
231.136	106.06
231.37	123.06
231.604	132.06
231.838	102.06
232.072	114.06
232.306	121.06
232.541	127.06
232.775	100.06
233.009	108.06
233.243	119.06
233.477	109.06
233.711	121.06
233.945	118.06
234.179	109.06
234.413	131.06
234.647	123.06
234.881	119.06
235.115	121.06
235.349	114.06
235.583	124.06
235.817	123.06
236.051	120.06
236.285	124.06
236.519	141.06
236.753	127.06
236.987	155.06
237.221	180.06
237.455	275.06
237.689	202.06
237.922	145.06
238.156	141.06
238.39	146.06
238.624	124.06
238.858	131.06
239.091	125.06
239.325	116.06
239.559	124.06
239.793	135.06
240.027	143.06
240.26	147.06
240.494	175.06
240.728	166.06
240.961	140.06
241.195	140.06
241.429	145.06
241.662	134.06
241.896	135.06
242.13	139.06
242.363	130.06
242.597	126.06
242.83	127.06
243.064	117.06
243.298	135.06
243.531	133.06
243.765	137.06
243.998	135.06
244.232	135.06
244.465	126.06
244.699	131.06
244.932	129.06
245.166	146.06
245.399	145.06
245.633	136.06
245.866	137.06
246.099	146.06
246.333	155.06
246.566	146.06
246.8	127.06
247.033	155.06
247.266	151.06
247.5	150.06
247.733	146.06
247.966	166.06
248.2	160.06
248.433	177.06
248.666	185.06
248.899	204.06
249.133	199.06
249.366	221.06
249.599	215.06
249.832	195.06
250.066	171.06
250.299	154.06
250.532	182.06
250.765	181.06
250.998	206.06
251.231	222.06
251.465	210.06
251.698	209.06
251.931	197.06
252.164	171.06
252.397	180.06
252.63	188.06
252.863	198.06
253.096	217.06
253.329	212.06
253.562	220.06
253.795	218.06
254.028	226.06
254.261	218.06
254.494	224.06
254.727	267.06
254.96	293.06
255.193	285.06
255.426	244.06
255.659	217.06
255.892	231.06
256.124	218.06
256.357	205.06
256.59	206.06
256.823	200.06
257.056	184.06
257.289	191.06
257.521	187.06
257.754	200.06
257.987	206.06
258.22	185.06
258.452	196.06
258.685	205.06
258.918	209.06
259.151	215.06
259.383	208.06
259.616	195.06
259.849	211.06
260.081	220.06
260.314	243.06
260.547	265.06
260.779	230.06
261.012	229.06
261.244	218.06
261.477	211.06
261.71	212.06
261.942	193.06
262.175	227.06
262.407	220.06
262.64	206.06
262.872	221.06
263.105	201.06
263.337	188.06
263.57	205.06
263.802	202.06
264.035	191.06
264.267	185.06
264.499	196.06
264.732	191.06
264.964	194.06
265.197	197.06
265.429	208.06
265.661	194.06
265.894	190.06
266.126	195.06
266.358	177.06
266.591	197.06
266.823	205.06
267.055	194.06
267.287	207.06
267.52	207.06
267.752	204.06
267.984	211.06
268.216	219.06
268.448	212.06
268.681	205.06
268.913	221.06
269.145	242.06
269.377	239.06
269.609	243.06
269.841	235.06
270.073	260.06
270.306	289.06
270.538	293.06
270.77	303.06
271.002	311.06
271.234	281.06
271.466	291.06
271.698	297.06
271.93	330.06
272.162	301.06
272.394	324.06
272.626	294.06
272.858	288.06
273.09	273.06
273.322	265.06
273.553	239.06
273.785	245.06
274.017	258.06
274.249	245.06
274.481	228.06
274.713	241.06
274.945	244.06
275.176	251.06
275.408	246.06
275.64	233.06
275.872	241.06
276.104	234.06
276.335	237.06
276.567	248.06
276.799	267.06
277.031	285.06
277.262	300.06
277.494	313.06
277.726	289.06
277.957	270.06
278.189	242.06
278.421	255.06
278.652	229.06
278.884	231.06
279.115	245.06
279.347	218.06
279.579	225.06
279.81	209.06
280.042	233.06
280.273	229.06
280.505	234.06
280.736	225.06
280.968	233.06
281.199	236.06
281.431	228.06
281.662	224.06
281.894	241.06
282.125	226.06
282.356	260.06
282.588	287.06
282.819	277.06
283.051	251.06
283.282	222.06
283.513	223.06
283.745	222.06
283.976	244.06
284.207	237.06
284.439	245.06
284.67	222.06
284.901	225.06
285.132	229.06
285.364	226.06
285.595	235.06
285.826	222.06
286.057	241.06
286.288	229.06
286.52	228.06
286.751	246.06
286.982	230.06
287.213	221.06
287.444	218.06
287.675	237.06
287.906	237.06
288.138	248.06
288.369	247.06
288.6	248.06
288.831	247.06
289.062	231.06
289.293	236.06
289.524	237.06
289.755	234.06
289.986	225.06
290.217	231.06
290.448	242.06
290.679	238.06
290.91	243.06
291.141	238.06
291.371	235.06
291.602	231.06
291.833	244.06
292.064	225.06
292.295	239.06
292.526	230.06
292.757	245.06
292.987	216.06
293.218	232.06
293.449	244.06
293.68	233.06
293.91	238.06
294.141	232.06
294.372	241.06
294.603	234.06
294.833	222.06
295.064	229.06
295.295	235.06
295.525	249.06
295.756	253.06
295.987	257.06
296.217	295.06
296.448	302.06
296.679	272.06
296.909	246.06
297.14	248.06
297.37	243.06
297.601	257.06
297.831	243.06
298.062	226.06
298.292	233.06
298.523	241.06
298.753	248.06
298.984	223.06
299.214	239.06
299.445	243.06
299.675	252.06
299.905	274.06
300.136	269.06
300.366	246.06
300.597	239.06
300.827	257.06
301.057	273.06
301.288	260.06
301.518	268.06
301.748	272.06
301.979	280.06
302.209	252.06
302.439	271.06
302.669	271.06
302.9	279.06
303.13	269.06
303.36	262.06
303.59	285.06
303.82	280.06
304.051	289.06
304.281	253.06
304.511	259.06
304.741	263.06
304.971	261.06
305.201	249.06
305.431	247.06
305.661	283.06
305.891	270.06
306.121	263.06
306.352	291.06
306.582	274.06
306.812	276.06
307.042	289.06
307.272	255.06
307.502	248.06
307.731	273.06
307.961	269.06
308.191	268.06
308.421	280.06
308.651	278.06
308.881	290.06
309.111	321.06
309.341	284.06
309.571	295.06
309.8	323.06
310.03	321.06
310.26	360.06
310.49	346.06
310.72	359.06
310.949	393.06
311.179	372.06
311.409	347.06
311.639	340.06
311.868	343.06
312.098	350.06
312.328	362.06
312.557	392.06
312.787	397.06
313.017	393.06
313.246	364.06
313.476	333.06
313.706	343.06
313.935	344.06
314.165	361.06
314.394	386.06
314.624	362.06
314.853	343.06
315.083	345.06
315.312	330.06
315.542	334.06
315.771	326.06
316.001	319.06
316.23	329.06
316.46	317.06
316.689	323.06
316.919	333.06
317.148	347.06
317.377	354.06
317.607	336.06
317.836	331.06
318.065	319.06
318.295	332.06
318.524	326.06
318.753	329.06
318.983	326.06
319.212	328.06
319.441	346.06
319.67	340.06
319.9	348.06
320.129	315.06
320.358	334.06
320.587	342.06
320.816	360.06
321.046	371.06
321.275	360.06
321.504	365.06
321.733	352.06
321.962	384.06
322.191	401.06
322.42	420.06
322.649	426.06
322.878	447.06
323.108	451.06
323.337	515.06
323.566	550.06
323.795	589.06
324.024	672.06
324.253	843.06
324.482	1234.06
324.71	1909.06
324.939	2664.06
325.168	2353.06
325.397	1267.06
325.626	830.06
325.855	613.06
326.084	547.06
326.313	533.06
326.542	549.06
326.77	606.06
326.999	753.06
327.228	1085.06
327.457	1613.06
327.686	1997.06
327.914	1436.06
328.143	878.06
328.372	742.06
328.6	661.06
328.829	641.06
329.058	650.06
329.287	658.06
329.515	586.06
329.744	512.06
329.972	488.06
330.201	496.06
330.43	549.06
330.658	614.06
330.887	669.06
331.115	643.06
331.344	533.06
331.572	486.06
331.801	487.06
332.03	469.06
332.258	436.06
332.486	405.06
332.715	395.06
332.943	399.06
333.172	399.06
333.4	387.06
333.629	394.06
333.857	413.06
334.085	406.06
334.314	389.06
334.542	395.06
334.771	408.06
334.999	405.06
335.227	405.06
335.455	383.06
335.684	377.06
335.912	369.06
336.14	358.06
336.369	353.06
336.597	377.06
336.825	397.06
337.053	363.06
337.281	375.06
337.51	346.06
337.738	353.06
337.966	379.06
338.194	381.06
338.422	389.06
338.65	370.06
338.878	379.06
339.106	383.06
339.334	341.06
339.562	377.06
339.79	371.06
340.018	369.06
340.246	370.06
340.474	379.06
340.702	383.06
340.93	353.06
341.158	371.06
341.386	378.06
341.614	413.06
341.842	376.06
342.07	356.06
342.298	356.06
342.526	342.06
342.754	360.06
342.981	350.06
343.209	339.06
343.437	338.06
343.665	328.06
343.893	361.06
344.12	346.06
344.348	345.06
344.576	366.06
344.804	381.06
345.031	403.06
345.259	415.06
345.487	401.06
345.714	405.06
345.942	376.06
346.17	357.06
346.397	356.06
346.625	343.06
346.853	364.06
347.08	366.06
347.308	364.06
347.535	403.06
347.763	395.06
347.99	407.06
348.218	383.06
348.445	411.06
348.673	396.06
348.9	373.06
349.128	354.06
349.355	344.06
349.583	334.06
349.81	350.06
350.037	364.06
350.265	355.06
350.492	342.06
350.72	350.06
350.947	364.06
351.174	399.06
351.402	398.06
351.629	374.06
351.856	371.06
352.083	405.06
352.311	409.06
352.538	413.06
352.765	417.06
352.992	395.06
353.22	382.06
353.447	366.06
353.674	369.06
353.901	371.06
354.128	347.06
354.355	346.06
354.583	356.06
354.81	356.06
355.037	323.06
355.264	331.06
355.491	314.06
355.718	322.06
355.945	320.06
356.172	318.06
356.399	337.06
356.626	322.06
356.853	327.06
357.08	312.06
357.307	304.06
357.534	309.06
357.761	335.06
357.988	345.06
358.215	327.06
358.441	339.06
358.668	329.06
358.895	342.06
359.122	333.06
359.349	346.06
359.576	376.06
359.802	387.06
360.029	444.06
360.256	454.06
360.483	462.06
360.709	418.06
360.936	402.06
361.163	373.06
361.39	397.06
361.616	377.06
361.843	361.06
362.07	371.06
362.296	393.06
362.523	388.06
362.749	375.06
362.976	365.06
363.203	355.06
363.429	346.06
363.656	365.06
363.882	336.06
364.109	341.06
364.335	345.06
364.562	346.06
364.788	339.06
365.015	332.06
365.241	337.06
365.468	364.06
365.694	344.06
365.92	362.06
366.147	373.06
366.373	339.06
366.599	354.06
366.826	340.06
367.052	329.06
367.278	322.06
367.505	338.06
367.731	340.06
367.957	340.06
368.184	350.06
368.41	345.06
368.636	381.06
368.862	346.06
369.089	349.06
369.315	340.06
369.541	339.06
369.767	347.06
369.993	332.06
370.219	336.06
370.445	335.06
370.672	327.06
370.898	311.06
371.124	327.06
371.35	335.06
371.576	315.06
371.802	328.06
372.028	338.06
372.254	327.06
372.48	330.06
372.706	338.06
372.932	323.06
373.158	324.06
373.384	320.06
373.61	339.06
373.835	331.06
374.061	323.06
374.287	332.06
374.513	319.06
374.739	342.06
374.965	340.06
375.191	333.06
375.416	310.06
375.642	318.06
375.868	343.06
376.094	332.06
376.319	327.06
376.545	321.06
376.771	311.06
376.997	331.06
377.222	305.06
377.448	345.06
377.674	307.06
377.899	321.06
378.125	318.06
378.35	313.06
378.576	342.06
378.802	334.06
379.027	314.06
379.253	339.06
379.478	313.06
379.704	334.06
379.929	322.06
380.155	334.06
380.38	333.06
380.606	323.06
380.831	363.06
381.057	340.06
381.282	330.06
381.507	332.06
381.733	318.06
381.958	312.06
382.184	334.06
382.409	330.06
382.634	311.06
382.86	310.06
383.085	324.06
383.31	342.06
383.535	336.06
383.761	324.06
383.986	339.06
384.211	326.06
384.436	327.06
384.662	322.06
384.887	327.06
385.112	341.06
385.337	325.06
385.562	336.06
385.787	350.06
386.013	360.06
386.238	360.06
386.463	351.06
386.688	344.06
386.913	333.06
387.138	353.06
387.363	366.06
387.588	363.06
387.813	340.06
388.038	353.06
388.263	362.06
388.488	335.06
388.713	341.06
388.938	357.06
389.163	382.06
389.387	349.06
389.612	340.06
389.837	337.06
390.062	337.06
390.287	344.06
390.512	335.06
390.736	335.06
390.961	350.06
391.186	321.06
391.411	334.06
391.636	330.06
391.86	348.06
392.085	335.06
392.31	363.06
392.534	359.06
392.759	341.06
392.984	325.06
393.208	338.06
393.433	349.06
393.658	340.06
393.882	361.06
394.107	347.06
394.331	331.06
394.556	333.06
394.78	325.06
395.005	341.06
395.229	347.06
395.454	333.06
395.678	342.06
395.903	353.06
396.127	383.06
396.352	401.06
396.576	378.06
396.801	400.06
397.025	374.06
397.249	363.06
397.474	355.06
397.698	360.06
397.922	389.06
398.147	390.06
398.371	387.06
398.595	393.06
398.82	380.06
399.044	389.06
399.268	385.06
399.492	411.06
399.717	430.06
399.941	440.06
400.165	479.06
400.389	497.06
400.613	457.06
400.837	427.06
401.062	386.06
401.286	394.06
401.51	393.06
401.734	388.06
401.958	375.06
402.182	383.06
402.406	414.06
402.63	429.06
402.854	395.06
403.078	415.06
403.302	404.06
403.526	401.06
403.75	440.06
403.974	412.06
404.198	414.06
404.422	402.06
404.645	411.06
404.869	414.06
405.093	432.06
405.317	462.06
405.541	476.06
405.765	461.06
405.988	438.06
406.212	450.06
406.436	479.06
406.66	503.06
406.883	489.06
407.107	513.06
407.331	553.06
407.555	598.06
407.778	586.06
408.002	542.06
408.226	479.06
408.449	488.06
408.673	482.06
408.896	498.06
409.12	517.06
409.344	513.06
409.567	470.06
409.791	442.06
410.014	418.06
410.238	408.06
410.461	427.06
410.685	430.06
410.908	433.06
411.132	468.06
411.355	515.06
411.578	485.06
411.802	432.06
412.025	413.06
412.249	430.06
412.472	435.06
412.695	441.06
412.919	438.06
413.142	413.06
413.365	407.06
413.589	396.06
413.812	391.06
414.035	405.06
414.258	397.06
414.482	400.06
414.705	381.06
414.928	391.06
415.151	392.06
415.374	377.06
415.597	378.06
415.821	379.06
416.044	384.06
416.267	393.06
416.49	407.06
416.713	395.06
416.936	381.06
417.159	378.06
417.382	410.06
417.605	411.06
417.828	424.06
418.051	427.06
418.274	432.06
418.497	405.06
418.72	409.06
418.943	403.06
419.166	397.06
419.389	457.06
419.611	430.06
419.834	405.06
420.057	416.06
420.28	424.06
420.503	440.06
420.726	401.06
420.948	449.06
421.171	501.06
421.394	518.06
421.617	489.06
421.839	434.06
422.062	454.06
422.285	463.06
422.507	521.06
422.73	617.06
422.953	570.06
423.175	511.06
423.398	472.06
423.621	473.06
423.843	494.06
424.066	481.06
424.288	478.06
424.511	493.06
424.733	548.06
424.956	633.06
425.178	614.06
425.401	611.06
425.623	642.06
425.846	550.06
426.068	533.06
426.291	499.06
426.513	491.06
426.735	521.06
426.958	554.06
427.18	629.06
427.402	747.06
427.625	834.06
427.847	790.06
428.069	663.06
428.292	598.06
428.514	521.06
428.736	478.06
428.958	507.06
429.181	476.06
429.403	454.06
429.625	477.06
429.847	524.06
430.069	595.06
430.292	586.06
430.514	498.06
430.736	463.06
430.958	478.06
431.18	427.06
431.402	439.06
431.624	419.06
431.846	430.06
432.068	411.06
432.29	439.06
432.512	421.06
432.734	425.06
432.956	428.06
433.178	450.06
433.4	451.06
433.622	431.06
433.844	422.06
434.066	430.06
434.287	437.06
434.509	426.06
434.731	438.06
434.953	452.06
435.175	457.06
435.397	477.06
435.618	522.06
435.84	558.06
436.062	638.06
436.284	716.06
436.505	605.06
436.727	531.06
436.949	476.06
437.17	479.06
437.392	481.06
437.614	468.06
437.835	554.06
438.057	691.06
438.278	728.06
438.5	724.06
438.721	770.06
438.943	747.06
439.165	599.06
439.386	581.06
439.608	532.06
439.829	525.06
440.05	581.06
440.272	602.06
440.493	569.06
440.715	519.06
440.936	494.06
441.158	475.06
441.379	474.06
441.6	484.06
441.822	519.06
442.043	561.06
442.264	655.06
442.486	662.06
442.707	589.06
442.928	547.06
443.149	551.06
443.371	563.06
443.592	591.06
443.813	689.06
444.034	709.06
444.255	602.06
444.476	536.06
444.698	518.06
444.919	509.06
445.14	573.06
445.361	562.06
445.582	557.06
445.803	623.06
446.024	716.06
446.245	727.06
446.466	694.06
446.687	561.06
446.908	524.06
447.129	513.06
447.35	480.06
447.571	476.06
447.792	469.06
448.013	462.06
448.234	524.06
448.455	570.06
448.675	694.06
448.896	757.06
449.117	678.06
449.338	627.06
449.559	715.06
449.779	780.06
450	669.06
450.221	597.06
450.442	494.06
450.662	501.06
450.883	511.06
451.104	530.06
451.324	536.06
451.545	478.06
451.766	459.06
451.986	455.06
452.207	415.06
452.428	405.06
452.648	435.06
452.869	425.06
453.089	446.06
453.31	460.06
453.53	434.06
453.751	456.06
453.971	457.06
454.192	492.06
454.412	481.06
454.633	456.06
454.853	431.06
455.073	445.06
455.294	468.06
455.514	531.06
455.734	527.06
455.955	450.06
456.175	404.06
456.395	407.06
456.616	407.06
456.836	398.06
457.056	385.06
457.276	397.06
457.497	380.06
457.717	397.06
457.937	411.06
458.157	376.06
458.377	415.06
458.598	466.06
458.818	537.06
459.038	653.06
459.258	661.06
459.478	539.06
459.698	475.06
459.918	437.06
460.138	428.06
460.358	445.06
460.578	417.06
460.798	430.06
461.018	421.06
461.238	421.06
461.458	414.06
461.678	412.06
461.898	410.06
462.118	398.06
462.338	415.06
462.558	409.06
462.777	421.06
462.997	429.06
463.217	418.06
463.437	428.06
463.657	429.06
463.876	430.06
464.096	415.06
464.316	414.06
464.536	450.06
464.755	447.06
464.975	472.06
465.195	527.06
465.414	690.06
465.634	573.06
465.854	513.06
466.073	457.06
466.293	447.06
466.512	447.06
466.732	417.06
466.951	436.06
467.171	446.06
467.391	433.06
467.61	461.06
467.829	458.06
468.049	431.06
468.268	406.06
468.488	417.06
468.707	409.06
468.927	399.06
469.146	403.06
469.365	399.06
469.585	411.06
469.804	434.06
470.023	418.06
470.243	450.06
470.462	438.06
470.681	477.06
470.901	470.06
471.12	453.06
471.339	437.06
471.558	445.06
471.777	430.06
471.997	404.06
472.216	407.06
472.435	411.06
472.654	418.06
472.873	404.06
473.092	428.06
473.311	416.06
473.53	428.06
473.749	429.06
473.968	502.06
474.187	585.06
474.406	633.06
474.625	513.06
474.844	449.06
475.063	435.06
475.282	429.06
475.501	431.06
475.72	446.06
475.939	442.06
476.158	450.06
476.377	413.06
476.596	439.06
476.814	430.06
477.033	447.06
477.252	487.06
477.471	460.06
477.69	445.06
477.908	453.06
478.127	426.06
478.346	440.06
478.564	448.06
478.783	445.06
479.002	475.06
479.22	474.06
479.439	500.06
479.658	528.06
479.876	527.06
480.095	537.06
480.313	541.06
480.532	526.06
480.751	513.06
480.969	510.06
481.188	528.06
481.406	527.06
481.624	497.06
481.843	497.06
482.061	497.06
482.28	505.06
482.498	498.06
482.717	506.06
482.935	524.06
483.153	520.06
483.372	489.06
483.59	513.06
483.808	487.06
484.027	488.06
484.245	497.06
484.463	483.06
484.681	520.06
484.9	496.06
485.118	522.06
485.336	517.06
485.554	517.06
485.772	549.06
485.99	517.06
486.209	547.06
486.427	494.06
486.645	533.06
486.863	564.06
487.081	595.06
487.299	561.06
487.517	551.06
487.735	541.06
487.953	557.06
488.171	553.06
488.389	557.06
488.607	569.06
488.825	551.06
489.043	541.06
489.261	569.06
489.479	569.06
489.696	562.06
489.914	546.06
490.132	563.06
490.35	582.06
490.568	570.06
490.786	598.06
491.003	593.06
491.221	603.06
491.439	617.06
491.657	618.06
491.874	654.06
492.092	637.06
492.31	638.06
492.527	655.06
492.745	653.06
492.963	662.06
493.18	668.06
493.398	669.06
493.615	659.06
493.833	639.06
494.05	652.06
494.268	645.06
494.485	671.06
494.703	672.06
494.92	697.06
495.138	678.06
495.355	693.06
495.573	677.06
495.79	691.06
496.008	674.06
496.225	667.06
496.442	674.06
496.66	668.06
496.877	665.06
497.094	671.06
497.312	705.06
497.529	665.06
497.746	680.06
497.963	677.06
498.181	719.06
498.398	730.06
498.615	684.06
498.832	721.06
499.049	711.06
499.267	720.06
499.484	724.06
499.701	733.06
499.918	730.06
500.135	746.06
500.352	775.06
500.569	777.06
500.786	771.06
501.003	766.06
501.22	773.06
501.437	750.06
501.654	787.06
501.871	813.06
502.088	781.06
502.305	762.06
502.522	715.06
502.739	711.06
502.956	707.06
503.172	713.06
503.389	689.06
503.606	697.06
503.823	707.06
504.04	679.06
504.256	684.06
504.473	663.06
504.69	680.06
504.907	663.06
505.123	671.06
505.34	650.06
505.557	682.06
505.773	677.06
505.99	680.06
506.207	660.06
506.423	691.06
506.64	683.06
506.856	641.06
507.073	637.06
507.289	664.06
507.506	659.06
507.722	663.06
507.939	716.06
508.155	702.06
508.372	665.06
508.588	649.06
508.805	639.06
509.021	676.06
509.238	673.06
509.454	667.06
509.67	663.06
509.887	664.06
510.103	664.06
510.319	681.06
510.536	830.06
510.752	1547.06
510.968	1267.06
511.184	754.06
511.401	689.06
511.617	669.06
511.833	633.06
512.049	633.06
512.265	619.06
512.481	645.06
512.698	624.06
512.914	598.06
513.13	641.06
513.346	649.06
513.562	627.06
513.778	664.06
513.994	666.06
514.21	696.06
514.426	713.06
514.642	806.06
514.858	861.06
515.074	931.06
515.29	1195.06
515.506	1860.06
515.721	1441.06
515.937	897.06
516.153	793.06
516.369	738.06
516.585	682.06
516.801	662.06
517.016	659.06
517.232	641.06
517.448	648.06
517.664	651.06
517.879	637.06
518.095	636.06
518.311	648.06
518.527	636.06
518.742	634.06
518.958	612.06
519.173	637.06
519.389	660.06
519.605	647.06
519.82	649.06
520.036	661.06
520.251	726.06
520.467	755.06
520.682	763.06
520.898	756.06
521.113	830.06
521.329	926.06
521.544	1077.06
521.76	1455.06
521.975	2517.06
522.19	2453.06
522.406	1253.06
522.621	888.06
522.836	765.06
523.052	681.06
523.267	639.06
523.482	653.06
523.698	617.06
523.913	605.06
524.128	592.06
524.343	584.06
524.559	588.06
524.774	542.06
524.989	544.06
525.204	545.06
525.419	574.06
525.634	547.06
525.849	541.06
526.064	518.06
526.28	514.06
526.495	506.06
526.71	504.06
526.925	486.06
527.14	524.06
527.355	486.06
527.57	478.06
527.785	504.06
527.999	502.06
528.214	498.06
528.429	499.06
528.644	483.06
528.859	481.06
529.074	501.06
529.289	559.06
529.503	700.06
529.718	689.06
529.933	572.06
530.148	539.06
530.363	511.06
530.577	508.06
530.792	499.06
531.007	470.06
531.221	483.06
531.436	476.06
531.651	480.06
531.865	467.06
532.08	476.06
532.295	462.06
532.509	445.06
532.724	469.06
532.938	460.06
533.153	449.06
533.367	471.06
533.582	436.06
533.796	455.06
534.011	433.06
534.225	434.06
534.44	427.06
534.654	445.06
534.868	446.06
535.083	448.06
535.297	438.06
535.511	465.06
535.726	463.06
535.94	471.06
536.154	471.06
536.369	456.06
536.583	442.06
536.797	420.06
537.011	455.06
537.225	426.06
537.44	429.06
537.654	413.06
537.868	437.06
538.082	436.06
538.296	435.06
538.51	442.06
538.724	447.06
538.938	409.06
539.153	439.06
539.367	449.06
539.581	458.06
539.795	452.06
540.009	449.06
540.222	457.06
540.436	435.06
540.65	442.06
540.864	431.06
541.078	450.06
541.292	441.06
541.506	441.06
541.72	439.06
541.934	419.06
542.147	411.06
542.361	421.06
542.575	405.06
542.789	414.06
543.002	434.06
543.216	430.06
543.43	445.06
543.644	424.06
543.857	421.06
544.071	428.06
544.285	437.06
544.498	423.06
544.712	401.06
544.925	416.06
545.139	412.06
545.352	393.06
545.566	411.06
545.779	400.06
545.993	407.06
546.206	393.06
546.42	405.06
546.633	395.06
546.847	403.06
547.06	364.06
547.274	387.06
547.487	391.06
547.7	422.06
547.914	399.06
548.127	407.06
548.34	378.06
548.554	392.06
548.767	406.06
548.98	394.06
549.193	393.06
549.407	373.06
549.62	394.06
549.833	381.06
550.046	399.06
550.259	386.06
550.473	373.06
550.686	400.06
550.899	366.06
551.112	369.06
551.325	378.06
551.538	390.06
551.751	386.06
551.964	389.06
552.177	362.06
552.39	366.06
552.603	374.06
552.816	373.06
553.029	395.06
553.242	399.06
553.455	387.06
553.667	408.06
553.88	412.06
554.093	413.06
554.306	397.06
554.519	377.06
554.732	396.06
554.944	380.06
555.157	386.06
555.37	375.06
555.583	371.06
555.795	381.06
556.008	369.06
556.221	374.06
556.433	357.06
556.646	351.06
556.859	358.06
557.071	354.06
557.284	344.06
557.496	364.06
557.709	379.06
557.921	351.06
558.134	343.06
558.346	361.06
558.559	359.06
558.771	358.06
558.984	344.06
559.196	347.06
559.409	354.06
559.621	365.06
559.833	354.06
560.046	338.06
560.258	354.06
560.47	346.06
560.683	337.06
560.895	365.06
561.107	343.06
561.32	333.06
561.532	362.06
561.744	318.06
561.956	337.06
562.168	346.06
562.381	324.06
562.593	338.06
562.805	341.06
563.017	366.06
563.229	362.06
563.441	337.06
563.653	333.06
563.865	345.06
564.077	349.06
564.289	357.06
564.501	361.06
564.713	362.06
564.925	350.06
565.137	368.06
565.349	364.06
565.561	363.06
565.773	356.06
565.985	346.06
566.197	364.06
566.408	361.06
566.62	372.06
566.832	395.06
567.044	368.06
567.255	379.06
567.467	369.06
567.679	376.06
567.891	389.06
568.102	380.06
568.314	386.06
568.526	384.06
568.737	381.06
568.949	358.06
569.161	333.06
569.372	356.06
569.584	349.06
569.795	361.06
570.007	362.06
570.218	421.06
570.43	415.06
570.641	351.06
570.853	350.06
571.064	321.06
571.276	327.06
571.487	317.06
571.698	317.06
571.91	323.06
572.121	334.06
572.333	334.06
572.544	324.06
572.755	321.06
572.966	341.06
573.178	303.06
573.389	313.06
573.6	315.06
573.811	319.06
574.023	299.06
574.234	318.06
574.445	298.06
574.656	292.06
574.867	294.06
575.078	294.06
575.289	321.06
575.501	315.06
575.712	301.06
575.923	311.06
576.134	303.06
576.345	292.06
576.556	288.06
576.767	286.06
576.978	299.06
577.188	302.06
577.399	287.06
577.61	295.06
577.821	307.06
578.032	305.06
578.243	351.06
578.454	692.06
578.665	484.06
578.875	319.06
579.086	309.06
579.297	317.06
579.508	298.06
579.718	285.06
579.929	278.06
580.14	287.06
580.35	294.06
580.561	279.06
580.772	274.06
580.982	277.06
581.193	269.06
581.403	299.06
581.614	295.06
581.825	279.06
582.035	286.06
582.246	282.06
582.456	264.06
582.667	278.06
582.877	279.06
583.087	275.06
583.298	260.06
583.508	273.06
583.719	256.06
583.929	275.06
584.139	278.06
584.35	275.06
584.56	285.06
584.77	263.06
584.981	268.06
585.191	273.06
585.401	283.06
585.611	281.06
585.821	266.06
586.032	267.06
586.242	260.06
586.452	260.06
586.662	262.06
586.872	283.06
587.082	265.06
587.292	269.06
587.502	265.06
587.713	270.06
587.923	271.06
588.133	271.06
588.343	261.06
588.553	266.06
588.762	277.06
588.972	271.06
589.182	283.06
589.392	277.06
589.602	258.06
589.812	263.06
590.022	265.06
590.232	264.06
590.441	261.06
590.651	255.06
590.861	264.06
591.071	255.06
591.281	243.06
591.49	264.06
591.7	244.06
591.91	275.06
592.119	247.06
592.329	264.06
592.539	268.06
592.748	258.06
592.958	268.06
593.167	230.06
593.377	284.06
593.587	267.06
593.796	265.06
594.006	268.06
594.215	271.06
594.424	255.06
594.634	249.06
594.843	265.06
595.053	253.06
595.262	244.06
595.472	257.06
595.681	245.06
595.89	254.06
596.1	241.06
596.309	254.06
596.518	253.06
596.727	241.06
596.937	233.06
597.146	229.06
597.355	238.06
597.564	257.06
597.774	244.06
597.983	239.06
598.192	251.06
598.401	251.06
598.61	249.06
598.819	248.06
599.028	249.06
599.237	226.06
599.446	233.06
599.655	231.06
599.864	232.06
600.073	209.06
600.282	236.06
600.491	256.06
600.7	221.06
600.909	249.06
601.118	229.06
601.327	239.06
601.536	236.06
601.745	229.06
601.953	221.06
602.162	248.06
602.371	237.06
602.58	234.06
602.789	218.06
602.997	225.06
603.206	219.06
603.415	216.06
603.623	221.06
603.832	222.06
604.041	231.06
604.249	241.06
604.458	211.06
604.666	227.06
604.875	214.06
605.084	229.06
605.292	233.06
605.501	223.06
605.709	208.06
605.918	202.06
606.126	222.06
606.334	218.06
606.543	211.06
606.751	234.06
606.96	213.06
607.168	216.06
607.376	220.06
607.585	207.06
607.793	219.06
608.001	216.06
608.21	193.06
608.418	196.06
608.626	213.06
608.834	216.06
609.043	202.06
609.251	213.06
609.459	226.06
609.667	219.06
609.875	231.06
610.083	235.06
610.291	205.06
610.499	225.06
610.707	218.06
610.916	211.06
611.124	216.06
611.332	202.06
611.54	215.06
611.748	227.06
611.955	207.06
612.163	215.06
612.371	226.06
612.579	195.06
612.787	216.06
612.995	206.06
613.203	227.06
613.411	206.06
613.618	210.06
613.826	215.06
614.034	197.06
614.242	224.06
614.449	223.06
614.657	211.06
614.865	199.06
615.072	217.06
615.28	214.06
615.488	217.06
615.695	203.06
615.903	207.06
616.111	200.06
616.318	203.06
616.526	212.06
616.733	213.06
616.941	214.06
617.148	215.06
617.356	202.06
617.563	216.06
617.771	205.06
617.978	201.06
618.185	214.06
618.393	209.06
618.6	204.06
618.807	204.06
619.015	230.06
619.222	212.06
619.429	211.06
619.637	196.06
619.844	206.06
620.051	189.06
620.258	207.06
620.466	220.06
620.673	199.06
620.88	183.06
621.087	183.06
621.294	199.06
621.501	205.06
621.708	197.06
621.915	196.06
622.122	201.06
622.329	196.06
622.536	220.06
622.743	199.06
622.95	207.06
623.157	199.06
623.364	188.06
623.571	206.06
623.778	186.06
623.985	195.06
624.192	197.06
624.399	190.06
624.606	193.06
624.812	213.06
625.019	211.06
625.226	196.06
625.433	195.06
625.639	180.06
625.846	197.06
626.053	211.06
626.259	193.06
626.466	180.06
626.673	187.06
626.879	180.06
627.086	198.06
627.293	201.06
627.499	188.06
627.706	210.06
627.912	161.06
628.119	180.06
628.325	173.06
628.532	172.06
628.738	180.06
628.945	178.06
629.151	193.06
629.357	193.06
629.564	175.06
629.77	177.06
629.976	179.06
630.183	167.06
630.389	179.06
630.595	183.06
630.802	175.06
631.008	191.06
631.214	185.06
631.42	167.06
631.627	179.06
631.833	182.06
632.039	165.06
632.245	177.06
632.451	164.06
632.657	167.06
632.863	195.06
633.069	163.06
633.275	161.06
633.481	179.06
633.688	179.06
633.893	181.06
634.099	169.06
634.305	168.06
634.511	190.06
634.717	159.06
634.923	163.06
635.129	173.06
635.335	170.06
635.541	165.06
635.747	163.06
635.952	182.06
636.158	157.06
636.364	171.06
636.57	161.06
636.775	164.06
636.981	170.06
637.187	173.06
637.392	158.06
637.598	177.06
637.804	154.06
638.009	165.06
638.215	171.06
638.421	162.06
638.626	142.06
638.832	161.06
639.037	171.06
639.243	172.06
639.448	159.06
639.654	163.06
639.859	150.06
640.065	141.06
640.27	165.06
640.475	174.06
640.681	157.06
640.886	157.06
641.091	162.06
641.297	168.06
641.502	157.06
641.707	151.06
641.913	163.06
642.118	156.06
642.323	160.06
642.528	154.06
642.733	158.06
642.939	154.06
643.144	149.06
643.349	154.06
643.554	158.06
643.759	161.06
643.964	149.06
644.169	147.06
644.374	143.06
644.579	156.06
644.784	162.06
644.989	161.06
645.194	159.06
645.399	157.06
645.604	164.06
645.809	163.06
646.014	156.06
646.219	164.06
646.423	144.06
646.628	148.06
646.833	158.06
647.038	165.06
647.243	161.06
647.447	156.06
647.652	164.06
647.857	149.06
648.062	153.06
648.266	142.06
648.471	157.06
648.676	156.06
648.88	161.06
649.085	156.06
649.289	157.06
649.494	164.06
649.698	185.06
649.903	170.06
650.107	152.06
650.312	149.06
650.516	147.06
650.721	150.06
650.925	152.06
651.13	145.06
651.334	149.06
651.539	142.06
651.743	139.06
651.947	143.06
652.152	144.06
652.356	125.06
652.56	135.06
652.764	116.06
652.969	135.06
653.173	133.06
653.377	125.06
653.581	121.06
653.785	134.06
653.99	141.06
654.194	129.06
654.398	103.06
654.602	151.06
654.806	142.06
655.01	137.06
655.214	138.06
655.418	111.06
655.622	123.06
655.826	125.06
656.03	110.06
656.234	116.06
656.438	125.06
656.642	118.06
656.846	125.06
657.049	127.06
657.253	103.06
657.457	113.06
657.661	110.06
657.865	114.06
658.068	114.06
658.272	108.06
658.476	94.06
658.68	97.06
658.883	113.06
659.087	99.06
659.291	99.06
659.494	106.06
659.698	103.06
659.901	105.06
660.105	92.06
660.309	84.06
660.512	91.06
660.716	106.06
660.919	82.06
661.123	95.06
661.326	95.06
661.53	86.06
661.733	78.06
661.936	98.06
662.14	94.06
662.343	80.06
662.546	90.06
662.75	86.06
662.953	90.06
663.156	89.06
663.36	81.06
663.563	93.06
663.766	87.06
663.969	83.06
664.173	84.06
664.376	73.06
664.579	74.06
664.782	93.06
664.985	78.06
665.188	82.06
665.391	90.06
665.594	72.06
665.797	93.06
666	86.06
666.203	81.06
666.406	88.06
666.609	83.06
666.812	68.06
667.015	89.06
667.218	84.06
667.421	82.06
667.624	79.06
667.827	68.06
668.03	79.06
668.232	76.06
668.435	83.06
668.638	86.06
668.841	91.06
669.043	76.06
669.246	85.06
669.449	97.06
669.651	87.06
669.854	81.06
670.057	95.06
670.259	82.06
670.462	81.06
670.665	84.06
670.867	89.06
671.07	79.06
671.272	89.06
671.475	88.06
671.677	91.06
671.88	87.06
672.082	84.06
672.284	83.06
672.487	74.06
672.689	88.06
672.892	103.06
