Data from 1987.PennyLincolnUp.Lamp.En5.5.200Scan.071819.P2_HRD10591_17-16-20-971.txt Node
Date: Thu Jul 18 17:16:20 EDT 2019
User: cochatt
Spectrometer: HR+D1059
Trigger mode: 1
Integration Time (sec): 1.000000E-1
Scans to average: 1
Electric dark correction enabled: true
Nonlinearity correction enabled: false
Boxcar width: 0
XAxis mode: Wavelengths
Number of Pixels in Spectrum: 2048
>>>>>Begin Spectral Data<<<<<
223.165	-13.62
223.4	-13.62
223.635	-13.62
223.869	-19.62
224.104	-21.62
224.338	-12.62
224.573	-4.62
224.808	-17.62
225.042	-5.62
225.277	-12.62
225.511	1.38
225.746	8.38
225.98	3.38
226.215	8.38
226.449	12.38
226.683	19.38
226.918	27.38
227.152	27.38
227.387	24.38
227.621	39.38
227.856	41.38
228.09	36.38
228.324	54.38
228.559	58.38
228.793	68.38
229.027	100.38
229.262	117.38
229.496	115.38
229.73	132.38
229.964	159.38
230.199	134.38
230.433	122.38
230.667	116.38
230.901	121.38
231.136	116.38
231.37	123.38
231.604	103.38
231.838	123.38
232.072	119.38
232.306	101.38
232.541	107.38
232.775	99.38
233.009	113.38
233.243	114.38
233.477	100.38
233.711	124.38
233.945	106.38
234.179	115.38
234.413	121.38
234.647	118.38
234.881	111.38
235.115	112.38
235.349	128.38
235.583	118.38
235.817	119.38
236.051	133.38
236.285	131.38
236.519	113.38
236.753	119.38
236.987	154.38
237.221	195.38
237.455	247.38
237.689	209.38
237.922	164.38
238.156	130.38
238.39	127.38
238.624	119.38
238.858	118.38
239.091	121.38
239.325	122.38
239.559	134.38
239.793	125.38
240.027	135.38
240.26	141.38
240.494	144.38
240.728	155.38
240.961	154.38
241.195	144.38
241.429	132.38
241.662	143.38
241.896	130.38
242.13	123.38
242.363	128.38
242.597	124.38
242.83	128.38
243.064	134.38
243.298	132.38
243.531	129.38
243.765	120.38
243.998	134.38
244.232	147.38
244.465	148.38
244.699	145.38
244.932	134.38
245.166	140.38
245.399	141.38
245.633	120.38
245.866	135.38
246.099	127.38
246.333	132.38
246.566	143.38
246.8	143.38
247.033	126.38
247.266	154.38
247.5	152.38
247.733	163.38
247.966	169.38
248.2	183.38
248.433	163.38
248.666	178.38
248.899	188.38
249.133	200.38
249.366	217.38
249.599	224.38
249.832	175.38
250.066	194.38
250.299	168.38
250.532	170.38
250.765	179.38
250.998	218.38
251.231	231.38
251.465	213.38
251.698	175.38
251.931	212.38
252.164	194.38
252.397	182.38
252.63	196.38
252.863	204.38
253.096	199.38
253.329	222.38
253.562	226.38
253.795	203.38
254.028	219.38
254.261	220.38
254.494	232.38
254.727	250.38
254.96	295.38
255.193	264.38
255.426	252.38
255.659	226.38
255.892	226.38
256.124	216.38
256.357	215.38
256.59	207.38
256.823	203.38
257.056	192.38
257.289	194.38
257.521	190.38
257.754	198.38
257.987	199.38
258.22	199.38
258.452	190.38
258.685	193.38
258.918	203.38
259.151	200.38
259.383	185.38
259.616	202.38
259.849	202.38
260.081	219.38
260.314	243.38
260.547	248.38
260.779	230.38
261.012	227.38
261.244	234.38
261.477	225.38
261.71	211.38
261.942	201.38
262.175	244.38
262.407	201.38
262.64	204.38
262.872	206.38
263.105	201.38
263.337	195.38
263.57	198.38
263.802	196.38
264.035	193.38
264.267	193.38
264.499	185.38
264.732	187.38
264.964	194.38
265.197	177.38
265.429	185.38
265.661	203.38
265.894	183.38
266.126	191.38
266.358	187.38
266.591	207.38
266.823	183.38
267.055	203.38
267.287	212.38
267.52	191.38
267.752	200.38
267.984	188.38
268.216	199.38
268.448	201.38
268.681	227.38
268.913	217.38
269.145	231.38
269.377	249.38
269.609	264.38
269.841	255.38
270.073	255.38
270.306	264.38
270.538	304.38
270.77	302.38
271.002	282.38
271.234	275.38
271.466	273.38
271.698	306.38
271.93	320.38
272.162	305.38
272.394	308.38
272.626	297.38
272.858	274.38
273.09	259.38
273.322	262.38
273.553	266.38
273.785	243.38
274.017	240.38
274.249	249.38
274.481	250.38
274.713	245.38
274.945	245.38
275.176	240.38
275.408	242.38
275.64	223.38
275.872	219.38
276.104	226.38
276.335	244.38
276.567	257.38
276.799	268.38
277.031	275.38
277.262	283.38
277.494	282.38
277.726	265.38
277.957	254.38
278.189	244.38
278.421	245.38
278.652	243.38
278.884	240.38
279.115	215.38
279.347	239.38
279.579	224.38
279.81	224.38
280.042	213.38
280.273	210.38
280.505	215.38
280.736	223.38
280.968	231.38
281.199	231.38
281.431	213.38
281.662	205.38
281.894	213.38
282.125	235.38
282.356	254.38
282.588	282.38
282.819	297.38
283.051	248.38
283.282	238.38
283.513	225.38
283.745	224.38
283.976	246.38
284.207	226.38
284.439	240.38
284.67	209.38
284.901	231.38
285.132	239.38
285.364	218.38
285.595	245.38
285.826	238.38
286.057	221.38
286.288	230.38
286.52	232.38
286.751	223.38
286.982	217.38
287.213	222.38
287.444	234.38
287.675	236.38
287.906	238.38
288.138	246.38
288.369	265.38
288.6	261.38
288.831	233.38
289.062	270.38
289.293	246.38
289.524	249.38
289.755	233.38
289.986	234.38
290.217	222.38
290.448	231.38
290.679	234.38
290.91	220.38
291.141	210.38
291.371	239.38
291.602	217.38
291.833	218.38
292.064	211.38
292.295	232.38
292.526	248.38
292.757	225.38
292.987	227.38
293.218	233.38
293.449	244.38
293.68	228.38
293.91	240.38
294.141	234.38
294.372	243.38
294.603	242.38
294.833	242.38
295.064	241.38
295.295	240.38
295.525	241.38
295.756	229.38
295.987	242.38
296.217	276.38
296.448	290.38
296.679	258.38
296.909	218.38
297.14	238.38
297.37	251.38
297.601	239.38
297.831	259.38
298.062	257.38
298.292	242.38
298.523	229.38
298.753	258.38
298.984	252.38
299.214	254.38
299.445	222.38
299.675	269.38
299.905	256.38
300.136	262.38
300.366	248.38
300.597	260.38
300.827	259.38
301.057	252.38
301.288	275.38
301.518	265.38
301.748	273.38
301.979	260.38
302.209	261.38
302.439	274.38
302.669	272.38
302.9	259.38
303.13	278.38
303.36	277.38
303.59	260.38
303.82	296.38
304.051	268.38
304.281	279.38
304.511	259.38
304.741	252.38
304.971	266.38
305.201	262.38
305.431	264.38
305.661	278.38
305.891	247.38
306.121	248.38
306.352	282.38
306.582	266.38
306.812	275.38
307.042	265.38
307.272	278.38
307.502	282.38
307.731	282.38
307.961	283.38
308.191	274.38
308.421	291.38
308.651	298.38
308.881	298.38
309.111	271.38
309.341	288.38
309.571	298.38
309.8	324.38
310.03	315.38
310.26	346.38
310.49	340.38
310.72	360.38
310.949	372.38
311.179	371.38
311.409	344.38
311.639	355.38
311.868	342.38
312.098	320.38
312.328	363.38
312.557	358.38
312.787	393.38
313.017	390.38
313.246	367.38
313.476	336.38
313.706	324.38
313.935	335.38
314.165	355.38
314.394	363.38
314.624	355.38
314.853	355.38
315.083	343.38
315.312	334.38
315.542	327.38
315.771	302.38
316.001	306.38
316.23	316.38
316.46	319.38
316.689	332.38
316.919	303.38
317.148	349.38
317.377	349.38
317.607	345.38
317.836	336.38
318.065	312.38
318.295	322.38
318.524	327.38
318.753	327.38
318.983	340.38
319.212	331.38
319.441	344.38
319.67	354.38
319.9	343.38
320.129	331.38
320.358	342.38
320.587	318.38
320.816	356.38
321.046	358.38
321.275	365.38
321.504	365.38
321.733	357.38
321.962	372.38
322.191	392.38
322.42	423.38
322.649	438.38
322.878	463.38
323.108	458.38
323.337	496.38
323.566	522.38
323.795	587.38
324.024	667.38
324.253	837.38
324.482	1207.38
324.71	1888.38
324.939	2609.38
325.168	2262.38
325.397	1235.38
325.626	804.38
325.855	630.38
326.084	570.38
326.313	541.38
326.542	558.38
326.77	628.38
326.999	753.38
327.228	1032.38
327.457	1598.38
327.686	1972.38
327.914	1413.38
328.143	879.38
328.372	726.38
328.6	643.38
328.829	630.38
329.058	640.38
329.287	661.38
329.515	612.38
329.744	544.38
329.972	520.38
330.201	497.38
330.43	562.38
330.658	607.38
330.887	650.38
331.115	660.38
331.344	546.38
331.572	477.38
331.801	491.38
332.03	481.38
332.258	467.38
332.486	406.38
332.715	387.38
332.943	394.38
333.172	386.38
333.4	371.38
333.629	382.38
333.857	385.38
334.085	397.38
334.314	385.38
334.542	395.38
334.771	394.38
334.999	385.38
335.227	391.38
335.455	378.38
335.684	373.38
335.912	381.38
336.14	384.38
336.369	368.38
336.597	362.38
336.825	370.38
337.053	378.38
337.281	370.38
337.51	360.38
337.738	353.38
337.966	383.38
338.194	402.38
338.422	388.38
338.65	374.38
338.878	375.38
339.106	359.38
339.334	359.38
339.562	351.38
339.79	346.38
340.018	368.38
340.246	378.38
340.474	387.38
340.702	378.38
340.93	382.38
341.158	362.38
341.386	380.38
341.614	347.38
341.842	371.38
342.07	353.38
342.298	364.38
342.526	346.38
342.754	361.38
342.981	326.38
343.209	332.38
343.437	343.38
343.665	355.38
343.893	366.38
344.12	348.38
344.348	349.38
344.576	366.38
344.804	374.38
345.031	368.38
345.259	424.38
345.487	393.38
345.714	388.38
345.942	362.38
346.17	360.38
346.397	350.38
346.625	374.38
346.853	358.38
347.08	370.38
347.308	379.38
347.535	372.38
347.763	391.38
347.99	382.38
348.218	395.38
348.445	398.38
348.673	397.38
348.9	373.38
349.128	371.38
349.355	348.38
349.583	340.38
349.81	355.38
350.037	354.38
350.265	347.38
350.492	347.38
350.72	339.38
350.947	360.38
351.174	371.38
351.402	379.38
351.629	380.38
351.856	389.38
352.083	389.38
352.311	415.38
352.538	393.38
352.765	410.38
352.992	386.38
353.22	363.38
353.447	378.38
353.674	350.38
353.901	338.38
354.128	342.38
354.355	355.38
354.583	327.38
354.81	349.38
355.037	327.38
355.264	323.38
355.491	318.38
355.718	316.38
355.945	325.38
356.172	322.38
356.399	335.38
356.626	312.38
356.853	324.38
357.08	295.38
357.307	320.38
357.534	303.38
357.761	313.38
357.988	323.38
358.215	330.38
358.441	314.38
358.668	312.38
358.895	335.38
359.122	350.38
359.349	363.38
359.576	395.38
359.802	425.38
360.029	460.38
360.256	491.38
360.483	428.38
360.709	388.38
360.936	368.38
361.163	379.38
361.39	377.38
361.616	371.38
361.843	369.38
362.07	379.38
362.296	390.38
362.523	384.38
362.749	374.38
362.976	369.38
363.203	368.38
363.429	338.38
363.656	359.38
363.882	348.38
364.109	350.38
364.335	315.38
364.562	312.38
364.788	357.38
365.015	340.38
365.241	348.38
365.468	350.38
365.694	370.38
365.92	349.38
366.147	326.38
366.373	325.38
366.599	340.38
366.826	341.38
367.052	323.38
367.278	333.38
367.505	342.38
367.731	353.38
367.957	343.38
368.184	355.38
368.41	348.38
368.636	361.38
368.862	383.38
369.089	354.38
369.315	327.38
369.541	350.38
369.767	332.38
369.993	342.38
370.219	335.38
370.445	347.38
370.672	336.38
370.898	315.38
371.124	322.38
371.35	323.38
371.576	316.38
371.802	328.38
372.028	323.38
372.254	339.38
372.48	331.38
372.706	331.38
372.932	329.38
373.158	322.38
373.384	330.38
373.61	329.38
373.835	317.38
374.061	320.38
374.287	327.38
374.513	316.38
374.739	316.38
374.965	314.38
375.191	332.38
375.416	319.38
375.642	329.38
375.868	307.38
376.094	310.38
376.319	330.38
376.545	325.38
376.771	314.38
376.997	337.38
377.222	319.38
377.448	322.38
377.674	312.38
377.899	318.38
378.125	325.38
378.35	321.38
378.576	327.38
378.802	314.38
379.027	308.38
379.253	320.38
379.478	318.38
379.704	347.38
379.929	315.38
380.155	311.38
380.38	311.38
380.606	332.38
380.831	308.38
381.057	342.38
381.282	339.38
381.507	323.38
381.733	321.38
381.958	308.38
382.184	305.38
382.409	320.38
382.634	339.38
382.86	322.38
383.085	315.38
383.31	314.38
383.535	334.38
383.761	341.38
383.986	337.38
384.211	324.38
384.436	328.38
384.662	346.38
384.887	344.38
385.112	329.38
385.337	332.38
385.562	338.38
385.787	328.38
386.013	355.38
386.238	360.38
386.463	347.38
386.688	354.38
386.913	338.38
387.138	329.38
387.363	327.38
387.588	339.38
387.813	330.38
388.038	320.38
388.263	342.38
388.488	336.38
388.713	345.38
388.938	336.38
389.163	341.38
389.387	341.38
389.612	339.38
389.837	313.38
390.062	344.38
390.287	340.38
390.512	338.38
390.736	323.38
390.961	328.38
391.186	326.38
391.411	325.38
391.636	335.38
391.86	340.38
392.085	338.38
392.31	346.38
392.534	344.38
392.759	351.38
392.984	342.38
393.208	342.38
393.433	356.38
393.658	344.38
393.882	321.38
394.107	327.38
394.331	337.38
394.556	353.38
394.78	353.38
395.005	349.38
395.229	336.38
395.454	345.38
395.678	372.38
395.903	361.38
396.127	382.38
396.352	392.38
396.576	351.38
396.801	368.38
397.025	358.38
397.249	357.38
397.474	370.38
397.698	367.38
397.922	383.38
398.147	391.38
398.371	382.38
398.595	362.38
398.82	360.38
399.044	377.38
399.268	391.38
399.492	390.38
399.717	417.38
399.941	439.38
400.165	476.38
400.389	480.38
400.613	453.38
400.837	428.38
401.062	406.38
401.286	393.38
401.51	389.38
401.734	403.38
401.958	384.38
402.182	384.38
402.406	427.38
402.63	426.38
402.854	407.38
403.078	403.38
403.302	402.38
403.526	407.38
403.75	403.38
403.974	396.38
404.198	395.38
404.422	383.38
404.645	405.38
404.869	399.38
405.093	431.38
405.317	458.38
405.541	462.38
405.765	463.38
405.988	452.38
406.212	453.38
406.436	495.38
406.66	512.38
406.883	480.38
407.107	496.38
407.331	539.38
407.555	573.38
407.778	561.38
408.002	517.38
408.226	472.38
408.449	445.38
408.673	460.38
408.896	493.38
409.12	527.38
409.344	497.38
409.567	452.38
409.791	432.38
410.014	435.38
410.238	422.38
410.461	426.38
410.685	425.38
410.908	444.38
411.132	478.38
411.355	520.38
411.578	473.38
411.802	433.38
412.025	448.38
412.249	435.38
412.472	415.38
412.695	433.38
412.919	448.38
413.142	406.38
413.365	389.38
413.589	398.38
413.812	396.38
414.035	393.38
414.258	387.38
414.482	378.38
414.705	394.38
414.928	358.38
415.151	376.38
415.374	379.38
415.597	364.38
415.821	386.38
416.044	379.38
416.267	400.38
416.49	376.38
416.713	390.38
416.936	379.38
417.159	392.38
417.382	392.38
417.605	414.38
417.828	414.38
418.051	440.38
418.274	443.38
418.497	410.38
418.72	416.38
418.943	382.38
419.166	398.38
419.389	416.38
419.611	426.38
419.834	410.38
420.057	423.38
420.28	425.38
420.503	400.38
420.726	411.38
420.948	413.38
421.171	492.38
421.394	500.38
421.617	446.38
421.839	435.38
422.062	440.38
422.285	453.38
422.507	494.38
422.73	584.38
422.953	577.38
423.175	492.38
423.398	458.38
423.621	445.38
423.843	489.38
424.066	475.38
424.288	478.38
424.511	512.38
424.733	559.38
424.956	642.38
425.178	615.38
425.401	630.38
425.623	634.38
425.846	559.38
426.068	512.38
426.291	516.38
426.513	478.38
426.735	514.38
426.958	559.38
427.18	633.38
427.402	731.38
427.625	800.38
427.847	792.38
428.069	681.38
428.292	594.38
428.514	551.38
428.736	510.38
428.958	486.38
429.181	459.38
429.403	461.38
429.625	467.38
429.847	495.38
430.069	577.38
430.292	575.38
430.514	483.38
430.736	449.38
430.958	426.38
431.18	419.38
431.402	430.38
431.624	411.38
431.846	419.38
432.068	411.38
432.29	412.38
432.512	412.38
432.734	422.38
432.956	443.38
433.178	440.38
433.4	448.38
433.622	432.38
433.844	422.38
434.066	430.38
434.287	434.38
434.509	439.38
434.731	442.38
434.953	450.38
435.175	459.38
435.397	474.38
435.618	485.38
435.84	544.38
436.062	640.38
436.284	694.38
436.505	589.38
436.727	540.38
436.949	473.38
437.17	490.38
437.392	462.38
437.614	487.38
437.835	544.38
438.057	638.38
438.278	729.38
438.5	714.38
438.721	774.38
438.943	728.38
439.165	611.38
439.386	540.38
439.608	551.38
439.829	553.38
440.05	603.38
440.272	601.38
440.493	554.38
440.715	519.38
440.936	487.38
441.158	482.38
441.379	464.38
441.6	482.38
441.822	516.38
442.043	553.38
442.264	628.38
442.486	666.38
442.707	580.38
442.928	546.38
443.149	537.38
443.371	545.38
443.592	608.38
443.813	656.38
444.034	704.38
444.255	603.38
444.476	529.38
444.698	491.38
444.919	478.38
445.14	577.38
445.361	552.38
445.582	564.38
445.803	595.38
446.024	700.38
446.245	703.38
446.466	669.38
446.687	560.38
446.908	524.38
447.129	467.38
447.35	467.38
447.571	484.38
447.792	468.38
448.013	481.38
448.234	507.38
448.455	570.38
448.675	666.38
448.896	730.38
449.117	660.38
449.338	625.38
449.559	683.38
449.779	785.38
450	647.38
450.221	574.38
450.442	494.38
450.662	491.38
450.883	482.38
451.104	507.38
451.324	501.38
451.545	475.38
451.766	449.38
451.986	447.38
452.207	422.38
452.428	446.38
452.648	450.38
452.869	437.38
453.089	439.38
453.31	455.38
453.53	428.38
453.751	426.38
453.971	421.38
454.192	495.38
454.412	451.38
454.633	438.38
454.853	424.38
455.073	422.38
455.294	462.38
455.514	525.38
455.734	522.38
455.955	434.38
456.175	410.38
456.395	403.38
456.616	381.38
456.836	401.38
457.056	398.38
457.276	379.38
457.497	371.38
457.717	383.38
457.937	386.38
458.157	389.38
458.377	417.38
458.598	441.38
458.818	532.38
459.038	614.38
459.258	622.38
459.478	532.38
459.698	464.38
459.918	438.38
460.138	427.38
460.358	420.38
460.578	418.38
460.798	446.38
461.018	426.38
461.238	377.38
461.458	414.38
461.678	414.38
461.898	417.38
462.118	382.38
462.338	400.38
462.558	403.38
462.777	420.38
462.997	415.38
463.217	405.38
463.437	409.38
463.657	420.38
463.876	420.38
464.096	422.38
464.316	420.38
464.536	436.38
464.755	452.38
464.975	464.38
465.195	536.38
465.414	696.38
465.634	601.38
465.854	518.38
466.073	464.38
466.293	438.38
466.512	438.38
466.732	419.38
466.951	409.38
467.171	416.38
467.391	425.38
467.61	453.38
467.829	465.38
468.049	437.38
468.268	393.38
468.488	411.38
468.707	410.38
468.927	389.38
469.146	401.38
469.365	393.38
469.585	400.38
469.804	409.38
470.023	435.38
470.243	442.38
470.462	441.38
470.681	460.38
470.901	458.38
471.12	441.38
471.339	427.38
471.558	432.38
471.777	414.38
471.997	411.38
472.216	412.38
472.435	431.38
472.654	417.38
472.873	387.38
473.092	400.38
473.311	420.38
473.53	415.38
473.749	432.38
473.968	476.38
474.187	620.38
474.406	604.38
474.625	509.38
474.844	453.38
475.063	424.38
475.282	427.38
475.501	450.38
475.72	445.38
475.939	432.38
476.158	426.38
476.377	436.38
476.596	426.38
476.814	446.38
477.033	469.38
477.252	460.38
477.471	444.38
477.69	436.38
477.908	454.38
478.127	458.38
478.346	454.38
478.564	444.38
478.783	457.38
479.002	451.38
479.22	496.38
479.439	486.38
479.658	528.38
479.876	514.38
480.095	508.38
480.313	560.38
480.532	516.38
480.751	524.38
480.969	511.38
481.188	512.38
481.406	537.38
481.624	498.38
481.843	494.38
482.061	510.38
482.28	485.38
482.498	512.38
482.717	518.38
482.935	512.38
483.153	497.38
483.372	502.38
483.59	499.38
483.808	497.38
484.027	502.38
484.245	502.38
484.463	507.38
484.681	513.38
484.9	492.38
485.118	516.38
485.336	530.38
485.554	511.38
485.772	509.38
485.99	531.38
486.209	516.38
486.427	527.38
486.645	547.38
486.863	586.38
487.081	572.38
487.299	549.38
487.517	549.38
487.735	543.38
487.953	542.38
488.171	551.38
488.389	544.38
488.607	567.38
488.825	532.38
489.043	566.38
489.261	554.38
489.479	548.38
489.696	558.38
489.914	567.38
490.132	562.38
490.35	578.38
490.568	591.38
490.786	607.38
491.003	603.38
491.221	615.38
491.439	602.38
491.657	601.38
491.874	626.38
492.092	619.38
492.31	631.38
492.527	650.38
492.745	653.38
492.963	644.38
493.18	654.38
493.398	650.38
493.615	653.38
493.833	640.38
494.05	664.38
494.268	678.38
494.485	653.38
494.703	666.38
494.92	659.38
495.138	662.38
495.355	670.38
495.573	667.38
495.79	650.38
496.008	670.38
496.225	663.38
496.442	667.38
496.66	649.38
496.877	674.38
497.094	681.38
497.312	676.38
497.529	683.38
497.746	702.38
497.963	681.38
498.181	675.38
498.398	700.38
498.615	708.38
498.832	698.38
499.049	703.38
499.267	715.38
499.484	726.38
499.701	752.38
499.918	726.38
500.135	753.38
500.352	784.38
500.569	786.38
500.786	774.38
501.003	770.38
501.22	755.38
501.437	784.38
501.654	775.38
501.871	788.38
502.088	783.38
502.305	739.38
502.522	732.38
502.739	711.38
502.956	690.38
503.172	697.38
503.389	705.38
503.606	688.38
503.823	673.38
504.04	706.38
504.256	686.38
504.473	647.38
504.69	651.38
504.907	647.38
505.123	645.38
505.34	660.38
505.557	673.38
505.773	660.38
505.99	658.38
506.207	671.38
506.423	662.38
506.64	657.38
506.856	664.38
507.073	631.38
507.289	645.38
507.506	642.38
507.722	672.38
507.939	704.38
508.155	674.38
508.372	667.38
508.588	665.38
508.805	637.38
509.021	662.38
509.238	660.38
509.454	686.38
509.67	686.38
509.887	657.38
510.103	656.38
510.319	688.38
510.536	836.38
510.752	1509.38
510.968	1232.38
511.184	715.38
511.401	680.38
511.617	638.38
511.833	658.38
512.049	630.38
512.265	617.38
512.481	627.38
512.698	636.38
512.914	610.38
513.13	639.38
513.346	633.38
513.562	622.38
513.778	652.38
513.994	652.38
514.21	667.38
514.426	737.38
514.642	806.38
514.858	846.38
515.074	910.38
515.29	1168.38
515.506	1768.38
515.721	1443.38
515.937	884.38
516.153	753.38
516.369	735.38
516.585	691.38
516.801	648.38
517.016	636.38
517.232	651.38
517.448	632.38
517.664	641.38
517.879	604.38
518.095	632.38
518.311	613.38
518.527	609.38
518.742	631.38
518.958	616.38
519.173	628.38
519.389	622.38
519.605	629.38
519.82	639.38
520.036	680.38
520.251	695.38
520.467	753.38
520.682	775.38
520.898	783.38
521.113	826.38
521.329	902.38
521.544	1070.38
521.76	1445.38
521.975	2422.38
522.19	2358.38
522.406	1219.38
522.621	864.38
522.836	744.38
523.052	691.38
523.267	650.38
523.482	649.38
523.698	591.38
523.913	591.38
524.128	602.38
524.343	586.38
524.559	570.38
524.774	564.38
524.989	538.38
525.204	553.38
525.419	552.38
525.634	536.38
525.849	585.38
526.064	507.38
526.28	504.38
526.495	497.38
526.71	501.38
526.925	506.38
527.14	496.38
527.355	497.38
527.57	476.38
527.785	503.38
527.999	470.38
528.214	478.38
528.429	477.38
528.644	495.38
528.859	496.38
529.074	505.38
529.289	536.38
529.503	672.38
529.718	662.38
529.933	581.38
530.148	516.38
530.363	513.38
530.577	504.38
530.792	484.38
531.007	467.38
531.221	468.38
531.436	466.38
531.651	476.38
531.865	462.38
532.08	464.38
532.295	451.38
532.509	440.38
532.724	437.38
532.938	438.38
533.153	452.38
533.367	449.38
533.582	440.38
533.796	442.38
534.011	433.38
534.225	429.38
534.44	445.38
534.654	443.38
534.868	440.38
535.083	432.38
535.297	446.38
535.511	449.38
535.726	471.38
535.94	449.38
536.154	450.38
536.369	467.38
536.583	442.38
536.797	425.38
537.011	434.38
537.225	411.38
537.44	424.38
537.654	432.38
537.868	427.38
538.082	442.38
538.296	438.38
538.51	442.38
538.724	434.38
538.938	451.38
539.153	444.38
539.367	450.38
539.581	470.38
539.795	440.38
540.009	439.38
540.222	442.38
540.436	424.38
540.65	421.38
540.864	438.38
541.078	436.38
541.292	448.38
541.506	449.38
541.72	435.38
541.934	404.38
542.147	445.38
542.361	418.38
542.575	400.38
542.789	392.38
543.002	409.38
543.216	428.38
543.43	414.38
543.644	455.38
543.857	427.38
544.071	427.38
544.285	422.38
544.498	432.38
544.712	399.38
544.925	399.38
545.139	413.38
545.352	407.38
545.566	400.38
545.779	395.38
545.993	408.38
546.206	388.38
546.42	395.38
546.633	411.38
546.847	399.38
547.06	388.38
547.274	382.38
547.487	380.38
547.7	400.38
547.914	377.38
548.127	382.38
548.34	391.38
548.554	400.38
548.767	393.38
548.98	380.38
549.193	390.38
549.407	390.38
549.62	379.38
549.833	396.38
550.046	382.38
550.259	367.38
550.473	379.38
550.686	385.38
550.899	382.38
551.112	402.38
551.325	386.38
551.538	384.38
551.751	382.38
551.964	367.38
552.177	371.38
552.39	380.38
552.603	374.38
552.816	396.38
553.029	391.38
553.242	384.38
553.455	388.38
553.667	401.38
553.88	431.38
554.093	390.38
554.306	392.38
554.519	409.38
554.732	401.38
554.944	369.38
555.157	366.38
555.37	387.38
555.583	368.38
555.795	369.38
556.008	355.38
556.221	368.38
556.433	351.38
556.646	362.38
556.859	371.38
557.071	347.38
557.284	362.38
557.496	353.38
557.709	359.38
557.921	368.38
558.134	360.38
558.346	361.38
558.559	333.38
558.771	342.38
558.984	355.38
559.196	340.38
559.409	366.38
559.621	354.38
559.833	342.38
560.046	345.38
560.258	350.38
560.47	328.38
560.683	346.38
560.895	364.38
561.107	347.38
561.32	345.38
561.532	351.38
561.744	320.38
561.956	347.38
562.168	342.38
562.381	350.38
562.593	345.38
562.805	349.38
563.017	349.38
563.229	336.38
563.441	343.38
563.653	359.38
563.865	355.38
564.077	348.38
564.289	351.38
564.501	333.38
564.713	358.38
564.925	370.38
565.137	392.38
565.349	355.38
565.561	352.38
565.773	359.38
565.985	363.38
566.197	374.38
566.408	361.38
566.62	386.38
566.832	361.38
567.044	382.38
567.255	387.38
567.467	386.38
567.679	375.38
567.891	390.38
568.102	361.38
568.314	350.38
568.526	362.38
568.737	340.38
568.949	343.38
569.161	335.38
569.372	350.38
569.584	357.38
569.795	354.38
570.007	356.38
570.218	433.38
570.43	412.38
570.641	324.38
570.853	336.38
571.064	318.38
571.276	325.38
571.487	329.38
571.698	312.38
571.91	312.38
572.121	319.38
572.333	335.38
572.544	311.38
572.755	311.38
572.966	348.38
573.178	311.38
573.389	334.38
573.6	292.38
573.811	315.38
574.023	295.38
574.234	304.38
574.445	310.38
574.656	292.38
574.867	306.38
575.078	304.38
575.289	306.38
575.501	294.38
575.712	298.38
575.923	308.38
576.134	310.38
576.345	287.38
576.556	284.38
576.767	299.38
576.978	294.38
577.188	286.38
577.399	308.38
577.61	294.38
577.821	295.38
578.032	299.38
578.243	325.38
578.454	672.38
578.665	482.38
578.875	319.38
579.086	292.38
579.297	295.38
579.508	283.38
579.718	295.38
579.929	276.38
580.14	277.38
580.35	278.38
580.561	289.38
580.772	270.38
580.982	259.38
581.193	281.38
581.403	290.38
581.614	292.38
581.825	272.38
582.035	277.38
582.246	272.38
582.456	267.38
582.667	272.38
582.877	264.38
583.087	280.38
583.298	286.38
583.508	282.38
583.719	297.38
583.929	279.38
584.139	281.38
584.35	268.38
584.56	276.38
584.77	251.38
584.981	272.38
585.191	264.38
585.401	268.38
585.611	273.38
585.821	290.38
586.032	277.38
586.242	266.38
586.452	280.38
586.662	258.38
586.872	266.38
587.082	267.38
587.292	266.38
587.502	267.38
587.713	278.38
587.923	279.38
588.133	262.38
588.343	258.38
588.553	259.38
588.762	275.38
588.972	256.38
589.182	279.38
589.392	272.38
589.602	259.38
589.812	263.38
590.022	261.38
590.232	258.38
590.441	251.38
590.651	262.38
590.861	259.38
591.071	245.38
591.281	235.38
591.49	250.38
591.7	250.38
591.91	254.38
592.119	264.38
592.329	255.38
592.539	274.38
592.748	262.38
592.958	264.38
593.167	253.38
593.377	262.38
593.587	263.38
593.796	238.38
594.006	234.38
594.215	246.38
594.424	264.38
594.634	248.38
594.843	260.38
595.053	256.38
595.262	260.38
595.472	272.38
595.681	255.38
595.89	256.38
596.1	254.38
596.309	243.38
596.518	258.38
596.727	243.38
596.937	237.38
597.146	239.38
597.355	243.38
597.564	242.38
597.774	239.38
597.983	232.38
598.192	236.38
598.401	225.38
598.61	224.38
598.819	229.38
599.028	239.38
599.237	232.38
599.446	240.38
599.655	231.38
599.864	239.38
600.073	229.38
600.282	228.38
600.491	218.38
600.7	230.38
600.909	239.38
601.118	254.38
601.327	229.38
601.536	242.38
601.745	224.38
601.953	227.38
602.162	225.38
602.371	208.38
602.58	225.38
602.789	230.38
602.997	215.38
603.206	232.38
603.415	210.38
603.623	209.38
603.832	229.38
604.041	216.38
604.249	218.38
604.458	225.38
604.666	224.38
604.875	230.38
605.084	233.38
605.292	210.38
605.501	232.38
605.709	221.38
605.918	215.38
606.126	224.38
606.334	233.38
606.543	213.38
606.751	216.38
606.96	225.38
607.168	220.38
607.376	217.38
607.585	213.38
607.793	219.38
608.001	223.38
608.21	216.38
608.418	222.38
608.626	223.38
608.834	219.38
609.043	230.38
609.251	236.38
609.459	231.38
609.667	216.38
609.875	221.38
610.083	222.38
610.291	220.38
610.499	231.38
610.707	235.38
610.916	223.38
611.124	216.38
611.332	199.38
611.54	207.38
611.748	194.38
611.955	215.38
612.163	218.38
612.371	211.38
612.579	223.38
612.787	219.38
612.995	211.38
613.203	216.38
613.411	223.38
613.618	212.38
613.826	201.38
614.034	217.38
614.242	219.38
614.449	203.38
614.657	202.38
614.865	199.38
615.072	209.38
615.28	234.38
615.488	199.38
615.695	218.38
615.903	198.38
616.111	191.38
616.318	207.38
616.526	196.38
616.733	204.38
616.941	203.38
617.148	207.38
617.356	195.38
617.563	191.38
617.771	206.38
617.978	209.38
618.185	202.38
618.393	199.38
618.6	195.38
618.807	201.38
619.015	199.38
619.222	203.38
619.429	224.38
619.637	196.38
619.844	200.38
620.051	191.38
620.258	191.38
620.466	201.38
620.673	211.38
620.88	202.38
621.087	207.38
621.294	205.38
621.501	215.38
621.708	187.38
621.915	190.38
622.122	184.38
622.329	206.38
622.536	204.38
622.743	190.38
622.95	193.38
623.157	194.38
623.364	205.38
623.571	195.38
623.778	185.38
623.985	199.38
624.192	204.38
624.399	181.38
624.606	186.38
624.812	190.38
625.019	195.38
625.226	189.38
625.433	196.38
625.639	175.38
625.846	187.38
626.053	186.38
626.259	196.38
626.466	183.38
626.673	185.38
626.879	198.38
627.086	192.38
627.293	203.38
627.499	192.38
627.706	194.38
627.912	195.38
628.119	178.38
628.325	182.38
628.532	185.38
628.738	182.38
628.945	187.38
629.151	184.38
629.357	180.38
629.564	185.38
629.77	169.38
629.976	185.38
630.183	184.38
630.389	174.38
630.595	173.38
630.802	188.38
631.008	193.38
631.214	178.38
631.42	173.38
631.627	182.38
631.833	166.38
632.039	162.38
632.245	171.38
632.451	174.38
632.657	198.38
632.863	171.38
633.069	183.38
633.275	176.38
633.481	166.38
633.688	172.38
633.893	170.38
634.099	158.38
634.305	177.38
634.511	162.38
634.717	158.38
634.923	154.38
635.129	176.38
635.335	165.38
635.541	178.38
635.747	159.38
635.952	159.38
636.158	164.38
636.364	167.38
636.57	160.38
636.775	160.38
636.981	182.38
637.187	157.38
637.392	166.38
637.598	176.38
637.804	184.38
638.009	171.38
638.215	164.38
638.421	173.38
638.626	161.38
638.832	173.38
639.037	161.38
639.243	171.38
639.448	167.38
639.654	143.38
639.859	146.38
640.065	167.38
640.27	139.38
640.475	150.38
640.681	163.38
640.886	160.38
641.091	155.38
641.297	151.38
641.502	158.38
641.707	164.38
641.913	172.38
642.118	147.38
642.323	141.38
642.528	174.38
642.733	154.38
642.939	167.38
643.144	149.38
643.349	159.38
643.554	149.38
643.759	139.38
643.964	128.38
644.169	151.38
644.374	160.38
644.579	151.38
644.784	149.38
644.989	143.38
645.194	159.38
645.399	153.38
645.604	154.38
645.809	153.38
646.014	150.38
646.219	147.38
646.423	144.38
646.628	157.38
646.833	147.38
647.038	171.38
647.243	150.38
647.447	151.38
647.652	156.38
647.857	133.38
648.062	138.38
648.266	164.38
648.471	154.38
648.676	159.38
648.88	162.38
649.085	153.38
649.289	156.38
649.494	152.38
649.698	170.38
649.903	166.38
650.107	168.38
650.312	171.38
650.516	130.38
650.721	132.38
650.925	138.38
651.13	131.38
651.334	135.38
651.539	130.38
651.743	146.38
651.947	137.38
652.152	134.38
652.356	145.38
652.56	139.38
652.764	138.38
652.969	126.38
653.173	123.38
653.377	139.38
653.581	122.38
653.785	124.38
653.99	114.38
654.194	129.38
654.398	141.38
654.602	122.38
654.806	136.38
655.01	126.38
655.214	130.38
655.418	116.38
655.622	115.38
655.826	125.38
656.03	118.38
656.234	107.38
656.438	106.38
656.642	127.38
656.846	107.38
657.049	107.38
657.253	124.38
657.457	107.38
657.661	120.38
657.865	120.38
658.068	104.38
658.272	102.38
658.476	100.38
658.68	91.38
658.883	100.38
659.087	87.38
659.291	86.38
659.494	89.38
659.698	109.38
659.901	92.38
660.105	93.38
660.309	103.38
660.512	108.38
660.716	88.38
660.919	87.38
661.123	83.38
661.326	81.38
661.53	93.38
661.733	100.38
661.936	94.38
662.14	81.38
662.343	91.38
662.546	92.38
662.75	85.38
662.953	96.38
663.156	84.38
663.36	84.38
663.563	81.38
663.766	85.38
663.969	84.38
664.173	72.38
664.376	52.38
664.579	81.38
664.782	79.38
664.985	83.38
665.188	85.38
665.391	56.38
665.594	86.38
665.797	67.38
666	82.38
666.203	73.38
666.406	79.38
666.609	82.38
666.812	80.38
667.015	80.38
667.218	74.38
667.421	79.38
667.624	78.38
667.827	92.38
668.03	88.38
668.232	73.38
668.435	74.38
668.638	71.38
668.841	93.38
669.043	75.38
669.246	78.38
669.449	88.38
669.651	79.38
669.854	91.38
670.057	76.38
670.259	83.38
670.462	92.38
670.665	76.38
670.867	81.38
671.07	81.38
671.272	88.38
671.475	86.38
671.677	86.38
671.88	88.38
672.082	84.38
672.284	83.38
672.487	91.38
672.689	64.38
672.892	79.38
