Data from 1987.PennyLincolnUp.Lamp.En5.5.200Scan.071819.P2_HRD10591_17-15-32-971.txt Node
Date: Thu Jul 18 17:15:32 EDT 2019
User: cochatt
Spectrometer: HR+D1059
Trigger mode: 1
Integration Time (sec): 1.000000E-1
Scans to average: 1
Electric dark correction enabled: true
Nonlinearity correction enabled: false
Boxcar width: 0
XAxis mode: Wavelengths
Number of Pixels in Spectrum: 2048
>>>>>Begin Spectral Data<<<<<
223.165	-33.94
223.4	-33.94
223.635	-33.94
223.869	-14.94
224.104	-16.94
224.338	-8.94
224.573	-12.94
224.808	-3.94
225.042	-11.94
225.277	-5.94
225.511	0.06
225.746	5.06
225.98	5.06
226.215	14.06
226.449	12.06
226.683	25.06
226.918	21.06
227.152	27.06
227.387	22.06
227.621	31.06
227.856	44.06
228.09	40.06
228.324	60.06
228.559	51.06
228.793	57.06
229.027	112.06
229.262	125.06
229.496	132.06
229.73	136.06
229.964	175.06
230.199	144.06
230.433	127.06
230.667	128.06
230.901	117.06
231.136	129.06
231.37	116.06
231.604	133.06
231.838	115.06
232.072	104.06
232.306	111.06
232.541	115.06
232.775	124.06
233.009	125.06
233.243	123.06
233.477	122.06
233.711	121.06
233.945	129.06
234.179	111.06
234.413	125.06
234.647	129.06
234.881	105.06
235.115	126.06
235.349	110.06
235.583	128.06
235.817	127.06
236.051	117.06
236.285	115.06
236.519	117.06
236.753	125.06
236.987	151.06
237.221	198.06
237.455	262.06
237.689	202.06
237.922	145.06
238.156	135.06
238.39	122.06
238.624	131.06
238.858	122.06
239.091	114.06
239.325	110.06
239.559	106.06
239.793	134.06
240.027	131.06
240.26	151.06
240.494	172.06
240.728	144.06
240.961	147.06
241.195	149.06
241.429	135.06
241.662	133.06
241.896	133.06
242.13	122.06
242.363	138.06
242.597	136.06
242.83	134.06
243.064	128.06
243.298	129.06
243.531	128.06
243.765	129.06
243.998	135.06
244.232	127.06
244.465	133.06
244.699	150.06
244.932	135.06
245.166	145.06
245.399	151.06
245.633	141.06
245.866	136.06
246.099	145.06
246.333	157.06
246.566	146.06
246.8	142.06
247.033	143.06
247.266	158.06
247.5	155.06
247.733	156.06
247.966	165.06
248.2	166.06
248.433	166.06
248.666	171.06
248.899	191.06
249.133	190.06
249.366	211.06
249.599	201.06
249.832	193.06
250.066	177.06
250.299	168.06
250.532	169.06
250.765	194.06
250.998	207.06
251.231	239.06
251.465	207.06
251.698	215.06
251.931	210.06
252.164	199.06
252.397	193.06
252.63	199.06
252.863	198.06
253.096	213.06
253.329	235.06
253.562	229.06
253.795	218.06
254.028	216.06
254.261	199.06
254.494	222.06
254.727	247.06
254.96	280.06
255.193	264.06
255.426	248.06
255.659	233.06
255.892	218.06
256.124	218.06
256.357	205.06
256.59	214.06
256.823	211.06
257.056	196.06
257.289	202.06
257.521	204.06
257.754	206.06
257.987	193.06
258.22	193.06
258.452	195.06
258.685	172.06
258.918	185.06
259.151	211.06
259.383	210.06
259.616	193.06
259.849	219.06
260.081	218.06
260.314	234.06
260.547	254.06
260.779	230.06
261.012	225.06
261.244	216.06
261.477	204.06
261.71	226.06
261.942	230.06
262.175	241.06
262.407	236.06
262.64	213.06
262.872	206.06
263.105	183.06
263.337	192.06
263.57	193.06
263.802	201.06
264.035	201.06
264.267	193.06
264.499	196.06
264.732	189.06
264.964	188.06
265.197	186.06
265.429	194.06
265.661	173.06
265.894	194.06
266.126	189.06
266.358	182.06
266.591	183.06
266.823	202.06
267.055	201.06
267.287	204.06
267.52	207.06
267.752	193.06
267.984	218.06
268.216	225.06
268.448	196.06
268.681	203.06
268.913	207.06
269.145	226.06
269.377	229.06
269.609	246.06
269.841	258.06
270.073	269.06
270.306	261.06
270.538	291.06
270.77	302.06
271.002	303.06
271.234	296.06
271.466	299.06
271.698	294.06
271.93	305.06
272.162	285.06
272.394	289.06
272.626	298.06
272.858	276.06
273.09	284.06
273.322	250.06
273.553	251.06
273.785	261.06
274.017	249.06
274.249	255.06
274.481	239.06
274.713	231.06
274.945	246.06
275.176	235.06
275.408	236.06
275.64	241.06
275.872	251.06
276.104	242.06
276.335	231.06
276.567	246.06
276.799	269.06
277.031	255.06
277.262	317.06
277.494	307.06
277.726	307.06
277.957	247.06
278.189	241.06
278.421	238.06
278.652	247.06
278.884	227.06
279.115	225.06
279.347	230.06
279.579	230.06
279.81	223.06
280.042	242.06
280.273	233.06
280.505	233.06
280.736	237.06
280.968	205.06
281.199	199.06
281.431	232.06
281.662	241.06
281.894	229.06
282.125	230.06
282.356	247.06
282.588	286.06
282.819	288.06
283.051	247.06
283.282	232.06
283.513	228.06
283.745	237.06
283.976	236.06
284.207	243.06
284.439	247.06
284.67	246.06
284.901	228.06
285.132	220.06
285.364	220.06
285.595	246.06
285.826	224.06
286.057	217.06
286.288	238.06
286.52	206.06
286.751	231.06
286.982	219.06
287.213	248.06
287.444	230.06
287.675	244.06
287.906	237.06
288.138	237.06
288.369	257.06
288.6	265.06
288.831	253.06
289.062	231.06
289.293	251.06
289.524	243.06
289.755	249.06
289.986	236.06
290.217	229.06
290.448	229.06
290.679	234.06
290.91	232.06
291.141	233.06
291.371	240.06
291.602	241.06
291.833	237.06
292.064	238.06
292.295	226.06
292.526	234.06
292.757	236.06
292.987	221.06
293.218	230.06
293.449	231.06
293.68	235.06
293.91	220.06
294.141	222.06
294.372	235.06
294.603	248.06
294.833	237.06
295.064	261.06
295.295	211.06
295.525	233.06
295.756	247.06
295.987	265.06
296.217	276.06
296.448	302.06
296.679	257.06
296.909	233.06
297.14	231.06
297.37	231.06
297.601	242.06
297.831	243.06
298.062	247.06
298.292	252.06
298.523	245.06
298.753	250.06
298.984	245.06
299.214	247.06
299.445	237.06
299.675	253.06
299.905	262.06
300.136	258.06
300.366	270.06
300.597	254.06
300.827	234.06
301.057	233.06
301.288	275.06
301.518	278.06
301.748	269.06
301.979	257.06
302.209	266.06
302.439	275.06
302.669	268.06
302.9	271.06
303.13	281.06
303.36	262.06
303.59	281.06
303.82	284.06
304.051	285.06
304.281	266.06
304.511	269.06
304.741	259.06
304.971	263.06
305.201	259.06
305.431	262.06
305.661	261.06
305.891	263.06
306.121	255.06
306.352	267.06
306.582	291.06
306.812	272.06
307.042	292.06
307.272	276.06
307.502	279.06
307.731	278.06
307.961	273.06
308.191	254.06
308.421	268.06
308.651	282.06
308.881	291.06
309.111	294.06
309.341	293.06
309.571	305.06
309.8	315.06
310.03	335.06
310.26	346.06
310.49	331.06
310.72	348.06
310.949	383.06
311.179	393.06
311.409	340.06
311.639	331.06
311.868	350.06
312.098	351.06
312.328	359.06
312.557	381.06
312.787	390.06
313.017	389.06
313.246	351.06
313.476	338.06
313.706	347.06
313.935	351.06
314.165	346.06
314.394	363.06
314.624	360.06
314.853	369.06
315.083	342.06
315.312	323.06
315.542	331.06
315.771	313.06
316.001	310.06
316.23	321.06
316.46	325.06
316.689	310.06
316.919	327.06
317.148	345.06
317.377	354.06
317.607	341.06
317.836	330.06
318.065	335.06
318.295	322.06
318.524	329.06
318.753	319.06
318.983	324.06
319.212	338.06
319.441	343.06
319.67	351.06
319.9	330.06
320.129	340.06
320.358	338.06
320.587	344.06
320.816	343.06
321.046	364.06
321.275	375.06
321.504	369.06
321.733	357.06
321.962	373.06
322.191	396.06
322.42	396.06
322.649	430.06
322.878	439.06
323.108	479.06
323.337	502.06
323.566	552.06
323.795	582.06
324.024	669.06
324.253	839.06
324.482	1194.06
324.71	1889.06
324.939	2637.06
325.168	2314.06
325.397	1271.06
325.626	824.06
325.855	650.06
326.084	557.06
326.313	523.06
326.542	545.06
326.77	630.06
326.999	729.06
327.228	1027.06
327.457	1644.06
327.686	1989.06
327.914	1365.06
328.143	899.06
328.372	717.06
328.6	668.06
328.829	616.06
329.058	645.06
329.287	675.06
329.515	599.06
329.744	538.06
329.972	517.06
330.201	507.06
330.43	536.06
330.658	598.06
330.887	675.06
331.115	660.06
331.344	509.06
331.572	483.06
331.801	450.06
332.03	485.06
332.258	463.06
332.486	398.06
332.715	395.06
332.943	374.06
333.172	391.06
333.4	386.06
333.629	379.06
333.857	395.06
334.085	407.06
334.314	400.06
334.542	383.06
334.771	391.06
334.999	397.06
335.227	389.06
335.455	387.06
335.684	368.06
335.912	369.06
336.14	386.06
336.369	379.06
336.597	381.06
336.825	379.06
337.053	370.06
337.281	360.06
337.51	364.06
337.738	361.06
337.966	377.06
338.194	385.06
338.422	365.06
338.65	367.06
338.878	382.06
339.106	366.06
339.334	353.06
339.562	359.06
339.79	359.06
340.018	342.06
340.246	363.06
340.474	383.06
340.702	377.06
340.93	351.06
341.158	377.06
341.386	377.06
341.614	386.06
341.842	376.06
342.07	353.06
342.298	356.06
342.526	367.06
342.754	334.06
342.981	347.06
343.209	347.06
343.437	350.06
343.665	333.06
343.893	359.06
344.12	341.06
344.348	361.06
344.576	361.06
344.804	366.06
345.031	388.06
345.259	401.06
345.487	389.06
345.714	389.06
345.942	369.06
346.17	345.06
346.397	367.06
346.625	340.06
346.853	373.06
347.08	349.06
347.308	354.06
347.535	390.06
347.763	393.06
347.99	387.06
348.218	378.06
348.445	398.06
348.673	407.06
348.9	387.06
349.128	351.06
349.355	355.06
349.583	347.06
349.81	346.06
350.037	353.06
350.265	348.06
350.492	373.06
350.72	361.06
350.947	364.06
351.174	374.06
351.402	375.06
351.629	376.06
351.856	374.06
352.083	387.06
352.311	407.06
352.538	419.06
352.765	422.06
352.992	409.06
353.22	380.06
353.447	354.06
353.674	345.06
353.901	330.06
354.128	345.06
354.355	341.06
354.583	340.06
354.81	344.06
355.037	333.06
355.264	349.06
355.491	315.06
355.718	318.06
355.945	319.06
356.172	322.06
356.399	307.06
356.626	332.06
356.853	317.06
357.08	315.06
357.307	307.06
357.534	324.06
357.761	311.06
357.988	323.06
358.215	309.06
358.441	328.06
358.668	355.06
358.895	351.06
359.122	345.06
359.349	365.06
359.576	378.06
359.802	417.06
360.029	441.06
360.256	487.06
360.483	463.06
360.709	395.06
360.936	378.06
361.163	381.06
361.39	357.06
361.616	385.06
361.843	378.06
362.07	359.06
362.296	378.06
362.523	371.06
362.749	369.06
362.976	356.06
363.203	358.06
363.429	349.06
363.656	331.06
363.882	343.06
364.109	332.06
364.335	328.06
364.562	348.06
364.788	336.06
365.015	349.06
365.241	356.06
365.468	366.06
365.694	354.06
365.92	347.06
366.147	351.06
366.373	334.06
366.599	337.06
366.826	344.06
367.052	339.06
367.278	327.06
367.505	338.06
367.731	347.06
367.957	323.06
368.184	344.06
368.41	375.06
368.636	359.06
368.862	362.06
369.089	358.06
369.315	334.06
369.541	343.06
369.767	331.06
369.993	358.06
370.219	347.06
370.445	332.06
370.672	318.06
370.898	316.06
371.124	319.06
371.35	312.06
371.576	329.06
371.802	329.06
372.028	325.06
372.254	307.06
372.48	321.06
372.706	319.06
372.932	305.06
373.158	331.06
373.384	341.06
373.61	342.06
373.835	325.06
374.061	321.06
374.287	330.06
374.513	346.06
374.739	335.06
374.965	331.06
375.191	317.06
375.416	323.06
375.642	348.06
375.868	337.06
376.094	334.06
376.319	332.06
376.545	313.06
376.771	320.06
376.997	318.06
377.222	315.06
377.448	307.06
377.674	310.06
377.899	324.06
378.125	326.06
378.35	299.06
378.576	313.06
378.802	325.06
379.027	329.06
379.253	327.06
379.478	316.06
379.704	319.06
379.929	332.06
380.155	319.06
380.38	303.06
380.606	349.06
380.831	322.06
381.057	347.06
381.282	310.06
381.507	310.06
381.733	331.06
381.958	323.06
382.184	310.06
382.409	330.06
382.634	326.06
382.86	341.06
383.085	348.06
383.31	333.06
383.535	324.06
383.761	335.06
383.986	341.06
384.211	339.06
384.436	317.06
384.662	304.06
384.887	325.06
385.112	338.06
385.337	341.06
385.562	351.06
385.787	347.06
386.013	357.06
386.238	375.06
386.463	362.06
386.688	345.06
386.913	340.06
387.138	328.06
387.363	348.06
387.588	339.06
387.813	328.06
388.038	345.06
388.263	319.06
388.488	326.06
388.713	321.06
388.938	325.06
389.163	355.06
389.387	357.06
389.612	344.06
389.837	346.06
390.062	340.06
390.287	357.06
390.512	339.06
390.736	339.06
390.961	322.06
391.186	331.06
391.411	341.06
391.636	340.06
391.86	343.06
392.085	327.06
392.31	343.06
392.534	333.06
392.759	342.06
392.984	352.06
393.208	356.06
393.433	354.06
393.658	334.06
393.882	361.06
394.107	357.06
394.331	364.06
394.556	349.06
394.78	332.06
395.005	352.06
395.229	336.06
395.454	352.06
395.678	334.06
395.903	378.06
396.127	373.06
396.352	399.06
396.576	371.06
396.801	365.06
397.025	353.06
397.249	373.06
397.474	358.06
397.698	365.06
397.922	378.06
398.147	389.06
398.371	387.06
398.595	373.06
398.82	381.06
399.044	376.06
399.268	401.06
399.492	386.06
399.717	395.06
399.941	437.06
400.165	432.06
400.389	466.06
400.613	448.06
400.837	409.06
401.062	390.06
401.286	393.06
401.51	401.06
401.734	384.06
401.958	388.06
402.182	394.06
402.406	417.06
402.63	421.06
402.854	421.06
403.078	398.06
403.302	414.06
403.526	448.06
403.75	418.06
403.974	427.06
404.198	401.06
404.422	417.06
404.645	395.06
404.869	419.06
405.093	429.06
405.317	460.06
405.541	484.06
405.765	452.06
405.988	434.06
406.212	462.06
406.436	482.06
406.66	488.06
406.883	472.06
407.107	489.06
407.331	508.06
407.555	573.06
407.778	578.06
408.002	523.06
408.226	494.06
408.449	478.06
408.673	475.06
408.896	503.06
409.12	554.06
409.344	486.06
409.567	465.06
409.791	443.06
410.014	433.06
410.238	409.06
410.461	429.06
410.685	413.06
410.908	441.06
411.132	469.06
411.355	499.06
411.578	487.06
411.802	435.06
412.025	417.06
412.249	419.06
412.472	405.06
412.695	414.06
412.919	428.06
413.142	425.06
413.365	402.06
413.589	396.06
413.812	388.06
414.035	392.06
414.258	383.06
414.482	369.06
414.705	405.06
414.928	393.06
415.151	392.06
415.374	390.06
415.597	375.06
415.821	373.06
416.044	397.06
416.267	394.06
416.49	388.06
416.713	396.06
416.936	385.06
417.159	417.06
417.382	413.06
417.605	422.06
417.828	427.06
418.051	422.06
418.274	444.06
418.497	403.06
418.72	426.06
418.943	386.06
419.166	412.06
419.389	423.06
419.611	430.06
419.834	405.06
420.057	403.06
420.28	421.06
420.503	406.06
420.726	410.06
420.948	438.06
421.171	499.06
421.394	534.06
421.617	440.06
421.839	420.06
422.062	429.06
422.285	452.06
422.507	522.06
422.73	571.06
422.953	567.06
423.175	481.06
423.398	455.06
423.621	456.06
423.843	484.06
424.066	494.06
424.288	479.06
424.511	490.06
424.733	579.06
424.956	631.06
425.178	619.06
425.401	637.06
425.623	646.06
425.846	553.06
426.068	505.06
426.291	525.06
426.513	499.06
426.735	518.06
426.958	547.06
427.18	623.06
427.402	756.06
427.625	859.06
427.847	798.06
428.069	648.06
428.292	549.06
428.514	522.06
428.736	474.06
428.958	496.06
429.181	469.06
429.403	461.06
429.625	485.06
429.847	510.06
430.069	597.06
430.292	579.06
430.514	489.06
430.736	480.06
430.958	443.06
431.18	459.06
431.402	442.06
431.624	405.06
431.846	422.06
432.068	401.06
432.29	426.06
432.512	424.06
432.734	435.06
432.956	433.06
433.178	437.06
433.4	441.06
433.622	433.06
433.844	415.06
434.066	417.06
434.287	413.06
434.509	433.06
434.731	434.06
434.953	455.06
435.175	461.06
435.397	476.06
435.618	494.06
435.84	550.06
436.062	621.06
436.284	693.06
436.505	589.06
436.727	544.06
436.949	513.06
437.17	468.06
437.392	481.06
437.614	493.06
437.835	555.06
438.057	649.06
438.278	764.06
438.5	730.06
438.721	784.06
438.943	765.06
439.165	620.06
439.386	549.06
439.608	531.06
439.829	525.06
440.05	561.06
440.272	612.06
440.493	597.06
440.715	536.06
440.936	498.06
441.158	485.06
441.379	474.06
441.6	484.06
441.822	517.06
442.043	558.06
442.264	622.06
442.486	670.06
442.707	582.06
442.928	565.06
443.149	556.06
443.371	549.06
443.592	611.06
443.813	662.06
444.034	716.06
444.255	611.06
444.476	553.06
444.698	493.06
444.919	487.06
445.14	643.06
445.361	567.06
445.582	566.06
445.803	610.06
446.024	722.06
446.245	754.06
446.466	680.06
446.687	579.06
446.908	527.06
447.129	518.06
447.35	482.06
447.571	465.06
447.792	487.06
448.013	488.06
448.234	523.06
448.455	569.06
448.675	660.06
448.896	746.06
449.117	682.06
449.338	628.06
449.559	719.06
449.779	789.06
450	645.06
450.221	554.06
450.442	501.06
450.662	502.06
450.883	508.06
451.104	549.06
451.324	519.06
451.545	495.06
451.766	449.06
451.986	435.06
452.207	442.06
452.428	424.06
452.648	429.06
452.869	424.06
453.089	438.06
453.31	446.06
453.53	428.06
453.751	439.06
453.971	439.06
454.192	488.06
454.412	481.06
454.633	435.06
454.853	422.06
455.073	428.06
455.294	454.06
455.514	544.06
455.734	533.06
455.955	435.06
456.175	413.06
456.395	385.06
456.616	386.06
456.836	383.06
457.056	384.06
457.276	392.06
457.497	381.06
457.717	395.06
457.937	398.06
458.157	391.06
458.377	403.06
458.598	439.06
458.818	508.06
459.038	627.06
459.258	631.06
459.478	523.06
459.698	454.06
459.918	430.06
460.138	417.06
460.358	415.06
460.578	417.06
460.798	405.06
461.018	425.06
461.238	422.06
461.458	423.06
461.678	393.06
461.898	415.06
462.118	410.06
462.338	407.06
462.558	402.06
462.777	411.06
462.997	419.06
463.217	411.06
463.437	437.06
463.657	418.06
463.876	411.06
464.096	426.06
464.316	418.06
464.536	437.06
464.755	447.06
464.975	455.06
465.195	524.06
465.414	686.06
465.634	617.06
465.854	482.06
466.073	468.06
466.293	452.06
466.512	429.06
466.732	418.06
466.951	411.06
467.171	422.06
467.391	425.06
467.61	432.06
467.829	462.06
468.049	427.06
468.268	442.06
468.488	426.06
468.707	396.06
468.927	387.06
469.146	399.06
469.365	394.06
469.585	410.06
469.804	435.06
470.023	447.06
470.243	447.06
470.462	450.06
470.681	470.06
470.901	466.06
471.12	450.06
471.339	419.06
471.558	437.06
471.777	425.06
471.997	418.06
472.216	399.06
472.435	404.06
472.654	422.06
472.873	419.06
473.092	416.06
473.311	405.06
473.53	412.06
473.749	453.06
473.968	461.06
474.187	605.06
474.406	626.06
474.625	505.06
474.844	453.06
475.063	451.06
475.282	434.06
475.501	433.06
475.72	428.06
475.939	447.06
476.158	429.06
476.377	447.06
476.596	431.06
476.814	441.06
477.033	462.06
477.252	454.06
477.471	431.06
477.69	454.06
477.908	471.06
478.127	464.06
478.346	447.06
478.564	462.06
478.783	459.06
479.002	485.06
479.22	482.06
479.439	492.06
479.658	526.06
479.876	533.06
480.095	540.06
480.313	551.06
480.532	524.06
480.751	522.06
480.969	531.06
481.188	540.06
481.406	523.06
481.624	527.06
481.843	495.06
482.061	490.06
482.28	489.06
482.498	509.06
482.717	487.06
482.935	465.06
483.153	499.06
483.372	515.06
483.59	496.06
483.808	505.06
484.027	490.06
484.245	499.06
484.463	500.06
484.681	509.06
484.9	507.06
485.118	518.06
485.336	499.06
485.554	517.06
485.772	537.06
485.99	527.06
486.209	537.06
486.427	540.06
486.645	536.06
486.863	562.06
487.081	548.06
487.299	533.06
487.517	553.06
487.735	559.06
487.953	540.06
488.171	556.06
488.389	557.06
488.607	538.06
488.825	534.06
489.043	530.06
489.261	575.06
489.479	566.06
489.696	557.06
489.914	571.06
490.132	559.06
490.35	567.06
490.568	569.06
490.786	594.06
491.003	603.06
491.221	600.06
491.439	637.06
491.657	639.06
491.874	636.06
492.092	647.06
492.31	638.06
492.527	619.06
492.745	651.06
492.963	636.06
493.18	673.06
493.398	627.06
493.615	659.06
493.833	656.06
494.05	662.06
494.268	669.06
494.485	643.06
494.703	660.06
494.92	658.06
495.138	669.06
495.355	673.06
495.573	656.06
495.79	682.06
496.008	666.06
496.225	662.06
496.442	649.06
496.66	659.06
496.877	666.06
497.094	684.06
497.312	676.06
497.529	685.06
497.746	679.06
497.963	666.06
498.181	712.06
498.398	708.06
498.615	694.06
498.832	674.06
499.049	696.06
499.267	719.06
499.484	695.06
499.701	754.06
499.918	727.06
500.135	754.06
500.352	734.06
500.569	749.06
500.786	774.06
501.003	777.06
501.22	773.06
501.437	784.06
501.654	789.06
501.871	814.06
502.088	785.06
502.305	742.06
502.522	722.06
502.739	713.06
502.956	692.06
503.172	677.06
503.389	693.06
503.606	713.06
503.823	695.06
504.04	692.06
504.256	673.06
504.473	679.06
504.69	650.06
504.907	661.06
505.123	672.06
505.34	652.06
505.557	668.06
505.773	684.06
505.99	663.06
506.207	651.06
506.423	665.06
506.64	660.06
506.856	656.06
507.073	685.06
507.289	649.06
507.506	666.06
507.722	677.06
507.939	701.06
508.155	671.06
508.372	670.06
508.588	629.06
508.805	641.06
509.021	649.06
509.238	662.06
509.454	672.06
509.67	649.06
509.887	665.06
510.103	661.06
510.319	701.06
510.536	835.06
510.752	1549.06
510.968	1266.06
511.184	739.06
511.401	667.06
511.617	654.06
511.833	636.06
512.049	638.06
512.265	638.06
512.481	644.06
512.698	617.06
512.914	608.06
513.13	651.06
513.346	599.06
513.562	643.06
513.778	636.06
513.994	638.06
514.21	685.06
514.426	726.06
514.642	813.06
514.858	841.06
515.074	928.06
515.29	1169.06
515.506	1844.06
515.721	1434.06
515.937	880.06
516.153	798.06
516.369	725.06
516.585	677.06
516.801	677.06
517.016	659.06
517.232	639.06
517.448	639.06
517.664	655.06
517.879	622.06
518.095	621.06
518.311	634.06
518.527	610.06
518.742	627.06
518.958	647.06
519.173	637.06
519.389	612.06
519.605	618.06
519.82	662.06
520.036	695.06
520.251	708.06
520.467	773.06
520.682	770.06
520.898	786.06
521.113	844.06
521.329	919.06
521.544	1072.06
521.76	1457.06
521.975	2513.06
522.19	2454.06
522.406	1275.06
522.621	899.06
522.836	749.06
523.052	681.06
523.267	639.06
523.482	633.06
523.698	605.06
523.913	601.06
524.128	612.06
524.343	584.06
524.559	593.06
524.774	555.06
524.989	549.06
525.204	574.06
525.419	573.06
525.634	543.06
525.849	540.06
526.064	518.06
526.28	508.06
526.495	525.06
526.71	509.06
526.925	471.06
527.14	515.06
527.355	501.06
527.57	483.06
527.785	487.06
527.999	462.06
528.214	464.06
528.429	493.06
528.644	519.06
528.859	481.06
529.074	507.06
529.289	529.06
529.503	665.06
529.718	638.06
529.933	549.06
530.148	511.06
530.363	513.06
530.577	473.06
530.792	470.06
531.007	467.06
531.221	483.06
531.436	458.06
531.651	475.06
531.865	483.06
532.08	470.06
532.295	450.06
532.509	470.06
532.724	453.06
532.938	439.06
533.153	438.06
533.367	443.06
533.582	442.06
533.796	452.06
534.011	443.06
534.225	437.06
534.44	444.06
534.654	437.06
534.868	439.06
535.083	439.06
535.297	436.06
535.511	469.06
535.726	489.06
535.94	477.06
536.154	452.06
536.369	469.06
536.583	441.06
536.797	437.06
537.011	429.06
537.225	430.06
537.44	412.06
537.654	429.06
537.868	425.06
538.082	418.06
538.296	434.06
538.51	454.06
538.724	449.06
538.938	421.06
539.153	447.06
539.367	466.06
539.581	461.06
539.795	446.06
540.009	424.06
540.222	439.06
540.436	445.06
540.65	443.06
540.864	445.06
541.078	438.06
541.292	445.06
541.506	441.06
541.72	438.06
541.934	443.06
542.147	434.06
542.361	453.06
542.575	438.06
542.789	412.06
543.002	417.06
543.216	446.06
543.43	433.06
543.644	465.06
543.857	445.06
544.071	435.06
544.285	449.06
544.498	439.06
544.712	433.06
544.925	440.06
545.139	421.06
545.352	420.06
545.566	409.06
545.779	390.06
545.993	417.06
546.206	403.06
546.42	417.06
546.633	400.06
546.847	394.06
547.06	405.06
547.274	383.06
547.487	400.06
547.7	399.06
547.914	377.06
548.127	389.06
548.34	398.06
548.554	380.06
548.767	399.06
548.98	395.06
549.193	369.06
549.407	389.06
549.62	396.06
549.833	386.06
550.046	379.06
550.259	385.06
550.473	382.06
550.686	382.06
550.899	374.06
551.112	390.06
551.325	378.06
551.538	381.06
551.751	389.06
551.964	379.06
552.177	402.06
552.39	397.06
552.603	393.06
552.816	388.06
553.029	380.06
553.242	378.06
553.455	376.06
553.667	427.06
553.88	421.06
554.093	413.06
554.306	417.06
554.519	384.06
554.732	387.06
554.944	372.06
555.157	367.06
555.37	381.06
555.583	389.06
555.795	381.06
556.008	369.06
556.221	378.06
556.433	360.06
556.646	356.06
556.859	387.06
557.071	344.06
557.284	341.06
557.496	364.06
557.709	358.06
557.921	361.06
558.134	363.06
558.346	355.06
558.559	358.06
558.771	357.06
558.984	358.06
559.196	349.06
559.409	362.06
559.621	350.06
559.833	342.06
560.046	341.06
560.258	360.06
560.47	362.06
560.683	364.06
560.895	327.06
561.107	353.06
561.32	335.06
561.532	356.06
561.744	338.06
561.956	354.06
562.168	346.06
562.381	358.06
562.593	367.06
562.805	366.06
563.017	348.06
563.229	339.06
563.441	337.06
563.653	357.06
563.865	352.06
564.077	339.06
564.289	346.06
564.501	330.06
564.713	359.06
564.925	347.06
565.137	374.06
565.349	381.06
565.561	380.06
565.773	363.06
565.985	363.06
566.197	372.06
566.408	370.06
566.62	368.06
566.832	369.06
567.044	372.06
567.255	386.06
567.467	391.06
567.679	383.06
567.891	389.06
568.102	376.06
568.314	387.06
568.526	369.06
568.737	365.06
568.949	375.06
569.161	368.06
569.372	364.06
569.584	355.06
569.795	341.06
570.007	372.06
570.218	439.06
570.43	421.06
570.641	353.06
570.853	355.06
571.064	329.06
571.276	328.06
571.487	336.06
571.698	310.06
571.91	313.06
572.121	317.06
572.333	321.06
572.544	320.06
572.755	302.06
572.966	321.06
573.178	332.06
573.389	323.06
573.6	292.06
573.811	313.06
574.023	317.06
574.234	307.06
574.445	310.06
574.656	299.06
574.867	297.06
575.078	309.06
575.289	292.06
575.501	303.06
575.712	302.06
575.923	290.06
576.134	297.06
576.345	294.06
576.556	298.06
576.767	317.06
576.978	300.06
577.188	287.06
577.399	285.06
577.61	299.06
577.821	296.06
578.032	312.06
578.243	354.06
578.454	723.06
578.665	518.06
578.875	337.06
579.086	299.06
579.297	295.06
579.508	284.06
579.718	284.06
579.929	287.06
580.14	288.06
580.35	289.06
580.561	293.06
580.772	277.06
580.982	298.06
581.193	271.06
581.403	278.06
581.614	275.06
581.825	295.06
582.035	271.06
582.246	280.06
582.456	277.06
582.667	263.06
582.877	280.06
583.087	266.06
583.298	289.06
583.508	285.06
583.719	274.06
583.929	307.06
584.139	271.06
584.35	286.06
584.56	266.06
584.77	284.06
584.981	269.06
585.191	286.06
585.401	264.06
585.611	277.06
585.821	279.06
586.032	272.06
586.242	277.06
586.452	264.06
586.662	265.06
586.872	261.06
587.082	263.06
587.292	271.06
587.502	277.06
587.713	259.06
587.923	265.06
588.133	287.06
588.343	265.06
588.553	272.06
588.762	275.06
588.972	273.06
589.182	292.06
589.392	294.06
589.602	258.06
589.812	293.06
590.022	271.06
590.232	246.06
590.441	261.06
590.651	266.06
590.861	266.06
591.071	282.06
591.281	248.06
591.49	266.06
591.7	258.06
591.91	254.06
592.119	253.06
592.329	268.06
592.539	278.06
592.748	270.06
592.958	279.06
593.167	267.06
593.377	261.06
593.587	266.06
593.796	265.06
594.006	272.06
594.215	267.06
594.424	271.06
594.634	258.06
594.843	246.06
595.053	261.06
595.262	262.06
595.472	262.06
595.681	253.06
595.89	242.06
596.1	251.06
596.309	262.06
596.518	264.06
596.727	257.06
596.937	275.06
597.146	250.06
597.355	238.06
597.564	238.06
597.774	245.06
597.983	227.06
598.192	250.06
598.401	229.06
598.61	248.06
598.819	246.06
599.028	241.06
599.237	250.06
599.446	227.06
599.655	243.06
599.864	234.06
600.073	227.06
600.282	246.06
600.491	231.06
600.7	250.06
600.909	256.06
601.118	243.06
601.327	232.06
601.536	234.06
601.745	218.06
601.953	229.06
602.162	247.06
602.371	243.06
602.58	236.06
602.789	220.06
602.997	229.06
603.206	221.06
603.415	232.06
603.623	241.06
603.832	224.06
604.041	221.06
604.249	211.06
604.458	213.06
604.666	218.06
604.875	242.06
605.084	203.06
605.292	225.06
605.501	231.06
605.709	229.06
605.918	226.06
606.126	232.06
606.334	222.06
606.543	230.06
606.751	218.06
606.96	220.06
607.168	229.06
607.376	222.06
607.585	220.06
607.793	217.06
608.001	217.06
608.21	202.06
608.418	218.06
608.626	210.06
608.834	222.06
609.043	219.06
609.251	228.06
609.459	218.06
609.667	205.06
609.875	243.06
610.083	209.06
610.291	225.06
610.499	227.06
610.707	232.06
610.916	215.06
611.124	235.06
611.332	245.06
611.54	233.06
611.748	219.06
611.955	219.06
612.163	211.06
612.371	227.06
612.579	213.06
612.787	225.06
612.995	221.06
613.203	217.06
613.411	207.06
613.618	215.06
613.826	203.06
614.034	220.06
614.242	209.06
614.449	206.06
614.657	218.06
614.865	223.06
615.072	207.06
615.28	217.06
615.488	220.06
615.695	220.06
615.903	198.06
616.111	207.06
616.318	213.06
616.526	213.06
616.733	214.06
616.941	216.06
617.148	215.06
617.356	203.06
617.563	211.06
617.771	224.06
617.978	207.06
618.185	219.06
618.393	203.06
618.6	202.06
618.807	210.06
619.015	207.06
619.222	217.06
619.429	205.06
619.637	199.06
619.844	196.06
620.051	215.06
620.258	191.06
620.466	208.06
620.673	198.06
620.88	205.06
621.087	199.06
621.294	216.06
621.501	210.06
621.708	207.06
621.915	203.06
622.122	205.06
622.329	196.06
622.536	204.06
622.743	210.06
622.95	206.06
623.157	201.06
623.364	193.06
623.571	191.06
623.778	199.06
623.985	199.06
624.192	208.06
624.399	191.06
624.606	201.06
624.812	199.06
625.019	192.06
625.226	203.06
625.433	190.06
625.639	190.06
625.846	188.06
626.053	186.06
626.259	207.06
626.466	206.06
626.673	189.06
626.879	178.06
627.086	184.06
627.293	197.06
627.499	183.06
627.706	190.06
627.912	180.06
628.119	185.06
628.325	196.06
628.532	176.06
628.738	180.06
628.945	181.06
629.151	195.06
629.357	182.06
629.564	187.06
629.77	175.06
629.976	182.06
630.183	194.06
630.389	182.06
630.595	181.06
630.802	179.06
631.008	171.06
631.214	178.06
631.42	187.06
631.627	187.06
631.833	183.06
632.039	174.06
632.245	186.06
632.451	185.06
632.657	181.06
632.863	175.06
633.069	180.06
633.275	185.06
633.481	169.06
633.688	183.06
633.893	173.06
634.099	178.06
634.305	181.06
634.511	158.06
634.717	173.06
634.923	170.06
635.129	175.06
635.335	170.06
635.541	158.06
635.747	168.06
635.952	170.06
636.158	173.06
636.364	163.06
636.57	172.06
636.775	186.06
636.981	165.06
637.187	163.06
637.392	164.06
637.598	158.06
637.804	171.06
638.009	164.06
638.215	181.06
638.421	173.06
638.626	162.06
638.832	154.06
639.037	168.06
639.243	169.06
639.448	164.06
639.654	160.06
639.859	167.06
640.065	167.06
640.27	182.06
640.475	152.06
640.681	159.06
640.886	170.06
641.091	165.06
641.297	156.06
641.502	147.06
641.707	144.06
641.913	165.06
642.118	171.06
642.323	155.06
642.528	163.06
642.733	157.06
642.939	160.06
643.144	160.06
643.349	160.06
643.554	156.06
643.759	160.06
643.964	170.06
644.169	141.06
644.374	151.06
644.579	150.06
644.784	158.06
644.989	160.06
645.194	155.06
645.399	156.06
645.604	147.06
645.809	142.06
646.014	167.06
646.219	156.06
646.423	143.06
646.628	150.06
646.833	138.06
647.038	149.06
647.243	142.06
647.447	142.06
647.652	150.06
647.857	167.06
648.062	141.06
648.266	150.06
648.471	161.06
648.676	166.06
648.88	156.06
649.085	149.06
649.289	150.06
649.494	167.06
649.698	191.06
649.903	169.06
650.107	156.06
650.312	157.06
650.516	146.06
650.721	150.06
650.925	148.06
651.13	141.06
651.334	137.06
651.539	148.06
651.743	122.06
651.947	134.06
652.152	142.06
652.356	143.06
652.56	134.06
652.764	131.06
652.969	133.06
653.173	130.06
653.377	133.06
653.581	135.06
653.785	133.06
653.99	127.06
654.194	126.06
654.398	131.06
654.602	124.06
654.806	121.06
655.01	134.06
655.214	142.06
655.418	125.06
655.622	114.06
655.826	125.06
656.03	130.06
656.234	117.06
656.438	109.06
656.642	122.06
656.846	102.06
657.049	119.06
657.253	109.06
657.457	116.06
657.661	110.06
657.865	109.06
658.068	94.06
658.272	106.06
658.476	108.06
658.68	109.06
658.883	100.06
659.087	117.06
659.291	83.06
659.494	104.06
659.698	87.06
659.901	111.06
660.105	86.06
660.309	81.06
660.512	94.06
660.716	93.06
660.919	94.06
661.123	100.06
661.326	94.06
661.53	96.06
661.733	99.06
661.936	89.06
662.14	73.06
662.343	74.06
662.546	67.06
662.75	82.06
662.953	95.06
663.156	101.06
663.36	86.06
663.563	94.06
663.766	79.06
663.969	92.06
664.173	83.06
664.376	78.06
664.579	78.06
664.782	84.06
664.985	86.06
665.188	75.06
665.391	91.06
665.594	79.06
665.797	73.06
666	81.06
666.203	79.06
666.406	81.06
666.609	79.06
666.812	69.06
667.015	87.06
667.218	95.06
667.421	80.06
667.624	92.06
667.827	82.06
668.03	90.06
668.232	88.06
668.435	85.06
668.638	69.06
668.841	80.06
669.043	78.06
669.246	83.06
669.449	70.06
669.651	87.06
669.854	93.06
670.057	88.06
670.259	88.06
670.462	80.06
670.665	85.06
670.867	100.06
671.07	84.06
671.272	73.06
671.475	89.06
671.677	80.06
671.88	83.06
672.082	77.06
672.284	88.06
672.487	90.06
672.689	81.06
672.892	77.06
