Data from 1987.PennyLincolnUp.Lamp.En5.5.200Scan.071819.P2_HRD10591_17-16-23-971.txt Node
Date: Thu Jul 18 17:16:23 EDT 2019
User: cochatt
Spectrometer: HR+D1059
Trigger mode: 1
Integration Time (sec): 1.000000E-1
Scans to average: 1
Electric dark correction enabled: true
Nonlinearity correction enabled: false
Boxcar width: 0
XAxis mode: Wavelengths
Number of Pixels in Spectrum: 2048
>>>>>Begin Spectral Data<<<<<
223.165	-18.12
223.4	-18.12
223.635	-18.12
223.869	-6.12
224.104	-22.12
224.338	-22.12
224.573	-6.12
224.808	-20.12
225.042	0.88
225.277	4.88
225.511	-1.12
225.746	-10.12
225.98	8.88
226.215	5.88
226.449	11.88
226.683	24.88
226.918	24.88
227.152	23.88
227.387	27.88
227.621	35.88
227.856	56.88
228.09	61.88
228.324	34.88
228.559	54.88
228.793	64.88
229.027	108.88
229.262	122.88
229.496	126.88
229.73	146.88
229.964	190.88
230.199	152.88
230.433	126.88
230.667	143.88
230.901	124.88
231.136	111.88
231.37	118.88
231.604	115.88
231.838	109.88
232.072	114.88
232.306	112.88
232.541	106.88
232.775	114.88
233.009	113.88
233.243	111.88
233.477	111.88
233.711	118.88
233.945	125.88
234.179	105.88
234.413	106.88
234.647	127.88
234.881	109.88
235.115	114.88
235.349	118.88
235.583	108.88
235.817	126.88
236.051	141.88
236.285	132.88
236.519	116.88
236.753	123.88
236.987	143.88
237.221	199.88
237.455	265.88
237.689	193.88
237.922	156.88
238.156	153.88
238.39	147.88
238.624	142.88
238.858	128.88
239.091	126.88
239.325	129.88
239.559	132.88
239.793	129.88
240.027	139.88
240.26	168.88
240.494	170.88
240.728	154.88
240.961	162.88
241.195	146.88
241.429	162.88
241.662	161.88
241.896	138.88
242.13	138.88
242.363	138.88
242.597	129.88
242.83	136.88
243.064	126.88
243.298	153.88
243.531	135.88
243.765	143.88
243.998	136.88
244.232	144.88
244.465	135.88
244.699	143.88
244.932	135.88
245.166	136.88
245.399	141.88
245.633	140.88
245.866	144.88
246.099	134.88
246.333	145.88
246.566	148.88
246.8	145.88
247.033	140.88
247.266	153.88
247.5	148.88
247.733	157.88
247.966	160.88
248.2	184.88
248.433	180.88
248.666	157.88
248.899	191.88
249.133	183.88
249.366	204.88
249.599	200.88
249.832	182.88
250.066	187.88
250.299	178.88
250.532	211.88
250.765	201.88
250.998	219.88
251.231	210.88
251.465	220.88
251.698	204.88
251.931	203.88
252.164	212.88
252.397	194.88
252.63	185.88
252.863	201.88
253.096	201.88
253.329	230.88
253.562	235.88
253.795	233.88
254.028	223.88
254.261	214.88
254.494	221.88
254.727	239.88
254.96	280.88
255.193	277.88
255.426	263.88
255.659	248.88
255.892	249.88
256.124	211.88
256.357	206.88
256.59	189.88
256.823	206.88
257.056	208.88
257.289	203.88
257.521	202.88
257.754	199.88
257.987	189.88
258.22	205.88
258.452	204.88
258.685	210.88
258.918	195.88
259.151	182.88
259.383	205.88
259.616	220.88
259.849	215.88
260.081	219.88
260.314	240.88
260.547	249.88
260.779	239.88
261.012	222.88
261.244	233.88
261.477	197.88
261.71	214.88
261.942	232.88
262.175	252.88
262.407	254.88
262.64	216.88
262.872	212.88
263.105	197.88
263.337	226.88
263.57	199.88
263.802	181.88
264.035	202.88
264.267	196.88
264.499	206.88
264.732	200.88
264.964	207.88
265.197	197.88
265.429	207.88
265.661	212.88
265.894	197.88
266.126	195.88
266.358	202.88
266.591	205.88
266.823	200.88
267.055	210.88
267.287	204.88
267.52	205.88
267.752	208.88
267.984	217.88
268.216	215.88
268.448	204.88
268.681	220.88
268.913	216.88
269.145	232.88
269.377	260.88
269.609	250.88
269.841	242.88
270.073	258.88
270.306	285.88
270.538	297.88
270.77	309.88
271.002	301.88
271.234	284.88
271.466	297.88
271.698	308.88
271.93	327.88
272.162	314.88
272.394	322.88
272.626	308.88
272.858	271.88
273.09	265.88
273.322	248.88
273.553	263.88
273.785	243.88
274.017	261.88
274.249	245.88
274.481	232.88
274.713	245.88
274.945	247.88
275.176	235.88
275.408	240.88
275.64	247.88
275.872	239.88
276.104	237.88
276.335	238.88
276.567	243.88
276.799	281.88
277.031	272.88
277.262	285.88
277.494	300.88
277.726	284.88
277.957	271.88
278.189	232.88
278.421	262.88
278.652	246.88
278.884	250.88
279.115	231.88
279.347	236.88
279.579	207.88
279.81	219.88
280.042	232.88
280.273	230.88
280.505	216.88
280.736	217.88
280.968	242.88
281.199	234.88
281.431	224.88
281.662	222.88
281.894	214.88
282.125	235.88
282.356	254.88
282.588	285.88
282.819	301.88
283.051	235.88
283.282	236.88
283.513	263.88
283.745	228.88
283.976	223.88
284.207	230.88
284.439	213.88
284.67	237.88
284.901	227.88
285.132	228.88
285.364	231.88
285.595	238.88
285.826	217.88
286.057	223.88
286.288	246.88
286.52	235.88
286.751	244.88
286.982	232.88
287.213	235.88
287.444	242.88
287.675	237.88
287.906	269.88
288.138	273.88
288.369	257.88
288.6	273.88
288.831	253.88
289.062	258.88
289.293	249.88
289.524	245.88
289.755	230.88
289.986	236.88
290.217	238.88
290.448	242.88
290.679	234.88
290.91	241.88
291.141	224.88
291.371	230.88
291.602	241.88
291.833	218.88
292.064	232.88
292.295	230.88
292.526	257.88
292.757	231.88
292.987	233.88
293.218	236.88
293.449	245.88
293.68	239.88
293.91	233.88
294.141	256.88
294.372	237.88
294.603	235.88
294.833	229.88
295.064	216.88
295.295	248.88
295.525	245.88
295.756	253.88
295.987	264.88
296.217	299.88
296.448	297.88
296.679	253.88
296.909	236.88
297.14	231.88
297.37	256.88
297.601	229.88
297.831	240.88
298.062	251.88
298.292	242.88
298.523	265.88
298.753	248.88
298.984	247.88
299.214	226.88
299.445	258.88
299.675	226.88
299.905	266.88
300.136	251.88
300.366	239.88
300.597	262.88
300.827	258.88
301.057	276.88
301.288	299.88
301.518	278.88
301.748	263.88
301.979	285.88
302.209	270.88
302.439	282.88
302.669	280.88
302.9	269.88
303.13	267.88
303.36	268.88
303.59	288.88
303.82	293.88
304.051	292.88
304.281	268.88
304.511	266.88
304.741	272.88
304.971	263.88
305.201	270.88
305.431	271.88
305.661	259.88
305.891	262.88
306.121	270.88
306.352	262.88
306.582	305.88
306.812	271.88
307.042	262.88
307.272	262.88
307.502	279.88
307.731	297.88
307.961	282.88
308.191	278.88
308.421	275.88
308.651	283.88
308.881	310.88
309.111	307.88
309.341	301.88
309.571	303.88
309.8	321.88
310.03	356.88
310.26	328.88
310.49	345.88
310.72	343.88
310.949	371.88
311.179	377.88
311.409	364.88
311.639	330.88
311.868	365.88
312.098	348.88
312.328	366.88
312.557	346.88
312.787	388.88
313.017	394.88
313.246	370.88
313.476	359.88
313.706	339.88
313.935	343.88
314.165	363.88
314.394	384.88
314.624	389.88
314.853	362.88
315.083	327.88
315.312	345.88
315.542	319.88
315.771	313.88
316.001	339.88
316.23	327.88
316.46	328.88
316.689	311.88
316.919	337.88
317.148	343.88
317.377	349.88
317.607	349.88
317.836	346.88
318.065	346.88
318.295	335.88
318.524	313.88
318.753	325.88
318.983	313.88
319.212	345.88
319.441	359.88
319.67	359.88
319.9	318.88
320.129	328.88
320.358	352.88
320.587	361.88
320.816	350.88
321.046	370.88
321.275	350.88
321.504	375.88
321.733	380.88
321.962	398.88
322.191	390.88
322.42	418.88
322.649	443.88
322.878	460.88
323.108	490.88
323.337	507.88
323.566	550.88
323.795	594.88
324.024	663.88
324.253	847.88
324.482	1204.88
324.71	1908.88
324.939	2656.88
325.168	2385.88
325.397	1278.88
325.626	820.88
325.855	669.88
326.084	594.88
326.313	546.88
326.542	549.88
326.77	592.88
326.999	749.88
327.228	1064.88
327.457	1659.88
327.686	2006.88
327.914	1420.88
328.143	902.88
328.372	758.88
328.6	710.88
328.829	627.88
329.058	681.88
329.287	688.88
329.515	597.88
329.744	526.88
329.972	480.88
330.201	516.88
330.43	543.88
330.658	613.88
330.887	655.88
331.115	662.88
331.344	566.88
331.572	483.88
331.801	496.88
332.03	494.88
332.258	450.88
332.486	407.88
332.715	398.88
332.943	395.88
333.172	386.88
333.4	394.88
333.629	374.88
333.857	421.88
334.085	404.88
334.314	403.88
334.542	395.88
334.771	383.88
334.999	399.88
335.227	378.88
335.455	378.88
335.684	379.88
335.912	377.88
336.14	371.88
336.369	375.88
336.597	381.88
336.825	411.88
337.053	384.88
337.281	366.88
337.51	372.88
337.738	374.88
337.966	376.88
338.194	394.88
338.422	390.88
338.65	372.88
338.878	377.88
339.106	377.88
339.334	374.88
339.562	356.88
339.79	365.88
340.018	354.88
340.246	378.88
340.474	382.88
340.702	386.88
340.93	392.88
341.158	365.88
341.386	387.88
341.614	390.88
341.842	376.88
342.07	377.88
342.298	362.88
342.526	358.88
342.754	352.88
342.981	350.88
343.209	367.88
343.437	346.88
343.665	339.88
343.893	359.88
344.12	366.88
344.348	367.88
344.576	371.88
344.804	412.88
345.031	399.88
345.259	403.88
345.487	399.88
345.714	371.88
345.942	366.88
346.17	364.88
346.397	370.88
346.625	377.88
346.853	374.88
347.08	374.88
347.308	371.88
347.535	376.88
347.763	394.88
347.99	396.88
348.218	401.88
348.445	408.88
348.673	412.88
348.9	378.88
349.128	364.88
349.355	349.88
349.583	360.88
349.81	342.88
350.037	359.88
350.265	332.88
350.492	335.88
350.72	353.88
350.947	378.88
351.174	386.88
351.402	398.88
351.629	377.88
351.856	413.88
352.083	388.88
352.311	404.88
352.538	406.88
352.765	411.88
352.992	396.88
353.22	382.88
353.447	376.88
353.674	376.88
353.901	349.88
354.128	333.88
354.355	340.88
354.583	334.88
354.81	327.88
355.037	339.88
355.264	326.88
355.491	331.88
355.718	332.88
355.945	324.88
356.172	327.88
356.399	326.88
356.626	322.88
356.853	307.88
357.08	315.88
357.307	312.88
357.534	323.88
357.761	338.88
357.988	330.88
358.215	330.88
358.441	323.88
358.668	340.88
358.895	349.88
359.122	350.88
359.349	362.88
359.576	389.88
359.802	413.88
360.029	469.88
360.256	494.88
360.483	447.88
360.709	403.88
360.936	389.88
361.163	387.88
361.39	394.88
361.616	405.88
361.843	375.88
362.07	380.88
362.296	382.88
362.523	373.88
362.749	376.88
362.976	360.88
363.203	365.88
363.429	327.88
363.656	349.88
363.882	351.88
364.109	339.88
364.335	337.88
364.562	353.88
364.788	350.88
365.015	343.88
365.241	353.88
365.468	375.88
365.694	363.88
365.92	358.88
366.147	362.88
366.373	344.88
366.599	352.88
366.826	334.88
367.052	341.88
367.278	342.88
367.505	344.88
367.731	334.88
367.957	332.88
368.184	362.88
368.41	347.88
368.636	359.88
368.862	351.88
369.089	358.88
369.315	350.88
369.541	343.88
369.767	343.88
369.993	326.88
370.219	330.88
370.445	337.88
370.672	335.88
370.898	325.88
371.124	330.88
371.35	322.88
371.576	329.88
371.802	312.88
372.028	319.88
372.254	320.88
372.48	309.88
372.706	325.88
372.932	301.88
373.158	334.88
373.384	347.88
373.61	345.88
373.835	333.88
374.061	314.88
374.287	314.88
374.513	315.88
374.739	322.88
374.965	326.88
375.191	334.88
375.416	330.88
375.642	326.88
375.868	346.88
376.094	334.88
376.319	324.88
376.545	323.88
376.771	328.88
376.997	315.88
377.222	325.88
377.448	318.88
377.674	323.88
377.899	329.88
378.125	331.88
378.35	318.88
378.576	333.88
378.802	302.88
379.027	322.88
379.253	328.88
379.478	320.88
379.704	329.88
379.929	316.88
380.155	335.88
380.38	342.88
380.606	336.88
380.831	349.88
381.057	342.88
381.282	336.88
381.507	320.88
381.733	331.88
381.958	334.88
382.184	331.88
382.409	330.88
382.634	339.88
382.86	338.88
383.085	335.88
383.31	331.88
383.535	333.88
383.761	342.88
383.986	353.88
384.211	339.88
384.436	327.88
384.662	343.88
384.887	326.88
385.112	360.88
385.337	352.88
385.562	341.88
385.787	329.88
386.013	373.88
386.238	354.88
386.463	353.88
386.688	349.88
386.913	334.88
387.138	341.88
387.363	357.88
387.588	320.88
387.813	331.88
388.038	328.88
388.263	329.88
388.488	346.88
388.713	343.88
388.938	355.88
389.163	350.88
389.387	355.88
389.612	346.88
389.837	341.88
390.062	347.88
390.287	359.88
390.512	351.88
390.736	341.88
390.961	344.88
391.186	341.88
391.411	346.88
391.636	347.88
391.86	350.88
392.085	348.88
392.31	358.88
392.534	347.88
392.759	357.88
392.984	338.88
393.208	328.88
393.433	338.88
393.658	346.88
393.882	346.88
394.107	343.88
394.331	331.88
394.556	347.88
394.78	343.88
395.005	340.88
395.229	332.88
395.454	342.88
395.678	355.88
395.903	364.88
396.127	379.88
396.352	392.88
396.576	367.88
396.801	357.88
397.025	364.88
397.249	353.88
397.474	348.88
397.698	365.88
397.922	388.88
398.147	392.88
398.371	395.88
398.595	398.88
398.82	374.88
399.044	390.88
399.268	380.88
399.492	406.88
399.717	425.88
399.941	450.88
400.165	467.88
400.389	488.88
400.613	443.88
400.837	429.88
401.062	398.88
401.286	406.88
401.51	405.88
401.734	393.88
401.958	398.88
402.182	391.88
402.406	406.88
402.63	417.88
402.854	431.88
403.078	414.88
403.302	423.88
403.526	420.88
403.75	419.88
403.974	424.88
404.198	406.88
404.422	426.88
404.645	424.88
404.869	441.88
405.093	456.88
405.317	456.88
405.541	508.88
405.765	467.88
405.988	456.88
406.212	445.88
406.436	501.88
406.66	518.88
406.883	461.88
407.107	503.88
407.331	526.88
407.555	580.88
407.778	570.88
408.002	527.88
408.226	490.88
408.449	502.88
408.673	454.88
408.896	496.88
409.12	524.88
409.344	515.88
409.567	455.88
409.791	450.88
410.014	425.88
410.238	418.88
410.461	421.88
410.685	438.88
410.908	461.88
411.132	492.88
411.355	510.88
411.578	502.88
411.802	439.88
412.025	432.88
412.249	406.88
412.472	412.88
412.695	459.88
412.919	435.88
413.142	409.88
413.365	404.88
413.589	391.88
413.812	410.88
414.035	402.88
414.258	394.88
414.482	396.88
414.705	393.88
414.928	403.88
415.151	404.88
415.374	376.88
415.597	385.88
415.821	394.88
416.044	386.88
416.267	400.88
416.49	404.88
416.713	403.88
416.936	404.88
417.159	386.88
417.382	396.88
417.605	400.88
417.828	415.88
418.051	447.88
418.274	431.88
418.497	430.88
418.72	395.88
418.943	397.88
419.166	410.88
419.389	430.88
419.611	427.88
419.834	431.88
420.057	424.88
420.28	416.88
420.503	427.88
420.726	432.88
420.948	458.88
421.171	493.88
421.394	518.88
421.617	457.88
421.839	412.88
422.062	428.88
422.285	471.88
422.507	509.88
422.73	560.88
422.953	573.88
423.175	484.88
423.398	460.88
423.621	448.88
423.843	476.88
424.066	514.88
424.288	510.88
424.511	505.88
424.733	558.88
424.956	629.88
425.178	642.88
425.401	619.88
425.623	620.88
425.846	556.88
426.068	515.88
426.291	520.88
426.513	502.88
426.735	519.88
426.958	551.88
427.18	634.88
427.402	770.88
427.625	835.88
427.847	762.88
428.069	665.88
428.292	569.88
428.514	538.88
428.736	518.88
428.958	510.88
429.181	478.88
429.403	460.88
429.625	467.88
429.847	524.88
430.069	582.88
430.292	590.88
430.514	496.88
430.736	470.88
430.958	460.88
431.18	452.88
431.402	453.88
431.624	423.88
431.846	437.88
432.068	424.88
432.29	436.88
432.512	436.88
432.734	416.88
432.956	428.88
433.178	469.88
433.4	477.88
433.622	446.88
433.844	435.88
434.066	411.88
434.287	399.88
434.509	408.88
434.731	436.88
434.953	440.88
435.175	468.88
435.397	499.88
435.618	491.88
435.84	547.88
436.062	624.88
436.284	705.88
436.505	592.88
436.727	522.88
436.949	514.88
437.17	486.88
437.392	464.88
437.614	493.88
437.835	529.88
438.057	644.88
438.278	743.88
438.5	745.88
438.721	776.88
438.943	733.88
439.165	621.88
439.386	564.88
439.608	546.88
439.829	568.88
440.05	564.88
440.272	623.88
440.493	586.88
440.715	542.88
440.936	478.88
441.158	473.88
441.379	485.88
441.6	475.88
441.822	518.88
442.043	554.88
442.264	637.88
442.486	702.88
442.707	584.88
442.928	516.88
443.149	533.88
443.371	585.88
443.592	610.88
443.813	666.88
444.034	724.88
444.255	624.88
444.476	522.88
444.698	523.88
444.919	519.88
445.14	581.88
445.361	579.88
445.582	564.88
445.803	626.88
446.024	754.88
446.245	745.88
446.466	674.88
446.687	611.88
446.908	550.88
447.129	498.88
447.35	505.88
447.571	483.88
447.792	482.88
448.013	463.88
448.234	512.88
448.455	590.88
448.675	665.88
448.896	759.88
449.117	666.88
449.338	624.88
449.559	717.88
449.779	782.88
450	661.88
450.221	578.88
450.442	514.88
450.662	486.88
450.883	537.88
451.104	535.88
451.324	510.88
451.545	474.88
451.766	468.88
451.986	431.88
452.207	437.88
452.428	428.88
452.648	414.88
452.869	425.88
453.089	450.88
453.31	468.88
453.53	439.88
453.751	439.88
453.971	459.88
454.192	474.88
454.412	454.88
454.633	466.88
454.853	447.88
455.073	450.88
455.294	470.88
455.514	533.88
455.734	535.88
455.955	449.88
456.175	439.88
456.395	405.88
456.616	384.88
456.836	379.88
457.056	385.88
457.276	376.88
457.497	390.88
457.717	393.88
457.937	415.88
458.157	408.88
458.377	404.88
458.598	451.88
458.818	549.88
459.038	652.88
459.258	644.88
459.478	525.88
459.698	463.88
459.918	449.88
460.138	417.88
460.358	431.88
460.578	429.88
460.798	429.88
461.018	438.88
461.238	413.88
461.458	414.88
461.678	406.88
461.898	400.88
462.118	415.88
462.338	421.88
462.558	409.88
462.777	403.88
462.997	413.88
463.217	429.88
463.437	424.88
463.657	432.88
463.876	423.88
464.096	438.88
464.316	461.88
464.536	437.88
464.755	448.88
464.975	471.88
465.195	552.88
465.414	696.88
465.634	599.88
465.854	514.88
466.073	476.88
466.293	442.88
466.512	414.88
466.732	414.88
466.951	417.88
467.171	416.88
467.391	415.88
467.61	434.88
467.829	461.88
468.049	436.88
468.268	436.88
468.488	416.88
468.707	406.88
468.927	396.88
469.146	415.88
469.365	401.88
469.585	423.88
469.804	388.88
470.023	435.88
470.243	444.88
470.462	463.88
470.681	477.88
470.901	462.88
471.12	427.88
471.339	417.88
471.558	422.88
471.777	433.88
471.997	423.88
472.216	410.88
472.435	416.88
472.654	422.88
472.873	410.88
473.092	409.88
473.311	424.88
473.53	415.88
473.749	447.88
473.968	477.88
474.187	614.88
474.406	632.88
474.625	500.88
474.844	470.88
475.063	452.88
475.282	448.88
475.501	417.88
475.72	425.88
475.939	424.88
476.158	436.88
476.377	440.88
476.596	435.88
476.814	456.88
477.033	453.88
477.252	450.88
477.471	459.88
477.69	437.88
477.908	451.88
478.127	446.88
478.346	472.88
478.564	466.88
478.783	478.88
479.002	465.88
479.22	484.88
479.439	495.88
479.658	534.88
479.876	535.88
480.095	537.88
480.313	556.88
480.532	564.88
480.751	529.88
480.969	529.88
481.188	576.88
481.406	551.88
481.624	534.88
481.843	532.88
482.061	496.88
482.28	479.88
482.498	500.88
482.717	498.88
482.935	515.88
483.153	509.88
483.372	504.88
483.59	510.88
483.808	500.88
484.027	507.88
484.245	527.88
484.463	523.88
484.681	514.88
484.9	506.88
485.118	502.88
485.336	540.88
485.554	510.88
485.772	542.88
485.99	545.88
486.209	524.88
486.427	531.88
486.645	565.88
486.863	575.88
487.081	568.88
487.299	560.88
487.517	561.88
487.735	550.88
487.953	547.88
488.171	573.88
488.389	562.88
488.607	552.88
488.825	551.88
489.043	558.88
489.261	572.88
489.479	567.88
489.696	558.88
489.914	569.88
490.132	576.88
490.35	581.88
490.568	575.88
490.786	597.88
491.003	598.88
491.221	641.88
491.439	618.88
491.657	614.88
491.874	618.88
492.092	600.88
492.31	636.88
492.527	636.88
492.745	633.88
492.963	656.88
493.18	664.88
493.398	664.88
493.615	661.88
493.833	667.88
494.05	666.88
494.268	678.88
494.485	658.88
494.703	642.88
494.92	666.88
495.138	658.88
495.355	666.88
495.573	669.88
495.79	670.88
496.008	664.88
496.225	648.88
496.442	654.88
496.66	651.88
496.877	663.88
497.094	665.88
497.312	687.88
497.529	665.88
497.746	723.88
497.963	706.88
498.181	713.88
498.398	718.88
498.615	710.88
498.832	704.88
499.049	715.88
499.267	712.88
499.484	734.88
499.701	743.88
499.918	751.88
500.135	782.88
500.352	775.88
500.569	767.88
500.786	783.88
501.003	776.88
501.22	771.88
501.437	784.88
501.654	794.88
501.871	782.88
502.088	776.88
502.305	777.88
502.522	747.88
502.739	711.88
502.956	718.88
503.172	694.88
503.389	696.88
503.606	719.88
503.823	715.88
504.04	709.88
504.256	703.88
504.473	654.88
504.69	680.88
504.907	652.88
505.123	654.88
505.34	656.88
505.557	691.88
505.773	672.88
505.99	654.88
506.207	674.88
506.423	675.88
506.64	688.88
506.856	662.88
507.073	696.88
507.289	646.88
507.506	670.88
507.722	707.88
507.939	690.88
508.155	676.88
508.372	676.88
508.588	681.88
508.805	634.88
509.021	664.88
509.238	675.88
509.454	682.88
509.67	654.88
509.887	679.88
510.103	673.88
510.319	706.88
510.536	828.88
510.752	1552.88
510.968	1275.88
511.184	761.88
511.401	711.88
511.617	656.88
511.833	670.88
512.049	657.88
512.265	620.88
512.481	619.88
512.698	628.88
512.914	614.88
513.13	639.88
513.346	665.88
513.562	654.88
513.778	645.88
513.994	664.88
514.21	704.88
514.426	742.88
514.642	831.88
514.858	856.88
515.074	953.88
515.29	1185.88
515.506	1826.88
515.721	1485.88
515.937	911.88
516.153	788.88
516.369	744.88
516.585	726.88
516.801	681.88
517.016	649.88
517.232	636.88
517.448	627.88
517.664	660.88
517.879	648.88
518.095	613.88
518.311	640.88
518.527	632.88
518.742	634.88
518.958	642.88
519.173	635.88
519.389	661.88
519.605	640.88
519.82	668.88
520.036	652.88
520.251	728.88
520.467	777.88
520.682	780.88
520.898	823.88
521.113	851.88
521.329	940.88
521.544	1090.88
521.76	1424.88
521.975	2511.88
522.19	2467.88
522.406	1294.88
522.621	886.88
522.836	759.88
523.052	699.88
523.267	650.88
523.482	628.88
523.698	600.88
523.913	634.88
524.128	612.88
524.343	590.88
524.559	579.88
524.774	548.88
524.989	576.88
525.204	567.88
525.419	580.88
525.634	570.88
525.849	552.88
526.064	542.88
526.28	532.88
526.495	507.88
526.71	511.88
526.925	521.88
527.14	496.88
527.355	491.88
527.57	495.88
527.785	523.88
527.999	493.88
528.214	482.88
528.429	505.88
528.644	477.88
528.859	485.88
529.074	493.88
529.289	506.88
529.503	662.88
529.718	646.88
529.933	551.88
530.148	538.88
530.363	520.88
530.577	489.88
530.792	482.88
531.007	499.88
531.221	492.88
531.436	481.88
531.651	485.88
531.865	471.88
532.08	465.88
532.295	467.88
532.509	462.88
532.724	447.88
532.938	450.88
533.153	435.88
533.367	464.88
533.582	457.88
533.796	450.88
534.011	453.88
534.225	448.88
534.44	438.88
534.654	434.88
534.868	455.88
535.083	446.88
535.297	443.88
535.511	467.88
535.726	473.88
535.94	465.88
536.154	483.88
536.369	449.88
536.583	444.88
536.797	435.88
537.011	440.88
537.225	443.88
537.44	443.88
537.654	421.88
537.868	427.88
538.082	442.88
538.296	456.88
538.51	447.88
538.724	437.88
538.938	452.88
539.153	453.88
539.367	469.88
539.581	488.88
539.795	454.88
540.009	453.88
540.222	439.88
540.436	459.88
540.65	456.88
540.864	459.88
541.078	440.88
541.292	460.88
541.506	444.88
541.72	445.88
541.934	444.88
542.147	460.88
542.361	427.88
542.575	418.88
542.789	429.88
543.002	434.88
543.216	423.88
543.43	443.88
543.644	447.88
543.857	426.88
544.071	427.88
544.285	421.88
544.498	428.88
544.712	417.88
544.925	437.88
545.139	426.88
545.352	423.88
545.566	386.88
545.779	410.88
545.993	393.88
546.206	413.88
546.42	415.88
546.633	405.88
546.847	409.88
547.06	417.88
547.274	401.88
547.487	404.88
547.7	397.88
547.914	397.88
548.127	410.88
548.34	405.88
548.554	383.88
548.767	416.88
548.98	415.88
549.193	420.88
549.407	406.88
549.62	397.88
549.833	418.88
550.046	391.88
550.259	366.88
550.473	369.88
550.686	382.88
550.899	383.88
551.112	378.88
551.325	358.88
551.538	382.88
551.751	375.88
551.964	390.88
552.177	410.88
552.39	385.88
552.603	396.88
552.816	407.88
553.029	393.88
553.242	411.88
553.455	397.88
553.667	411.88
553.88	407.88
554.093	392.88
554.306	399.88
554.519	401.88
554.732	390.88
554.944	396.88
555.157	384.88
555.37	357.88
555.583	388.88
555.795	390.88
556.008	398.88
556.221	364.88
556.433	363.88
556.646	363.88
556.859	363.88
557.071	355.88
557.284	356.88
557.496	348.88
557.709	348.88
557.921	344.88
558.134	357.88
558.346	372.88
558.559	351.88
558.771	358.88
558.984	365.88
559.196	357.88
559.409	366.88
559.621	365.88
559.833	344.88
560.046	351.88
560.258	357.88
560.47	346.88
560.683	362.88
560.895	354.88
561.107	354.88
561.32	347.88
561.532	335.88
561.744	341.88
561.956	346.88
562.168	340.88
562.381	347.88
562.593	364.88
562.805	352.88
563.017	350.88
563.229	363.88
563.441	342.88
563.653	349.88
563.865	343.88
564.077	373.88
564.289	350.88
564.501	361.88
564.713	349.88
564.925	382.88
565.137	380.88
565.349	362.88
565.561	364.88
565.773	366.88
565.985	366.88
566.197	368.88
566.408	384.88
566.62	385.88
566.832	387.88
567.044	395.88
567.255	375.88
567.467	380.88
567.679	388.88
567.891	417.88
568.102	389.88
568.314	377.88
568.526	362.88
568.737	370.88
568.949	349.88
569.161	340.88
569.372	351.88
569.584	361.88
569.795	364.88
570.007	375.88
570.218	452.88
570.43	414.88
570.641	348.88
570.853	332.88
571.064	332.88
571.276	363.88
571.487	339.88
571.698	301.88
571.91	335.88
572.121	319.88
572.333	331.88
572.544	321.88
572.755	304.88
572.966	302.88
573.178	310.88
573.389	311.88
573.6	298.88
573.811	326.88
574.023	301.88
574.234	300.88
574.445	320.88
574.656	314.88
574.867	315.88
575.078	313.88
575.289	324.88
575.501	294.88
575.712	309.88
575.923	302.88
576.134	306.88
576.345	302.88
576.556	306.88
576.767	308.88
576.978	315.88
577.188	298.88
577.399	292.88
577.61	299.88
577.821	305.88
578.032	302.88
578.243	369.88
578.454	716.88
578.665	502.88
578.875	324.88
579.086	298.88
579.297	292.88
579.508	292.88
579.718	288.88
579.929	268.88
580.14	281.88
580.35	263.88
580.561	300.88
580.772	279.88
580.982	275.88
581.193	283.88
581.403	294.88
581.614	275.88
581.825	280.88
582.035	289.88
582.246	268.88
582.456	274.88
582.667	286.88
582.877	281.88
583.087	289.88
583.298	275.88
583.508	262.88
583.719	298.88
583.929	273.88
584.139	295.88
584.35	281.88
584.56	267.88
584.77	269.88
584.981	268.88
585.191	274.88
585.401	271.88
585.611	281.88
585.821	293.88
586.032	281.88
586.242	279.88
586.452	293.88
586.662	287.88
586.872	271.88
587.082	267.88
587.292	277.88
587.502	288.88
587.713	278.88
587.923	270.88
588.133	261.88
588.343	270.88
588.553	262.88
588.762	272.88
588.972	245.88
589.182	280.88
589.392	291.88
589.602	282.88
589.812	278.88
590.022	277.88
590.232	270.88
590.441	273.88
590.651	261.88
590.861	264.88
591.071	268.88
591.281	278.88
591.49	268.88
591.7	264.88
591.91	259.88
592.119	261.88
592.329	278.88
592.539	280.88
592.748	269.88
592.958	268.88
593.167	263.88
593.377	261.88
593.587	274.88
593.796	258.88
594.006	263.88
594.215	258.88
594.424	257.88
594.634	271.88
594.843	259.88
595.053	260.88
595.262	271.88
595.472	243.88
595.681	263.88
595.89	241.88
596.1	253.88
596.309	257.88
596.518	246.88
596.727	251.88
596.937	258.88
597.146	243.88
597.355	247.88
597.564	250.88
597.774	247.88
597.983	241.88
598.192	242.88
598.401	247.88
598.61	256.88
598.819	243.88
599.028	246.88
599.237	218.88
599.446	231.88
599.655	251.88
599.864	229.88
600.073	232.88
600.282	246.88
600.491	234.88
600.7	213.88
600.909	235.88
601.118	210.88
601.327	210.88
601.536	239.88
601.745	231.88
601.953	239.88
602.162	234.88
602.371	231.88
602.58	236.88
602.789	243.88
602.997	237.88
603.206	220.88
603.415	210.88
603.623	211.88
603.832	212.88
604.041	249.88
604.249	224.88
604.458	228.88
604.666	229.88
604.875	210.88
605.084	235.88
605.292	242.88
605.501	217.88
605.709	213.88
605.918	228.88
606.126	221.88
606.334	230.88
606.543	235.88
606.751	244.88
606.96	214.88
607.168	233.88
607.376	208.88
607.585	246.88
607.793	219.88
608.001	215.88
608.21	220.88
608.418	207.88
608.626	210.88
608.834	222.88
609.043	201.88
609.251	210.88
609.459	223.88
609.667	226.88
609.875	220.88
610.083	220.88
610.291	211.88
610.499	209.88
610.707	213.88
610.916	222.88
611.124	223.88
611.332	225.88
611.54	218.88
611.748	219.88
611.955	212.88
612.163	213.88
612.371	219.88
612.579	211.88
612.787	203.88
612.995	213.88
613.203	219.88
613.411	216.88
613.618	216.88
613.826	216.88
614.034	200.88
614.242	238.88
614.449	213.88
614.657	218.88
614.865	210.88
615.072	204.88
615.28	219.88
615.488	200.88
615.695	208.88
615.903	217.88
616.111	213.88
616.318	207.88
616.526	206.88
616.733	220.88
616.941	202.88
617.148	213.88
617.356	217.88
617.563	234.88
617.771	216.88
617.978	197.88
618.185	195.88
618.393	207.88
618.6	227.88
618.807	215.88
619.015	210.88
619.222	222.88
619.429	202.88
619.637	219.88
619.844	208.88
620.051	206.88
620.258	204.88
620.466	216.88
620.673	211.88
620.88	218.88
621.087	207.88
621.294	208.88
621.501	211.88
621.708	203.88
621.915	204.88
622.122	198.88
622.329	200.88
622.536	213.88
622.743	200.88
622.95	196.88
623.157	197.88
623.364	203.88
623.571	199.88
623.778	204.88
623.985	203.88
624.192	189.88
624.399	183.88
624.606	202.88
624.812	195.88
625.019	195.88
625.226	198.88
625.433	190.88
625.639	191.88
625.846	197.88
626.053	197.88
626.259	191.88
626.466	198.88
626.673	194.88
626.879	206.88
627.086	197.88
627.293	186.88
627.499	192.88
627.706	197.88
627.912	192.88
628.119	192.88
628.325	198.88
628.532	195.88
628.738	179.88
628.945	170.88
629.151	178.88
629.357	191.88
629.564	185.88
629.77	196.88
629.976	196.88
630.183	174.88
630.389	187.88
630.595	183.88
630.802	188.88
631.008	180.88
631.214	186.88
631.42	185.88
631.627	178.88
631.833	176.88
632.039	182.88
632.245	184.88
632.451	168.88
632.657	182.88
632.863	175.88
633.069	186.88
633.275	170.88
633.481	164.88
633.688	165.88
633.893	189.88
634.099	179.88
634.305	171.88
634.511	176.88
634.717	182.88
634.923	170.88
635.129	180.88
635.335	172.88
635.541	174.88
635.747	174.88
635.952	176.88
636.158	158.88
636.364	175.88
636.57	179.88
636.775	169.88
636.981	173.88
637.187	171.88
637.392	169.88
637.598	152.88
637.804	162.88
638.009	186.88
638.215	164.88
638.421	170.88
638.626	166.88
638.832	152.88
639.037	159.88
639.243	152.88
639.448	158.88
639.654	159.88
639.859	152.88
640.065	149.88
640.27	169.88
640.475	163.88
640.681	165.88
640.886	160.88
641.091	143.88
641.297	158.88
641.502	144.88
641.707	164.88
641.913	165.88
642.118	166.88
642.323	152.88
642.528	149.88
642.733	162.88
642.939	153.88
643.144	165.88
643.349	160.88
643.554	171.88
643.759	157.88
643.964	165.88
644.169	155.88
644.374	142.88
644.579	158.88
644.784	151.88
644.989	152.88
645.194	169.88
645.399	146.88
645.604	144.88
645.809	152.88
646.014	163.88
646.219	158.88
646.423	158.88
646.628	156.88
646.833	150.88
647.038	142.88
647.243	164.88
647.447	146.88
647.652	149.88
647.857	148.88
648.062	143.88
648.266	155.88
648.471	147.88
648.676	141.88
648.88	158.88
649.085	159.88
649.289	148.88
649.494	153.88
649.698	199.88
649.903	178.88
650.107	186.88
650.312	175.88
650.516	155.88
650.721	145.88
650.925	150.88
651.13	132.88
651.334	138.88
651.539	133.88
651.743	138.88
651.947	129.88
652.152	125.88
652.356	155.88
652.56	119.88
652.764	124.88
652.969	128.88
653.173	128.88
653.377	128.88
653.581	119.88
653.785	131.88
653.99	119.88
654.194	125.88
654.398	132.88
654.602	124.88
654.806	125.88
655.01	137.88
655.214	140.88
655.418	110.88
655.622	118.88
655.826	109.88
656.03	115.88
656.234	122.88
656.438	131.88
656.642	122.88
656.846	120.88
657.049	113.88
657.253	119.88
657.457	111.88
657.661	94.88
657.865	127.88
658.068	100.88
658.272	103.88
658.476	106.88
658.68	98.88
658.883	95.88
659.087	94.88
659.291	98.88
659.494	86.88
659.698	100.88
659.901	104.88
660.105	97.88
660.309	103.88
660.512	80.88
660.716	103.88
660.919	110.88
661.123	83.88
661.326	108.88
661.53	97.88
661.733	74.88
661.936	89.88
662.14	90.88
662.343	89.88
662.546	98.88
662.75	92.88
662.953	91.88
663.156	94.88
663.36	77.88
663.563	91.88
663.766	83.88
663.969	69.88
664.173	84.88
664.376	80.88
664.579	84.88
664.782	86.88
664.985	80.88
665.188	87.88
665.391	84.88
665.594	87.88
665.797	92.88
666	83.88
666.203	71.88
666.406	92.88
666.609	81.88
666.812	93.88
667.015	82.88
667.218	91.88
667.421	90.88
667.624	74.88
667.827	89.88
668.03	79.88
668.232	78.88
668.435	79.88
668.638	74.88
668.841	82.88
669.043	83.88
669.246	95.88
669.449	92.88
669.651	76.88
669.854	80.88
670.057	77.88
670.259	78.88
670.462	79.88
670.665	74.88
670.867	60.88
671.07	84.88
671.272	82.88
671.475	77.88
671.677	78.88
671.88	85.88
672.082	77.88
672.284	79.88
672.487	76.88
672.689	96.88
672.892	75.88
