Data from 1987.PennyLincolnUp.Lamp.En5.5.200Scan.071819.P2_HRD10591_17-14-36-971.txt Node
Date: Thu Jul 18 17:14:36 EDT 2019
User: cochatt
Spectrometer: HR+D1059
Trigger mode: 1
Integration Time (sec): 1.000000E-1
Scans to average: 1
Electric dark correction enabled: true
Nonlinearity correction enabled: false
Boxcar width: 0
XAxis mode: Wavelengths
Number of Pixels in Spectrum: 2048
>>>>>Begin Spectral Data<<<<<
223.165	1.69
223.4	1.69
223.635	1.69
223.869	-12.31
224.104	-27.31
224.338	7.69
224.573	-15.31
224.808	-25.31
225.042	-11.31
225.277	-8.31
225.511	-22.31
225.746	-9.31
225.98	14.69
226.215	15.69
226.449	10.69
226.683	15.69
226.918	34.69
227.152	30.69
227.387	27.69
227.621	28.69
227.856	41.69
228.09	34.69
228.324	44.69
228.559	44.69
228.793	53.69
229.027	96.69
229.262	109.69
229.496	119.69
229.73	128.69
229.964	162.69
230.199	141.69
230.433	123.69
230.667	124.69
230.901	134.69
231.136	110.69
231.37	99.69
231.604	94.69
231.838	117.69
232.072	130.69
232.306	106.69
232.541	123.69
232.775	105.69
233.009	119.69
233.243	120.69
233.477	116.69
233.711	109.69
233.945	115.69
234.179	102.69
234.413	114.69
234.647	120.69
234.881	114.69
235.115	112.69
235.349	109.69
235.583	115.69
235.817	116.69
236.051	122.69
236.285	129.69
236.519	124.69
236.753	126.69
236.987	144.69
237.221	183.69
237.455	245.69
237.689	189.69
237.922	138.69
238.156	130.69
238.39	140.69
238.624	121.69
238.858	128.69
239.091	108.69
239.325	131.69
239.559	130.69
239.793	128.69
240.027	142.69
240.26	148.69
240.494	155.69
240.728	134.69
240.961	134.69
241.195	142.69
241.429	148.69
241.662	135.69
241.896	121.69
242.13	127.69
242.363	130.69
242.597	138.69
242.83	129.69
243.064	130.69
243.298	127.69
243.531	137.69
243.765	120.69
243.998	137.69
244.232	129.69
244.465	136.69
244.699	132.69
244.932	128.69
245.166	129.69
245.399	135.69
245.633	136.69
245.866	135.69
246.099	131.69
246.333	140.69
246.566	133.69
246.8	155.69
247.033	147.69
247.266	141.69
247.5	146.69
247.733	163.69
247.966	155.69
248.2	161.69
248.433	149.69
248.666	168.69
248.899	176.69
249.133	191.69
249.366	196.69
249.599	214.69
249.832	176.69
250.066	172.69
250.299	169.69
250.532	181.69
250.765	179.69
250.998	200.69
251.231	219.69
251.465	198.69
251.698	178.69
251.931	205.69
252.164	190.69
252.397	197.69
252.63	173.69
252.863	202.69
253.096	187.69
253.329	223.69
253.562	212.69
253.795	219.69
254.028	196.69
254.261	202.69
254.494	224.69
254.727	232.69
254.96	266.69
255.193	254.69
255.426	222.69
255.659	228.69
255.892	198.69
256.124	217.69
256.357	195.69
256.59	205.69
256.823	188.69
257.056	186.69
257.289	179.69
257.521	199.69
257.754	181.69
257.987	188.69
258.22	186.69
258.452	182.69
258.685	200.69
258.918	202.69
259.151	216.69
259.383	180.69
259.616	181.69
259.849	190.69
260.081	209.69
260.314	224.69
260.547	248.69
260.779	221.69
261.012	212.69
261.244	201.69
261.477	205.69
261.71	201.69
261.942	217.69
262.175	216.69
262.407	210.69
262.64	204.69
262.872	198.69
263.105	194.69
263.337	210.69
263.57	200.69
263.802	183.69
264.035	187.69
264.267	182.69
264.499	176.69
264.732	180.69
264.964	170.69
265.197	176.69
265.429	188.69
265.661	190.69
265.894	184.69
266.126	199.69
266.358	186.69
266.591	184.69
266.823	187.69
267.055	180.69
267.287	201.69
267.52	212.69
267.752	178.69
267.984	195.69
268.216	205.69
268.448	208.69
268.681	205.69
268.913	216.69
269.145	221.69
269.377	239.69
269.609	245.69
269.841	236.69
270.073	240.69
270.306	245.69
270.538	264.69
270.77	280.69
271.002	261.69
271.234	250.69
271.466	258.69
271.698	280.69
271.93	299.69
272.162	286.69
272.394	302.69
272.626	274.69
272.858	264.69
273.09	260.69
273.322	249.69
273.553	228.69
273.785	233.69
274.017	240.69
274.249	228.69
274.481	220.69
274.713	225.69
274.945	236.69
275.176	222.69
275.408	233.69
275.64	237.69
275.872	208.69
276.104	230.69
276.335	217.69
276.567	240.69
276.799	248.69
277.031	279.69
277.262	267.69
277.494	261.69
277.726	258.69
277.957	259.69
278.189	246.69
278.421	217.69
278.652	221.69
278.884	213.69
279.115	223.69
279.347	227.69
279.579	222.69
279.81	210.69
280.042	217.69
280.273	212.69
280.505	213.69
280.736	206.69
280.968	231.69
281.199	208.69
281.431	218.69
281.662	199.69
281.894	222.69
282.125	231.69
282.356	258.69
282.588	274.69
282.819	248.69
283.051	235.69
283.282	210.69
283.513	229.69
283.745	224.69
283.976	218.69
284.207	222.69
284.439	238.69
284.67	224.69
284.901	220.69
285.132	220.69
285.364	224.69
285.595	237.69
285.826	217.69
286.057	230.69
286.288	210.69
286.52	213.69
286.751	222.69
286.982	231.69
287.213	221.69
287.444	230.69
287.675	228.69
287.906	225.69
288.138	238.69
288.369	229.69
288.6	246.69
288.831	236.69
289.062	229.69
289.293	211.69
289.524	216.69
289.755	241.69
289.986	221.69
290.217	232.69
290.448	219.69
290.679	220.69
290.91	224.69
291.141	219.69
291.371	231.69
291.602	255.69
291.833	232.69
292.064	220.69
292.295	225.69
292.526	235.69
292.757	236.69
292.987	223.69
293.218	231.69
293.449	212.69
293.68	248.69
293.91	226.69
294.141	218.69
294.372	225.69
294.603	229.69
294.833	214.69
295.064	224.69
295.295	231.69
295.525	249.69
295.756	232.69
295.987	238.69
296.217	266.69
296.448	283.69
296.679	253.69
296.909	231.69
297.14	235.69
297.37	244.69
297.601	233.69
297.831	229.69
298.062	244.69
298.292	230.69
298.523	243.69
298.753	240.69
298.984	229.69
299.214	217.69
299.445	231.69
299.675	232.69
299.905	242.69
300.136	246.69
300.366	255.69
300.597	246.69
300.827	243.69
301.057	256.69
301.288	267.69
301.518	277.69
301.748	258.69
301.979	234.69
302.209	270.69
302.439	258.69
302.669	243.69
302.9	260.69
303.13	267.69
303.36	254.69
303.59	269.69
303.82	262.69
304.051	280.69
304.281	253.69
304.511	269.69
304.741	271.69
304.971	233.69
305.201	252.69
305.431	254.69
305.661	259.69
305.891	257.69
306.121	252.69
306.352	261.69
306.582	273.69
306.812	244.69
307.042	238.69
307.272	256.69
307.502	266.69
307.731	249.69
307.961	272.69
308.191	261.69
308.421	256.69
308.651	250.69
308.881	263.69
309.111	260.69
309.341	284.69
309.571	292.69
309.8	294.69
310.03	324.69
310.26	297.69
310.49	329.69
310.72	307.69
310.949	333.69
311.179	368.69
311.409	333.69
311.639	324.69
311.868	325.69
312.098	318.69
312.328	344.69
312.557	347.69
312.787	368.69
313.017	369.69
313.246	340.69
313.476	298.69
313.706	335.69
313.935	329.69
314.165	324.69
314.394	339.69
314.624	355.69
314.853	338.69
315.083	313.69
315.312	306.69
315.542	296.69
315.771	310.69
316.001	306.69
316.23	313.69
316.46	307.69
316.689	310.69
316.919	329.69
317.148	336.69
317.377	331.69
317.607	332.69
317.836	332.69
318.065	321.69
318.295	312.69
318.524	322.69
318.753	306.69
318.983	314.69
319.212	324.69
319.441	324.69
319.67	333.69
319.9	321.69
320.129	321.69
320.358	319.69
320.587	338.69
320.816	326.69
321.046	352.69
321.275	310.69
321.504	341.69
321.733	347.69
321.962	374.69
322.191	382.69
322.42	390.69
322.649	418.69
322.878	408.69
323.108	443.69
323.337	478.69
323.566	496.69
323.795	549.69
324.024	600.69
324.253	758.69
324.482	1084.69
324.71	1663.69
324.939	2308.69
325.168	2030.69
325.397	1109.69
325.626	725.69
325.855	603.69
326.084	513.69
326.313	492.69
326.542	501.69
326.77	584.69
326.999	667.69
327.228	928.69
327.457	1434.69
327.686	1709.69
327.914	1227.69
328.143	786.69
328.372	649.69
328.6	603.69
328.829	550.69
329.058	580.69
329.287	602.69
329.515	537.69
329.744	491.69
329.972	448.69
330.201	472.69
330.43	507.69
330.658	567.69
330.887	622.69
331.115	598.69
331.344	492.69
331.572	451.69
331.801	450.69
332.03	443.69
332.258	417.69
332.486	383.69
332.715	350.69
332.943	360.69
333.172	376.69
333.4	374.69
333.629	372.69
333.857	371.69
334.085	386.69
334.314	379.69
334.542	360.69
334.771	392.69
334.999	372.69
335.227	378.69
335.455	358.69
335.684	352.69
335.912	341.69
336.14	364.69
336.369	351.69
336.597	349.69
336.825	366.69
337.053	350.69
337.281	354.69
337.51	356.69
337.738	362.69
337.966	361.69
338.194	360.69
338.422	375.69
338.65	382.69
338.878	358.69
339.106	353.69
339.334	343.69
339.562	328.69
339.79	336.69
340.018	350.69
340.246	373.69
340.474	363.69
340.702	380.69
340.93	353.69
341.158	342.69
341.386	339.69
341.614	364.69
341.842	362.69
342.07	343.69
342.298	331.69
342.526	332.69
342.754	337.69
342.981	322.69
343.209	343.69
343.437	344.69
343.665	331.69
343.893	334.69
344.12	363.69
344.348	340.69
344.576	350.69
344.804	372.69
345.031	378.69
345.259	404.69
345.487	370.69
345.714	364.69
345.942	367.69
346.17	342.69
346.397	340.69
346.625	328.69
346.853	355.69
347.08	332.69
347.308	354.69
347.535	361.69
347.763	370.69
347.99	370.69
348.218	359.69
348.445	381.69
348.673	377.69
348.9	352.69
349.128	326.69
349.355	344.69
349.583	336.69
349.81	342.69
350.037	331.69
350.265	347.69
350.492	348.69
350.72	349.69
350.947	369.69
351.174	361.69
351.402	380.69
351.629	372.69
351.856	368.69
352.083	372.69
352.311	382.69
352.538	373.69
352.765	390.69
352.992	393.69
353.22	370.69
353.447	351.69
353.674	334.69
353.901	334.69
354.128	339.69
354.355	330.69
354.583	335.69
354.81	318.69
355.037	312.69
355.264	332.69
355.491	329.69
355.718	302.69
355.945	302.69
356.172	304.69
356.399	298.69
356.626	312.69
356.853	315.69
357.08	322.69
357.307	306.69
357.534	299.69
357.761	318.69
357.988	320.69
358.215	324.69
358.441	339.69
358.668	323.69
358.895	332.69
359.122	335.69
359.349	346.69
359.576	349.69
359.802	407.69
360.029	421.69
360.256	474.69
360.483	426.69
360.709	363.69
360.936	356.69
361.163	354.69
361.39	358.69
361.616	379.69
361.843	352.69
362.07	376.69
362.296	356.69
362.523	354.69
362.749	353.69
362.976	333.69
363.203	358.69
363.429	352.69
363.656	345.69
363.882	329.69
364.109	344.69
364.335	319.69
364.562	330.69
364.788	338.69
365.015	350.69
365.241	338.69
365.468	353.69
365.694	329.69
365.92	337.69
366.147	337.69
366.373	328.69
366.599	321.69
366.826	328.69
367.052	333.69
367.278	324.69
367.505	326.69
367.731	339.69
367.957	324.69
368.184	351.69
368.41	340.69
368.636	347.69
368.862	345.69
369.089	337.69
369.315	326.69
369.541	312.69
369.767	308.69
369.993	321.69
370.219	325.69
370.445	312.69
370.672	323.69
370.898	328.69
371.124	318.69
371.35	300.69
371.576	302.69
371.802	304.69
372.028	306.69
372.254	297.69
372.48	318.69
372.706	323.69
372.932	325.69
373.158	307.69
373.384	320.69
373.61	328.69
373.835	324.69
374.061	326.69
374.287	333.69
374.513	317.69
374.739	328.69
374.965	308.69
375.191	329.69
375.416	330.69
375.642	321.69
375.868	347.69
376.094	328.69
376.319	340.69
376.545	323.69
376.771	326.69
376.997	312.69
377.222	320.69
377.448	318.69
377.674	316.69
377.899	305.69
378.125	330.69
378.35	308.69
378.576	311.69
378.802	315.69
379.027	320.69
379.253	306.69
379.478	310.69
379.704	316.69
379.929	317.69
380.155	307.69
380.38	315.69
380.606	317.69
380.831	312.69
381.057	336.69
381.282	322.69
381.507	344.69
381.733	327.69
381.958	334.69
382.184	325.69
382.409	332.69
382.634	320.69
382.86	322.69
383.085	333.69
383.31	338.69
383.535	328.69
383.761	325.69
383.986	332.69
384.211	332.69
384.436	329.69
384.662	337.69
384.887	336.69
385.112	333.69
385.337	330.69
385.562	345.69
385.787	348.69
386.013	323.69
386.238	345.69
386.463	344.69
386.688	341.69
386.913	341.69
387.138	335.69
387.363	346.69
387.588	345.69
387.813	332.69
388.038	339.69
388.263	326.69
388.488	334.69
388.713	332.69
388.938	336.69
389.163	336.69
389.387	347.69
389.612	319.69
389.837	333.69
390.062	348.69
390.287	333.69
390.512	345.69
390.736	342.69
390.961	330.69
391.186	324.69
391.411	334.69
391.636	326.69
391.86	338.69
392.085	368.69
392.31	356.69
392.534	356.69
392.759	355.69
392.984	355.69
393.208	328.69
393.433	338.69
393.658	363.69
393.882	326.69
394.107	336.69
394.331	336.69
394.556	334.69
394.78	335.69
395.005	346.69
395.229	352.69
395.454	354.69
395.678	349.69
395.903	358.69
396.127	384.69
396.352	364.69
396.576	360.69
396.801	353.69
397.025	377.69
397.249	345.69
397.474	337.69
397.698	340.69
397.922	366.69
398.147	391.69
398.371	417.69
398.595	390.69
398.82	395.69
399.044	368.69
399.268	388.69
399.492	382.69
399.717	425.69
399.941	422.69
400.165	475.69
400.389	472.69
400.613	441.69
400.837	401.69
401.062	394.69
401.286	408.69
401.51	398.69
401.734	392.69
401.958	381.69
402.182	405.69
402.406	391.69
402.63	404.69
402.854	384.69
403.078	390.69
403.302	385.69
403.526	411.69
403.75	429.69
403.974	388.69
404.198	397.69
404.422	394.69
404.645	403.69
404.869	395.69
405.093	423.69
405.317	457.69
405.541	461.69
405.765	438.69
405.988	434.69
406.212	444.69
406.436	470.69
406.66	482.69
406.883	479.69
407.107	462.69
407.331	491.69
407.555	562.69
407.778	552.69
408.002	500.69
408.226	470.69
408.449	444.69
408.673	442.69
408.896	482.69
409.12	554.69
409.344	505.69
409.567	456.69
409.791	419.69
410.014	425.69
410.238	436.69
410.461	399.69
410.685	424.69
410.908	437.69
411.132	470.69
411.355	483.69
411.578	488.69
411.802	436.69
412.025	413.69
412.249	421.69
412.472	413.69
412.695	433.69
412.919	405.69
413.142	393.69
413.365	394.69
413.589	391.69
413.812	383.69
414.035	391.69
414.258	387.69
414.482	387.69
414.705	381.69
414.928	376.69
415.151	362.69
415.374	397.69
415.597	378.69
415.821	380.69
416.044	384.69
416.267	378.69
416.49	389.69
416.713	384.69
416.936	394.69
417.159	387.69
417.382	394.69
417.605	404.69
417.828	422.69
418.051	407.69
418.274	408.69
418.497	400.69
418.72	403.69
418.943	381.69
419.166	438.69
419.389	425.69
419.611	416.69
419.834	424.69
420.057	418.69
420.28	402.69
420.503	419.69
420.726	414.69
420.948	421.69
421.171	461.69
421.394	497.69
421.617	466.69
421.839	437.69
422.062	454.69
422.285	449.69
422.507	491.69
422.73	560.69
422.953	542.69
423.175	492.69
423.398	457.69
423.621	467.69
423.843	472.69
424.066	491.69
424.288	478.69
424.511	497.69
424.733	560.69
424.956	624.69
425.178	583.69
425.401	589.69
425.623	605.69
425.846	532.69
426.068	487.69
426.291	499.69
426.513	508.69
426.735	498.69
426.958	527.69
427.18	631.69
427.402	737.69
427.625	816.69
427.847	749.69
428.069	597.69
428.292	538.69
428.514	485.69
428.736	518.69
428.958	474.69
429.181	466.69
429.403	452.69
429.625	457.69
429.847	481.69
430.069	536.69
430.292	540.69
430.514	484.69
430.736	440.69
430.958	434.69
431.18	420.69
431.402	429.69
431.624	404.69
431.846	406.69
432.068	413.69
432.29	419.69
432.512	424.69
432.734	435.69
432.956	426.69
433.178	445.69
433.4	454.69
433.622	441.69
433.844	410.69
434.066	417.69
434.287	409.69
434.509	421.69
434.731	406.69
434.953	416.69
435.175	428.69
435.397	476.69
435.618	488.69
435.84	542.69
436.062	600.69
436.284	669.69
436.505	558.69
436.727	540.69
436.949	470.69
437.17	465.69
437.392	457.69
437.614	476.69
437.835	516.69
438.057	608.69
438.278	712.69
438.5	709.69
438.721	757.69
438.943	729.69
439.165	581.69
439.386	539.69
439.608	538.69
439.829	523.69
440.05	545.69
440.272	585.69
440.493	549.69
440.715	520.69
440.936	483.69
441.158	460.69
441.379	451.69
441.6	455.69
441.822	470.69
442.043	547.69
442.264	604.69
442.486	640.69
442.707	553.69
442.928	516.69
443.149	531.69
443.371	532.69
443.592	590.69
443.813	630.69
444.034	697.69
444.255	571.69
444.476	527.69
444.698	500.69
444.919	483.69
445.14	574.69
445.361	527.69
445.582	508.69
445.803	617.69
446.024	702.69
446.245	689.69
446.466	647.69
446.687	560.69
446.908	518.69
447.129	467.69
447.35	476.69
447.571	470.69
447.792	452.69
448.013	464.69
448.234	476.69
448.455	516.69
448.675	658.69
448.896	744.69
449.117	634.69
449.338	631.69
449.559	675.69
449.779	750.69
450	631.69
450.221	521.69
450.442	488.69
450.662	486.69
450.883	474.69
451.104	514.69
451.324	494.69
451.545	441.69
451.766	443.69
451.986	426.69
452.207	410.69
452.428	396.69
452.648	392.69
452.869	415.69
453.089	416.69
453.31	468.69
453.53	425.69
453.751	424.69
453.971	437.69
454.192	458.69
454.412	442.69
454.633	437.69
454.853	419.69
455.073	402.69
455.294	456.69
455.514	513.69
455.734	502.69
455.955	406.69
456.175	399.69
456.395	376.69
456.616	372.69
456.836	379.69
457.056	377.69
457.276	366.69
457.497	369.69
457.717	386.69
457.937	399.69
458.157	388.69
458.377	386.69
458.598	416.69
458.818	505.69
459.038	632.69
459.258	614.69
459.478	504.69
459.698	429.69
459.918	439.69
460.138	426.69
460.358	417.69
460.578	395.69
460.798	398.69
461.018	415.69
461.238	413.69
461.458	415.69
461.678	410.69
461.898	404.69
462.118	401.69
462.338	403.69
462.558	415.69
462.777	402.69
462.997	433.69
463.217	420.69
463.437	429.69
463.657	418.69
463.876	413.69
464.096	436.69
464.316	416.69
464.536	434.69
464.755	460.69
464.975	451.69
465.195	533.69
465.414	640.69
465.634	540.69
465.854	482.69
466.073	465.69
466.293	428.69
466.512	416.69
466.732	416.69
466.951	411.69
467.171	398.69
467.391	418.69
467.61	453.69
467.829	446.69
468.049	423.69
468.268	405.69
468.488	401.69
468.707	406.69
468.927	404.69
469.146	400.69
469.365	394.69
469.585	377.69
469.804	390.69
470.023	425.69
470.243	411.69
470.462	424.69
470.681	445.69
470.901	452.69
471.12	427.69
471.339	418.69
471.558	425.69
471.777	411.69
471.997	412.69
472.216	381.69
472.435	407.69
472.654	409.69
472.873	416.69
473.092	408.69
473.311	407.69
473.53	427.69
473.749	425.69
473.968	475.69
474.187	557.69
474.406	592.69
474.625	508.69
474.844	442.69
475.063	425.69
475.282	409.69
475.501	409.69
475.72	416.69
475.939	424.69
476.158	420.69
476.377	445.69
476.596	434.69
476.814	442.69
477.033	453.69
477.252	437.69
477.471	432.69
477.69	458.69
477.908	466.69
478.127	451.69
478.346	451.69
478.564	469.69
478.783	469.69
479.002	455.69
479.22	451.69
479.439	490.69
479.658	501.69
479.876	515.69
480.095	501.69
480.313	516.69
480.532	505.69
480.751	506.69
480.969	504.69
481.188	521.69
481.406	513.69
481.624	509.69
481.843	496.69
482.061	485.69
482.28	498.69
482.498	485.69
482.717	496.69
482.935	480.69
483.153	485.69
483.372	480.69
483.59	479.69
483.808	476.69
484.027	482.69
484.245	505.69
484.463	502.69
484.681	491.69
484.9	521.69
485.118	492.69
485.336	499.69
485.554	503.69
485.772	518.69
485.99	508.69
486.209	508.69
486.427	512.69
486.645	527.69
486.863	552.69
487.081	557.69
487.299	531.69
487.517	546.69
487.735	540.69
487.953	514.69
488.171	530.69
488.389	530.69
488.607	556.69
488.825	546.69
489.043	528.69
489.261	571.69
489.479	548.69
489.696	564.69
489.914	537.69
490.132	575.69
490.35	570.69
490.568	568.69
490.786	572.69
491.003	562.69
491.221	600.69
491.439	616.69
491.657	609.69
491.874	592.69
492.092	625.69
492.31	615.69
492.527	615.69
492.745	642.69
492.963	626.69
493.18	637.69
493.398	637.69
493.615	637.69
493.833	635.69
494.05	629.69
494.268	648.69
494.485	628.69
494.703	635.69
494.92	630.69
495.138	632.69
495.355	630.69
495.573	644.69
495.79	635.69
496.008	644.69
496.225	636.69
496.442	655.69
496.66	643.69
496.877	629.69
497.094	643.69
497.312	646.69
497.529	654.69
497.746	672.69
497.963	667.69
498.181	662.69
498.398	701.69
498.615	692.69
498.832	655.69
499.049	710.69
499.267	724.69
499.484	731.69
499.701	709.69
499.918	706.69
500.135	769.69
500.352	754.69
500.569	756.69
500.786	786.69
501.003	797.69
501.22	748.69
501.437	774.69
501.654	742.69
501.871	800.69
502.088	757.69
502.305	763.69
502.522	706.69
502.739	690.69
502.956	709.69
503.172	695.69
503.389	666.69
503.606	686.69
503.823	672.69
504.04	686.69
504.256	673.69
504.473	646.69
504.69	636.69
504.907	631.69
505.123	648.69
505.34	632.69
505.557	663.69
505.773	652.69
505.99	654.69
506.207	657.69
506.423	631.69
506.64	618.69
506.856	624.69
507.073	623.69
507.289	630.69
507.506	609.69
507.722	665.69
507.939	686.69
508.155	645.69
508.372	630.69
508.588	633.69
508.805	606.69
509.021	631.69
509.238	636.69
509.454	650.69
509.67	648.69
509.887	628.69
510.103	593.69
510.319	640.69
510.536	787.69
510.752	1422.69
510.968	1129.69
511.184	690.69
511.401	672.69
511.617	651.69
511.833	601.69
512.049	619.69
512.265	583.69
512.481	589.69
512.698	613.69
512.914	586.69
513.13	571.69
513.346	595.69
513.562	634.69
513.778	598.69
513.994	618.69
514.21	644.69
514.426	692.69
514.642	715.69
514.858	756.69
515.074	824.69
515.29	1054.69
515.506	1639.69
515.721	1301.69
515.937	834.69
516.153	718.69
516.369	671.69
516.585	658.69
516.801	634.69
517.016	609.69
517.232	616.69
517.448	620.69
517.664	612.69
517.879	588.69
518.095	602.69
518.311	609.69
518.527	593.69
518.742	616.69
518.958	586.69
519.173	590.69
519.389	609.69
519.605	590.69
519.82	640.69
520.036	654.69
520.251	668.69
520.467	732.69
520.682	747.69
520.898	724.69
521.113	743.69
521.329	834.69
521.544	964.69
521.76	1301.69
521.975	2236.69
522.19	2184.69
522.406	1139.69
522.621	820.69
522.836	717.69
523.052	649.69
523.267	618.69
523.482	592.69
523.698	587.69
523.913	570.69
524.128	566.69
524.343	582.69
524.559	554.69
524.774	523.69
524.989	519.69
525.204	549.69
525.419	525.69
525.634	534.69
525.849	512.69
526.064	504.69
526.28	530.69
526.495	502.69
526.71	496.69
526.925	469.69
527.14	486.69
527.355	486.69
527.57	485.69
527.785	484.69
527.999	469.69
528.214	472.69
528.429	489.69
528.644	492.69
528.859	474.69
529.074	493.69
529.289	519.69
529.503	648.69
529.718	595.69
529.933	541.69
530.148	502.69
530.363	506.69
530.577	477.69
530.792	452.69
531.007	463.69
531.221	466.69
531.436	477.69
531.651	459.69
531.865	454.69
532.08	449.69
532.295	449.69
532.509	435.69
532.724	456.69
532.938	443.69
533.153	468.69
533.367	443.69
533.582	463.69
533.796	462.69
534.011	434.69
534.225	450.69
534.44	442.69
534.654	437.69
534.868	444.69
535.083	432.69
535.297	433.69
535.511	441.69
535.726	461.69
535.94	455.69
536.154	457.69
536.369	426.69
536.583	450.69
536.797	423.69
537.011	426.69
537.225	438.69
537.44	432.69
537.654	428.69
537.868	408.69
538.082	431.69
538.296	436.69
538.51	422.69
538.724	440.69
538.938	421.69
539.153	448.69
539.367	457.69
539.581	470.69
539.795	434.69
540.009	423.69
540.222	428.69
540.436	448.69
540.65	432.69
540.864	426.69
541.078	457.69
541.292	431.69
541.506	440.69
541.72	426.69
541.934	425.69
542.147	424.69
542.361	418.69
542.575	406.69
542.789	429.69
543.002	424.69
543.216	440.69
543.43	425.69
543.644	399.69
543.857	439.69
544.071	433.69
544.285	415.69
544.498	395.69
544.712	416.69
544.925	423.69
545.139	408.69
545.352	408.69
545.566	387.69
545.779	396.69
545.993	419.69
546.206	408.69
546.42	421.69
546.633	389.69
546.847	381.69
547.06	397.69
547.274	396.69
547.487	381.69
547.7	389.69
547.914	386.69
548.127	395.69
548.34	389.69
548.554	376.69
548.767	368.69
548.98	384.69
549.193	382.69
549.407	379.69
549.62	375.69
549.833	377.69
550.046	360.69
550.259	367.69
550.473	388.69
550.686	385.69
550.899	388.69
551.112	369.69
551.325	363.69
551.538	390.69
551.751	392.69
551.964	389.69
552.177	364.69
552.39	363.69
552.603	368.69
552.816	370.69
553.029	363.69
553.242	383.69
553.455	392.69
553.667	421.69
553.88	404.69
554.093	388.69
554.306	411.69
554.519	372.69
554.732	404.69
554.944	372.69
555.157	374.69
555.37	374.69
555.583	361.69
555.795	394.69
556.008	376.69
556.221	377.69
556.433	353.69
556.646	351.69
556.859	347.69
557.071	373.69
557.284	355.69
557.496	375.69
557.709	355.69
557.921	334.69
558.134	348.69
558.346	344.69
558.559	360.69
558.771	350.69
558.984	349.69
559.196	356.69
559.409	332.69
559.621	370.69
559.833	350.69
560.046	354.69
560.258	342.69
560.47	350.69
560.683	347.69
560.895	352.69
561.107	349.69
561.32	333.69
561.532	364.69
561.744	347.69
561.956	354.69
562.168	349.69
562.381	376.69
562.593	341.69
562.805	364.69
563.017	338.69
563.229	352.69
563.441	347.69
563.653	334.69
563.865	345.69
564.077	352.69
564.289	354.69
564.501	363.69
564.713	361.69
564.925	354.69
565.137	374.69
565.349	378.69
565.561	355.69
565.773	362.69
565.985	361.69
566.197	372.69
566.408	369.69
566.62	381.69
566.832	392.69
567.044	361.69
567.255	374.69
567.467	388.69
567.679	380.69
567.891	392.69
568.102	377.69
568.314	393.69
568.526	371.69
568.737	377.69
568.949	341.69
569.161	344.69
569.372	367.69
569.584	356.69
569.795	340.69
570.007	338.69
570.218	419.69
570.43	398.69
570.641	340.69
570.853	323.69
571.064	345.69
571.276	341.69
571.487	346.69
571.698	310.69
571.91	328.69
572.121	330.69
572.333	328.69
572.544	333.69
572.755	311.69
572.966	300.69
573.178	313.69
573.389	312.69
573.6	315.69
573.811	308.69
574.023	299.69
574.234	314.69
574.445	313.69
574.656	308.69
574.867	296.69
575.078	297.69
575.289	312.69
575.501	306.69
575.712	301.69
575.923	296.69
576.134	306.69
576.345	307.69
576.556	314.69
576.767	308.69
576.978	327.69
577.188	291.69
577.399	286.69
577.61	287.69
577.821	304.69
578.032	298.69
578.243	354.69
578.454	637.69
578.665	489.69
578.875	308.69
579.086	291.69
579.297	284.69
579.508	298.69
579.718	285.69
579.929	270.69
580.14	277.69
580.35	287.69
580.561	289.69
580.772	277.69
580.982	290.69
581.193	265.69
581.403	276.69
581.614	286.69
581.825	281.69
582.035	272.69
582.246	255.69
582.456	285.69
582.667	278.69
582.877	294.69
583.087	288.69
583.298	254.69
583.508	283.69
583.719	286.69
583.929	266.69
584.139	271.69
584.35	283.69
584.56	284.69
584.77	286.69
584.981	287.69
585.191	270.69
585.401	285.69
585.611	286.69
585.821	288.69
586.032	278.69
586.242	272.69
586.452	289.69
586.662	277.69
586.872	296.69
587.082	280.69
587.292	274.69
587.502	265.69
587.713	271.69
587.923	264.69
588.133	274.69
588.343	269.69
588.553	249.69
588.762	263.69
588.972	289.69
589.182	350.69
589.392	351.69
589.602	281.69
589.812	333.69
590.022	291.69
590.232	270.69
590.441	269.69
590.651	256.69
590.861	276.69
591.071	247.69
591.281	256.69
591.49	280.69
591.7	278.69
591.91	275.69
592.119	282.69
592.329	262.69
592.539	251.69
592.748	264.69
592.958	257.69
593.167	261.69
593.377	264.69
593.587	262.69
593.796	269.69
594.006	268.69
594.215	265.69
594.424	273.69
594.634	276.69
594.843	268.69
595.053	285.69
595.262	263.69
595.472	247.69
595.681	250.69
595.89	251.69
596.1	272.69
596.309	258.69
596.518	241.69
596.727	246.69
596.937	265.69
597.146	234.69
597.355	230.69
597.564	244.69
597.774	267.69
597.983	233.69
598.192	240.69
598.401	248.69
598.61	242.69
598.819	234.69
599.028	227.69
599.237	246.69
599.446	249.69
599.655	247.69
599.864	239.69
600.073	244.69
600.282	258.69
600.491	245.69
600.7	233.69
600.909	240.69
601.118	231.69
601.327	235.69
601.536	238.69
601.745	220.69
601.953	234.69
602.162	235.69
602.371	228.69
602.58	219.69
602.789	229.69
602.997	213.69
603.206	226.69
603.415	224.69
603.623	232.69
603.832	235.69
604.041	228.69
604.249	217.69
604.458	239.69
604.666	220.69
604.875	227.69
605.084	222.69
605.292	220.69
605.501	221.69
605.709	230.69
605.918	225.69
606.126	221.69
606.334	211.69
606.543	198.69
606.751	221.69
606.96	213.69
607.168	214.69
607.376	209.69
607.585	229.69
607.793	212.69
608.001	215.69
608.21	227.69
608.418	218.69
608.626	232.69
608.834	223.69
609.043	233.69
609.251	204.69
609.459	225.69
609.667	216.69
609.875	219.69
610.083	224.69
610.291	244.69
610.499	221.69
610.707	209.69
610.916	225.69
611.124	217.69
611.332	227.69
611.54	203.69
611.748	235.69
611.955	217.69
612.163	216.69
612.371	223.69
612.579	202.69
612.787	215.69
612.995	212.69
613.203	213.69
613.411	222.69
613.618	205.69
613.826	223.69
614.034	215.69
614.242	211.69
614.449	206.69
614.657	213.69
614.865	212.69
615.072	228.69
615.28	217.69
615.488	208.69
615.695	200.69
615.903	213.69
616.111	224.69
616.318	208.69
616.526	217.69
616.733	212.69
616.941	222.69
617.148	218.69
617.356	207.69
617.563	204.69
617.771	212.69
617.978	203.69
618.185	214.69
618.393	218.69
618.6	186.69
618.807	206.69
619.015	210.69
619.222	213.69
619.429	205.69
619.637	202.69
619.844	205.69
620.051	201.69
620.258	185.69
620.466	210.69
620.673	184.69
620.88	183.69
621.087	201.69
621.294	211.69
621.501	210.69
621.708	210.69
621.915	207.69
622.122	195.69
622.329	197.69
622.536	201.69
622.743	208.69
622.95	200.69
623.157	198.69
623.364	196.69
623.571	192.69
623.778	202.69
623.985	194.69
624.192	203.69
624.399	203.69
624.606	206.69
624.812	205.69
625.019	188.69
625.226	181.69
625.433	211.69
625.639	187.69
625.846	182.69
626.053	194.69
626.259	193.69
626.466	181.69
626.673	185.69
626.879	192.69
627.086	202.69
627.293	199.69
627.499	203.69
627.706	182.69
627.912	178.69
628.119	185.69
628.325	186.69
628.532	201.69
628.738	192.69
628.945	172.69
629.151	190.69
629.357	184.69
629.564	181.69
629.77	171.69
629.976	181.69
630.183	192.69
630.389	190.69
630.595	176.69
630.802	174.69
631.008	188.69
631.214	185.69
631.42	174.69
631.627	180.69
631.833	166.69
632.039	163.69
632.245	169.69
632.451	170.69
632.657	172.69
632.863	176.69
633.069	193.69
633.275	199.69
633.481	187.69
633.688	169.69
633.893	193.69
634.099	191.69
634.305	171.69
634.511	176.69
634.717	180.69
634.923	155.69
635.129	149.69
635.335	176.69
635.541	172.69
635.747	170.69
635.952	145.69
636.158	178.69
636.364	179.69
636.57	153.69
636.775	178.69
636.981	167.69
637.187	167.69
637.392	158.69
637.598	160.69
637.804	163.69
638.009	157.69
638.215	160.69
638.421	166.69
638.626	172.69
638.832	163.69
639.037	155.69
639.243	163.69
639.448	148.69
639.654	170.69
639.859	158.69
640.065	166.69
640.27	168.69
640.475	186.69
640.681	170.69
640.886	170.69
641.091	170.69
641.297	158.69
641.502	155.69
641.707	171.69
641.913	167.69
642.118	159.69
642.323	157.69
642.528	152.69
642.733	153.69
642.939	157.69
643.144	144.69
643.349	161.69
643.554	162.69
643.759	145.69
643.964	142.69
644.169	154.69
644.374	162.69
644.579	153.69
644.784	158.69
644.989	154.69
645.194	151.69
645.399	160.69
645.604	151.69
645.809	156.69
646.014	152.69
646.219	160.69
646.423	154.69
646.628	140.69
646.833	144.69
647.038	150.69
647.243	179.69
647.447	152.69
647.652	156.69
647.857	166.69
648.062	154.69
648.266	131.69
648.471	169.69
648.676	164.69
648.88	158.69
649.085	151.69
649.289	166.69
649.494	165.69
649.698	173.69
649.903	154.69
650.107	155.69
650.312	151.69
650.516	140.69
650.721	131.69
650.925	142.69
651.13	141.69
651.334	143.69
651.539	128.69
651.743	128.69
651.947	122.69
652.152	145.69
652.356	142.69
652.56	136.69
652.764	132.69
652.969	146.69
653.173	124.69
653.377	124.69
653.581	116.69
653.785	120.69
653.99	134.69
654.194	130.69
654.398	133.69
654.602	121.69
654.806	130.69
655.01	128.69
655.214	124.69
655.418	140.69
655.622	125.69
655.826	122.69
656.03	132.69
656.234	106.69
656.438	131.69
656.642	127.69
656.846	108.69
657.049	121.69
657.253	124.69
657.457	102.69
657.661	116.69
657.865	123.69
658.068	113.69
658.272	107.69
658.476	96.69
658.68	96.69
658.883	104.69
659.087	109.69
659.291	100.69
659.494	98.69
659.698	98.69
659.901	96.69
660.105	104.69
660.309	97.69
660.512	84.69
660.716	93.69
660.919	96.69
661.123	91.69
661.326	84.69
661.53	85.69
661.733	88.69
661.936	91.69
662.14	89.69
662.343	77.69
662.546	87.69
662.75	74.69
662.953	97.69
663.156	91.69
663.36	86.69
663.563	88.69
663.766	75.69
663.969	82.69
664.173	82.69
664.376	88.69
664.579	80.69
664.782	90.69
664.985	88.69
665.188	83.69
665.391	72.69
665.594	86.69
665.797	78.69
666	75.69
666.203	74.69
666.406	65.69
666.609	71.69
666.812	76.69
667.015	84.69
667.218	88.69
667.421	87.69
667.624	84.69
667.827	94.69
668.03	88.69
668.232	83.69
668.435	87.69
668.638	80.69
668.841	84.69
669.043	75.69
669.246	96.69
669.449	90.69
669.651	101.69
669.854	80.69
670.057	76.69
670.259	73.69
670.462	88.69
670.665	67.69
670.867	90.69
671.07	88.69
671.272	81.69
671.475	93.69
671.677	68.69
671.88	88.69
672.082	81.69
672.284	79.69
672.487	77.69
672.689	85.69
672.892	72.69
