Data from 1987.PennyLincolnUp.Lamp.En5.5.200Scan.071819.P2_HRD10591_17-14-13-976.txt Node
Date: Thu Jul 18 17:14:13 EDT 2019
User: cochatt
Spectrometer: HR+D1059
Trigger mode: 1
Integration Time (sec): 1.000000E-1
Scans to average: 1
Electric dark correction enabled: true
Nonlinearity correction enabled: false
Boxcar width: 0
XAxis mode: Wavelengths
Number of Pixels in Spectrum: 2048
>>>>>Begin Spectral Data<<<<<
223.165	-20.25
223.4	-20.25
223.635	-20.25
223.869	-27.25
224.104	-10.25
224.338	-14.25
224.573	-10.25
224.808	-3.25
225.042	-11.25
225.277	8.75
225.511	-9.25
225.746	7.75
225.98	6.75
226.215	4.75
226.449	13.75
226.683	26.75
226.918	19.75
227.152	17.75
227.387	39.75
227.621	28.75
227.856	42.75
228.09	41.75
228.324	50.75
228.559	46.75
228.793	80.75
229.027	105.75
229.262	108.75
229.496	93.75
229.73	125.75
229.964	158.75
230.199	128.75
230.433	118.75
230.667	110.75
230.901	110.75
231.136	102.75
231.37	118.75
231.604	123.75
231.838	122.75
232.072	121.75
232.306	104.75
232.541	108.75
232.775	111.75
233.009	108.75
233.243	97.75
233.477	115.75
233.711	122.75
233.945	105.75
234.179	107.75
234.413	120.75
234.647	119.75
234.881	114.75
235.115	114.75
235.349	108.75
235.583	122.75
235.817	118.75
236.051	118.75
236.285	116.75
236.519	122.75
236.753	112.75
236.987	149.75
237.221	192.75
237.455	241.75
237.689	184.75
237.922	130.75
238.156	133.75
238.39	131.75
238.624	128.75
238.858	113.75
239.091	120.75
239.325	122.75
239.559	124.75
239.793	126.75
240.027	129.75
240.26	146.75
240.494	154.75
240.728	146.75
240.961	142.75
241.195	138.75
241.429	130.75
241.662	139.75
241.896	125.75
242.13	131.75
242.363	132.75
242.597	115.75
242.83	130.75
243.064	122.75
243.298	125.75
243.531	150.75
243.765	133.75
243.998	131.75
244.232	117.75
244.465	122.75
244.699	121.75
244.932	124.75
245.166	136.75
245.399	131.75
245.633	132.75
245.866	123.75
246.099	131.75
246.333	140.75
246.566	128.75
246.8	133.75
247.033	156.75
247.266	134.75
247.5	137.75
247.733	148.75
247.966	180.75
248.2	178.75
248.433	142.75
248.666	152.75
248.899	184.75
249.133	167.75
249.366	194.75
249.599	194.75
249.832	189.75
250.066	166.75
250.299	170.75
250.532	175.75
250.765	187.75
250.998	211.75
251.231	214.75
251.465	186.75
251.698	197.75
251.931	188.75
252.164	188.75
252.397	180.75
252.63	183.75
252.863	199.75
253.096	192.75
253.329	198.75
253.562	200.75
253.795	208.75
254.028	216.75
254.261	216.75
254.494	211.75
254.727	244.75
254.96	278.75
255.193	265.75
255.426	215.75
255.659	231.75
255.892	218.75
256.124	190.75
256.357	201.75
256.59	192.75
256.823	186.75
257.056	191.75
257.289	189.75
257.521	201.75
257.754	173.75
257.987	164.75
258.22	185.75
258.452	182.75
258.685	194.75
258.918	187.75
259.151	186.75
259.383	180.75
259.616	212.75
259.849	199.75
260.081	213.75
260.314	211.75
260.547	211.75
260.779	225.75
261.012	207.75
261.244	204.75
261.477	188.75
261.71	190.75
261.942	205.75
262.175	200.75
262.407	222.75
262.64	194.75
262.872	190.75
263.105	168.75
263.337	184.75
263.57	188.75
263.802	176.75
264.035	180.75
264.267	171.75
264.499	169.75
264.732	182.75
264.964	197.75
265.197	162.75
265.429	188.75
265.661	177.75
265.894	186.75
266.126	171.75
266.358	186.75
266.591	186.75
266.823	177.75
267.055	176.75
267.287	194.75
267.52	188.75
267.752	201.75
267.984	181.75
268.216	196.75
268.448	214.75
268.681	192.75
268.913	212.75
269.145	201.75
269.377	244.75
269.609	246.75
269.841	219.75
270.073	226.75
270.306	265.75
270.538	274.75
270.77	269.75
271.002	278.75
271.234	249.75
271.466	258.75
271.698	263.75
271.93	274.75
272.162	284.75
272.394	284.75
272.626	265.75
272.858	246.75
273.09	218.75
273.322	223.75
273.553	228.75
273.785	220.75
274.017	219.75
274.249	219.75
274.481	211.75
274.713	234.75
274.945	216.75
275.176	222.75
275.408	210.75
275.64	217.75
275.872	199.75
276.104	204.75
276.335	236.75
276.567	240.75
276.799	242.75
277.031	260.75
277.262	283.75
277.494	275.75
277.726	260.75
277.957	249.75
278.189	248.75
278.421	224.75
278.652	224.75
278.884	227.75
279.115	201.75
279.347	207.75
279.579	215.75
279.81	215.75
280.042	217.75
280.273	217.75
280.505	192.75
280.736	199.75
280.968	215.75
281.199	207.75
281.431	231.75
281.662	198.75
281.894	230.75
282.125	223.75
282.356	227.75
282.588	261.75
282.819	256.75
283.051	222.75
283.282	198.75
283.513	194.75
283.745	216.75
283.976	212.75
284.207	221.75
284.439	197.75
284.67	213.75
284.901	209.75
285.132	214.75
285.364	213.75
285.595	207.75
285.826	209.75
286.057	209.75
286.288	233.75
286.52	213.75
286.751	198.75
286.982	208.75
287.213	213.75
287.444	227.75
287.675	221.75
287.906	224.75
288.138	232.75
288.369	240.75
288.6	247.75
288.831	232.75
289.062	211.75
289.293	218.75
289.524	216.75
289.755	214.75
289.986	220.75
290.217	226.75
290.448	218.75
290.679	226.75
290.91	225.75
291.141	221.75
291.371	218.75
291.602	217.75
291.833	210.75
292.064	213.75
292.295	221.75
292.526	207.75
292.757	219.75
292.987	203.75
293.218	218.75
293.449	217.75
293.68	210.75
293.91	211.75
294.141	219.75
294.372	205.75
294.603	229.75
294.833	214.75
295.064	228.75
295.295	212.75
295.525	222.75
295.756	236.75
295.987	244.75
296.217	282.75
296.448	255.75
296.679	226.75
296.909	240.75
297.14	214.75
297.37	224.75
297.601	224.75
297.831	236.75
298.062	227.75
298.292	227.75
298.523	221.75
298.753	222.75
298.984	231.75
299.214	235.75
299.445	229.75
299.675	222.75
299.905	219.75
300.136	225.75
300.366	242.75
300.597	244.75
300.827	243.75
301.057	245.75
301.288	266.75
301.518	253.75
301.748	212.75
301.979	221.75
302.209	241.75
302.439	250.75
302.669	244.75
302.9	236.75
303.13	216.75
303.36	234.75
303.59	272.75
303.82	261.75
304.051	247.75
304.281	238.75
304.511	244.75
304.741	242.75
304.971	253.75
305.201	242.75
305.431	235.75
305.661	249.75
305.891	236.75
306.121	240.75
306.352	250.75
306.582	255.75
306.812	242.75
307.042	241.75
307.272	227.75
307.502	233.75
307.731	258.75
307.961	249.75
308.191	249.75
308.421	244.75
308.651	249.75
308.881	247.75
309.111	266.75
309.341	265.75
309.571	292.75
309.8	282.75
310.03	300.75
310.26	300.75
310.49	309.75
310.72	345.75
310.949	353.75
311.179	334.75
311.409	311.75
311.639	296.75
311.868	301.75
312.098	300.75
312.328	333.75
312.557	301.75
312.787	340.75
313.017	331.75
313.246	313.75
313.476	291.75
313.706	296.75
313.935	286.75
314.165	316.75
314.394	318.75
314.624	328.75
314.853	294.75
315.083	292.75
315.312	304.75
315.542	259.75
315.771	296.75
316.001	287.75
316.23	295.75
316.46	275.75
316.689	296.75
316.919	294.75
317.148	301.75
317.377	317.75
317.607	316.75
317.836	298.75
318.065	297.75
318.295	278.75
318.524	303.75
318.753	305.75
318.983	281.75
319.212	311.75
319.441	288.75
319.67	308.75
319.9	306.75
320.129	295.75
320.358	281.75
320.587	312.75
320.816	323.75
321.046	308.75
321.275	333.75
321.504	318.75
321.733	326.75
321.962	321.75
322.191	348.75
322.42	362.75
322.649	383.75
322.878	390.75
323.108	398.75
323.337	426.75
323.566	445.75
323.795	478.75
324.024	540.75
324.253	676.75
324.482	960.75
324.71	1501.75
324.939	2074.75
325.168	1857.75
325.397	985.75
325.626	654.75
325.855	517.75
326.084	484.75
326.313	451.75
326.542	470.75
326.77	502.75
326.999	625.75
327.228	869.75
327.457	1292.75
327.686	1595.75
327.914	1095.75
328.143	702.75
328.372	598.75
328.6	547.75
328.829	515.75
329.058	541.75
329.287	545.75
329.515	490.75
329.744	430.75
329.972	432.75
330.201	422.75
330.43	448.75
330.658	484.75
330.887	532.75
331.115	556.75
331.344	440.75
331.572	409.75
331.801	398.75
332.03	416.75
332.258	380.75
332.486	369.75
332.715	360.75
332.943	333.75
333.172	345.75
333.4	334.75
333.629	334.75
333.857	353.75
334.085	363.75
334.314	346.75
334.542	353.75
334.771	360.75
334.999	366.75
335.227	338.75
335.455	340.75
335.684	338.75
335.912	326.75
336.14	325.75
336.369	345.75
336.597	333.75
336.825	351.75
337.053	345.75
337.281	328.75
337.51	328.75
337.738	345.75
337.966	321.75
338.194	350.75
338.422	345.75
338.65	339.75
338.878	317.75
339.106	327.75
339.334	316.75
339.562	330.75
339.79	323.75
340.018	338.75
340.246	330.75
340.474	319.75
340.702	350.75
340.93	345.75
341.158	314.75
341.386	313.75
341.614	341.75
341.842	339.75
342.07	315.75
342.298	315.75
342.526	323.75
342.754	331.75
342.981	317.75
343.209	312.75
343.437	323.75
343.665	333.75
343.893	316.75
344.12	313.75
344.348	317.75
344.576	337.75
344.804	350.75
345.031	349.75
345.259	375.75
345.487	349.75
345.714	356.75
345.942	324.75
346.17	337.75
346.397	358.75
346.625	316.75
346.853	315.75
347.08	318.75
347.308	344.75
347.535	349.75
347.763	334.75
347.99	343.75
348.218	341.75
348.445	362.75
348.673	355.75
348.9	326.75
349.128	335.75
349.355	321.75
349.583	308.75
349.81	320.75
350.037	298.75
350.265	317.75
350.492	321.75
350.72	331.75
350.947	322.75
351.174	338.75
351.402	351.75
351.629	333.75
351.856	347.75
352.083	359.75
352.311	359.75
352.538	362.75
352.765	380.75
352.992	361.75
353.22	335.75
353.447	336.75
353.674	321.75
353.901	322.75
354.128	324.75
354.355	314.75
354.583	300.75
354.81	306.75
355.037	304.75
355.264	276.75
355.491	291.75
355.718	300.75
355.945	292.75
356.172	283.75
356.399	290.75
356.626	309.75
356.853	311.75
357.08	281.75
357.307	302.75
357.534	304.75
357.761	300.75
357.988	299.75
358.215	293.75
358.441	306.75
358.668	281.75
358.895	328.75
359.122	334.75
359.349	320.75
359.576	347.75
359.802	350.75
360.029	402.75
360.256	411.75
360.483	388.75
360.709	343.75
360.936	335.75
361.163	333.75
361.39	336.75
361.616	366.75
361.843	333.75
362.07	332.75
362.296	315.75
362.523	349.75
362.749	339.75
362.976	334.75
363.203	317.75
363.429	336.75
363.656	313.75
363.882	334.75
364.109	304.75
364.335	316.75
364.562	325.75
364.788	342.75
365.015	320.75
365.241	323.75
365.468	326.75
365.694	344.75
365.92	333.75
366.147	305.75
366.373	316.75
366.599	304.75
366.826	307.75
367.052	296.75
367.278	295.75
367.505	324.75
367.731	328.75
367.957	318.75
368.184	303.75
368.41	317.75
368.636	325.75
368.862	321.75
369.089	320.75
369.315	314.75
369.541	317.75
369.767	301.75
369.993	319.75
370.219	312.75
370.445	326.75
370.672	291.75
370.898	315.75
371.124	311.75
371.35	320.75
371.576	305.75
371.802	287.75
372.028	296.75
372.254	312.75
372.48	300.75
372.706	290.75
372.932	322.75
373.158	295.75
373.384	291.75
373.61	322.75
373.835	333.75
374.061	321.75
374.287	309.75
374.513	315.75
374.739	298.75
374.965	306.75
375.191	287.75
375.416	304.75
375.642	306.75
375.868	323.75
376.094	304.75
376.319	310.75
376.545	307.75
376.771	304.75
376.997	324.75
377.222	321.75
377.448	324.75
377.674	306.75
377.899	290.75
378.125	297.75
378.35	289.75
378.576	284.75
378.802	304.75
379.027	282.75
379.253	301.75
379.478	315.75
379.704	274.75
379.929	312.75
380.155	299.75
380.38	288.75
380.606	297.75
380.831	320.75
381.057	327.75
381.282	309.75
381.507	318.75
381.733	320.75
381.958	329.75
382.184	320.75
382.409	294.75
382.634	325.75
382.86	317.75
383.085	316.75
383.31	326.75
383.535	318.75
383.761	301.75
383.986	321.75
384.211	299.75
384.436	306.75
384.662	316.75
384.887	304.75
385.112	328.75
385.337	326.75
385.562	306.75
385.787	320.75
386.013	320.75
386.238	323.75
386.463	332.75
386.688	330.75
386.913	306.75
387.138	320.75
387.363	321.75
387.588	328.75
387.813	343.75
388.038	326.75
388.263	338.75
388.488	341.75
388.713	322.75
388.938	318.75
389.163	354.75
389.387	316.75
389.612	320.75
389.837	338.75
390.062	300.75
390.287	308.75
390.512	333.75
390.736	314.75
390.961	325.75
391.186	318.75
391.411	334.75
391.636	327.75
391.86	329.75
392.085	334.75
392.31	335.75
392.534	333.75
392.759	328.75
392.984	321.75
393.208	338.75
393.433	351.75
393.658	335.75
393.882	332.75
394.107	328.75
394.331	337.75
394.556	336.75
394.78	314.75
395.005	345.75
395.229	321.75
395.454	333.75
395.678	323.75
395.903	334.75
396.127	378.75
396.352	362.75
396.576	350.75
396.801	358.75
397.025	345.75
397.249	341.75
397.474	348.75
397.698	327.75
397.922	357.75
398.147	351.75
398.371	362.75
398.595	377.75
398.82	344.75
399.044	370.75
399.268	373.75
399.492	388.75
399.717	391.75
399.941	429.75
400.165	456.75
400.389	473.75
400.613	423.75
400.837	387.75
401.062	372.75
401.286	372.75
401.51	413.75
401.734	380.75
401.958	377.75
402.182	370.75
402.406	387.75
402.63	395.75
402.854	389.75
403.078	380.75
403.302	383.75
403.526	392.75
403.75	377.75
403.974	382.75
404.198	396.75
404.422	395.75
404.645	392.75
404.869	402.75
405.093	410.75
405.317	426.75
405.541	460.75
405.765	439.75
405.988	415.75
406.212	422.75
406.436	445.75
406.66	449.75
406.883	414.75
407.107	435.75
407.331	481.75
407.555	553.75
407.778	530.75
408.002	498.75
408.226	460.75
408.449	440.75
408.673	432.75
408.896	451.75
409.12	496.75
409.344	473.75
409.567	429.75
409.791	406.75
410.014	412.75
410.238	411.75
410.461	405.75
410.685	424.75
410.908	404.75
411.132	452.75
411.355	459.75
411.578	457.75
411.802	422.75
412.025	399.75
412.249	398.75
412.472	414.75
412.695	401.75
412.919	396.75
413.142	368.75
413.365	371.75
413.589	358.75
413.812	380.75
414.035	370.75
414.258	372.75
414.482	382.75
414.705	364.75
414.928	378.75
415.151	355.75
415.374	363.75
415.597	379.75
415.821	364.75
416.044	371.75
416.267	347.75
416.49	379.75
416.713	372.75
416.936	380.75
417.159	381.75
417.382	375.75
417.605	370.75
417.828	392.75
418.051	410.75
418.274	419.75
418.497	384.75
418.72	374.75
418.943	369.75
419.166	402.75
419.389	393.75
419.611	399.75
419.834	393.75
420.057	394.75
420.28	385.75
420.503	385.75
420.726	406.75
420.948	426.75
421.171	468.75
421.394	488.75
421.617	438.75
421.839	418.75
422.062	420.75
422.285	416.75
422.507	483.75
422.73	550.75
422.953	544.75
423.175	449.75
423.398	421.75
423.621	447.75
423.843	452.75
424.066	446.75
424.288	446.75
424.511	460.75
424.733	521.75
424.956	603.75
425.178	584.75
425.401	575.75
425.623	589.75
425.846	504.75
426.068	473.75
426.291	478.75
426.513	477.75
426.735	487.75
426.958	524.75
427.18	602.75
427.402	680.75
427.625	785.75
427.847	733.75
428.069	603.75
428.292	540.75
428.514	477.75
428.736	455.75
428.958	457.75
429.181	427.75
429.403	422.75
429.625	463.75
429.847	485.75
430.069	530.75
430.292	534.75
430.514	468.75
430.736	430.75
430.958	416.75
431.18	410.75
431.402	411.75
431.624	398.75
431.846	391.75
432.068	416.75
432.29	396.75
432.512	403.75
432.734	414.75
432.956	384.75
433.178	409.75
433.4	422.75
433.622	396.75
433.844	386.75
434.066	400.75
434.287	385.75
434.509	394.75
434.731	420.75
434.953	403.75
435.175	420.75
435.397	449.75
435.618	457.75
435.84	494.75
436.062	585.75
436.284	652.75
436.505	546.75
436.727	485.75
436.949	451.75
437.17	452.75
437.392	446.75
437.614	451.75
437.835	496.75
438.057	577.75
438.278	660.75
438.5	688.75
438.721	711.75
438.943	694.75
439.165	568.75
439.386	512.75
439.608	512.75
439.829	506.75
440.05	552.75
440.272	543.75
440.493	510.75
440.715	493.75
440.936	450.75
441.158	455.75
441.379	438.75
441.6	461.75
441.822	481.75
442.043	504.75
442.264	580.75
442.486	628.75
442.707	521.75
442.928	498.75
443.149	505.75
443.371	517.75
443.592	558.75
443.813	628.75
444.034	688.75
444.255	581.75
444.476	496.75
444.698	480.75
444.919	455.75
445.14	560.75
445.361	518.75
445.582	517.75
445.803	573.75
446.024	685.75
446.245	657.75
446.466	589.75
446.687	532.75
446.908	478.75
447.129	440.75
447.35	471.75
447.571	452.75
447.792	447.75
448.013	445.75
448.234	489.75
448.455	540.75
448.675	619.75
448.896	700.75
449.117	634.75
449.338	591.75
449.559	666.75
449.779	704.75
450	606.75
450.221	544.75
450.442	475.75
450.662	443.75
450.883	471.75
451.104	468.75
451.324	460.75
451.545	429.75
451.766	414.75
451.986	400.75
452.207	389.75
452.428	393.75
452.648	397.75
452.869	421.75
453.089	429.75
453.31	410.75
453.53	401.75
453.751	396.75
453.971	391.75
454.192	420.75
454.412	422.75
454.633	411.75
454.853	396.75
455.073	395.75
455.294	433.75
455.514	480.75
455.734	488.75
455.955	413.75
456.175	375.75
456.395	371.75
456.616	395.75
456.836	357.75
457.056	374.75
457.276	365.75
457.497	352.75
457.717	357.75
457.937	381.75
458.157	376.75
458.377	389.75
458.598	408.75
458.818	464.75
459.038	568.75
459.258	569.75
459.478	458.75
459.698	405.75
459.918	401.75
460.138	386.75
460.358	403.75
460.578	404.75
460.798	398.75
461.018	394.75
461.238	402.75
461.458	390.75
461.678	377.75
461.898	391.75
462.118	388.75
462.338	391.75
462.558	393.75
462.777	398.75
462.997	416.75
463.217	417.75
463.437	413.75
463.657	410.75
463.876	395.75
464.096	400.75
464.316	413.75
464.536	397.75
464.755	413.75
464.975	432.75
465.195	465.75
465.414	586.75
465.634	493.75
465.854	451.75
466.073	416.75
466.293	417.75
466.512	412.75
466.732	414.75
466.951	379.75
467.171	377.75
467.391	373.75
467.61	381.75
467.829	441.75
468.049	388.75
468.268	390.75
468.488	373.75
468.707	365.75
468.927	397.75
469.146	374.75
469.365	384.75
469.585	364.75
469.804	396.75
470.023	382.75
470.243	380.75
470.462	394.75
470.681	421.75
470.901	422.75
471.12	409.75
471.339	415.75
471.558	405.75
471.777	396.75
471.997	388.75
472.216	396.75
472.435	382.75
472.654	379.75
472.873	380.75
473.092	379.75
473.311	370.75
473.53	388.75
473.749	401.75
473.968	458.75
474.187	557.75
474.406	562.75
474.625	457.75
474.844	417.75
475.063	411.75
475.282	420.75
475.501	400.75
475.72	407.75
475.939	402.75
476.158	410.75
476.377	417.75
476.596	410.75
476.814	410.75
477.033	424.75
477.252	434.75
477.471	430.75
477.69	430.75
477.908	431.75
478.127	440.75
478.346	418.75
478.564	442.75
478.783	436.75
479.002	426.75
479.22	432.75
479.439	445.75
479.658	469.75
479.876	499.75
480.095	486.75
480.313	501.75
480.532	482.75
480.751	474.75
480.969	478.75
481.188	505.75
481.406	489.75
481.624	451.75
481.843	461.75
482.061	461.75
482.28	460.75
482.498	457.75
482.717	459.75
482.935	480.75
483.153	458.75
483.372	461.75
483.59	477.75
483.808	458.75
484.027	463.75
484.245	468.75
484.463	471.75
484.681	490.75
484.9	485.75
485.118	464.75
485.336	482.75
485.554	473.75
485.772	489.75
485.99	476.75
486.209	497.75
486.427	497.75
486.645	515.75
486.863	545.75
487.081	558.75
487.299	525.75
487.517	523.75
487.735	500.75
487.953	515.75
488.171	513.75
488.389	497.75
488.607	523.75
488.825	510.75
489.043	505.75
489.261	527.75
489.479	528.75
489.696	541.75
489.914	521.75
490.132	549.75
490.35	534.75
490.568	541.75
490.786	552.75
491.003	530.75
491.221	542.75
491.439	566.75
491.657	584.75
491.874	589.75
492.092	570.75
492.31	587.75
492.527	594.75
492.745	579.75
492.963	626.75
493.18	609.75
493.398	601.75
493.615	625.75
493.833	597.75
494.05	597.75
494.268	584.75
494.485	624.75
494.703	598.75
494.92	628.75
495.138	610.75
495.355	622.75
495.573	629.75
495.79	620.75
496.008	608.75
496.225	608.75
496.442	643.75
496.66	620.75
496.877	610.75
497.094	664.75
497.312	627.75
497.529	658.75
497.746	637.75
497.963	646.75
498.181	674.75
498.398	673.75
498.615	661.75
498.832	679.75
499.049	688.75
499.267	652.75
499.484	666.75
499.701	717.75
499.918	709.75
500.135	723.75
500.352	749.75
500.569	710.75
500.786	740.75
501.003	723.75
501.22	739.75
501.437	740.75
501.654	722.75
501.871	742.75
502.088	758.75
502.305	673.75
502.522	693.75
502.739	697.75
502.956	681.75
503.172	660.75
503.389	668.75
503.606	659.75
503.823	670.75
504.04	649.75
504.256	658.75
504.473	616.75
504.69	601.75
504.907	629.75
505.123	634.75
505.34	612.75
505.557	616.75
505.773	629.75
505.99	627.75
506.207	625.75
506.423	612.75
506.64	622.75
506.856	602.75
507.073	588.75
507.289	577.75
507.506	611.75
507.722	637.75
507.939	656.75
508.155	632.75
508.372	591.75
508.588	600.75
508.805	596.75
509.021	595.75
509.238	626.75
509.454	617.75
509.67	613.75
509.887	628.75
510.103	613.75
510.319	630.75
510.536	753.75
510.752	1307.75
510.968	1065.75
511.184	653.75
511.401	610.75
511.617	620.75
511.833	580.75
512.049	584.75
512.265	564.75
512.481	572.75
512.698	556.75
512.914	585.75
513.13	557.75
513.346	576.75
513.562	568.75
513.778	574.75
513.994	584.75
514.21	621.75
514.426	607.75
514.642	684.75
514.858	718.75
515.074	809.75
515.29	946.75
515.506	1430.75
515.721	1172.75
515.937	752.75
516.153	684.75
516.369	649.75
516.585	623.75
516.801	573.75
517.016	579.75
517.232	570.75
517.448	583.75
517.664	562.75
517.879	562.75
518.095	556.75
518.311	561.75
518.527	566.75
518.742	586.75
518.958	607.75
519.173	576.75
519.389	602.75
519.605	569.75
519.82	576.75
520.036	577.75
520.251	616.75
520.467	670.75
520.682	667.75
520.898	664.75
521.113	692.75
521.329	770.75
521.544	885.75
521.76	1124.75
521.975	1941.75
522.19	1900.75
522.406	1010.75
522.621	744.75
522.836	637.75
523.052	608.75
523.267	574.75
523.482	564.75
523.698	558.75
523.913	547.75
524.128	540.75
524.343	544.75
524.559	501.75
524.774	488.75
524.989	522.75
525.204	521.75
525.419	517.75
525.634	511.75
525.849	484.75
526.064	459.75
526.28	478.75
526.495	465.75
526.71	475.75
526.925	461.75
527.14	461.75
527.355	452.75
527.57	450.75
527.785	466.75
527.999	458.75
528.214	478.75
528.429	451.75
528.644	444.75
528.859	460.75
529.074	461.75
529.289	487.75
529.503	598.75
529.718	573.75
529.933	516.75
530.148	490.75
530.363	486.75
530.577	448.75
530.792	468.75
531.007	442.75
531.221	453.75
531.436	424.75
531.651	440.75
531.865	439.75
532.08	452.75
532.295	428.75
532.509	440.75
532.724	421.75
532.938	425.75
533.153	416.75
533.367	412.75
533.582	434.75
533.796	412.75
534.011	424.75
534.225	402.75
534.44	427.75
534.654	405.75
534.868	416.75
535.083	420.75
535.297	411.75
535.511	421.75
535.726	435.75
535.94	434.75
536.154	439.75
536.369	420.75
536.583	420.75
536.797	411.75
537.011	415.75
537.225	399.75
537.44	414.75
537.654	409.75
537.868	413.75
538.082	389.75
538.296	404.75
538.51	418.75
538.724	416.75
538.938	401.75
539.153	406.75
539.367	428.75
539.581	433.75
539.795	418.75
540.009	426.75
540.222	412.75
540.436	444.75
540.65	420.75
540.864	428.75
541.078	435.75
541.292	406.75
541.506	423.75
541.72	421.75
541.934	398.75
542.147	406.75
542.361	425.75
542.575	386.75
542.789	404.75
543.002	402.75
543.216	388.75
543.43	412.75
543.644	405.75
543.857	399.75
544.071	391.75
544.285	410.75
544.498	382.75
544.712	394.75
544.925	392.75
545.139	393.75
545.352	394.75
545.566	400.75
545.779	390.75
545.993	375.75
546.206	385.75
546.42	392.75
546.633	392.75
546.847	373.75
547.06	372.75
547.274	386.75
547.487	384.75
547.7	385.75
547.914	360.75
548.127	391.75
548.34	373.75
548.554	384.75
548.767	386.75
548.98	383.75
549.193	386.75
549.407	379.75
549.62	368.75
549.833	376.75
550.046	365.75
550.259	361.75
550.473	372.75
550.686	364.75
550.899	363.75
551.112	376.75
551.325	375.75
551.538	365.75
551.751	356.75
551.964	362.75
552.177	350.75
552.39	383.75
552.603	380.75
552.816	361.75
553.029	354.75
553.242	355.75
553.455	376.75
553.667	380.75
553.88	380.75
554.093	393.75
554.306	353.75
554.519	388.75
554.732	368.75
554.944	370.75
555.157	357.75
555.37	378.75
555.583	370.75
555.795	347.75
556.008	366.75
556.221	351.75
556.433	359.75
556.646	349.75
556.859	349.75
557.071	337.75
557.284	339.75
557.496	350.75
557.709	348.75
557.921	337.75
558.134	336.75
558.346	342.75
558.559	356.75
558.771	342.75
558.984	332.75
559.196	336.75
559.409	331.75
559.621	338.75
559.833	336.75
560.046	327.75
560.258	341.75
560.47	345.75
560.683	341.75
560.895	346.75
561.107	320.75
561.32	320.75
561.532	322.75
561.744	330.75
561.956	339.75
562.168	321.75
562.381	337.75
562.593	321.75
562.805	329.75
563.017	338.75
563.229	334.75
563.441	351.75
563.653	340.75
563.865	325.75
564.077	316.75
564.289	338.75
564.501	339.75
564.713	328.75
564.925	364.75
565.137	378.75
565.349	366.75
565.561	347.75
565.773	347.75
565.985	349.75
566.197	351.75
566.408	356.75
566.62	358.75
566.832	374.75
567.044	367.75
567.255	373.75
567.467	375.75
567.679	362.75
567.891	376.75
568.102	362.75
568.314	365.75
568.526	370.75
568.737	355.75
568.949	363.75
569.161	338.75
569.372	328.75
569.584	344.75
569.795	342.75
570.007	343.75
570.218	382.75
570.43	377.75
570.641	320.75
570.853	327.75
571.064	328.75
571.276	321.75
571.487	325.75
571.698	316.75
571.91	310.75
572.121	317.75
572.333	312.75
572.544	301.75
572.755	287.75
572.966	304.75
573.178	313.75
573.389	316.75
573.6	301.75
573.811	290.75
574.023	292.75
574.234	293.75
574.445	294.75
574.656	314.75
574.867	286.75
575.078	296.75
575.289	293.75
575.501	294.75
575.712	288.75
575.923	273.75
576.134	285.75
576.345	291.75
576.556	291.75
576.767	305.75
576.978	306.75
577.188	273.75
577.399	300.75
577.61	277.75
577.821	298.75
578.032	299.75
578.243	338.75
578.454	621.75
578.665	443.75
578.875	304.75
579.086	306.75
579.297	285.75
579.508	290.75
579.718	285.75
579.929	274.75
580.14	276.75
580.35	276.75
580.561	273.75
580.772	248.75
580.982	240.75
581.193	258.75
581.403	268.75
581.614	281.75
581.825	276.75
582.035	274.75
582.246	268.75
582.456	282.75
582.667	261.75
582.877	267.75
583.087	250.75
583.298	274.75
583.508	261.75
583.719	261.75
583.929	258.75
584.139	262.75
584.35	270.75
584.56	284.75
584.77	261.75
584.981	264.75
585.191	255.75
585.401	273.75
585.611	277.75
585.821	253.75
586.032	262.75
586.242	256.75
586.452	281.75
586.662	268.75
586.872	264.75
587.082	248.75
587.292	266.75
587.502	245.75
587.713	258.75
587.923	260.75
588.133	259.75
588.343	251.75
588.553	274.75
588.762	254.75
588.972	268.75
589.182	383.75
589.392	366.75
589.602	320.75
589.812	359.75
590.022	335.75
590.232	268.75
590.441	256.75
590.651	286.75
590.861	250.75
591.071	253.75
591.281	248.75
591.49	243.75
591.7	260.75
591.91	259.75
592.119	242.75
592.329	258.75
592.539	274.75
592.748	262.75
592.958	256.75
593.167	267.75
593.377	263.75
593.587	258.75
593.796	234.75
594.006	266.75
594.215	248.75
594.424	249.75
594.634	244.75
594.843	264.75
595.053	266.75
595.262	250.75
595.472	249.75
595.681	252.75
595.89	242.75
596.1	239.75
596.309	234.75
596.518	246.75
596.727	253.75
596.937	253.75
597.146	229.75
597.355	241.75
597.564	249.75
597.774	251.75
597.983	233.75
598.192	234.75
598.401	256.75
598.61	236.75
598.819	245.75
599.028	225.75
599.237	226.75
599.446	247.75
599.655	233.75
599.864	236.75
600.073	236.75
600.282	225.75
600.491	248.75
600.7	235.75
600.909	231.75
601.118	246.75
601.327	218.75
601.536	219.75
601.745	232.75
601.953	215.75
602.162	219.75
602.371	231.75
602.58	210.75
602.789	221.75
602.997	227.75
603.206	235.75
603.415	225.75
603.623	225.75
603.832	212.75
604.041	221.75
604.249	201.75
604.458	225.75
604.666	217.75
604.875	232.75
605.084	205.75
605.292	220.75
605.501	209.75
605.709	200.75
605.918	211.75
606.126	242.75
606.334	223.75
606.543	223.75
606.751	220.75
606.96	221.75
607.168	205.75
607.376	212.75
607.585	209.75
607.793	212.75
608.001	227.75
608.21	232.75
608.418	223.75
608.626	216.75
608.834	215.75
609.043	227.75
609.251	205.75
609.459	224.75
609.667	224.75
609.875	216.75
610.083	217.75
610.291	205.75
610.499	220.75
610.707	218.75
610.916	203.75
611.124	223.75
611.332	216.75
611.54	223.75
611.748	223.75
611.955	209.75
612.163	214.75
612.371	202.75
612.579	204.75
612.787	207.75
612.995	218.75
613.203	206.75
613.411	212.75
613.618	212.75
613.826	219.75
614.034	199.75
614.242	206.75
614.449	203.75
614.657	216.75
614.865	217.75
615.072	211.75
615.28	194.75
615.488	210.75
615.695	201.75
615.903	206.75
616.111	212.75
616.318	219.75
616.526	190.75
616.733	211.75
616.941	185.75
617.148	197.75
617.356	228.75
617.563	195.75
617.771	222.75
617.978	169.75
618.185	213.75
618.393	205.75
618.6	198.75
618.807	213.75
619.015	212.75
619.222	192.75
619.429	198.75
619.637	181.75
619.844	202.75
620.051	199.75
620.258	178.75
620.466	179.75
620.673	195.75
620.88	195.75
621.087	206.75
621.294	188.75
621.501	213.75
621.708	202.75
621.915	196.75
622.122	198.75
622.329	197.75
622.536	196.75
622.743	186.75
622.95	189.75
623.157	210.75
623.364	182.75
623.571	206.75
623.778	200.75
623.985	181.75
624.192	199.75
624.399	182.75
624.606	187.75
624.812	195.75
625.019	189.75
625.226	196.75
625.433	185.75
625.639	193.75
625.846	176.75
626.053	181.75
626.259	188.75
626.466	201.75
626.673	195.75
626.879	187.75
627.086	196.75
627.293	182.75
627.499	187.75
627.706	177.75
627.912	187.75
628.119	181.75
628.325	181.75
628.532	187.75
628.738	169.75
628.945	187.75
629.151	170.75
629.357	192.75
629.564	184.75
629.77	187.75
629.976	172.75
630.183	161.75
630.389	157.75
630.595	177.75
630.802	168.75
631.008	175.75
631.214	186.75
631.42	171.75
631.627	180.75
631.833	158.75
632.039	179.75
632.245	172.75
632.451	171.75
632.657	173.75
632.863	172.75
633.069	155.75
633.275	185.75
633.481	170.75
633.688	165.75
633.893	160.75
634.099	171.75
634.305	171.75
634.511	167.75
634.717	168.75
634.923	165.75
635.129	151.75
635.335	155.75
635.541	163.75
635.747	182.75
635.952	169.75
636.158	170.75
636.364	176.75
636.57	173.75
636.775	160.75
636.981	146.75
637.187	168.75
637.392	159.75
637.598	162.75
637.804	174.75
638.009	175.75
638.215	146.75
638.421	163.75
638.626	164.75
638.832	148.75
639.037	162.75
639.243	179.75
639.448	165.75
639.654	149.75
639.859	155.75
640.065	158.75
640.27	163.75
640.475	160.75
640.681	153.75
640.886	165.75
641.091	159.75
641.297	148.75
641.502	162.75
641.707	154.75
641.913	161.75
642.118	161.75
642.323	141.75
642.528	157.75
642.733	142.75
642.939	160.75
643.144	152.75
643.349	150.75
643.554	148.75
643.759	156.75
643.964	141.75
644.169	145.75
644.374	144.75
644.579	154.75
644.784	161.75
644.989	147.75
645.194	155.75
645.399	153.75
645.604	130.75
645.809	157.75
646.014	154.75
646.219	159.75
646.423	161.75
646.628	146.75
646.833	140.75
647.038	146.75
647.243	152.75
647.447	162.75
647.652	163.75
647.857	157.75
648.062	154.75
648.266	150.75
648.471	141.75
648.676	153.75
648.88	156.75
649.085	166.75
649.289	152.75
649.494	174.75
649.698	173.75
649.903	179.75
650.107	154.75
650.312	168.75
650.516	157.75
650.721	131.75
650.925	130.75
651.13	143.75
651.334	130.75
651.539	146.75
651.743	144.75
651.947	134.75
652.152	149.75
652.356	150.75
652.56	125.75
652.764	139.75
652.969	146.75
653.173	127.75
653.377	126.75
653.581	136.75
653.785	133.75
653.99	125.75
654.194	119.75
654.398	128.75
654.602	122.75
654.806	131.75
655.01	144.75
655.214	140.75
655.418	119.75
655.622	136.75
655.826	119.75
656.03	122.75
656.234	127.75
656.438	120.75
656.642	121.75
656.846	109.75
657.049	112.75
657.253	119.75
657.457	116.75
657.661	124.75
657.865	110.75
658.068	108.75
658.272	90.75
658.476	91.75
658.68	99.75
658.883	112.75
659.087	95.75
659.291	98.75
659.494	78.75
659.698	93.75
659.901	96.75
660.105	93.75
660.309	95.75
660.512	93.75
660.716	98.75
660.919	89.75
661.123	81.75
661.326	97.75
661.53	89.75
661.733	87.75
661.936	82.75
662.14	100.75
662.343	91.75
662.546	74.75
662.75	96.75
662.953	85.75
663.156	90.75
663.36	82.75
663.563	82.75
663.766	97.75
663.969	81.75
664.173	94.75
664.376	82.75
664.579	78.75
664.782	90.75
664.985	92.75
665.188	77.75
665.391	80.75
665.594	101.75
665.797	80.75
666	83.75
666.203	93.75
666.406	74.75
666.609	103.75
666.812	82.75
667.015	73.75
667.218	90.75
667.421	86.75
667.624	93.75
667.827	72.75
668.03	75.75
668.232	97.75
668.435	75.75
668.638	83.75
668.841	101.75
669.043	80.75
669.246	73.75
669.449	90.75
669.651	75.75
669.854	77.75
670.057	75.75
670.259	71.75
670.462	93.75
670.665	70.75
670.867	86.75
671.07	71.75
671.272	90.75
671.475	89.75
671.677	85.75
671.88	87.75
672.082	74.75
672.284	100.75
672.487	91.75
672.689	78.75
672.892	78.75
