Data from 1987.PennyLincolnUp.Lamp.En5.5.200Scan.071819.P2_HRD10591_17-14-42-971.txt Node
Date: Thu Jul 18 17:14:42 EDT 2019
User: cochatt
Spectrometer: HR+D1059
Trigger mode: 1
Integration Time (sec): 1.000000E-1
Scans to average: 1
Electric dark correction enabled: true
Nonlinearity correction enabled: false
Boxcar width: 0
XAxis mode: Wavelengths
Number of Pixels in Spectrum: 2048
>>>>>Begin Spectral Data<<<<<
223.165	-20.62
223.4	-20.62
223.635	-20.62
223.869	-18.62
224.104	-20.62
224.338	-20.62
224.573	-16.62
224.808	-2.62
225.042	-12.62
225.277	3.38
225.511	3.38
225.746	5.38
225.98	5.38
226.215	13.38
226.449	14.38
226.683	15.38
226.918	29.38
227.152	22.38
227.387	39.38
227.621	22.38
227.856	47.38
228.09	43.38
228.324	40.38
228.559	58.38
228.793	69.38
229.027	97.38
229.262	112.38
229.496	125.38
229.73	159.38
229.964	165.38
230.199	136.38
230.433	122.38
230.667	113.38
230.901	113.38
231.136	118.38
231.37	108.38
231.604	103.38
231.838	114.38
232.072	108.38
232.306	105.38
232.541	111.38
232.775	104.38
233.009	107.38
233.243	116.38
233.477	104.38
233.711	122.38
233.945	118.38
234.179	121.38
234.413	123.38
234.647	121.38
234.881	119.38
235.115	111.38
235.349	125.38
235.583	118.38
235.817	122.38
236.051	121.38
236.285	125.38
236.519	130.38
236.753	130.38
236.987	135.38
237.221	186.38
237.455	222.38
237.689	209.38
237.922	146.38
238.156	127.38
238.39	130.38
238.624	111.38
238.858	130.38
239.091	132.38
239.325	127.38
239.559	125.38
239.793	158.38
240.027	135.38
240.26	128.38
240.494	151.38
240.728	163.38
240.961	137.38
241.195	135.38
241.429	141.38
241.662	128.38
241.896	125.38
242.13	133.38
242.363	122.38
242.597	142.38
242.83	122.38
243.064	132.38
243.298	142.38
243.531	138.38
243.765	139.38
243.998	130.38
244.232	140.38
244.465	123.38
244.699	145.38
244.932	121.38
245.166	125.38
245.399	138.38
245.633	127.38
245.866	156.38
246.099	133.38
246.333	147.38
246.566	147.38
246.8	147.38
247.033	148.38
247.266	150.38
247.5	143.38
247.733	148.38
247.966	155.38
248.2	169.38
248.433	155.38
248.666	153.38
248.899	175.38
249.133	172.38
249.366	211.38
249.599	191.38
249.832	182.38
250.066	167.38
250.299	158.38
250.532	178.38
250.765	186.38
250.998	217.38
251.231	210.38
251.465	204.38
251.698	193.38
251.931	202.38
252.164	186.38
252.397	188.38
252.63	181.38
252.863	197.38
253.096	200.38
253.329	216.38
253.562	208.38
253.795	212.38
254.028	212.38
254.261	242.38
254.494	218.38
254.727	246.38
254.96	279.38
255.193	266.38
255.426	243.38
255.659	237.38
255.892	213.38
256.124	199.38
256.357	189.38
256.59	197.38
256.823	202.38
257.056	197.38
257.289	178.38
257.521	194.38
257.754	199.38
257.987	167.38
258.22	194.38
258.452	194.38
258.685	196.38
258.918	190.38
259.151	199.38
259.383	198.38
259.616	188.38
259.849	214.38
260.081	218.38
260.314	215.38
260.547	234.38
260.779	236.38
261.012	207.38
261.244	214.38
261.477	201.38
261.71	212.38
261.942	211.38
262.175	219.38
262.407	242.38
262.64	199.38
262.872	190.38
263.105	182.38
263.337	199.38
263.57	201.38
263.802	187.38
264.035	183.38
264.267	189.38
264.499	201.38
264.732	165.38
264.964	204.38
265.197	182.38
265.429	187.38
265.661	194.38
265.894	180.38
266.126	197.38
266.358	194.38
266.591	182.38
266.823	183.38
267.055	187.38
267.287	192.38
267.52	208.38
267.752	210.38
267.984	206.38
268.216	206.38
268.448	190.38
268.681	190.38
268.913	225.38
269.145	226.38
269.377	258.38
269.609	244.38
269.841	249.38
270.073	234.38
270.306	267.38
270.538	274.38
270.77	274.38
271.002	279.38
271.234	274.38
271.466	266.38
271.698	275.38
271.93	284.38
272.162	309.38
272.394	292.38
272.626	287.38
272.858	282.38
273.09	247.38
273.322	240.38
273.553	243.38
273.785	235.38
274.017	207.38
274.249	231.38
274.481	215.38
274.713	223.38
274.945	222.38
275.176	221.38
275.408	229.38
275.64	237.38
275.872	221.38
276.104	232.38
276.335	236.38
276.567	237.38
276.799	248.38
277.031	270.38
277.262	276.38
277.494	282.38
277.726	255.38
277.957	260.38
278.189	244.38
278.421	221.38
278.652	238.38
278.884	222.38
279.115	224.38
279.347	229.38
279.579	234.38
279.81	229.38
280.042	209.38
280.273	218.38
280.505	222.38
280.736	210.38
280.968	222.38
281.199	185.38
281.431	215.38
281.662	211.38
281.894	201.38
282.125	212.38
282.356	235.38
282.588	264.38
282.819	266.38
283.051	239.38
283.282	209.38
283.513	218.38
283.745	227.38
283.976	237.38
284.207	238.38
284.439	217.38
284.67	229.38
284.901	214.38
285.132	236.38
285.364	214.38
285.595	231.38
285.826	207.38
286.057	210.38
286.288	222.38
286.52	216.38
286.751	224.38
286.982	240.38
287.213	211.38
287.444	233.38
287.675	230.38
287.906	227.38
288.138	235.38
288.369	231.38
288.6	254.38
288.831	237.38
289.062	223.38
289.293	224.38
289.524	227.38
289.755	228.38
289.986	218.38
290.217	226.38
290.448	229.38
290.679	219.38
290.91	224.38
291.141	228.38
291.371	222.38
291.602	222.38
291.833	228.38
292.064	222.38
292.295	225.38
292.526	223.38
292.757	219.38
292.987	231.38
293.218	221.38
293.449	238.38
293.68	215.38
293.91	234.38
294.141	214.38
294.372	226.38
294.603	219.38
294.833	219.38
295.064	214.38
295.295	238.38
295.525	237.38
295.756	236.38
295.987	234.38
296.217	275.38
296.448	286.38
296.679	250.38
296.909	231.38
297.14	230.38
297.37	247.38
297.601	231.38
297.831	239.38
298.062	231.38
298.292	227.38
298.523	244.38
298.753	231.38
298.984	232.38
299.214	254.38
299.445	225.38
299.675	237.38
299.905	247.38
300.136	252.38
300.366	242.38
300.597	242.38
300.827	233.38
301.057	266.38
301.288	268.38
301.518	267.38
301.748	237.38
301.979	260.38
302.209	257.38
302.439	264.38
302.669	248.38
302.9	251.38
303.13	254.38
303.36	259.38
303.59	254.38
303.82	264.38
304.051	253.38
304.281	272.38
304.511	256.38
304.741	261.38
304.971	248.38
305.201	228.38
305.431	268.38
305.661	261.38
305.891	243.38
306.121	247.38
306.352	254.38
306.582	272.38
306.812	254.38
307.042	269.38
307.272	251.38
307.502	258.38
307.731	246.38
307.961	278.38
308.191	265.38
308.421	266.38
308.651	269.38
308.881	258.38
309.111	275.38
309.341	286.38
309.571	301.38
309.8	300.38
310.03	299.38
310.26	297.38
310.49	330.38
310.72	319.38
310.949	346.38
311.179	347.38
311.409	312.38
311.639	318.38
311.868	317.38
312.098	316.38
312.328	333.38
312.557	325.38
312.787	354.38
313.017	361.38
313.246	329.38
313.476	310.38
313.706	329.38
313.935	318.38
314.165	319.38
314.394	348.38
314.624	349.38
314.853	335.38
315.083	314.38
315.312	312.38
315.542	300.38
315.771	301.38
316.001	312.38
316.23	316.38
316.46	312.38
316.689	309.38
316.919	296.38
317.148	319.38
317.377	318.38
317.607	327.38
317.836	330.38
318.065	310.38
318.295	302.38
318.524	309.38
318.753	290.38
318.983	314.38
319.212	310.38
319.441	317.38
319.67	321.38
319.9	310.38
320.129	302.38
320.358	327.38
320.587	332.38
320.816	329.38
321.046	333.38
321.275	340.38
321.504	346.38
321.733	346.38
321.962	341.38
322.191	370.38
322.42	381.38
322.649	408.38
322.878	423.38
323.108	400.38
323.337	456.38
323.566	492.38
323.795	522.38
324.024	609.38
324.253	759.38
324.482	1080.38
324.71	1664.38
324.939	2274.38
325.168	1998.38
325.397	1081.38
325.626	732.38
325.855	586.38
326.084	525.38
326.313	495.38
326.542	504.38
326.77	530.38
326.999	683.38
327.228	942.38
327.457	1426.38
327.686	1751.38
327.914	1224.38
328.143	796.38
328.372	652.38
328.6	591.38
328.829	565.38
329.058	568.38
329.287	599.38
329.515	558.38
329.744	476.38
329.972	477.38
330.201	471.38
330.43	478.38
330.658	556.38
330.887	595.38
331.115	583.38
331.344	498.38
331.572	437.38
331.801	442.38
332.03	436.38
332.258	430.38
332.486	380.38
332.715	343.38
332.943	361.38
333.172	360.38
333.4	359.38
333.629	378.38
333.857	375.38
334.085	376.38
334.314	372.38
334.542	365.38
334.771	380.38
334.999	378.38
335.227	358.38
335.455	359.38
335.684	349.38
335.912	333.38
336.14	347.38
336.369	363.38
336.597	375.38
336.825	374.38
337.053	351.38
337.281	338.38
337.51	357.38
337.738	347.38
337.966	341.38
338.194	351.38
338.422	359.38
338.65	354.38
338.878	360.38
339.106	337.38
339.334	333.38
339.562	341.38
339.79	340.38
340.018	356.38
340.246	337.38
340.474	376.38
340.702	372.38
340.93	331.38
341.158	340.38
341.386	348.38
341.614	349.38
341.842	341.38
342.07	334.38
342.298	309.38
342.526	351.38
342.754	300.38
342.981	315.38
343.209	311.38
343.437	329.38
343.665	314.38
343.893	334.38
344.12	324.38
344.348	325.38
344.576	345.38
344.804	349.38
345.031	390.38
345.259	368.38
345.487	372.38
345.714	366.38
345.942	351.38
346.17	352.38
346.397	360.38
346.625	356.38
346.853	325.38
347.08	357.38
347.308	374.38
347.535	354.38
347.763	376.38
347.99	384.38
348.218	384.38
348.445	374.38
348.673	380.38
348.9	338.38
349.128	342.38
349.355	325.38
349.583	322.38
349.81	329.38
350.037	317.38
350.265	314.38
350.492	333.38
350.72	350.38
350.947	340.38
351.174	362.38
351.402	379.38
351.629	366.38
351.856	364.38
352.083	347.38
352.311	367.38
352.538	383.38
352.765	382.38
352.992	399.38
353.22	363.38
353.447	359.38
353.674	338.38
353.901	337.38
354.128	331.38
354.355	315.38
354.583	317.38
354.81	322.38
355.037	314.38
355.264	321.38
355.491	326.38
355.718	310.38
355.945	303.38
356.172	311.38
356.399	284.38
356.626	283.38
356.853	310.38
357.08	312.38
357.307	312.38
357.534	296.38
357.761	300.38
357.988	310.38
358.215	312.38
358.441	299.38
358.668	308.38
358.895	320.38
359.122	337.38
359.349	338.38
359.576	359.38
359.802	380.38
360.029	406.38
360.256	434.38
360.483	399.38
360.709	371.38
360.936	357.38
361.163	358.38
361.39	379.38
361.616	374.38
361.843	367.38
362.07	344.38
362.296	351.38
362.523	343.38
362.749	349.38
362.976	342.38
363.203	327.38
363.429	352.38
363.656	337.38
363.882	336.38
364.109	328.38
364.335	318.38
364.562	327.38
364.788	329.38
365.015	333.38
365.241	317.38
365.468	326.38
365.694	341.38
365.92	324.38
366.147	329.38
366.373	308.38
366.599	318.38
366.826	330.38
367.052	325.38
367.278	317.38
367.505	316.38
367.731	337.38
367.957	330.38
368.184	319.38
368.41	331.38
368.636	358.38
368.862	348.38
369.089	337.38
369.315	311.38
369.541	306.38
369.767	318.38
369.993	342.38
370.219	334.38
370.445	341.38
370.672	314.38
370.898	310.38
371.124	330.38
371.35	316.38
371.576	328.38
371.802	292.38
372.028	311.38
372.254	292.38
372.48	296.38
372.706	302.38
372.932	304.38
373.158	295.38
373.384	321.38
373.61	311.38
373.835	301.38
374.061	304.38
374.287	316.38
374.513	327.38
374.739	331.38
374.965	322.38
375.191	327.38
375.416	324.38
375.642	332.38
375.868	308.38
376.094	314.38
376.319	291.38
376.545	321.38
376.771	299.38
376.997	289.38
377.222	310.38
377.448	310.38
377.674	300.38
377.899	306.38
378.125	327.38
378.35	311.38
378.576	304.38
378.802	301.38
379.027	314.38
379.253	299.38
379.478	292.38
379.704	314.38
379.929	311.38
380.155	314.38
380.38	312.38
380.606	330.38
380.831	304.38
381.057	325.38
381.282	326.38
381.507	316.38
381.733	309.38
381.958	315.38
382.184	303.38
382.409	300.38
382.634	298.38
382.86	307.38
383.085	320.38
383.31	316.38
383.535	317.38
383.761	319.38
383.986	332.38
384.211	326.38
384.436	316.38
384.662	329.38
384.887	324.38
385.112	333.38
385.337	306.38
385.562	317.38
385.787	326.38
386.013	342.38
386.238	341.38
386.463	328.38
386.688	340.38
386.913	336.38
387.138	324.38
387.363	326.38
387.588	326.38
387.813	346.38
388.038	329.38
388.263	324.38
388.488	346.38
388.713	338.38
388.938	314.38
389.163	349.38
389.387	329.38
389.612	335.38
389.837	335.38
390.062	331.38
390.287	325.38
390.512	316.38
390.736	328.38
390.961	332.38
391.186	329.38
391.411	329.38
391.636	333.38
391.86	336.38
392.085	325.38
392.31	346.38
392.534	348.38
392.759	335.38
392.984	343.38
393.208	326.38
393.433	339.38
393.658	358.38
393.882	316.38
394.107	326.38
394.331	306.38
394.556	331.38
394.78	335.38
395.005	323.38
395.229	334.38
395.454	340.38
395.678	340.38
395.903	361.38
396.127	382.38
396.352	372.38
396.576	356.38
396.801	339.38
397.025	342.38
397.249	359.38
397.474	359.38
397.698	344.38
397.922	350.38
398.147	374.38
398.371	376.38
398.595	366.38
398.82	357.38
399.044	383.38
399.268	390.38
399.492	386.38
399.717	407.38
399.941	438.38
400.165	443.38
400.389	458.38
400.613	420.38
400.837	405.38
401.062	364.38
401.286	398.38
401.51	386.38
401.734	398.38
401.958	386.38
402.182	389.38
402.406	389.38
402.63	402.38
402.854	378.38
403.078	400.38
403.302	388.38
403.526	391.38
403.75	380.38
403.974	379.38
404.198	380.38
404.422	394.38
404.645	413.38
404.869	407.38
405.093	421.38
405.317	440.38
405.541	458.38
405.765	426.38
405.988	422.38
406.212	448.38
406.436	471.38
406.66	495.38
406.883	449.38
407.107	469.38
407.331	490.38
407.555	556.38
407.778	575.38
408.002	485.38
408.226	443.38
408.449	438.38
408.673	450.38
408.896	466.38
409.12	511.38
409.344	468.38
409.567	419.38
409.791	417.38
410.014	410.38
410.238	387.38
410.461	404.38
410.685	412.38
410.908	398.38
411.132	463.38
411.355	475.38
411.578	464.38
411.802	429.38
412.025	411.38
412.249	403.38
412.472	426.38
412.695	426.38
412.919	423.38
413.142	387.38
413.365	389.38
413.589	396.38
413.812	385.38
414.035	379.38
414.258	390.38
414.482	384.38
414.705	381.38
414.928	368.38
415.151	360.38
415.374	366.38
415.597	348.38
415.821	351.38
416.044	399.38
416.267	398.38
416.49	390.38
416.713	382.38
416.936	385.38
417.159	369.38
417.382	385.38
417.605	398.38
417.828	415.38
418.051	418.38
418.274	406.38
418.497	390.38
418.72	387.38
418.943	390.38
419.166	389.38
419.389	402.38
419.611	420.38
419.834	424.38
420.057	400.38
420.28	415.38
420.503	408.38
420.726	400.38
420.948	428.38
421.171	475.38
421.394	477.38
421.617	449.38
421.839	422.38
422.062	420.38
422.285	437.38
422.507	505.38
422.73	570.38
422.953	551.38
423.175	475.38
423.398	449.38
423.621	431.38
423.843	452.38
424.066	447.38
424.288	438.38
424.511	492.38
424.733	530.38
424.956	593.38
425.178	601.38
425.401	579.38
425.623	594.38
425.846	522.38
426.068	467.38
426.291	482.38
426.513	470.38
426.735	496.38
426.958	520.38
427.18	615.38
427.402	696.38
427.625	778.38
427.847	745.38
428.069	639.38
428.292	557.38
428.514	514.38
428.736	468.38
428.958	468.38
429.181	442.38
429.403	446.38
429.625	475.38
429.847	499.38
430.069	540.38
430.292	538.38
430.514	498.38
430.736	436.38
430.958	444.38
431.18	399.38
431.402	418.38
431.624	403.38
431.846	402.38
432.068	400.38
432.29	391.38
432.512	383.38
432.734	416.38
432.956	421.38
433.178	423.38
433.4	435.38
433.622	423.38
433.844	391.38
434.066	419.38
434.287	394.38
434.509	407.38
434.731	425.38
434.953	424.38
435.175	436.38
435.397	468.38
435.618	498.38
435.84	546.38
436.062	602.38
436.284	649.38
436.505	576.38
436.727	532.38
436.949	469.38
437.17	456.38
437.392	456.38
437.614	457.38
437.835	525.38
438.057	628.38
438.278	685.38
438.5	686.38
438.721	711.38
438.943	690.38
439.165	583.38
439.386	527.38
439.608	510.38
439.829	518.38
440.05	523.38
440.272	607.38
440.493	538.38
440.715	501.38
440.936	471.38
441.158	458.38
441.379	433.38
441.6	475.38
441.822	483.38
442.043	516.38
442.264	599.38
442.486	670.38
442.707	570.38
442.928	514.38
443.149	528.38
443.371	511.38
443.592	579.38
443.813	642.38
444.034	690.38
444.255	587.38
444.476	518.38
444.698	474.38
444.919	469.38
445.14	565.38
445.361	550.38
445.582	511.38
445.803	609.38
446.024	678.38
446.245	687.38
446.466	632.38
446.687	547.38
446.908	503.38
447.129	484.38
447.35	475.38
447.571	473.38
447.792	452.38
448.013	454.38
448.234	487.38
448.455	543.38
448.675	631.38
448.896	734.38
449.117	625.38
449.338	602.38
449.559	668.38
449.779	747.38
450	619.38
450.221	532.38
450.442	502.38
450.662	458.38
450.883	466.38
451.104	486.38
451.324	486.38
451.545	473.38
451.766	447.38
451.986	429.38
452.207	409.38
452.428	395.38
452.648	410.38
452.869	400.38
453.089	429.38
453.31	439.38
453.53	411.38
453.751	414.38
453.971	424.38
454.192	468.38
454.412	444.38
454.633	426.38
454.853	424.38
455.073	428.38
455.294	434.38
455.514	496.38
455.734	475.38
455.955	425.38
456.175	386.38
456.395	379.38
456.616	383.38
456.836	383.38
457.056	360.38
457.276	362.38
457.497	379.38
457.717	362.38
457.937	359.38
458.157	380.38
458.377	386.38
458.598	414.38
458.818	488.38
459.038	568.38
459.258	580.38
459.478	491.38
459.698	428.38
459.918	438.38
460.138	404.38
460.358	399.38
460.578	386.38
460.798	390.38
461.018	392.38
461.238	394.38
461.458	386.38
461.678	397.38
461.898	390.38
462.118	400.38
462.338	415.38
462.558	408.38
462.777	394.38
462.997	387.38
463.217	411.38
463.437	409.38
463.657	406.38
463.876	396.38
464.096	415.38
464.316	398.38
464.536	418.38
464.755	444.38
464.975	451.38
465.195	488.38
465.414	622.38
465.634	523.38
465.854	485.38
466.073	444.38
466.293	437.38
466.512	404.38
466.732	414.38
466.951	413.38
467.171	392.38
467.391	430.38
467.61	430.38
467.829	422.38
468.049	413.38
468.268	383.38
468.488	376.38
468.707	387.38
468.927	382.38
469.146	382.38
469.365	389.38
469.585	392.38
469.804	385.38
470.023	412.38
470.243	392.38
470.462	426.38
470.681	444.38
470.901	422.38
471.12	427.38
471.339	414.38
471.558	407.38
471.777	416.38
471.997	414.38
472.216	386.38
472.435	389.38
472.654	409.38
472.873	413.38
473.092	418.38
473.311	403.38
473.53	386.38
473.749	415.38
473.968	485.38
474.187	548.38
474.406	560.38
474.625	478.38
474.844	444.38
475.063	440.38
475.282	384.38
475.501	388.38
475.72	425.38
475.939	407.38
476.158	419.38
476.377	429.38
476.596	415.38
476.814	421.38
477.033	450.38
477.252	446.38
477.471	411.38
477.69	427.38
477.908	439.38
478.127	431.38
478.346	452.38
478.564	443.38
478.783	452.38
479.002	468.38
479.22	463.38
479.439	477.38
479.658	495.38
479.876	505.38
480.095	491.38
480.313	544.38
480.532	504.38
480.751	503.38
480.969	472.38
481.188	498.38
481.406	523.38
481.624	488.38
481.843	487.38
482.061	484.38
482.28	477.38
482.498	476.38
482.717	462.38
482.935	478.38
483.153	483.38
483.372	478.38
483.59	486.38
483.808	469.38
484.027	470.38
484.245	494.38
484.463	495.38
484.681	481.38
484.9	538.38
485.118	502.38
485.336	486.38
485.554	490.38
485.772	518.38
485.99	487.38
486.209	501.38
486.427	516.38
486.645	542.38
486.863	559.38
487.081	562.38
487.299	538.38
487.517	534.38
487.735	533.38
487.953	506.38
488.171	548.38
488.389	534.38
488.607	536.38
488.825	540.38
489.043	542.38
489.261	519.38
489.479	540.38
489.696	567.38
489.914	533.38
490.132	533.38
490.35	554.38
490.568	555.38
490.786	557.38
491.003	585.38
491.221	587.38
491.439	596.38
491.657	607.38
491.874	613.38
492.092	618.38
492.31	589.38
492.527	622.38
492.745	610.38
492.963	652.38
493.18	611.38
493.398	610.38
493.615	610.38
493.833	602.38
494.05	633.38
494.268	636.38
494.485	613.38
494.703	602.38
494.92	620.38
495.138	627.38
495.355	662.38
495.573	631.38
495.79	613.38
496.008	617.38
496.225	618.38
496.442	652.38
496.66	652.38
496.877	639.38
497.094	634.38
497.312	660.38
497.529	631.38
497.746	655.38
497.963	655.38
498.181	661.38
498.398	680.38
498.615	697.38
498.832	687.38
499.049	686.38
499.267	670.38
499.484	692.38
499.701	703.38
499.918	739.38
500.135	722.38
500.352	729.38
500.569	748.38
500.786	740.38
501.003	744.38
501.22	731.38
501.437	745.38
501.654	735.38
501.871	769.38
502.088	732.38
502.305	708.38
502.522	696.38
502.739	707.38
502.956	665.38
503.172	684.38
503.389	669.38
503.606	685.38
503.823	695.38
504.04	682.38
504.256	662.38
504.473	648.38
504.69	652.38
504.907	626.38
505.123	659.38
505.34	661.38
505.557	632.38
505.773	626.38
505.99	628.38
506.207	646.38
506.423	641.38
506.64	619.38
506.856	599.38
507.073	623.38
507.289	632.38
507.506	611.38
507.722	650.38
507.939	686.38
508.155	666.38
508.372	612.38
508.588	600.38
508.805	606.38
509.021	616.38
509.238	607.38
509.454	647.38
509.67	638.38
509.887	632.38
510.103	621.38
510.319	652.38
510.536	785.38
510.752	1404.38
510.968	1143.38
511.184	683.38
511.401	625.38
511.617	614.38
511.833	593.38
512.049	636.38
512.265	606.38
512.481	582.38
512.698	579.38
512.914	594.38
513.13	600.38
513.346	596.38
513.562	603.38
513.778	601.38
513.994	604.38
514.21	635.38
514.426	673.38
514.642	739.38
514.858	787.38
515.074	846.38
515.29	1042.38
515.506	1634.38
515.721	1292.38
515.937	804.38
516.153	708.38
516.369	696.38
516.585	639.38
516.801	649.38
517.016	602.38
517.232	620.38
517.448	595.38
517.664	605.38
517.879	580.38
518.095	590.38
518.311	602.38
518.527	587.38
518.742	585.38
518.958	592.38
519.173	584.38
519.389	587.38
519.605	608.38
519.82	605.38
520.036	633.38
520.251	681.38
520.467	707.38
520.682	742.38
520.898	714.38
521.113	755.38
521.329	822.38
521.544	944.38
521.76	1280.38
521.975	2182.38
522.19	2113.38
522.406	1108.38
522.621	796.38
522.836	715.38
523.052	638.38
523.267	589.38
523.482	601.38
523.698	580.38
523.913	590.38
524.128	579.38
524.343	544.38
524.559	520.38
524.774	526.38
524.989	520.38
525.204	533.38
525.419	528.38
525.634	531.38
525.849	510.38
526.064	479.38
526.28	477.38
526.495	494.38
526.71	482.38
526.925	490.38
527.14	479.38
527.355	474.38
527.57	481.38
527.785	472.38
527.999	465.38
528.214	451.38
528.429	460.38
528.644	467.38
528.859	472.38
529.074	479.38
529.289	510.38
529.503	594.38
529.718	595.38
529.933	526.38
530.148	505.38
530.363	480.38
530.577	467.38
530.792	462.38
531.007	444.38
531.221	459.38
531.436	456.38
531.651	464.38
531.865	451.38
532.08	445.38
532.295	446.38
532.509	446.38
532.724	444.38
532.938	422.38
533.153	422.38
533.367	424.38
533.582	414.38
533.796	429.38
534.011	426.38
534.225	431.38
534.44	428.38
534.654	423.38
534.868	431.38
535.083	439.38
535.297	434.38
535.511	438.38
535.726	457.38
535.94	445.38
536.154	459.38
536.369	415.38
536.583	422.38
536.797	422.38
537.011	401.38
537.225	418.38
537.44	419.38
537.654	419.38
537.868	429.38
538.082	420.38
538.296	431.38
538.51	432.38
538.724	423.38
538.938	392.38
539.153	401.38
539.367	434.38
539.581	423.38
539.795	435.38
540.009	418.38
540.222	423.38
540.436	430.38
540.65	416.38
540.864	427.38
541.078	439.38
541.292	429.38
541.506	430.38
541.72	438.38
541.934	417.38
542.147	392.38
542.361	409.38
542.575	399.38
542.789	413.38
543.002	399.38
543.216	405.38
543.43	406.38
543.644	430.38
543.857	409.38
544.071	442.38
544.285	422.38
544.498	392.38
544.712	425.38
544.925	394.38
545.139	390.38
545.352	394.38
545.566	402.38
545.779	389.38
545.993	394.38
546.206	392.38
546.42	397.38
546.633	399.38
546.847	397.38
547.06	386.38
547.274	377.38
547.487	376.38
547.7	388.38
547.914	383.38
548.127	374.38
548.34	375.38
548.554	377.38
548.767	367.38
548.98	388.38
549.193	383.38
549.407	378.38
549.62	373.38
549.833	370.38
550.046	374.38
550.259	340.38
550.473	359.38
550.686	376.38
550.899	374.38
551.112	382.38
551.325	346.38
551.538	378.38
551.751	368.38
551.964	380.38
552.177	376.38
552.39	370.38
552.603	354.38
552.816	367.38
553.029	377.38
553.242	378.38
553.455	387.38
553.667	386.38
553.88	400.38
554.093	390.38
554.306	388.38
554.519	386.38
554.732	364.38
554.944	386.38
555.157	378.38
555.37	360.38
555.583	356.38
555.795	381.38
556.008	385.38
556.221	364.38
556.433	356.38
556.646	367.38
556.859	342.38
557.071	346.38
557.284	354.38
557.496	340.38
557.709	333.38
557.921	346.38
558.134	359.38
558.346	351.38
558.559	329.38
558.771	333.38
558.984	340.38
559.196	331.38
559.409	340.38
559.621	357.38
559.833	339.38
560.046	324.38
560.258	323.38
560.47	326.38
560.683	338.38
560.895	338.38
561.107	336.38
561.32	329.38
561.532	361.38
561.744	336.38
561.956	338.38
562.168	318.38
562.381	333.38
562.593	337.38
562.805	357.38
563.017	340.38
563.229	343.38
563.441	322.38
563.653	351.38
563.865	334.38
564.077	323.38
564.289	340.38
564.501	321.38
564.713	342.38
564.925	350.38
565.137	363.38
565.349	368.38
565.561	361.38
565.773	358.38
565.985	352.38
566.197	356.38
566.408	337.38
566.62	372.38
566.832	372.38
567.044	372.38
567.255	379.38
567.467	381.38
567.679	366.38
567.891	351.38
568.102	364.38
568.314	368.38
568.526	365.38
568.737	353.38
568.949	354.38
569.161	328.38
569.372	328.38
569.584	344.38
569.795	343.38
570.007	348.38
570.218	400.38
570.43	400.38
570.641	332.38
570.853	332.38
571.064	332.38
571.276	317.38
571.487	333.38
571.698	319.38
571.91	311.38
572.121	297.38
572.333	314.38
572.544	300.38
572.755	312.38
572.966	298.38
573.178	281.38
573.389	287.38
573.6	295.38
573.811	326.38
574.023	304.38
574.234	278.38
574.445	302.38
574.656	306.38
574.867	303.38
575.078	286.38
575.289	299.38
575.501	296.38
575.712	291.38
575.923	291.38
576.134	279.38
576.345	269.38
576.556	282.38
576.767	259.38
576.978	284.38
577.188	299.38
577.399	309.38
577.61	294.38
577.821	297.38
578.032	294.38
578.243	329.38
578.454	668.38
578.665	452.38
578.875	307.38
579.086	268.38
579.297	294.38
579.508	275.38
579.718	270.38
579.929	274.38
580.14	278.38
580.35	284.38
580.561	291.38
580.772	268.38
580.982	269.38
581.193	266.38
581.403	288.38
581.614	258.38
581.825	276.38
582.035	278.38
582.246	260.38
582.456	279.38
582.667	269.38
582.877	244.38
583.087	264.38
583.298	259.38
583.508	282.38
583.719	279.38
583.929	273.38
584.139	262.38
584.35	268.38
584.56	274.38
584.77	280.38
584.981	279.38
585.191	250.38
585.401	249.38
585.611	263.38
585.821	261.38
586.032	279.38
586.242	260.38
586.452	270.38
586.662	265.38
586.872	260.38
587.082	258.38
587.292	286.38
587.502	270.38
587.713	260.38
587.923	278.38
588.133	237.38
588.343	259.38
588.553	266.38
588.762	278.38
588.972	271.38
589.182	338.38
589.392	340.38
589.602	279.38
589.812	336.38
590.022	302.38
590.232	263.38
590.441	237.38
590.651	249.38
590.861	246.38
591.071	270.38
591.281	245.38
591.49	261.38
591.7	259.38
591.91	262.38
592.119	245.38
592.329	248.38
592.539	237.38
592.748	259.38
592.958	248.38
593.167	268.38
593.377	265.38
593.587	266.38
593.796	247.38
594.006	263.38
594.215	242.38
594.424	255.38
594.634	256.38
594.843	254.38
595.053	251.38
595.262	243.38
595.472	259.38
595.681	249.38
595.89	247.38
596.1	232.38
596.309	238.38
596.518	239.38
596.727	237.38
596.937	250.38
597.146	245.38
597.355	238.38
597.564	258.38
597.774	210.38
597.983	253.38
598.192	238.38
598.401	230.38
598.61	239.38
598.819	229.38
599.028	233.38
599.237	227.38
599.446	234.38
599.655	230.38
599.864	240.38
600.073	229.38
600.282	239.38
600.491	223.38
600.7	218.38
600.909	230.38
601.118	213.38
601.327	221.38
601.536	231.38
601.745	220.38
601.953	201.38
602.162	229.38
602.371	238.38
602.58	220.38
602.789	219.38
602.997	221.38
603.206	218.38
603.415	225.38
603.623	207.38
603.832	216.38
604.041	220.38
604.249	221.38
604.458	217.38
604.666	201.38
604.875	227.38
605.084	225.38
605.292	214.38
605.501	208.38
605.709	210.38
605.918	226.38
606.126	202.38
606.334	215.38
606.543	207.38
606.751	220.38
606.96	198.38
607.168	207.38
607.376	213.38
607.585	211.38
607.793	212.38
608.001	207.38
608.21	214.38
608.418	224.38
608.626	199.38
608.834	234.38
609.043	216.38
609.251	220.38
609.459	215.38
609.667	219.38
609.875	214.38
610.083	219.38
610.291	206.38
610.499	215.38
610.707	220.38
610.916	229.38
611.124	226.38
611.332	204.38
611.54	207.38
611.748	203.38
611.955	220.38
612.163	225.38
612.371	211.38
612.579	214.38
612.787	211.38
612.995	206.38
613.203	204.38
613.411	205.38
613.618	224.38
613.826	218.38
614.034	204.38
614.242	201.38
614.449	204.38
614.657	198.38
614.865	234.38
615.072	214.38
615.28	207.38
615.488	207.38
615.695	205.38
615.903	204.38
616.111	212.38
616.318	201.38
616.526	204.38
616.733	195.38
616.941	215.38
617.148	213.38
617.356	202.38
617.563	211.38
617.771	202.38
617.978	207.38
618.185	208.38
618.393	218.38
618.6	202.38
618.807	205.38
619.015	191.38
619.222	198.38
619.429	201.38
619.637	210.38
619.844	200.38
620.051	216.38
620.258	215.38
620.466	192.38
620.673	210.38
620.88	200.38
621.087	192.38
621.294	205.38
621.501	200.38
621.708	187.38
621.915	204.38
622.122	197.38
622.329	193.38
622.536	197.38
622.743	196.38
622.95	195.38
623.157	206.38
623.364	192.38
623.571	202.38
623.778	195.38
623.985	199.38
624.192	205.38
624.399	188.38
624.606	201.38
624.812	190.38
625.019	195.38
625.226	188.38
625.433	198.38
625.639	201.38
625.846	199.38
626.053	203.38
626.259	205.38
626.466	191.38
626.673	196.38
626.879	202.38
627.086	184.38
627.293	199.38
627.499	183.38
627.706	180.38
627.912	190.38
628.119	193.38
628.325	182.38
628.532	180.38
628.738	180.38
628.945	198.38
629.151	204.38
629.357	183.38
629.564	174.38
629.77	189.38
629.976	200.38
630.183	186.38
630.389	163.38
630.595	164.38
630.802	165.38
631.008	159.38
631.214	170.38
631.42	178.38
631.627	186.38
631.833	181.38
632.039	162.38
632.245	175.38
632.451	184.38
632.657	182.38
632.863	196.38
633.069	182.38
633.275	178.38
633.481	172.38
633.688	180.38
633.893	166.38
634.099	178.38
634.305	179.38
634.511	176.38
634.717	175.38
634.923	175.38
635.129	157.38
635.335	163.38
635.541	167.38
635.747	168.38
635.952	178.38
636.158	184.38
636.364	164.38
636.57	146.38
636.775	172.38
636.981	159.38
637.187	172.38
637.392	159.38
637.598	163.38
637.804	153.38
638.009	150.38
638.215	152.38
638.421	145.38
638.626	156.38
638.832	171.38
639.037	154.38
639.243	168.38
639.448	149.38
639.654	160.38
639.859	158.38
640.065	144.38
640.27	148.38
640.475	172.38
640.681	153.38
640.886	160.38
641.091	151.38
641.297	165.38
641.502	150.38
641.707	140.38
641.913	158.38
642.118	170.38
642.323	163.38
642.528	138.38
642.733	168.38
642.939	157.38
643.144	139.38
643.349	158.38
643.554	145.38
643.759	137.38
643.964	158.38
644.169	169.38
644.374	162.38
644.579	151.38
644.784	159.38
644.989	160.38
645.194	150.38
645.399	153.38
645.604	139.38
645.809	164.38
646.014	131.38
646.219	156.38
646.423	150.38
646.628	151.38
646.833	152.38
647.038	164.38
647.243	153.38
647.447	148.38
647.652	139.38
647.857	167.38
648.062	161.38
648.266	160.38
648.471	160.38
648.676	152.38
648.88	158.38
649.085	164.38
649.289	162.38
649.494	162.38
649.698	168.38
649.903	178.38
650.107	160.38
650.312	174.38
650.516	150.38
650.721	126.38
650.925	146.38
651.13	136.38
651.334	150.38
651.539	142.38
651.743	132.38
651.947	141.38
652.152	136.38
652.356	130.38
652.56	146.38
652.764	135.38
652.969	134.38
653.173	132.38
653.377	126.38
653.581	123.38
653.785	124.38
653.99	139.38
654.194	132.38
654.398	119.38
654.602	119.38
654.806	130.38
655.01	130.38
655.214	134.38
655.418	121.38
655.622	134.38
655.826	134.38
656.03	131.38
656.234	124.38
656.438	120.38
656.642	106.38
656.846	122.38
657.049	112.38
657.253	120.38
657.457	121.38
657.661	120.38
657.865	98.38
658.068	118.38
658.272	107.38
658.476	112.38
658.68	104.38
658.883	95.38
659.087	94.38
659.291	108.38
659.494	107.38
659.698	64.38
659.901	86.38
660.105	97.38
660.309	105.38
660.512	85.38
660.716	96.38
660.919	106.38
661.123	78.38
661.326	100.38
661.53	90.38
661.733	101.38
661.936	85.38
662.14	89.38
662.343	88.38
662.546	90.38
662.75	93.38
662.953	91.38
663.156	89.38
663.36	91.38
663.563	96.38
663.766	82.38
663.969	88.38
664.173	81.38
664.376	81.38
664.579	80.38
664.782	73.38
664.985	79.38
665.188	86.38
665.391	91.38
665.594	92.38
665.797	92.38
666	84.38
666.203	89.38
666.406	95.38
666.609	78.38
666.812	61.38
667.015	89.38
667.218	86.38
667.421	96.38
667.624	94.38
667.827	85.38
668.03	92.38
668.232	102.38
668.435	95.38
668.638	87.38
668.841	82.38
669.043	71.38
669.246	92.38
669.449	86.38
669.651	103.38
669.854	82.38
670.057	83.38
670.259	86.38
670.462	80.38
670.665	88.38
670.867	82.38
671.07	84.38
671.272	84.38
671.475	83.38
671.677	87.38
671.88	80.38
672.082	71.38
672.284	93.38
672.487	86.38
672.689	90.38
672.892	86.38
