Data from 1987.PennyLincolnUp.Lamp.En5.5.200Scan.071819.P2_HRD10591_17-14-24-971.txt Node
Date: Thu Jul 18 17:14:24 EDT 2019
User: cochatt
Spectrometer: HR+D1059
Trigger mode: 1
Integration Time (sec): 1.000000E-1
Scans to average: 1
Electric dark correction enabled: true
Nonlinearity correction enabled: false
Boxcar width: 0
XAxis mode: Wavelengths
Number of Pixels in Spectrum: 2048
>>>>>Begin Spectral Data<<<<<
223.165	-10.12
223.4	-10.12
223.635	-10.12
223.869	-11.12
224.104	-23.12
224.338	-11.12
224.573	-16.12
224.808	-9.12
225.042	-8.12
225.277	-2.12
225.511	-21.12
225.746	8.88
225.98	17.88
226.215	3.88
226.449	9.88
226.683	18.88
226.918	28.88
227.152	23.88
227.387	26.88
227.621	36.88
227.856	42.88
228.09	51.88
228.324	55.88
228.559	58.88
228.793	69.88
229.027	90.88
229.262	108.88
229.496	128.88
229.73	138.88
229.964	168.88
230.199	122.88
230.433	113.88
230.667	115.88
230.901	101.88
231.136	111.88
231.37	96.88
231.604	111.88
231.838	96.88
232.072	106.88
232.306	123.88
232.541	118.88
232.775	118.88
233.009	100.88
233.243	108.88
233.477	92.88
233.711	98.88
233.945	114.88
234.179	109.88
234.413	112.88
234.647	111.88
234.881	116.88
235.115	121.88
235.349	108.88
235.583	118.88
235.817	119.88
236.051	123.88
236.285	120.88
236.519	126.88
236.753	120.88
236.987	139.88
237.221	193.88
237.455	216.88
237.689	195.88
237.922	139.88
238.156	131.88
238.39	117.88
238.624	134.88
238.858	117.88
239.091	118.88
239.325	102.88
239.559	118.88
239.793	118.88
240.027	125.88
240.26	130.88
240.494	148.88
240.728	156.88
240.961	137.88
241.195	131.88
241.429	137.88
241.662	137.88
241.896	119.88
242.13	123.88
242.363	126.88
242.597	124.88
242.83	125.88
243.064	119.88
243.298	117.88
243.531	128.88
243.765	120.88
243.998	127.88
244.232	129.88
244.465	122.88
244.699	141.88
244.932	135.88
245.166	141.88
245.399	131.88
245.633	137.88
245.866	131.88
246.099	134.88
246.333	133.88
246.566	136.88
246.8	138.88
247.033	139.88
247.266	140.88
247.5	152.88
247.733	151.88
247.966	155.88
248.2	161.88
248.433	149.88
248.666	181.88
248.899	164.88
249.133	181.88
249.366	199.88
249.599	194.88
249.832	170.88
250.066	156.88
250.299	172.88
250.532	167.88
250.765	173.88
250.998	196.88
251.231	216.88
251.465	203.88
251.698	193.88
251.931	188.88
252.164	178.88
252.397	188.88
252.63	191.88
252.863	203.88
253.096	195.88
253.329	221.88
253.562	204.88
253.795	204.88
254.028	212.88
254.261	190.88
254.494	216.88
254.727	233.88
254.96	263.88
255.193	263.88
255.426	235.88
255.659	221.88
255.892	202.88
256.124	209.88
256.357	192.88
256.59	191.88
256.823	184.88
257.056	171.88
257.289	179.88
257.521	186.88
257.754	194.88
257.987	181.88
258.22	183.88
258.452	199.88
258.685	180.88
258.918	199.88
259.151	200.88
259.383	203.88
259.616	176.88
259.849	192.88
260.081	207.88
260.314	200.88
260.547	212.88
260.779	236.88
261.012	223.88
261.244	211.88
261.477	196.88
261.71	210.88
261.942	215.88
262.175	202.88
262.407	201.88
262.64	193.88
262.872	187.88
263.105	195.88
263.337	193.88
263.57	184.88
263.802	187.88
264.035	182.88
264.267	186.88
264.499	178.88
264.732	178.88
264.964	178.88
265.197	197.88
265.429	196.88
265.661	198.88
265.894	201.88
266.126	180.88
266.358	190.88
266.591	189.88
266.823	186.88
267.055	195.88
267.287	199.88
267.52	191.88
267.752	200.88
267.984	196.88
268.216	197.88
268.448	202.88
268.681	187.88
268.913	192.88
269.145	211.88
269.377	245.88
269.609	234.88
269.841	231.88
270.073	224.88
270.306	257.88
270.538	263.88
270.77	263.88
271.002	267.88
271.234	261.88
271.466	245.88
271.698	267.88
271.93	261.88
272.162	285.88
272.394	275.88
272.626	277.88
272.858	256.88
273.09	248.88
273.322	244.88
273.553	236.88
273.785	223.88
274.017	224.88
274.249	227.88
274.481	219.88
274.713	216.88
274.945	232.88
275.176	210.88
275.408	210.88
275.64	213.88
275.872	234.88
276.104	207.88
276.335	213.88
276.567	214.88
276.799	236.88
277.031	263.88
277.262	267.88
277.494	269.88
277.726	256.88
277.957	245.88
278.189	244.88
278.421	234.88
278.652	233.88
278.884	232.88
279.115	223.88
279.347	219.88
279.579	226.88
279.81	209.88
280.042	225.88
280.273	230.88
280.505	202.88
280.736	198.88
280.968	229.88
281.199	197.88
281.431	208.88
281.662	202.88
281.894	204.88
282.125	218.88
282.356	224.88
282.588	245.88
282.819	270.88
283.051	230.88
283.282	216.88
283.513	200.88
283.745	204.88
283.976	210.88
284.207	232.88
284.439	225.88
284.67	231.88
284.901	196.88
285.132	204.88
285.364	212.88
285.595	220.88
285.826	199.88
286.057	217.88
286.288	216.88
286.52	226.88
286.751	216.88
286.982	214.88
287.213	230.88
287.444	227.88
287.675	211.88
287.906	232.88
288.138	225.88
288.369	252.88
288.6	241.88
288.831	240.88
289.062	237.88
289.293	238.88
289.524	223.88
289.755	224.88
289.986	208.88
290.217	226.88
290.448	216.88
290.679	212.88
290.91	230.88
291.141	209.88
291.371	198.88
291.602	219.88
291.833	220.88
292.064	218.88
292.295	213.88
292.526	206.88
292.757	216.88
292.987	203.88
293.218	223.88
293.449	228.88
293.68	225.88
293.91	215.88
294.141	227.88
294.372	225.88
294.603	210.88
294.833	205.88
295.064	233.88
295.295	235.88
295.525	223.88
295.756	231.88
295.987	227.88
296.217	267.88
296.448	277.88
296.679	244.88
296.909	231.88
297.14	211.88
297.37	219.88
297.601	233.88
297.831	219.88
298.062	217.88
298.292	225.88
298.523	227.88
298.753	239.88
298.984	259.88
299.214	225.88
299.445	246.88
299.675	234.88
299.905	248.88
300.136	251.88
300.366	221.88
300.597	228.88
300.827	257.88
301.057	237.88
301.288	245.88
301.518	265.88
301.748	235.88
301.979	241.88
302.209	255.88
302.439	255.88
302.669	253.88
302.9	248.88
303.13	255.88
303.36	247.88
303.59	249.88
303.82	256.88
304.051	258.88
304.281	228.88
304.511	243.88
304.741	255.88
304.971	245.88
305.201	246.88
305.431	234.88
305.661	247.88
305.891	243.88
306.121	255.88
306.352	260.88
306.582	254.88
306.812	249.88
307.042	251.88
307.272	256.88
307.502	257.88
307.731	232.88
307.961	261.88
308.191	249.88
308.421	257.88
308.651	264.88
308.881	270.88
309.111	267.88
309.341	279.88
309.571	274.88
309.8	281.88
310.03	298.88
310.26	300.88
310.49	300.88
310.72	334.88
310.949	341.88
311.179	343.88
311.409	316.88
311.639	304.88
311.868	304.88
312.098	327.88
312.328	325.88
312.557	333.88
312.787	358.88
313.017	354.88
313.246	315.88
313.476	296.88
313.706	303.88
313.935	311.88
314.165	315.88
314.394	335.88
314.624	327.88
314.853	314.88
315.083	314.88
315.312	298.88
315.542	299.88
315.771	289.88
316.001	294.88
316.23	297.88
316.46	306.88
316.689	304.88
316.919	291.88
317.148	312.88
317.377	305.88
317.607	315.88
317.836	308.88
318.065	299.88
318.295	296.88
318.524	303.88
318.753	291.88
318.983	287.88
319.212	314.88
319.441	304.88
319.67	300.88
319.9	292.88
320.129	303.88
320.358	293.88
320.587	310.88
320.816	322.88
321.046	331.88
321.275	341.88
321.504	324.88
321.733	317.88
321.962	353.88
322.191	373.88
322.42	373.88
322.649	378.88
322.878	405.88
323.108	404.88
323.337	430.88
323.566	473.88
323.795	521.88
324.024	553.88
324.253	697.88
324.482	1037.88
324.71	1528.88
324.939	2159.88
325.168	1926.88
325.397	1050.88
325.626	687.88
325.855	531.88
326.084	492.88
326.313	469.88
326.542	465.88
326.77	520.88
326.999	629.88
327.228	868.88
327.457	1366.88
327.686	1632.88
327.914	1163.88
328.143	752.88
328.372	625.88
328.6	589.88
328.829	509.88
329.058	577.88
329.287	559.88
329.515	532.88
329.744	464.88
329.972	448.88
330.201	445.88
330.43	482.88
330.658	520.88
330.887	590.88
331.115	563.88
331.344	469.88
331.572	422.88
331.801	441.88
332.03	441.88
332.258	393.88
332.486	376.88
332.715	356.88
332.943	360.88
333.172	350.88
333.4	371.88
333.629	349.88
333.857	359.88
334.085	374.88
334.314	361.88
334.542	371.88
334.771	381.88
334.999	347.88
335.227	355.88
335.455	337.88
335.684	351.88
335.912	348.88
336.14	323.88
336.369	342.88
336.597	364.88
336.825	346.88
337.053	346.88
337.281	343.88
337.51	344.88
337.738	353.88
337.966	321.88
338.194	361.88
338.422	369.88
338.65	337.88
338.878	329.88
339.106	327.88
339.334	315.88
339.562	317.88
339.79	334.88
340.018	324.88
340.246	350.88
340.474	344.88
340.702	352.88
340.93	348.88
341.158	345.88
341.386	330.88
341.614	346.88
341.842	354.88
342.07	328.88
342.298	340.88
342.526	304.88
342.754	328.88
342.981	312.88
343.209	329.88
343.437	314.88
343.665	318.88
343.893	344.88
344.12	321.88
344.348	329.88
344.576	329.88
344.804	349.88
345.031	356.88
345.259	378.88
345.487	372.88
345.714	351.88
345.942	355.88
346.17	339.88
346.397	337.88
346.625	312.88
346.853	345.88
347.08	336.88
347.308	341.88
347.535	345.88
347.763	357.88
347.99	355.88
348.218	358.88
348.445	372.88
348.673	367.88
348.9	338.88
349.128	323.88
349.355	323.88
349.583	311.88
349.81	306.88
350.037	311.88
350.265	328.88
350.492	305.88
350.72	330.88
350.947	326.88
351.174	349.88
351.402	358.88
351.629	355.88
351.856	358.88
352.083	345.88
352.311	372.88
352.538	369.88
352.765	396.88
352.992	346.88
353.22	353.88
353.447	336.88
353.674	322.88
353.901	327.88
354.128	314.88
354.355	313.88
354.583	320.88
354.81	297.88
355.037	307.88
355.264	311.88
355.491	307.88
355.718	297.88
355.945	304.88
356.172	277.88
356.399	294.88
356.626	295.88
356.853	293.88
357.08	310.88
357.307	295.88
357.534	290.88
357.761	291.88
357.988	299.88
358.215	308.88
358.441	286.88
358.668	318.88
358.895	326.88
359.122	307.88
359.349	332.88
359.576	325.88
359.802	348.88
360.029	415.88
360.256	423.88
360.483	389.88
360.709	355.88
360.936	359.88
361.163	339.88
361.39	333.88
361.616	352.88
361.843	347.88
362.07	349.88
362.296	338.88
362.523	320.88
362.749	333.88
362.976	320.88
363.203	340.88
363.429	315.88
363.656	333.88
363.882	315.88
364.109	316.88
364.335	319.88
364.562	325.88
364.788	311.88
365.015	316.88
365.241	312.88
365.468	328.88
365.694	320.88
365.92	340.88
366.147	317.88
366.373	318.88
366.599	319.88
366.826	324.88
367.052	299.88
367.278	298.88
367.505	307.88
367.731	323.88
367.957	327.88
368.184	342.88
368.41	335.88
368.636	334.88
368.862	343.88
369.089	318.88
369.315	290.88
369.541	306.88
369.767	322.88
369.993	316.88
370.219	300.88
370.445	312.88
370.672	290.88
370.898	305.88
371.124	294.88
371.35	315.88
371.576	304.88
371.802	312.88
372.028	298.88
372.254	297.88
372.48	297.88
372.706	293.88
372.932	293.88
373.158	312.88
373.384	315.88
373.61	292.88
373.835	316.88
374.061	310.88
374.287	317.88
374.513	289.88
374.739	301.88
374.965	303.88
375.191	296.88
375.416	300.88
375.642	323.88
375.868	303.88
376.094	316.88
376.319	311.88
376.545	291.88
376.771	293.88
376.997	300.88
377.222	307.88
377.448	314.88
377.674	300.88
377.899	317.88
378.125	305.88
378.35	301.88
378.576	308.88
378.802	305.88
379.027	305.88
379.253	308.88
379.478	323.88
379.704	310.88
379.929	288.88
380.155	308.88
380.38	311.88
380.606	311.88
380.831	336.88
381.057	320.88
381.282	320.88
381.507	313.88
381.733	299.88
381.958	314.88
382.184	332.88
382.409	310.88
382.634	328.88
382.86	305.88
383.085	317.88
383.31	314.88
383.535	322.88
383.761	309.88
383.986	320.88
384.211	316.88
384.436	321.88
384.662	324.88
384.887	332.88
385.112	308.88
385.337	327.88
385.562	312.88
385.787	347.88
386.013	349.88
386.238	325.88
386.463	338.88
386.688	341.88
386.913	328.88
387.138	314.88
387.363	325.88
387.588	338.88
387.813	328.88
388.038	337.88
388.263	331.88
388.488	317.88
388.713	316.88
388.938	338.88
389.163	333.88
389.387	331.88
389.612	325.88
389.837	314.88
390.062	327.88
390.287	316.88
390.512	325.88
390.736	330.88
390.961	316.88
391.186	325.88
391.411	317.88
391.636	328.88
391.86	332.88
392.085	319.88
392.31	316.88
392.534	315.88
392.759	314.88
392.984	321.88
393.208	337.88
393.433	349.88
393.658	358.88
393.882	315.88
394.107	328.88
394.331	322.88
394.556	311.88
394.78	324.88
395.005	325.88
395.229	337.88
395.454	337.88
395.678	343.88
395.903	347.88
396.127	358.88
396.352	357.88
396.576	362.88
396.801	345.88
397.025	361.88
397.249	330.88
397.474	345.88
397.698	364.88
397.922	356.88
398.147	356.88
398.371	376.88
398.595	359.88
398.82	377.88
399.044	353.88
399.268	374.88
399.492	397.88
399.717	400.88
399.941	409.88
400.165	443.88
400.389	484.88
400.613	425.88
400.837	394.88
401.062	388.88
401.286	369.88
401.51	370.88
401.734	346.88
401.958	372.88
402.182	391.88
402.406	385.88
402.63	425.88
402.854	406.88
403.078	365.88
403.302	377.88
403.526	386.88
403.75	377.88
403.974	381.88
404.198	384.88
404.422	391.88
404.645	397.88
404.869	395.88
405.093	400.88
405.317	416.88
405.541	443.88
405.765	416.88
405.988	428.88
406.212	409.88
406.436	458.88
406.66	452.88
406.883	431.88
407.107	445.88
407.331	472.88
407.555	522.88
407.778	543.88
408.002	498.88
408.226	461.88
408.449	425.88
408.673	460.88
408.896	466.88
409.12	499.88
409.344	455.88
409.567	431.88
409.791	427.88
410.014	405.88
410.238	395.88
410.461	377.88
410.685	407.88
410.908	409.88
411.132	459.88
411.355	490.88
411.578	460.88
411.802	407.88
412.025	396.88
412.249	391.88
412.472	397.88
412.695	409.88
412.919	420.88
413.142	387.88
413.365	375.88
413.589	396.88
413.812	380.88
414.035	375.88
414.258	372.88
414.482	352.88
414.705	379.88
414.928	357.88
415.151	367.88
415.374	389.88
415.597	378.88
415.821	359.88
416.044	357.88
416.267	396.88
416.49	378.88
416.713	369.88
416.936	379.88
417.159	367.88
417.382	383.88
417.605	398.88
417.828	379.88
418.051	409.88
418.274	383.88
418.497	397.88
418.72	379.88
418.943	379.88
419.166	391.88
419.389	413.88
419.611	401.88
419.834	393.88
420.057	390.88
420.28	412.88
420.503	387.88
420.726	387.88
420.948	405.88
421.171	467.88
421.394	493.88
421.617	453.88
421.839	404.88
422.062	417.88
422.285	405.88
422.507	453.88
422.73	545.88
422.953	538.88
423.175	461.88
423.398	459.88
423.621	427.88
423.843	450.88
424.066	470.88
424.288	447.88
424.511	475.88
424.733	526.88
424.956	587.88
425.178	592.88
425.401	591.88
425.623	572.88
425.846	507.88
426.068	469.88
426.291	474.88
426.513	458.88
426.735	486.88
426.958	505.88
427.18	590.88
427.402	687.88
427.625	775.88
427.847	727.88
428.069	616.88
428.292	542.88
428.514	492.88
428.736	464.88
428.958	452.88
429.181	433.88
429.403	431.88
429.625	444.88
429.847	464.88
430.069	548.88
430.292	526.88
430.514	468.88
430.736	443.88
430.958	423.88
431.18	379.88
431.402	391.88
431.624	398.88
431.846	395.88
432.068	405.88
432.29	387.88
432.512	404.88
432.734	419.88
432.956	408.88
433.178	413.88
433.4	397.88
433.622	390.88
433.844	404.88
434.066	405.88
434.287	409.88
434.509	414.88
434.731	415.88
434.953	439.88
435.175	425.88
435.397	452.88
435.618	483.88
435.84	524.88
436.062	609.88
436.284	653.88
436.505	554.88
436.727	501.88
436.949	470.88
437.17	471.88
437.392	441.88
437.614	471.88
437.835	496.88
438.057	600.88
438.278	687.88
438.5	665.88
438.721	715.88
438.943	683.88
439.165	595.88
439.386	532.88
439.608	528.88
439.829	503.88
440.05	518.88
440.272	564.88
440.493	515.88
440.715	496.88
440.936	476.88
441.158	439.88
441.379	446.88
441.6	470.88
441.822	476.88
442.043	522.88
442.264	591.88
442.486	614.88
442.707	540.88
442.928	502.88
443.149	519.88
443.371	533.88
443.592	563.88
443.813	632.88
444.034	687.88
444.255	584.88
444.476	497.88
444.698	492.88
444.919	463.88
445.14	575.88
445.361	531.88
445.582	521.88
445.803	590.88
446.024	663.88
446.245	663.88
446.466	611.88
446.687	535.88
446.908	476.88
447.129	470.88
447.35	453.88
447.571	459.88
447.792	446.88
448.013	460.88
448.234	479.88
448.455	519.88
448.675	627.88
448.896	695.88
449.117	608.88
449.338	570.88
449.559	642.88
449.779	728.88
450	615.88
450.221	522.88
450.442	466.88
450.662	458.88
450.883	445.88
451.104	487.88
451.324	458.88
451.545	436.88
451.766	421.88
451.986	412.88
452.207	409.88
452.428	393.88
452.648	388.88
452.869	401.88
453.089	427.88
453.31	426.88
453.53	413.88
453.751	402.88
453.971	395.88
454.192	439.88
454.412	435.88
454.633	419.88
454.853	409.88
455.073	383.88
455.294	411.88
455.514	489.88
455.734	471.88
455.955	404.88
456.175	369.88
456.395	373.88
456.616	360.88
456.836	364.88
457.056	369.88
457.276	336.88
457.497	367.88
457.717	369.88
457.937	359.88
458.157	391.88
458.377	378.88
458.598	407.88
458.818	507.88
459.038	557.88
459.258	574.88
459.478	470.88
459.698	404.88
459.918	405.88
460.138	393.88
460.358	393.88
460.578	388.88
460.798	395.88
461.018	410.88
461.238	394.88
461.458	365.88
461.678	379.88
461.898	392.88
462.118	376.88
462.338	426.88
462.558	407.88
462.777	399.88
462.997	406.88
463.217	392.88
463.437	395.88
463.657	401.88
463.876	391.88
464.096	388.88
464.316	415.88
464.536	403.88
464.755	425.88
464.975	435.88
465.195	503.88
465.414	597.88
465.634	524.88
465.854	447.88
466.073	434.88
466.293	406.88
466.512	398.88
466.732	389.88
466.951	391.88
467.171	392.88
467.391	412.88
467.61	418.88
467.829	409.88
468.049	424.88
468.268	407.88
468.488	377.88
468.707	386.88
468.927	373.88
469.146	384.88
469.365	388.88
469.585	383.88
469.804	392.88
470.023	408.88
470.243	406.88
470.462	410.88
470.681	417.88
470.901	425.88
471.12	402.88
471.339	379.88
471.558	412.88
471.777	406.88
471.997	392.88
472.216	401.88
472.435	397.88
472.654	396.88
472.873	390.88
473.092	383.88
473.311	398.88
473.53	415.88
473.749	407.88
473.968	440.88
474.187	528.88
474.406	556.88
474.625	461.88
474.844	410.88
475.063	407.88
475.282	393.88
475.501	398.88
475.72	417.88
475.939	395.88
476.158	419.88
476.377	423.88
476.596	399.88
476.814	434.88
477.033	428.88
477.252	434.88
477.471	431.88
477.69	424.88
477.908	431.88
478.127	430.88
478.346	420.88
478.564	434.88
478.783	441.88
479.002	452.88
479.22	458.88
479.439	460.88
479.658	474.88
479.876	482.88
480.095	511.88
480.313	511.88
480.532	488.88
480.751	458.88
480.969	486.88
481.188	485.88
481.406	511.88
481.624	497.88
481.843	477.88
482.061	467.88
482.28	467.88
482.498	485.88
482.717	460.88
482.935	471.88
483.153	479.88
483.372	489.88
483.59	461.88
483.808	480.88
484.027	476.88
484.245	465.88
484.463	502.88
484.681	481.88
484.9	480.88
485.118	498.88
485.336	464.88
485.554	497.88
485.772	499.88
485.99	493.88
486.209	488.88
486.427	485.88
486.645	496.88
486.863	537.88
487.081	551.88
487.299	534.88
487.517	493.88
487.735	499.88
487.953	502.88
488.171	517.88
488.389	520.88
488.607	511.88
488.825	538.88
489.043	537.88
489.261	534.88
489.479	535.88
489.696	544.88
489.914	519.88
490.132	512.88
490.35	545.88
490.568	540.88
490.786	559.88
491.003	567.88
491.221	568.88
491.439	561.88
491.657	587.88
491.874	594.88
492.092	610.88
492.31	596.88
492.527	615.88
492.745	579.88
492.963	635.88
493.18	612.88
493.398	607.88
493.615	592.88
493.833	592.88
494.05	603.88
494.268	608.88
494.485	617.88
494.703	615.88
494.92	632.88
495.138	621.88
495.355	643.88
495.573	625.88
495.79	608.88
496.008	646.88
496.225	619.88
496.442	639.88
496.66	614.88
496.877	627.88
497.094	632.88
497.312	636.88
497.529	639.88
497.746	629.88
497.963	648.88
498.181	661.88
498.398	680.88
498.615	689.88
498.832	666.88
499.049	667.88
499.267	673.88
499.484	684.88
499.701	689.88
499.918	725.88
500.135	734.88
500.352	734.88
500.569	739.88
500.786	742.88
501.003	723.88
501.22	719.88
501.437	751.88
501.654	748.88
501.871	741.88
502.088	732.88
502.305	697.88
502.522	703.88
502.739	678.88
502.956	676.88
503.172	690.88
503.389	634.88
503.606	672.88
503.823	673.88
504.04	674.88
504.256	627.88
504.473	647.88
504.69	611.88
504.907	657.88
505.123	631.88
505.34	623.88
505.557	629.88
505.773	615.88
505.99	589.88
506.207	624.88
506.423	612.88
506.64	629.88
506.856	581.88
507.073	619.88
507.289	627.88
507.506	611.88
507.722	660.88
507.939	643.88
508.155	641.88
508.372	614.88
508.588	606.88
508.805	593.88
509.021	612.88
509.238	618.88
509.454	618.88
509.67	605.88
509.887	619.88
510.103	623.88
510.319	592.88
510.536	753.88
510.752	1346.88
510.968	1109.88
511.184	658.88
511.401	635.88
511.617	582.88
511.833	601.88
512.049	568.88
512.265	593.88
512.481	591.88
512.698	572.88
512.914	567.88
513.13	589.88
513.346	565.88
513.562	597.88
513.778	608.88
513.994	609.88
514.21	621.88
514.426	669.88
514.642	715.88
514.858	760.88
515.074	835.88
515.29	996.88
515.506	1553.88
515.721	1237.88
515.937	793.88
516.153	700.88
516.369	658.88
516.585	612.88
516.801	610.88
517.016	602.88
517.232	577.88
517.448	595.88
517.664	599.88
517.879	566.88
518.095	584.88
518.311	577.88
518.527	582.88
518.742	567.88
518.958	564.88
519.173	588.88
519.389	588.88
519.605	588.88
519.82	610.88
520.036	600.88
520.251	656.88
520.467	689.88
520.682	665.88
520.898	704.88
521.113	737.88
521.329	791.88
521.544	936.88
521.76	1224.88
521.975	2058.88
522.19	2067.88
522.406	1073.88
522.621	789.88
522.836	680.88
523.052	636.88
523.267	593.88
523.482	583.88
523.698	578.88
523.913	551.88
524.128	557.88
524.343	536.88
524.559	503.88
524.774	512.88
524.989	527.88
525.204	537.88
525.419	520.88
525.634	499.88
525.849	498.88
526.064	462.88
526.28	508.88
526.495	490.88
526.71	483.88
526.925	474.88
527.14	463.88
527.355	457.88
527.57	453.88
527.785	455.88
527.999	443.88
528.214	466.88
528.429	439.88
528.644	458.88
528.859	443.88
529.074	481.88
529.289	475.88
529.503	602.88
529.718	603.88
529.933	511.88
530.148	498.88
530.363	503.88
530.577	495.88
530.792	471.88
531.007	456.88
531.221	447.88
531.436	436.88
531.651	435.88
531.865	438.88
532.08	437.88
532.295	457.88
532.509	415.88
532.724	428.88
532.938	448.88
533.153	444.88
533.367	411.88
533.582	424.88
533.796	420.88
534.011	422.88
534.225	429.88
534.44	411.88
534.654	408.88
534.868	420.88
535.083	392.88
535.297	420.88
535.511	434.88
535.726	435.88
535.94	431.88
536.154	415.88
536.369	433.88
536.583	435.88
536.797	422.88
537.011	423.88
537.225	407.88
537.44	412.88
537.654	430.88
537.868	441.88
538.082	426.88
538.296	426.88
538.51	428.88
538.724	403.88
538.938	402.88
539.153	416.88
539.367	449.88
539.581	443.88
539.795	411.88
540.009	413.88
540.222	402.88
540.436	442.88
540.65	411.88
540.864	410.88
541.078	434.88
541.292	434.88
541.506	411.88
541.72	405.88
541.934	395.88
542.147	418.88
542.361	397.88
542.575	400.88
542.789	409.88
543.002	412.88
543.216	409.88
543.43	411.88
543.644	424.88
543.857	412.88
544.071	407.88
544.285	403.88
544.498	378.88
544.712	404.88
544.925	386.88
545.139	406.88
545.352	394.88
545.566	400.88
545.779	373.88
545.993	378.88
546.206	375.88
546.42	382.88
546.633	401.88
546.847	386.88
547.06	379.88
547.274	374.88
547.487	380.88
547.7	364.88
547.914	380.88
548.127	375.88
548.34	377.88
548.554	359.88
548.767	389.88
548.98	393.88
549.193	357.88
549.407	377.88
549.62	391.88
549.833	386.88
550.046	376.88
550.259	379.88
550.473	367.88
550.686	364.88
550.899	360.88
551.112	353.88
551.325	367.88
551.538	363.88
551.751	366.88
551.964	369.88
552.177	363.88
552.39	377.88
552.603	397.88
552.816	368.88
553.029	360.88
553.242	374.88
553.455	373.88
553.667	386.88
553.88	364.88
554.093	393.88
554.306	369.88
554.519	380.88
554.732	377.88
554.944	375.88
555.157	376.88
555.37	378.88
555.583	349.88
555.795	353.88
556.008	354.88
556.221	339.88
556.433	369.88
556.646	347.88
556.859	365.88
557.071	355.88
557.284	339.88
557.496	341.88
557.709	338.88
557.921	342.88
558.134	337.88
558.346	347.88
558.559	345.88
558.771	333.88
558.984	348.88
559.196	320.88
559.409	330.88
559.621	331.88
559.833	325.88
560.046	317.88
560.258	319.88
560.47	346.88
560.683	352.88
560.895	342.88
561.107	330.88
561.32	333.88
561.532	322.88
561.744	336.88
561.956	343.88
562.168	327.88
562.381	336.88
562.593	327.88
562.805	360.88
563.017	343.88
563.229	344.88
563.441	336.88
563.653	332.88
563.865	346.88
564.077	317.88
564.289	316.88
564.501	345.88
564.713	359.88
564.925	335.88
565.137	368.88
565.349	369.88
565.561	338.88
565.773	350.88
565.985	356.88
566.197	336.88
566.408	354.88
566.62	360.88
566.832	382.88
567.044	364.88
567.255	371.88
567.467	360.88
567.679	349.88
567.891	368.88
568.102	369.88
568.314	365.88
568.526	360.88
568.737	352.88
568.949	371.88
569.161	346.88
569.372	356.88
569.584	341.88
569.795	338.88
570.007	361.88
570.218	398.88
570.43	387.88
570.641	328.88
570.853	313.88
571.064	314.88
571.276	343.88
571.487	318.88
571.698	305.88
571.91	317.88
572.121	301.88
572.333	312.88
572.544	319.88
572.755	307.88
572.966	307.88
573.178	280.88
573.389	303.88
573.6	302.88
573.811	290.88
574.023	304.88
574.234	291.88
574.445	279.88
574.656	291.88
574.867	294.88
575.078	298.88
575.289	291.88
575.501	299.88
575.712	284.88
575.923	291.88
576.134	309.88
576.345	296.88
576.556	293.88
576.767	273.88
576.978	282.88
577.188	284.88
577.399	276.88
577.61	279.88
577.821	294.88
578.032	293.88
578.243	357.88
578.454	631.88
578.665	433.88
578.875	308.88
579.086	292.88
579.297	283.88
579.508	277.88
579.718	259.88
579.929	279.88
580.14	296.88
580.35	270.88
580.561	281.88
580.772	267.88
580.982	266.88
581.193	266.88
581.403	257.88
581.614	286.88
581.825	248.88
582.035	282.88
582.246	277.88
582.456	285.88
582.667	266.88
582.877	257.88
583.087	246.88
583.298	242.88
583.508	261.88
583.719	277.88
583.929	264.88
584.139	269.88
584.35	266.88
584.56	280.88
584.77	272.88
584.981	285.88
585.191	247.88
585.401	274.88
585.611	263.88
585.821	258.88
586.032	267.88
586.242	248.88
586.452	251.88
586.662	278.88
586.872	264.88
587.082	261.88
587.292	268.88
587.502	255.88
587.713	249.88
587.923	263.88
588.133	260.88
588.343	259.88
588.553	276.88
588.762	252.88
588.972	261.88
589.182	370.88
589.392	361.88
589.602	293.88
589.812	349.88
590.022	301.88
590.232	266.88
590.441	255.88
590.651	269.88
590.861	253.88
591.071	255.88
591.281	259.88
591.49	253.88
591.7	246.88
591.91	258.88
592.119	249.88
592.329	259.88
592.539	266.88
592.748	271.88
592.958	267.88
593.167	255.88
593.377	258.88
593.587	263.88
593.796	261.88
594.006	255.88
594.215	253.88
594.424	267.88
594.634	252.88
594.843	250.88
595.053	240.88
595.262	229.88
595.472	243.88
595.681	250.88
595.89	237.88
596.1	253.88
596.309	242.88
596.518	245.88
596.727	259.88
596.937	240.88
597.146	251.88
597.355	242.88
597.564	235.88
597.774	229.88
597.983	244.88
598.192	220.88
598.401	224.88
598.61	235.88
598.819	225.88
599.028	237.88
599.237	246.88
599.446	235.88
599.655	224.88
599.864	225.88
600.073	232.88
600.282	229.88
600.491	222.88
600.7	224.88
600.909	235.88
601.118	217.88
601.327	228.88
601.536	233.88
601.745	219.88
601.953	211.88
602.162	231.88
602.371	208.88
602.58	217.88
602.789	224.88
602.997	226.88
603.206	220.88
603.415	229.88
603.623	220.88
603.832	212.88
604.041	217.88
604.249	222.88
604.458	214.88
604.666	209.88
604.875	240.88
605.084	212.88
605.292	214.88
605.501	229.88
605.709	221.88
605.918	226.88
606.126	213.88
606.334	230.88
606.543	211.88
606.751	235.88
606.96	203.88
607.168	215.88
607.376	221.88
607.585	224.88
607.793	198.88
608.001	195.88
608.21	200.88
608.418	216.88
608.626	201.88
608.834	203.88
609.043	235.88
609.251	211.88
609.459	214.88
609.667	224.88
609.875	215.88
610.083	202.88
610.291	194.88
610.499	219.88
610.707	202.88
610.916	225.88
611.124	210.88
611.332	205.88
611.54	204.88
611.748	212.88
611.955	201.88
612.163	210.88
612.371	192.88
612.579	217.88
612.787	210.88
612.995	211.88
613.203	217.88
613.411	211.88
613.618	202.88
613.826	204.88
614.034	213.88
614.242	212.88
614.449	209.88
614.657	215.88
614.865	210.88
615.072	208.88
615.28	187.88
615.488	214.88
615.695	208.88
615.903	210.88
616.111	186.88
616.318	199.88
616.526	196.88
616.733	215.88
616.941	203.88
617.148	206.88
617.356	200.88
617.563	210.88
617.771	202.88
617.978	212.88
618.185	218.88
618.393	214.88
618.6	194.88
618.807	215.88
619.015	204.88
619.222	189.88
619.429	206.88
619.637	200.88
619.844	203.88
620.051	187.88
620.258	181.88
620.466	201.88
620.673	186.88
620.88	189.88
621.087	187.88
621.294	205.88
621.501	191.88
621.708	184.88
621.915	208.88
622.122	209.88
622.329	187.88
622.536	196.88
622.743	200.88
622.95	204.88
623.157	205.88
623.364	205.88
623.571	182.88
623.778	185.88
623.985	183.88
624.192	188.88
624.399	203.88
624.606	183.88
624.812	200.88
625.019	193.88
625.226	205.88
625.433	197.88
625.639	187.88
625.846	191.88
626.053	174.88
626.259	176.88
626.466	186.88
626.673	175.88
626.879	202.88
627.086	176.88
627.293	208.88
627.499	187.88
627.706	195.88
627.912	201.88
628.119	191.88
628.325	201.88
628.532	178.88
628.738	176.88
628.945	180.88
629.151	172.88
629.357	169.88
629.564	172.88
629.77	189.88
629.976	199.88
630.183	168.88
630.389	175.88
630.595	172.88
630.802	177.88
631.008	172.88
631.214	192.88
631.42	169.88
631.627	187.88
631.833	180.88
632.039	186.88
632.245	165.88
632.451	178.88
632.657	167.88
632.863	150.88
633.069	167.88
633.275	175.88
633.481	169.88
633.688	165.88
633.893	176.88
634.099	163.88
634.305	165.88
634.511	164.88
634.717	167.88
634.923	163.88
635.129	151.88
635.335	167.88
635.541	159.88
635.747	166.88
635.952	162.88
636.158	164.88
636.364	155.88
636.57	162.88
636.775	179.88
636.981	158.88
637.187	157.88
637.392	163.88
637.598	150.88
637.804	153.88
638.009	168.88
638.215	176.88
638.421	155.88
638.626	155.88
638.832	154.88
639.037	141.88
639.243	157.88
639.448	159.88
639.654	171.88
639.859	149.88
640.065	144.88
640.27	148.88
640.475	153.88
640.681	145.88
640.886	164.88
641.091	150.88
641.297	161.88
641.502	166.88
641.707	151.88
641.913	153.88
642.118	149.88
642.323	133.88
642.528	145.88
642.733	153.88
642.939	156.88
643.144	159.88
643.349	137.88
643.554	160.88
643.759	164.88
643.964	132.88
644.169	149.88
644.374	136.88
644.579	159.88
644.784	129.88
644.989	152.88
645.194	151.88
645.399	157.88
645.604	160.88
645.809	151.88
646.014	156.88
646.219	150.88
646.423	159.88
646.628	161.88
646.833	156.88
647.038	147.88
647.243	150.88
647.447	149.88
647.652	149.88
647.857	153.88
648.062	167.88
648.266	155.88
648.471	162.88
648.676	165.88
648.88	159.88
649.085	151.88
649.289	159.88
649.494	151.88
649.698	179.88
649.903	171.88
650.107	159.88
650.312	166.88
650.516	139.88
650.721	135.88
650.925	133.88
651.13	140.88
651.334	140.88
651.539	136.88
651.743	139.88
651.947	133.88
652.152	135.88
652.356	147.88
652.56	129.88
652.764	127.88
652.969	115.88
653.173	127.88
653.377	121.88
653.581	137.88
653.785	134.88
653.99	136.88
654.194	131.88
654.398	140.88
654.602	124.88
654.806	137.88
655.01	133.88
655.214	136.88
655.418	117.88
655.622	122.88
655.826	124.88
656.03	126.88
656.234	131.88
656.438	122.88
656.642	124.88
656.846	107.88
657.049	114.88
657.253	108.88
657.457	113.88
657.661	111.88
657.865	111.88
658.068	96.88
658.272	85.88
658.476	96.88
658.68	107.88
658.883	101.88
659.087	106.88
659.291	89.88
659.494	96.88
659.698	95.88
659.901	97.88
660.105	96.88
660.309	83.88
660.512	79.88
660.716	92.88
660.919	87.88
661.123	94.88
661.326	73.88
661.53	89.88
661.733	98.88
661.936	93.88
662.14	78.88
662.343	77.88
662.546	72.88
662.75	93.88
662.953	91.88
663.156	86.88
663.36	86.88
663.563	85.88
663.766	95.88
663.969	90.88
664.173	91.88
664.376	61.88
664.579	75.88
664.782	89.88
664.985	89.88
665.188	89.88
665.391	79.88
665.594	92.88
665.797	88.88
666	64.88
666.203	87.88
666.406	65.88
666.609	85.88
666.812	96.88
667.015	75.88
667.218	86.88
667.421	94.88
667.624	80.88
667.827	80.88
668.03	79.88
668.232	77.88
668.435	76.88
668.638	77.88
668.841	83.88
669.043	69.88
669.246	63.88
669.449	77.88
669.651	67.88
669.854	88.88
670.057	77.88
670.259	87.88
670.462	85.88
670.665	85.88
670.867	88.88
671.07	72.88
671.272	94.88
671.475	84.88
671.677	92.88
671.88	88.88
672.082	101.88
672.284	74.88
672.487	87.88
672.689	82.88
672.892	83.88
