Data from 1987.PennyLincolnUp.Lamp.En5.5.200Scan.071819.P2_HRD10591_17-14-58-970.txt Node
Date: Thu Jul 18 17:14:58 EDT 2019
User: cochatt
Spectrometer: HR+D1059
Trigger mode: 1
Integration Time (sec): 1.000000E-1
Scans to average: 1
Electric dark correction enabled: true
Nonlinearity correction enabled: false
Boxcar width: 0
XAxis mode: Wavelengths
Number of Pixels in Spectrum: 2048
>>>>>Begin Spectral Data<<<<<
223.165	-5.62
223.4	-5.62
223.635	-5.62
223.869	-9.62
224.104	-9.62
224.338	-21.62
224.573	-14.62
224.808	-25.62
225.042	-8.62
225.277	-2.62
225.511	-7.62
225.746	-8.62
225.98	1.38
226.215	10.38
226.449	17.38
226.683	24.38
226.918	32.38
227.152	28.38
227.387	38.38
227.621	45.38
227.856	43.38
228.09	27.38
228.324	52.38
228.559	38.38
228.793	54.38
229.027	97.38
229.262	121.38
229.496	115.38
229.73	142.38
229.964	179.38
230.199	123.38
230.433	125.38
230.667	123.38
230.901	121.38
231.136	116.38
231.37	91.38
231.604	125.38
231.838	109.38
232.072	114.38
232.306	113.38
232.541	105.38
232.775	111.38
233.009	117.38
233.243	121.38
233.477	107.38
233.711	110.38
233.945	111.38
234.179	118.38
234.413	122.38
234.647	122.38
234.881	106.38
235.115	118.38
235.349	127.38
235.583	114.38
235.817	118.38
236.051	133.38
236.285	135.38
236.519	122.38
236.753	137.38
236.987	143.38
237.221	193.38
237.455	234.38
237.689	194.38
237.922	150.38
238.156	125.38
238.39	133.38
238.624	129.38
238.858	128.38
239.091	133.38
239.325	123.38
239.559	127.38
239.793	131.38
240.027	130.38
240.26	148.38
240.494	163.38
240.728	152.38
240.961	148.38
241.195	143.38
241.429	148.38
241.662	137.38
241.896	129.38
242.13	128.38
242.363	119.38
242.597	101.38
242.83	125.38
243.064	136.38
243.298	129.38
243.531	133.38
243.765	144.38
243.998	158.38
244.232	132.38
244.465	129.38
244.699	147.38
244.932	126.38
245.166	122.38
245.399	138.38
245.633	138.38
245.866	139.38
246.099	151.38
246.333	130.38
246.566	143.38
246.8	150.38
247.033	153.38
247.266	145.38
247.5	148.38
247.733	147.38
247.966	177.38
248.2	160.38
248.433	164.38
248.666	176.38
248.899	173.38
249.133	184.38
249.366	224.38
249.599	190.38
249.832	181.38
250.066	175.38
250.299	165.38
250.532	184.38
250.765	179.38
250.998	209.38
251.231	216.38
251.465	213.38
251.698	196.38
251.931	203.38
252.164	199.38
252.397	186.38
252.63	190.38
252.863	208.38
253.096	214.38
253.329	204.38
253.562	210.38
253.795	225.38
254.028	189.38
254.261	202.38
254.494	213.38
254.727	253.38
254.96	285.38
255.193	272.38
255.426	257.38
255.659	243.38
255.892	218.38
256.124	204.38
256.357	216.38
256.59	206.38
256.823	193.38
257.056	190.38
257.289	203.38
257.521	189.38
257.754	195.38
257.987	206.38
258.22	187.38
258.452	181.38
258.685	198.38
258.918	182.38
259.151	202.38
259.383	197.38
259.616	197.38
259.849	222.38
260.081	223.38
260.314	256.38
260.547	246.38
260.779	245.38
261.012	207.38
261.244	221.38
261.477	211.38
261.71	216.38
261.942	229.38
262.175	230.38
262.407	227.38
262.64	223.38
262.872	198.38
263.105	202.38
263.337	189.38
263.57	175.38
263.802	188.38
264.035	201.38
264.267	190.38
264.499	181.38
264.732	195.38
264.964	199.38
265.197	200.38
265.429	177.38
265.661	191.38
265.894	201.38
266.126	187.38
266.358	191.38
266.591	194.38
266.823	207.38
267.055	204.38
267.287	203.38
267.52	190.38
267.752	198.38
267.984	217.38
268.216	195.38
268.448	221.38
268.681	213.38
268.913	215.38
269.145	230.38
269.377	242.38
269.609	241.38
269.841	235.38
270.073	261.38
270.306	278.38
270.538	290.38
270.77	306.38
271.002	279.38
271.234	284.38
271.466	281.38
271.698	278.38
271.93	309.38
272.162	299.38
272.394	284.38
272.626	286.38
272.858	276.38
273.09	242.38
273.322	251.38
273.553	243.38
273.785	235.38
274.017	235.38
274.249	244.38
274.481	229.38
274.713	242.38
274.945	228.38
275.176	248.38
275.408	230.38
275.64	220.38
275.872	242.38
276.104	236.38
276.335	231.38
276.567	241.38
276.799	267.38
277.031	284.38
277.262	298.38
277.494	287.38
277.726	264.38
277.957	262.38
278.189	258.38
278.421	253.38
278.652	249.38
278.884	237.38
279.115	225.38
279.347	220.38
279.579	237.38
279.81	217.38
280.042	243.38
280.273	229.38
280.505	227.38
280.736	207.38
280.968	230.38
281.199	231.38
281.431	229.38
281.662	205.38
281.894	231.38
282.125	216.38
282.356	228.38
282.588	289.38
282.819	269.38
283.051	246.38
283.282	226.38
283.513	242.38
283.745	238.38
283.976	235.38
284.207	215.38
284.439	237.38
284.67	227.38
284.901	220.38
285.132	230.38
285.364	218.38
285.595	220.38
285.826	228.38
286.057	233.38
286.288	233.38
286.52	222.38
286.751	234.38
286.982	237.38
287.213	217.38
287.444	213.38
287.675	230.38
287.906	238.38
288.138	257.38
288.369	247.38
288.6	249.38
288.831	239.38
289.062	246.38
289.293	259.38
289.524	246.38
289.755	230.38
289.986	240.38
290.217	225.38
290.448	249.38
290.679	234.38
290.91	233.38
291.141	229.38
291.371	237.38
291.602	224.38
291.833	230.38
292.064	241.38
292.295	234.38
292.526	235.38
292.757	242.38
292.987	234.38
293.218	219.38
293.449	229.38
293.68	257.38
293.91	241.38
294.141	221.38
294.372	245.38
294.603	228.38
294.833	232.38
295.064	228.38
295.295	234.38
295.525	208.38
295.756	234.38
295.987	261.38
296.217	279.38
296.448	311.38
296.679	249.38
296.909	227.38
297.14	232.38
297.37	244.38
297.601	245.38
297.831	229.38
298.062	234.38
298.292	236.38
298.523	233.38
298.753	232.38
298.984	256.38
299.214	239.38
299.445	242.38
299.675	266.38
299.905	256.38
300.136	254.38
300.366	243.38
300.597	246.38
300.827	257.38
301.057	265.38
301.288	278.38
301.518	261.38
301.748	269.38
301.979	261.38
302.209	267.38
302.439	258.38
302.669	266.38
302.9	274.38
303.13	271.38
303.36	271.38
303.59	270.38
303.82	279.38
304.051	274.38
304.281	258.38
304.511	270.38
304.741	257.38
304.971	244.38
305.201	255.38
305.431	262.38
305.661	265.38
305.891	262.38
306.121	259.38
306.352	263.38
306.582	279.38
306.812	273.38
307.042	275.38
307.272	270.38
307.502	280.38
307.731	267.38
307.961	285.38
308.191	265.38
308.421	262.38
308.651	298.38
308.881	261.38
309.111	295.38
309.341	290.38
309.571	299.38
309.8	307.38
310.03	325.38
310.26	320.38
310.49	328.38
310.72	350.38
310.949	362.38
311.179	383.38
311.409	335.38
311.639	343.38
311.868	332.38
312.098	339.38
312.328	365.38
312.557	369.38
312.787	398.38
313.017	378.38
313.246	346.38
313.476	309.38
313.706	334.38
313.935	349.38
314.165	347.38
314.394	365.38
314.624	356.38
314.853	353.38
315.083	339.38
315.312	320.38
315.542	299.38
315.771	323.38
316.001	316.38
316.23	298.38
316.46	328.38
316.689	331.38
316.919	340.38
317.148	353.38
317.377	349.38
317.607	339.38
317.836	322.38
318.065	325.38
318.295	307.38
318.524	312.38
318.753	316.38
318.983	322.38
319.212	312.38
319.441	339.38
319.67	330.38
319.9	337.38
320.129	344.38
320.358	328.38
320.587	324.38
320.816	348.38
321.046	369.38
321.275	341.38
321.504	357.38
321.733	345.38
321.962	355.38
322.191	380.38
322.42	417.38
322.649	427.38
322.878	428.38
323.108	437.38
323.337	490.38
323.566	519.38
323.795	573.38
324.024	625.38
324.253	790.38
324.482	1145.38
324.71	1765.38
324.939	2491.38
325.168	2170.38
325.397	1167.38
325.626	758.38
325.855	605.38
326.084	555.38
326.313	515.38
326.542	532.38
326.77	597.38
326.999	704.38
327.228	1013.38
327.457	1518.38
327.686	1925.38
327.914	1270.38
328.143	869.38
328.372	694.38
328.6	672.38
328.829	598.38
329.058	625.38
329.287	620.38
329.515	558.38
329.744	516.38
329.972	494.38
330.201	472.38
330.43	522.38
330.658	584.38
330.887	642.38
331.115	609.38
331.344	525.38
331.572	467.38
331.801	470.38
332.03	456.38
332.258	443.38
332.486	401.38
332.715	395.38
332.943	385.38
333.172	380.38
333.4	385.38
333.629	389.38
333.857	408.38
334.085	385.38
334.314	367.38
334.542	389.38
334.771	392.38
334.999	390.38
335.227	400.38
335.455	370.38
335.684	374.38
335.912	374.38
336.14	363.38
336.369	373.38
336.597	368.38
336.825	363.38
337.053	371.38
337.281	361.38
337.51	356.38
337.738	371.38
337.966	373.38
338.194	355.38
338.422	373.38
338.65	365.38
338.878	365.38
339.106	342.38
339.334	347.38
339.562	351.38
339.79	369.38
340.018	358.38
340.246	375.38
340.474	381.38
340.702	365.38
340.93	371.38
341.158	385.38
341.386	377.38
341.614	378.38
341.842	360.38
342.07	361.38
342.298	351.38
342.526	355.38
342.754	356.38
342.981	345.38
343.209	338.38
343.437	334.38
343.665	344.38
343.893	349.38
344.12	353.38
344.348	350.38
344.576	354.38
344.804	365.38
345.031	407.38
345.259	403.38
345.487	382.38
345.714	375.38
345.942	379.38
346.17	367.38
346.397	360.38
346.625	356.38
346.853	354.38
347.08	353.38
347.308	373.38
347.535	363.38
347.763	417.38
347.99	369.38
348.218	385.38
348.445	401.38
348.673	386.38
348.9	362.38
349.128	373.38
349.355	341.38
349.583	330.38
349.81	336.38
350.037	348.38
350.265	341.38
350.492	354.38
350.72	349.38
350.947	351.38
351.174	366.38
351.402	381.38
351.629	367.38
351.856	364.38
352.083	379.38
352.311	385.38
352.538	410.38
352.765	387.38
352.992	395.38
353.22	378.38
353.447	377.38
353.674	347.38
353.901	354.38
354.128	334.38
354.355	343.38
354.583	332.38
354.81	312.38
355.037	303.38
355.264	321.38
355.491	326.38
355.718	330.38
355.945	314.38
356.172	306.38
356.399	311.38
356.626	325.38
356.853	316.38
357.08	329.38
357.307	322.38
357.534	323.38
357.761	315.38
357.988	332.38
358.215	312.38
358.441	307.38
358.668	338.38
358.895	318.38
359.122	351.38
359.349	350.38
359.576	378.38
359.802	436.38
360.029	457.38
360.256	469.38
360.483	413.38
360.709	377.38
360.936	371.38
361.163	371.38
361.39	369.38
361.616	369.38
361.843	367.38
362.07	379.38
362.296	377.38
362.523	363.38
362.749	366.38
362.976	369.38
363.203	343.38
363.429	350.38
363.656	357.38
363.882	338.38
364.109	337.38
364.335	349.38
364.562	338.38
364.788	339.38
365.015	358.38
365.241	347.38
365.468	353.38
365.694	357.38
365.92	369.38
366.147	349.38
366.373	359.38
366.599	337.38
366.826	330.38
367.052	350.38
367.278	329.38
367.505	323.38
367.731	323.38
367.957	333.38
368.184	344.38
368.41	316.38
368.636	366.38
368.862	350.38
369.089	345.38
369.315	348.38
369.541	346.38
369.767	339.38
369.993	331.38
370.219	313.38
370.445	342.38
370.672	328.38
370.898	318.38
371.124	342.38
371.35	324.38
371.576	322.38
371.802	316.38
372.028	323.38
372.254	315.38
372.48	308.38
372.706	311.38
372.932	307.38
373.158	330.38
373.384	333.38
373.61	339.38
373.835	329.38
374.061	310.38
374.287	334.38
374.513	328.38
374.739	318.38
374.965	324.38
375.191	317.38
375.416	335.38
375.642	323.38
375.868	346.38
376.094	323.38
376.319	318.38
376.545	322.38
376.771	315.38
376.997	311.38
377.222	321.38
377.448	344.38
377.674	337.38
377.899	339.38
378.125	318.38
378.35	339.38
378.576	320.38
378.802	301.38
379.027	310.38
379.253	318.38
379.478	322.38
379.704	333.38
379.929	330.38
380.155	326.38
380.38	353.38
380.606	329.38
380.831	346.38
381.057	326.38
381.282	301.38
381.507	341.38
381.733	330.38
381.958	325.38
382.184	326.38
382.409	346.38
382.634	330.38
382.86	331.38
383.085	315.38
383.31	333.38
383.535	339.38
383.761	337.38
383.986	319.38
384.211	331.38
384.436	340.38
384.662	334.38
384.887	342.38
385.112	335.38
385.337	328.38
385.562	335.38
385.787	342.38
386.013	369.38
386.238	343.38
386.463	375.38
386.688	377.38
386.913	351.38
387.138	332.38
387.363	353.38
387.588	338.38
387.813	340.38
388.038	343.38
388.263	342.38
388.488	339.38
388.713	349.38
388.938	350.38
389.163	366.38
389.387	332.38
389.612	338.38
389.837	334.38
390.062	341.38
390.287	351.38
390.512	340.38
390.736	320.38
390.961	343.38
391.186	333.38
391.411	364.38
391.636	332.38
391.86	356.38
392.085	335.38
392.31	338.38
392.534	338.38
392.759	344.38
392.984	341.38
393.208	364.38
393.433	357.38
393.658	353.38
393.882	345.38
394.107	332.38
394.331	356.38
394.556	354.38
394.78	326.38
395.005	346.38
395.229	326.38
395.454	338.38
395.678	347.38
395.903	377.38
396.127	397.38
396.352	415.38
396.576	378.38
396.801	359.38
397.025	358.38
397.249	357.38
397.474	373.38
397.698	364.38
397.922	361.38
398.147	398.38
398.371	421.38
398.595	377.38
398.82	379.38
399.044	389.38
399.268	385.38
399.492	415.38
399.717	424.38
399.941	441.38
400.165	476.38
400.389	485.38
400.613	450.38
400.837	410.38
401.062	402.38
401.286	380.38
401.51	395.38
401.734	391.38
401.958	391.38
402.182	402.38
402.406	405.38
402.63	437.38
402.854	417.38
403.078	407.38
403.302	402.38
403.526	432.38
403.75	419.38
403.974	398.38
404.198	405.38
404.422	414.38
404.645	408.38
404.869	421.38
405.093	425.38
405.317	479.38
405.541	480.38
405.765	445.38
405.988	438.38
406.212	468.38
406.436	489.38
406.66	502.38
406.883	464.38
407.107	471.38
407.331	504.38
407.555	593.38
407.778	581.38
408.002	533.38
408.226	488.38
408.449	478.38
408.673	454.38
408.896	489.38
409.12	536.38
409.344	513.38
409.567	454.38
409.791	439.38
410.014	418.38
410.238	401.38
410.461	431.38
410.685	422.38
410.908	448.38
411.132	479.38
411.355	515.38
411.578	506.38
411.802	450.38
412.025	420.38
412.249	416.38
412.472	420.38
412.695	420.38
412.919	408.38
413.142	409.38
413.365	411.38
413.589	385.38
413.812	402.38
414.035	395.38
414.258	399.38
414.482	395.38
414.705	381.38
414.928	379.38
415.151	379.38
415.374	392.38
415.597	390.38
415.821	378.38
416.044	399.38
416.267	373.38
416.49	400.38
416.713	397.38
416.936	407.38
417.159	414.38
417.382	417.38
417.605	420.38
417.828	423.38
418.051	435.38
418.274	437.38
418.497	402.38
418.72	402.38
418.943	393.38
419.166	430.38
419.389	440.38
419.611	422.38
419.834	403.38
420.057	417.38
420.28	409.38
420.503	400.38
420.726	428.38
420.948	430.38
421.171	500.38
421.394	520.38
421.617	467.38
421.839	437.38
422.062	441.38
422.285	456.38
422.507	509.38
422.73	590.38
422.953	586.38
423.175	478.38
423.398	466.38
423.621	460.38
423.843	474.38
424.066	478.38
424.288	469.38
424.511	484.38
424.733	585.38
424.956	636.38
425.178	612.38
425.401	605.38
425.623	618.38
425.846	567.38
426.068	506.38
426.291	504.38
426.513	499.38
426.735	534.38
426.958	543.38
427.18	640.38
427.402	735.38
427.625	848.38
427.847	792.38
428.069	659.38
428.292	577.38
428.514	513.38
428.736	486.38
428.958	483.38
429.181	453.38
429.403	474.38
429.625	471.38
429.847	524.38
430.069	577.38
430.292	569.38
430.514	487.38
430.736	479.38
430.958	438.38
431.18	450.38
431.402	443.38
431.624	433.38
431.846	405.38
432.068	409.38
432.29	416.38
432.512	425.38
432.734	446.38
432.956	423.38
433.178	428.38
433.4	460.38
433.622	405.38
433.844	421.38
434.066	390.38
434.287	408.38
434.509	423.38
434.731	413.38
434.953	437.38
435.175	440.38
435.397	487.38
435.618	491.38
435.84	553.38
436.062	629.38
436.284	683.38
436.505	604.38
436.727	549.38
436.949	495.38
437.17	471.38
437.392	476.38
437.614	505.38
437.835	524.38
438.057	656.38
438.278	732.38
438.5	730.38
438.721	777.38
438.943	730.38
439.165	591.38
439.386	567.38
439.608	546.38
439.829	535.38
440.05	577.38
440.272	608.38
440.493	561.38
440.715	514.38
440.936	474.38
441.158	452.38
441.379	485.38
441.6	475.38
441.822	533.38
442.043	543.38
442.264	630.38
442.486	673.38
442.707	579.38
442.928	535.38
443.149	520.38
443.371	538.38
443.592	607.38
443.813	673.38
444.034	729.38
444.255	602.38
444.476	551.38
444.698	489.38
444.919	496.38
445.14	603.38
445.361	560.38
445.582	559.38
445.803	627.38
446.024	731.38
446.245	754.38
446.466	661.38
446.687	588.38
446.908	522.38
447.129	487.38
447.35	485.38
447.571	486.38
447.792	475.38
448.013	462.38
448.234	499.38
448.455	556.38
448.675	662.38
448.896	765.38
449.117	688.38
449.338	638.38
449.559	719.38
449.779	769.38
450	653.38
450.221	554.38
450.442	505.38
450.662	487.38
450.883	489.38
451.104	530.38
451.324	490.38
451.545	460.38
451.766	435.38
451.986	445.38
452.207	438.38
452.428	409.38
452.648	438.38
452.869	421.38
453.089	446.38
453.31	464.38
453.53	453.38
453.751	455.38
453.971	459.38
454.192	464.38
454.412	443.38
454.633	445.38
454.853	447.38
455.073	410.38
455.294	456.38
455.514	545.38
455.734	520.38
455.955	436.38
456.175	413.38
456.395	378.38
456.616	409.38
456.836	385.38
457.056	376.38
457.276	386.38
457.497	389.38
457.717	381.38
457.937	381.38
458.157	406.38
458.377	402.38
458.598	451.38
458.818	530.38
459.038	630.38
459.258	628.38
459.478	521.38
459.698	453.38
459.918	423.38
460.138	409.38
460.358	401.38
460.578	411.38
460.798	436.38
461.018	439.38
461.238	417.38
461.458	426.38
461.678	400.38
461.898	425.38
462.118	416.38
462.338	419.38
462.558	410.38
462.777	428.38
462.997	426.38
463.217	398.38
463.437	435.38
463.657	407.38
463.876	409.38
464.096	437.38
464.316	443.38
464.536	440.38
464.755	485.38
464.975	449.38
465.195	534.38
465.414	687.38
465.634	561.38
465.854	505.38
466.073	470.38
466.293	433.38
466.512	441.38
466.732	427.38
466.951	421.38
467.171	420.38
467.391	430.38
467.61	449.38
467.829	473.38
468.049	423.38
468.268	419.38
468.488	395.38
468.707	405.38
468.927	392.38
469.146	409.38
469.365	422.38
469.585	399.38
469.804	429.38
470.023	415.38
470.243	431.38
470.462	443.38
470.681	475.38
470.901	448.38
471.12	444.38
471.339	425.38
471.558	429.38
471.777	427.38
471.997	437.38
472.216	430.38
472.435	426.38
472.654	415.38
472.873	430.38
473.092	414.38
473.311	419.38
473.53	433.38
473.749	423.38
473.968	488.38
474.187	595.38
474.406	610.38
474.625	506.38
474.844	459.38
475.063	448.38
475.282	455.38
475.501	448.38
475.72	449.38
475.939	442.38
476.158	423.38
476.377	445.38
476.596	439.38
476.814	448.38
477.033	451.38
477.252	465.38
477.471	452.38
477.69	441.38
477.908	436.38
478.127	433.38
478.346	470.38
478.564	465.38
478.783	456.38
479.002	462.38
479.22	487.38
479.439	505.38
479.658	531.38
479.876	527.38
480.095	524.38
480.313	553.38
480.532	523.38
480.751	498.38
480.969	523.38
481.188	514.38
481.406	535.38
481.624	499.38
481.843	497.38
482.061	481.38
482.28	483.38
482.498	512.38
482.717	498.38
482.935	511.38
483.153	498.38
483.372	494.38
483.59	491.38
483.808	500.38
484.027	505.38
484.245	491.38
484.463	498.38
484.681	503.38
484.9	516.38
485.118	519.38
485.336	525.38
485.554	510.38
485.772	523.38
485.99	515.38
486.209	530.38
486.427	524.38
486.645	548.38
486.863	555.38
487.081	560.38
487.299	565.38
487.517	552.38
487.735	534.38
487.953	542.38
488.171	534.38
488.389	543.38
488.607	535.38
488.825	543.38
489.043	546.38
489.261	542.38
489.479	549.38
489.696	566.38
489.914	574.38
490.132	566.38
490.35	573.38
490.568	568.38
490.786	589.38
491.003	605.38
491.221	625.38
491.439	617.38
491.657	621.38
491.874	613.38
492.092	614.38
492.31	615.38
492.527	616.38
492.745	635.38
492.963	631.38
493.18	633.38
493.398	634.38
493.615	654.38
493.833	668.38
494.05	642.38
494.268	672.38
494.485	678.38
494.703	649.38
494.92	675.38
495.138	684.38
495.355	652.38
495.573	649.38
495.79	662.38
496.008	641.38
496.225	651.38
496.442	684.38
496.66	651.38
496.877	677.38
497.094	685.38
497.312	676.38
497.529	670.38
497.746	677.38
497.963	670.38
498.181	720.38
498.398	715.38
498.615	730.38
498.832	719.38
499.049	734.38
499.267	730.38
499.484	711.38
499.701	729.38
499.918	753.38
500.135	759.38
500.352	754.38
500.569	799.38
500.786	781.38
501.003	785.38
501.22	785.38
501.437	765.38
501.654	795.38
501.871	788.38
502.088	793.38
502.305	774.38
502.522	740.38
502.739	710.38
502.956	707.38
503.172	691.38
503.389	700.38
503.606	694.38
503.823	709.38
504.04	662.38
504.256	676.38
504.473	673.38
504.69	677.38
504.907	691.38
505.123	668.38
505.34	659.38
505.557	645.38
505.773	692.38
505.99	653.38
506.207	646.38
506.423	675.38
506.64	654.38
506.856	648.38
507.073	641.38
507.289	644.38
507.506	640.38
507.722	666.38
507.939	704.38
508.155	659.38
508.372	665.38
508.588	662.38
508.805	663.38
509.021	638.38
509.238	653.38
509.454	695.38
509.67	686.38
509.887	619.38
510.103	653.38
510.319	702.38
510.536	815.38
510.752	1488.38
510.968	1221.38
511.184	729.38
511.401	652.38
511.617	641.38
511.833	630.38
512.049	604.38
512.265	617.38
512.481	582.38
512.698	618.38
512.914	601.38
513.13	633.38
513.346	651.38
513.562	630.38
513.778	631.38
513.994	632.38
514.21	657.38
514.426	717.38
514.642	781.38
514.858	839.38
515.074	883.38
515.29	1148.38
515.506	1754.38
515.721	1380.38
515.937	873.38
516.153	749.38
516.369	723.38
516.585	681.38
516.801	643.38
517.016	627.38
517.232	632.38
517.448	646.38
517.664	634.38
517.879	625.38
518.095	622.38
518.311	632.38
518.527	627.38
518.742	616.38
518.958	606.38
519.173	621.38
519.389	637.38
519.605	641.38
519.82	631.38
520.036	635.38
520.251	698.38
520.467	746.38
520.682	777.38
520.898	755.38
521.113	793.38
521.329	874.38
521.544	1037.38
521.76	1400.38
521.975	2374.38
522.19	2321.38
522.406	1192.38
522.621	857.38
522.836	727.38
523.052	678.38
523.267	650.38
523.482	599.38
523.698	619.38
523.913	594.38
524.128	583.38
524.343	573.38
524.559	561.38
524.774	563.38
524.989	564.38
525.204	568.38
525.419	556.38
525.634	547.38
525.849	531.38
526.064	540.38
526.28	500.38
526.495	491.38
526.71	493.38
526.925	513.38
527.14	487.38
527.355	492.38
527.57	508.38
527.785	495.38
527.999	502.38
528.214	468.38
528.429	484.38
528.644	475.38
528.859	493.38
529.074	472.38
529.289	539.38
529.503	651.38
529.718	649.38
529.933	553.38
530.148	537.38
530.363	524.38
530.577	494.38
530.792	484.38
531.007	478.38
531.221	470.38
531.436	474.38
531.651	460.38
531.865	458.38
532.08	450.38
532.295	465.38
532.509	421.38
532.724	461.38
532.938	463.38
533.153	446.38
533.367	435.38
533.582	452.38
533.796	433.38
534.011	445.38
534.225	437.38
534.44	426.38
534.654	451.38
534.868	436.38
535.083	437.38
535.297	452.38
535.511	443.38
535.726	448.38
535.94	451.38
536.154	478.38
536.369	453.38
536.583	438.38
536.797	441.38
537.011	441.38
537.225	446.38
537.44	437.38
537.654	436.38
537.868	421.38
538.082	423.38
538.296	430.38
538.51	411.38
538.724	436.38
538.938	419.38
539.153	449.38
539.367	445.38
539.581	483.38
539.795	440.38
540.009	431.38
540.222	424.38
540.436	449.38
540.65	425.38
540.864	451.38
541.078	459.38
541.292	460.38
541.506	443.38
541.72	423.38
541.934	435.38
542.147	436.38
542.361	407.38
542.575	415.38
542.789	409.38
543.002	417.38
543.216	417.38
543.43	463.38
543.644	444.38
543.857	413.38
544.071	435.38
544.285	422.38
544.498	417.38
544.712	397.38
544.925	409.38
545.139	420.38
545.352	407.38
545.566	411.38
545.779	403.38
545.993	390.38
546.206	420.38
546.42	419.38
546.633	415.38
546.847	410.38
547.06	390.38
547.274	396.38
547.487	413.38
547.7	391.38
547.914	391.38
548.127	403.38
548.34	389.38
548.554	390.38
548.767	387.38
548.98	396.38
549.193	398.38
549.407	402.38
549.62	405.38
549.833	375.38
550.046	390.38
550.259	364.38
550.473	383.38
550.686	369.38
550.899	393.38
551.112	395.38
551.325	365.38
551.538	383.38
551.751	403.38
551.964	360.38
552.177	393.38
552.39	369.38
552.603	389.38
552.816	381.38
553.029	393.38
553.242	390.38
553.455	386.38
553.667	423.38
553.88	409.38
554.093	415.38
554.306	425.38
554.519	395.38
554.732	375.38
554.944	385.38
555.157	371.38
555.37	377.38
555.583	368.38
555.795	370.38
556.008	390.38
556.221	385.38
556.433	386.38
556.646	354.38
556.859	345.38
557.071	356.38
557.284	376.38
557.496	365.38
557.709	352.38
557.921	352.38
558.134	347.38
558.346	351.38
558.559	351.38
558.771	355.38
558.984	324.38
559.196	351.38
559.409	350.38
559.621	350.38
559.833	334.38
560.046	365.38
560.258	361.38
560.47	333.38
560.683	331.38
560.895	363.38
561.107	342.38
561.32	356.38
561.532	360.38
561.744	367.38
561.956	330.38
562.168	354.38
562.381	354.38
562.593	342.38
562.805	351.38
563.017	346.38
563.229	360.38
563.441	371.38
563.653	369.38
563.865	368.38
564.077	356.38
564.289	363.38
564.501	371.38
564.713	356.38
564.925	365.38
565.137	388.38
565.349	355.38
565.561	378.38
565.773	388.38
565.985	361.38
566.197	377.38
566.408	390.38
566.62	374.38
566.832	373.38
567.044	392.38
567.255	366.38
567.467	395.38
567.679	398.38
567.891	399.38
568.102	393.38
568.314	376.38
568.526	389.38
568.737	363.38
568.949	385.38
569.161	370.38
569.372	359.38
569.584	362.38
569.795	347.38
570.007	365.38
570.218	427.38
570.43	426.38
570.641	345.38
570.853	339.38
571.064	345.38
571.276	325.38
571.487	331.38
571.698	314.38
571.91	341.38
572.121	329.38
572.333	318.38
572.544	301.38
572.755	324.38
572.966	329.38
573.178	308.38
573.389	303.38
573.6	309.38
573.811	316.38
574.023	313.38
574.234	324.38
574.445	303.38
574.656	309.38
574.867	314.38
575.078	289.38
575.289	314.38
575.501	300.38
575.712	291.38
575.923	293.38
576.134	314.38
576.345	317.38
576.556	290.38
576.767	283.38
576.978	308.38
577.188	313.38
577.399	296.38
577.61	300.38
577.821	311.38
578.032	311.38
578.243	374.38
578.454	694.38
578.665	468.38
578.875	338.38
579.086	292.38
579.297	299.38
579.508	287.38
579.718	295.38
579.929	293.38
580.14	285.38
580.35	280.38
580.561	291.38
580.772	297.38
580.982	306.38
581.193	292.38
581.403	303.38
581.614	270.38
581.825	269.38
582.035	303.38
582.246	271.38
582.456	287.38
582.667	305.38
582.877	275.38
583.087	290.38
583.298	286.38
583.508	277.38
583.719	282.38
583.929	283.38
584.139	290.38
584.35	291.38
584.56	290.38
584.77	268.38
584.981	274.38
585.191	290.38
585.401	283.38
585.611	275.38
585.821	275.38
586.032	266.38
586.242	278.38
586.452	261.38
586.662	261.38
586.872	282.38
587.082	273.38
587.292	279.38
587.502	267.38
587.713	275.38
587.923	276.38
588.133	266.38
588.343	273.38
588.553	278.38
588.762	277.38
588.972	270.38
589.182	323.38
589.392	315.38
589.602	280.38
589.812	288.38
590.022	307.38
590.232	273.38
590.441	266.38
590.651	251.38
590.861	259.38
591.071	255.38
591.281	250.38
591.49	266.38
591.7	263.38
591.91	266.38
592.119	267.38
592.329	291.38
592.539	262.38
592.748	272.38
592.958	266.38
593.167	275.38
593.377	276.38
593.587	272.38
593.796	275.38
594.006	257.38
594.215	248.38
594.424	255.38
594.634	254.38
594.843	272.38
595.053	257.38
595.262	255.38
595.472	249.38
595.681	249.38
595.89	236.38
596.1	246.38
596.309	245.38
596.518	246.38
596.727	252.38
596.937	244.38
597.146	262.38
597.355	262.38
597.564	249.38
597.774	254.38
597.983	248.38
598.192	223.38
598.401	242.38
598.61	249.38
598.819	249.38
599.028	246.38
599.237	260.38
599.446	236.38
599.655	246.38
599.864	231.38
600.073	222.38
600.282	237.38
600.491	214.38
600.7	243.38
600.909	236.38
601.118	227.38
601.327	242.38
601.536	235.38
601.745	239.38
601.953	236.38
602.162	219.38
602.371	229.38
602.58	222.38
602.789	217.38
602.997	223.38
603.206	244.38
603.415	218.38
603.623	227.38
603.832	230.38
604.041	234.38
604.249	227.38
604.458	221.38
604.666	228.38
604.875	226.38
605.084	209.38
605.292	232.38
605.501	222.38
605.709	229.38
605.918	229.38
606.126	233.38
606.334	207.38
606.543	212.38
606.751	222.38
606.96	234.38
607.168	232.38
607.376	223.38
607.585	233.38
607.793	214.38
608.001	214.38
608.21	211.38
608.418	221.38
608.626	228.38
608.834	229.38
609.043	223.38
609.251	227.38
609.459	251.38
609.667	222.38
609.875	212.38
610.083	210.38
610.291	217.38
610.499	209.38
610.707	213.38
610.916	234.38
611.124	239.38
611.332	230.38
611.54	229.38
611.748	226.38
611.955	212.38
612.163	227.38
612.371	229.38
612.579	227.38
612.787	201.38
612.995	217.38
613.203	225.38
613.411	234.38
613.618	211.38
613.826	227.38
614.034	221.38
614.242	231.38
614.449	210.38
614.657	211.38
614.865	209.38
615.072	219.38
615.28	220.38
615.488	193.38
615.695	200.38
615.903	223.38
616.111	225.38
616.318	218.38
616.526	213.38
616.733	220.38
616.941	211.38
617.148	205.38
617.356	219.38
617.563	189.38
617.771	210.38
617.978	225.38
618.185	219.38
618.393	206.38
618.6	216.38
618.807	218.38
619.015	220.38
619.222	205.38
619.429	200.38
619.637	226.38
619.844	215.38
620.051	202.38
620.258	210.38
620.466	217.38
620.673	190.38
620.88	192.38
621.087	200.38
621.294	210.38
621.501	207.38
621.708	213.38
621.915	210.38
622.122	211.38
622.329	189.38
622.536	205.38
622.743	215.38
622.95	217.38
623.157	196.38
623.364	200.38
623.571	212.38
623.778	203.38
623.985	202.38
624.192	189.38
624.399	191.38
624.606	210.38
624.812	205.38
625.019	203.38
625.226	195.38
625.433	195.38
625.639	182.38
625.846	196.38
626.053	196.38
626.259	198.38
626.466	183.38
626.673	207.38
626.879	175.38
627.086	189.38
627.293	199.38
627.499	183.38
627.706	199.38
627.912	183.38
628.119	184.38
628.325	195.38
628.532	187.38
628.738	187.38
628.945	194.38
629.151	177.38
629.357	190.38
629.564	179.38
629.77	196.38
629.976	205.38
630.183	196.38
630.389	195.38
630.595	189.38
630.802	189.38
631.008	178.38
631.214	181.38
631.42	173.38
631.627	198.38
631.833	166.38
632.039	174.38
632.245	177.38
632.451	182.38
632.657	173.38
632.863	177.38
633.069	180.38
633.275	190.38
633.481	167.38
633.688	179.38
633.893	162.38
634.099	162.38
634.305	181.38
634.511	160.38
634.717	158.38
634.923	173.38
635.129	161.38
635.335	164.38
635.541	162.38
635.747	169.38
635.952	177.38
636.158	165.38
636.364	161.38
636.57	162.38
636.775	176.38
636.981	183.38
637.187	173.38
637.392	163.38
637.598	170.38
637.804	162.38
638.009	165.38
638.215	169.38
638.421	150.38
638.626	166.38
638.832	174.38
639.037	159.38
639.243	154.38
639.448	170.38
639.654	176.38
639.859	162.38
640.065	149.38
640.27	167.38
640.475	151.38
640.681	165.38
640.886	164.38
641.091	162.38
641.297	177.38
641.502	174.38
641.707	159.38
641.913	164.38
642.118	150.38
642.323	157.38
642.528	166.38
642.733	154.38
642.939	188.38
643.144	144.38
643.349	159.38
643.554	137.38
643.759	174.38
643.964	164.38
644.169	159.38
644.374	166.38
644.579	162.38
644.784	165.38
644.989	161.38
645.194	155.38
645.399	145.38
645.604	147.38
645.809	157.38
646.014	158.38
646.219	155.38
646.423	166.38
646.628	157.38
646.833	156.38
647.038	174.38
647.243	172.38
647.447	157.38
647.652	150.38
647.857	145.38
648.062	165.38
648.266	156.38
648.471	171.38
648.676	153.38
648.88	161.38
649.085	129.38
649.289	150.38
649.494	164.38
649.698	188.38
649.903	173.38
650.107	155.38
650.312	167.38
650.516	159.38
650.721	150.38
650.925	149.38
651.13	154.38
651.334	135.38
651.539	120.38
651.743	139.38
651.947	139.38
652.152	144.38
652.356	149.38
652.56	132.38
652.764	130.38
652.969	136.38
653.173	125.38
653.377	136.38
653.581	144.38
653.785	109.38
653.99	129.38
654.194	131.38
654.398	138.38
654.602	145.38
654.806	119.38
655.01	136.38
655.214	127.38
655.418	122.38
655.622	120.38
655.826	128.38
656.03	112.38
656.234	99.38
656.438	111.38
656.642	122.38
656.846	125.38
657.049	129.38
657.253	132.38
657.457	108.38
657.661	123.38
657.865	115.38
658.068	106.38
658.272	110.38
658.476	92.38
658.68	91.38
658.883	102.38
659.087	95.38
659.291	103.38
659.494	105.38
659.698	85.38
659.901	114.38
660.105	106.38
660.309	83.38
660.512	100.38
660.716	88.38
660.919	85.38
661.123	99.38
661.326	85.38
661.53	86.38
661.733	88.38
661.936	70.38
662.14	80.38
662.343	90.38
662.546	85.38
662.75	90.38
662.953	87.38
663.156	79.38
663.36	86.38
663.563	74.38
663.766	87.38
663.969	75.38
664.173	86.38
664.376	91.38
664.579	87.38
664.782	97.38
664.985	87.38
665.188	76.38
665.391	84.38
665.594	85.38
665.797	97.38
666	78.38
666.203	77.38
666.406	86.38
666.609	87.38
666.812	81.38
667.015	75.38
667.218	99.38
667.421	99.38
667.624	80.38
667.827	76.38
668.03	91.38
668.232	78.38
668.435	78.38
668.638	76.38
668.841	79.38
669.043	89.38
669.246	83.38
669.449	73.38
669.651	79.38
669.854	83.38
670.057	77.38
670.259	73.38
670.462	83.38
670.665	101.38
670.867	91.38
671.07	85.38
671.272	73.38
671.475	107.38
671.677	87.38
671.88	90.38
672.082	68.38
672.284	71.38
672.487	85.38
672.689	88.38
672.892	80.38
