Data from 1987.PennyLincolnUp.Lamp.En5.5.200Scan.071819.P2_HRD10591_17-15-35-971.txt Node
Date: Thu Jul 18 17:15:35 EDT 2019
User: cochatt
Spectrometer: HR+D1059
Trigger mode: 1
Integration Time (sec): 1.000000E-1
Scans to average: 1
Electric dark correction enabled: true
Nonlinearity correction enabled: false
Boxcar width: 0
XAxis mode: Wavelengths
Number of Pixels in Spectrum: 2048
>>>>>Begin Spectral Data<<<<<
223.165	-11.25
223.4	-11.25
223.635	-11.25
223.869	4.75
224.104	-19.25
224.338	-15.25
224.573	-21.25
224.808	-15.25
225.042	-13.25
225.277	0.75
225.511	7.75
225.746	4.75
225.98	2.75
226.215	11.75
226.449	11.75
226.683	5.75
226.918	20.75
227.152	24.75
227.387	17.75
227.621	36.75
227.856	37.75
228.09	51.75
228.324	54.75
228.559	41.75
228.793	66.75
229.027	108.75
229.262	112.75
229.496	121.75
229.73	150.75
229.964	170.75
230.199	134.75
230.433	123.75
230.667	120.75
230.901	120.75
231.136	112.75
231.37	112.75
231.604	105.75
231.838	117.75
232.072	110.75
232.306	117.75
232.541	124.75
232.775	106.75
233.009	121.75
233.243	115.75
233.477	114.75
233.711	105.75
233.945	108.75
234.179	113.75
234.413	121.75
234.647	124.75
234.881	109.75
235.115	106.75
235.349	123.75
235.583	102.75
235.817	138.75
236.051	147.75
236.285	117.75
236.519	132.75
236.753	126.75
236.987	161.75
237.221	193.75
237.455	275.75
237.689	208.75
237.922	153.75
238.156	140.75
238.39	128.75
238.624	121.75
238.858	123.75
239.091	124.75
239.325	122.75
239.559	130.75
239.793	120.75
240.027	121.75
240.26	146.75
240.494	151.75
240.728	161.75
240.961	157.75
241.195	148.75
241.429	146.75
241.662	124.75
241.896	136.75
242.13	142.75
242.363	132.75
242.597	124.75
242.83	132.75
243.064	131.75
243.298	133.75
243.531	138.75
243.765	134.75
243.998	136.75
244.232	131.75
244.465	132.75
244.699	134.75
244.932	125.75
245.166	126.75
245.399	141.75
245.633	136.75
245.866	126.75
246.099	152.75
246.333	145.75
246.566	147.75
246.8	134.75
247.033	146.75
247.266	146.75
247.5	145.75
247.733	149.75
247.966	153.75
248.2	157.75
248.433	178.75
248.666	161.75
248.899	168.75
249.133	200.75
249.366	219.75
249.599	207.75
249.832	178.75
250.066	169.75
250.299	175.75
250.532	180.75
250.765	190.75
250.998	202.75
251.231	226.75
251.465	215.75
251.698	204.75
251.931	202.75
252.164	206.75
252.397	191.75
252.63	197.75
252.863	211.75
253.096	203.75
253.329	215.75
253.562	232.75
253.795	218.75
254.028	247.75
254.261	213.75
254.494	217.75
254.727	260.75
254.96	288.75
255.193	268.75
255.426	249.75
255.659	226.75
255.892	231.75
256.124	192.75
256.357	205.75
256.59	189.75
256.823	221.75
257.056	206.75
257.289	200.75
257.521	184.75
257.754	215.75
257.987	197.75
258.22	196.75
258.452	204.75
258.685	210.75
258.918	187.75
259.151	196.75
259.383	205.75
259.616	212.75
259.849	221.75
260.081	217.75
260.314	237.75
260.547	261.75
260.779	217.75
261.012	222.75
261.244	223.75
261.477	223.75
261.71	212.75
261.942	214.75
262.175	253.75
262.407	237.75
262.64	216.75
262.872	206.75
263.105	208.75
263.337	196.75
263.57	186.75
263.802	189.75
264.035	194.75
264.267	197.75
264.499	200.75
264.732	218.75
264.964	191.75
265.197	198.75
265.429	193.75
265.661	185.75
265.894	197.75
266.126	201.75
266.358	179.75
266.591	206.75
266.823	197.75
267.055	205.75
267.287	209.75
267.52	204.75
267.752	213.75
267.984	198.75
268.216	201.75
268.448	212.75
268.681	218.75
268.913	205.75
269.145	240.75
269.377	246.75
269.609	252.75
269.841	241.75
270.073	267.75
270.306	286.75
270.538	283.75
270.77	284.75
271.002	269.75
271.234	281.75
271.466	297.75
271.698	288.75
271.93	301.75
272.162	306.75
272.394	308.75
272.626	301.75
272.858	271.75
273.09	258.75
273.322	273.75
273.553	255.75
273.785	259.75
274.017	250.75
274.249	238.75
274.481	234.75
274.713	221.75
274.945	261.75
275.176	258.75
275.408	240.75
275.64	231.75
275.872	231.75
276.104	254.75
276.335	229.75
276.567	243.75
276.799	277.75
277.031	272.75
277.262	302.75
277.494	269.75
277.726	278.75
277.957	259.75
278.189	270.75
278.421	256.75
278.652	236.75
278.884	256.75
279.115	232.75
279.347	227.75
279.579	224.75
279.81	216.75
280.042	220.75
280.273	221.75
280.505	218.75
280.736	224.75
280.968	225.75
281.199	218.75
281.431	222.75
281.662	225.75
281.894	236.75
282.125	218.75
282.356	257.75
282.588	288.75
282.819	298.75
283.051	262.75
283.282	242.75
283.513	268.75
283.745	237.75
283.976	224.75
284.207	244.75
284.439	221.75
284.67	246.75
284.901	251.75
285.132	232.75
285.364	233.75
285.595	231.75
285.826	249.75
286.057	244.75
286.288	234.75
286.52	226.75
286.751	217.75
286.982	233.75
287.213	219.75
287.444	225.75
287.675	241.75
287.906	249.75
288.138	253.75
288.369	261.75
288.6	252.75
288.831	255.75
289.062	232.75
289.293	233.75
289.524	226.75
289.755	228.75
289.986	234.75
290.217	230.75
290.448	233.75
290.679	227.75
290.91	258.75
291.141	239.75
291.371	240.75
291.602	236.75
291.833	217.75
292.064	224.75
292.295	241.75
292.526	264.75
292.757	238.75
292.987	238.75
293.218	241.75
293.449	248.75
293.68	234.75
293.91	240.75
294.141	229.75
294.372	231.75
294.603	232.75
294.833	237.75
295.064	250.75
295.295	242.75
295.525	229.75
295.756	238.75
295.987	259.75
296.217	292.75
296.448	307.75
296.679	274.75
296.909	230.75
297.14	232.75
297.37	246.75
297.601	243.75
297.831	235.75
298.062	238.75
298.292	243.75
298.523	267.75
298.753	237.75
298.984	253.75
299.214	269.75
299.445	262.75
299.675	249.75
299.905	282.75
300.136	264.75
300.366	253.75
300.597	244.75
300.827	253.75
301.057	262.75
301.288	292.75
301.518	279.75
301.748	288.75
301.979	266.75
302.209	288.75
302.439	274.75
302.669	289.75
302.9	271.75
303.13	286.75
303.36	288.75
303.59	292.75
303.82	285.75
304.051	269.75
304.281	274.75
304.511	271.75
304.741	275.75
304.971	270.75
305.201	244.75
305.431	243.75
305.661	262.75
305.891	269.75
306.121	273.75
306.352	281.75
306.582	301.75
306.812	274.75
307.042	280.75
307.272	290.75
307.502	272.75
307.731	276.75
307.961	273.75
308.191	288.75
308.421	290.75
308.651	293.75
308.881	276.75
309.111	283.75
309.341	300.75
309.571	304.75
309.8	311.75
310.03	324.75
310.26	345.75
310.49	356.75
310.72	370.75
310.949	370.75
311.179	385.75
311.409	356.75
311.639	340.75
311.868	333.75
312.098	354.75
312.328	382.75
312.557	396.75
312.787	405.75
313.017	399.75
313.246	358.75
313.476	340.75
313.706	349.75
313.935	342.75
314.165	365.75
314.394	371.75
314.624	369.75
314.853	372.75
315.083	335.75
315.312	338.75
315.542	328.75
315.771	340.75
316.001	314.75
316.23	321.75
316.46	313.75
316.689	317.75
316.919	350.75
317.148	354.75
317.377	365.75
317.607	348.75
317.836	343.75
318.065	325.75
318.295	328.75
318.524	330.75
318.753	314.75
318.983	323.75
319.212	349.75
319.441	342.75
319.67	361.75
319.9	342.75
320.129	348.75
320.358	348.75
320.587	325.75
320.816	352.75
321.046	362.75
321.275	355.75
321.504	363.75
321.733	357.75
321.962	394.75
322.191	388.75
322.42	413.75
322.649	461.75
322.878	472.75
323.108	474.75
323.337	507.75
323.566	573.75
323.795	597.75
324.024	669.75
324.253	865.75
324.482	1266.75
324.71	1938.75
324.939	2680.75
325.168	2430.75
325.397	1279.75
325.626	826.75
325.855	646.75
326.084	566.75
326.313	539.75
326.542	527.75
326.77	611.75
326.999	745.75
327.228	1097.75
327.457	1666.75
327.686	2058.75
327.914	1386.75
328.143	874.75
328.372	730.75
328.6	675.75
328.829	638.75
329.058	662.75
329.287	670.75
329.515	611.75
329.744	536.75
329.972	503.75
330.201	517.75
330.43	560.75
330.658	598.75
330.887	707.75
331.115	683.75
331.344	556.75
331.572	489.75
331.801	484.75
332.03	470.75
332.258	438.75
332.486	406.75
332.715	396.75
332.943	392.75
333.172	392.75
333.4	388.75
333.629	388.75
333.857	403.75
334.085	399.75
334.314	392.75
334.542	389.75
334.771	393.75
334.999	394.75
335.227	379.75
335.455	384.75
335.684	359.75
335.912	380.75
336.14	379.75
336.369	385.75
336.597	381.75
336.825	400.75
337.053	366.75
337.281	374.75
337.51	359.75
337.738	363.75
337.966	403.75
338.194	381.75
338.422	408.75
338.65	365.75
338.878	378.75
339.106	375.75
339.334	363.75
339.562	368.75
339.79	374.75
340.018	380.75
340.246	389.75
340.474	396.75
340.702	380.75
340.93	361.75
341.158	370.75
341.386	380.75
341.614	379.75
341.842	377.75
342.07	364.75
342.298	375.75
342.526	337.75
342.754	356.75
342.981	328.75
343.209	346.75
343.437	369.75
343.665	348.75
343.893	348.75
344.12	352.75
344.348	353.75
344.576	358.75
344.804	372.75
345.031	386.75
345.259	433.75
345.487	396.75
345.714	392.75
345.942	364.75
346.17	365.75
346.397	378.75
346.625	356.75
346.853	374.75
347.08	373.75
347.308	370.75
347.535	394.75
347.763	386.75
347.99	412.75
348.218	417.75
348.445	390.75
348.673	396.75
348.9	380.75
349.128	369.75
349.355	376.75
349.583	366.75
349.81	338.75
350.037	360.75
350.265	344.75
350.492	341.75
350.72	373.75
350.947	378.75
351.174	380.75
351.402	388.75
351.629	388.75
351.856	407.75
352.083	397.75
352.311	423.75
352.538	389.75
352.765	399.75
352.992	391.75
353.22	398.75
353.447	376.75
353.674	372.75
353.901	362.75
354.128	352.75
354.355	301.75
354.583	332.75
354.81	323.75
355.037	362.75
355.264	339.75
355.491	316.75
355.718	339.75
355.945	334.75
356.172	342.75
356.399	318.75
356.626	311.75
356.853	329.75
357.08	326.75
357.307	332.75
357.534	337.75
357.761	313.75
357.988	324.75
358.215	327.75
358.441	325.75
358.668	341.75
358.895	356.75
359.122	354.75
359.349	352.75
359.576	397.75
359.802	416.75
360.029	470.75
360.256	494.75
360.483	460.75
360.709	405.75
360.936	406.75
361.163	377.75
361.39	388.75
361.616	396.75
361.843	373.75
362.07	374.75
362.296	403.75
362.523	395.75
362.749	370.75
362.976	388.75
363.203	361.75
363.429	350.75
363.656	364.75
363.882	345.75
364.109	373.75
364.335	370.75
364.562	367.75
364.788	362.75
365.015	344.75
365.241	342.75
365.468	348.75
365.694	358.75
365.92	346.75
366.147	360.75
366.373	341.75
366.599	321.75
366.826	345.75
367.052	328.75
367.278	338.75
367.505	332.75
367.731	353.75
367.957	352.75
368.184	337.75
368.41	356.75
368.636	362.75
368.862	394.75
369.089	352.75
369.315	328.75
369.541	332.75
369.767	329.75
369.993	334.75
370.219	333.75
370.445	326.75
370.672	332.75
370.898	324.75
371.124	332.75
371.35	324.75
371.576	324.75
371.802	309.75
372.028	324.75
372.254	339.75
372.48	318.75
372.706	328.75
372.932	327.75
373.158	329.75
373.384	340.75
373.61	322.75
373.835	345.75
374.061	332.75
374.287	347.75
374.513	332.75
374.739	338.75
374.965	332.75
375.191	332.75
375.416	334.75
375.642	310.75
375.868	341.75
376.094	317.75
376.319	343.75
376.545	327.75
376.771	334.75
376.997	312.75
377.222	335.75
377.448	341.75
377.674	305.75
377.899	333.75
378.125	324.75
378.35	344.75
378.576	305.75
378.802	325.75
379.027	334.75
379.253	340.75
379.478	317.75
379.704	314.75
379.929	312.75
380.155	346.75
380.38	347.75
380.606	353.75
380.831	340.75
381.057	326.75
381.282	339.75
381.507	336.75
381.733	320.75
381.958	324.75
382.184	313.75
382.409	318.75
382.634	352.75
382.86	356.75
383.085	340.75
383.31	336.75
383.535	334.75
383.761	328.75
383.986	325.75
384.211	344.75
384.436	324.75
384.662	339.75
384.887	352.75
385.112	332.75
385.337	349.75
385.562	342.75
385.787	342.75
386.013	371.75
386.238	386.75
386.463	349.75
386.688	358.75
386.913	351.75
387.138	343.75
387.363	343.75
387.588	353.75
387.813	341.75
388.038	350.75
388.263	345.75
388.488	337.75
388.713	355.75
388.938	340.75
389.163	355.75
389.387	364.75
389.612	345.75
389.837	350.75
390.062	341.75
390.287	353.75
390.512	345.75
390.736	328.75
390.961	344.75
391.186	337.75
391.411	340.75
391.636	357.75
391.86	362.75
392.085	364.75
392.31	338.75
392.534	370.75
392.759	354.75
392.984	384.75
393.208	355.75
393.433	365.75
393.658	372.75
393.882	340.75
394.107	346.75
394.331	354.75
394.556	349.75
394.78	364.75
395.005	353.75
395.229	338.75
395.454	362.75
395.678	357.75
395.903	378.75
396.127	396.75
396.352	410.75
396.576	386.75
396.801	366.75
397.025	380.75
397.249	362.75
397.474	370.75
397.698	363.75
397.922	390.75
398.147	401.75
398.371	404.75
398.595	397.75
398.82	387.75
399.044	412.75
399.268	403.75
399.492	404.75
399.717	442.75
399.941	452.75
400.165	494.75
400.389	505.75
400.613	457.75
400.837	428.75
401.062	442.75
401.286	392.75
401.51	407.75
401.734	390.75
401.958	374.75
402.182	419.75
402.406	424.75
402.63	420.75
402.854	435.75
403.078	419.75
403.302	448.75
403.526	428.75
403.75	418.75
403.974	414.75
404.198	412.75
404.422	421.75
404.645	423.75
404.869	425.75
405.093	442.75
405.317	470.75
405.541	478.75
405.765	474.75
405.988	440.75
406.212	470.75
406.436	499.75
406.66	502.75
406.883	479.75
407.107	508.75
407.331	544.75
407.555	607.75
407.778	586.75
408.002	527.75
408.226	512.75
408.449	487.75
408.673	469.75
408.896	519.75
409.12	548.75
409.344	523.75
409.567	441.75
409.791	439.75
410.014	455.75
410.238	434.75
410.461	428.75
410.685	453.75
410.908	461.75
411.132	496.75
411.355	548.75
411.578	520.75
411.802	450.75
412.025	429.75
412.249	423.75
412.472	412.75
412.695	451.75
412.919	440.75
413.142	420.75
413.365	414.75
413.589	413.75
413.812	417.75
414.035	393.75
414.258	405.75
414.482	392.75
414.705	403.75
414.928	390.75
415.151	387.75
415.374	372.75
415.597	387.75
415.821	406.75
416.044	404.75
416.267	402.75
416.49	397.75
416.713	397.75
416.936	383.75
417.159	397.75
417.382	406.75
417.605	409.75
417.828	422.75
418.051	436.75
418.274	428.75
418.497	402.75
418.72	423.75
418.943	419.75
419.166	425.75
419.389	432.75
419.611	441.75
419.834	441.75
420.057	437.75
420.28	411.75
420.503	433.75
420.726	436.75
420.948	472.75
421.171	503.75
421.394	536.75
421.617	481.75
421.839	458.75
422.062	444.75
422.285	473.75
422.507	532.75
422.73	600.75
422.953	565.75
423.175	517.75
423.398	494.75
423.621	489.75
423.843	494.75
424.066	496.75
424.288	508.75
424.511	520.75
424.733	553.75
424.956	658.75
425.178	631.75
425.401	628.75
425.623	636.75
425.846	560.75
426.068	492.75
426.291	498.75
426.513	515.75
426.735	521.75
426.958	568.75
427.18	626.75
427.402	754.75
427.625	876.75
427.847	823.75
428.069	689.75
428.292	578.75
428.514	536.75
428.736	496.75
428.958	487.75
429.181	497.75
429.403	473.75
429.625	488.75
429.847	532.75
430.069	590.75
430.292	596.75
430.514	484.75
430.736	478.75
430.958	460.75
431.18	442.75
431.402	445.75
431.624	425.75
431.846	425.75
432.068	447.75
432.29	429.75
432.512	445.75
432.734	430.75
432.956	462.75
433.178	452.75
433.4	470.75
433.622	445.75
433.844	437.75
434.066	430.75
434.287	442.75
434.509	444.75
434.731	438.75
434.953	438.75
435.175	448.75
435.397	507.75
435.618	518.75
435.84	555.75
436.062	642.75
436.284	698.75
436.505	603.75
436.727	553.75
436.949	500.75
437.17	502.75
437.392	476.75
437.614	492.75
437.835	547.75
438.057	658.75
438.278	762.75
438.5	764.75
438.721	813.75
438.943	771.75
439.165	613.75
439.386	550.75
439.608	565.75
439.829	552.75
440.05	568.75
440.272	605.75
440.493	576.75
440.715	536.75
440.936	519.75
441.158	513.75
441.379	485.75
441.6	492.75
441.822	533.75
442.043	570.75
442.264	652.75
442.486	670.75
442.707	594.75
442.928	550.75
443.149	552.75
443.371	564.75
443.592	615.75
443.813	702.75
444.034	737.75
444.255	605.75
444.476	563.75
444.698	524.75
444.919	514.75
445.14	613.75
445.361	592.75
445.582	579.75
445.803	631.75
446.024	739.75
446.245	759.75
446.466	706.75
446.687	601.75
446.908	555.75
447.129	515.75
447.35	480.75
447.571	495.75
447.792	469.75
448.013	497.75
448.234	538.75
448.455	585.75
448.675	686.75
448.896	762.75
449.117	677.75
449.338	658.75
449.559	736.75
449.779	806.75
450	653.75
450.221	539.75
450.442	521.75
450.662	498.75
450.883	490.75
451.104	549.75
451.324	538.75
451.545	478.75
451.766	472.75
451.986	436.75
452.207	445.75
452.428	437.75
452.648	446.75
452.869	435.75
453.089	461.75
453.31	475.75
453.53	461.75
453.751	455.75
453.971	459.75
454.192	484.75
454.412	479.75
454.633	441.75
454.853	417.75
455.073	421.75
455.294	456.75
455.514	547.75
455.734	532.75
455.955	449.75
456.175	432.75
456.395	423.75
456.616	393.75
456.836	406.75
457.056	394.75
457.276	388.75
457.497	394.75
457.717	392.75
457.937	407.75
458.157	405.75
458.377	414.75
458.598	472.75
458.818	548.75
459.038	644.75
459.258	646.75
459.478	551.75
459.698	478.75
459.918	427.75
460.138	403.75
460.358	457.75
460.578	448.75
460.798	435.75
461.018	433.75
461.238	403.75
461.458	427.75
461.678	412.75
461.898	425.75
462.118	396.75
462.338	426.75
462.558	412.75
462.777	423.75
462.997	440.75
463.217	424.75
463.437	449.75
463.657	422.75
463.876	435.75
464.096	425.75
464.316	448.75
464.536	461.75
464.755	480.75
464.975	489.75
465.195	564.75
465.414	717.75
465.634	588.75
465.854	533.75
466.073	498.75
466.293	438.75
466.512	430.75
466.732	443.75
466.951	448.75
467.171	429.75
467.391	419.75
467.61	442.75
467.829	472.75
468.049	437.75
468.268	430.75
468.488	417.75
468.707	430.75
468.927	382.75
469.146	418.75
469.365	401.75
469.585	410.75
469.804	436.75
470.023	460.75
470.243	446.75
470.462	433.75
470.681	480.75
470.901	483.75
471.12	454.75
471.339	449.75
471.558	477.75
471.777	436.75
471.997	412.75
472.216	426.75
472.435	430.75
472.654	434.75
472.873	423.75
473.092	440.75
473.311	429.75
473.53	429.75
473.749	451.75
473.968	477.75
474.187	585.75
474.406	637.75
474.625	510.75
474.844	435.75
475.063	457.75
475.282	474.75
475.501	444.75
475.72	426.75
475.939	442.75
476.158	454.75
476.377	459.75
476.596	454.75
476.814	461.75
477.033	479.75
477.252	459.75
477.471	461.75
477.69	468.75
477.908	464.75
478.127	468.75
478.346	464.75
478.564	462.75
478.783	479.75
479.002	466.75
479.22	473.75
479.439	524.75
479.658	521.75
479.876	546.75
480.095	546.75
480.313	564.75
480.532	552.75
480.751	510.75
480.969	516.75
481.188	539.75
481.406	542.75
481.624	498.75
481.843	530.75
482.061	540.75
482.28	486.75
482.498	509.75
482.717	505.75
482.935	522.75
483.153	508.75
483.372	509.75
483.59	496.75
483.808	502.75
484.027	502.75
484.245	498.75
484.463	517.75
484.681	516.75
484.9	533.75
485.118	503.75
485.336	523.75
485.554	534.75
485.772	513.75
485.99	544.75
486.209	520.75
486.427	538.75
486.645	565.75
486.863	580.75
487.081	582.75
487.299	585.75
487.517	568.75
487.735	556.75
487.953	580.75
488.171	563.75
488.389	564.75
488.607	565.75
488.825	562.75
489.043	577.75
489.261	581.75
489.479	556.75
489.696	575.75
489.914	569.75
490.132	576.75
490.35	579.75
490.568	597.75
490.786	605.75
491.003	608.75
491.221	626.75
491.439	621.75
491.657	632.75
491.874	640.75
492.092	639.75
492.31	649.75
492.527	642.75
492.745	656.75
492.963	647.75
493.18	675.75
493.398	670.75
493.615	643.75
493.833	677.75
494.05	664.75
494.268	674.75
494.485	670.75
494.703	678.75
494.92	664.75
495.138	672.75
495.355	677.75
495.573	668.75
495.79	649.75
496.008	668.75
496.225	656.75
496.442	659.75
496.66	650.75
496.877	667.75
497.094	691.75
497.312	666.75
497.529	677.75
497.746	704.75
497.963	722.75
498.181	739.75
498.398	733.75
498.615	730.75
498.832	723.75
499.049	722.75
499.267	744.75
499.484	748.75
499.701	760.75
499.918	743.75
500.135	768.75
500.352	786.75
500.569	790.75
500.786	811.75
501.003	786.75
501.22	781.75
501.437	772.75
501.654	799.75
501.871	803.75
502.088	809.75
502.305	801.75
502.522	759.75
502.739	745.75
502.956	724.75
503.172	680.75
503.389	692.75
503.606	694.75
503.823	748.75
504.04	724.75
504.256	695.75
504.473	684.75
504.69	684.75
504.907	667.75
505.123	674.75
505.34	667.75
505.557	664.75
505.773	678.75
505.99	701.75
506.207	667.75
506.423	672.75
506.64	654.75
506.856	670.75
507.073	658.75
507.289	684.75
507.506	675.75
507.722	684.75
507.939	718.75
508.155	693.75
508.372	660.75
508.588	655.75
508.805	662.75
509.021	655.75
509.238	670.75
509.454	685.75
509.67	697.75
509.887	688.75
510.103	677.75
510.319	692.75
510.536	845.75
510.752	1568.75
510.968	1300.75
511.184	749.75
511.401	690.75
511.617	649.75
511.833	660.75
512.049	642.75
512.265	635.75
512.481	617.75
512.698	632.75
512.914	638.75
513.13	637.75
513.346	651.75
513.562	652.75
513.778	638.75
513.994	694.75
514.21	685.75
514.426	728.75
514.642	799.75
514.858	860.75
515.074	924.75
515.29	1174.75
515.506	1899.75
515.721	1478.75
515.937	889.75
516.153	804.75
516.369	734.75
516.585	702.75
516.801	662.75
517.016	661.75
517.232	666.75
517.448	651.75
517.664	648.75
517.879	632.75
518.095	651.75
518.311	643.75
518.527	606.75
518.742	640.75
518.958	638.75
519.173	683.75
519.389	640.75
519.605	647.75
519.82	678.75
520.036	685.75
520.251	731.75
520.467	765.75
520.682	782.75
520.898	792.75
521.113	824.75
521.329	925.75
521.544	1081.75
521.76	1470.75
521.975	2545.75
522.19	2499.75
522.406	1296.75
522.621	937.75
522.836	770.75
523.052	713.75
523.267	667.75
523.482	655.75
523.698	628.75
523.913	626.75
524.128	615.75
524.343	585.75
524.559	588.75
524.774	584.75
524.989	566.75
525.204	568.75
525.419	598.75
525.634	542.75
525.849	560.75
526.064	525.75
526.28	524.75
526.495	524.75
526.71	516.75
526.925	514.75
527.14	502.75
527.355	505.75
527.57	502.75
527.785	495.75
527.999	488.75
528.214	483.75
528.429	485.75
528.644	493.75
528.859	504.75
529.074	501.75
529.289	547.75
529.503	679.75
529.718	651.75
529.933	576.75
530.148	532.75
530.363	524.75
530.577	518.75
530.792	508.75
531.007	492.75
531.221	499.75
531.436	486.75
531.651	465.75
531.865	485.75
532.08	470.75
532.295	461.75
532.509	451.75
532.724	466.75
532.938	482.75
533.153	448.75
533.367	466.75
533.582	471.75
533.796	452.75
534.011	438.75
534.225	457.75
534.44	445.75
534.654	466.75
534.868	464.75
535.083	469.75
535.297	453.75
535.511	474.75
535.726	486.75
535.94	473.75
536.154	486.75
536.369	477.75
536.583	464.75
536.797	450.75
537.011	432.75
537.225	440.75
537.44	415.75
537.654	438.75
537.868	446.75
538.082	447.75
538.296	457.75
538.51	457.75
538.724	459.75
538.938	456.75
539.153	477.75
539.367	443.75
539.581	468.75
539.795	443.75
540.009	444.75
540.222	455.75
540.436	443.75
540.65	419.75
540.864	451.75
541.078	462.75
541.292	463.75
541.506	452.75
541.72	456.75
541.934	428.75
542.147	433.75
542.361	450.75
542.575	432.75
542.789	431.75
543.002	434.75
543.216	441.75
543.43	444.75
543.644	443.75
543.857	437.75
544.071	441.75
544.285	432.75
544.498	414.75
544.712	434.75
544.925	431.75
545.139	411.75
545.352	387.75
545.566	406.75
545.779	417.75
545.993	423.75
546.206	433.75
546.42	412.75
546.633	392.75
546.847	406.75
547.06	416.75
547.274	411.75
547.487	398.75
547.7	408.75
547.914	402.75
548.127	413.75
548.34	410.75
548.554	404.75
548.767	386.75
548.98	390.75
549.193	408.75
549.407	388.75
549.62	417.75
549.833	415.75
550.046	409.75
550.259	391.75
550.473	390.75
550.686	396.75
550.899	381.75
551.112	388.75
551.325	381.75
551.538	385.75
551.751	392.75
551.964	390.75
552.177	401.75
552.39	383.75
552.603	386.75
552.816	392.75
553.029	387.75
553.242	396.75
553.455	416.75
553.667	413.75
553.88	414.75
554.093	413.75
554.306	406.75
554.519	404.75
554.732	400.75
554.944	396.75
555.157	379.75
555.37	380.75
555.583	363.75
555.795	392.75
556.008	386.75
556.221	373.75
556.433	380.75
556.646	364.75
556.859	372.75
557.071	372.75
557.284	377.75
557.496	372.75
557.709	362.75
557.921	362.75
558.134	355.75
558.346	355.75
558.559	358.75
558.771	353.75
558.984	368.75
559.196	350.75
559.409	359.75
559.621	371.75
559.833	361.75
560.046	366.75
560.258	352.75
560.47	347.75
560.683	360.75
560.895	352.75
561.107	360.75
561.32	358.75
561.532	353.75
561.744	350.75
561.956	357.75
562.168	346.75
562.381	339.75
562.593	341.75
562.805	357.75
563.017	346.75
563.229	351.75
563.441	343.75
563.653	365.75
563.865	355.75
564.077	354.75
564.289	353.75
564.501	357.75
564.713	372.75
564.925	382.75
565.137	391.75
565.349	357.75
565.561	377.75
565.773	375.75
565.985	371.75
566.197	378.75
566.408	397.75
566.62	371.75
566.832	388.75
567.044	406.75
567.255	403.75
567.467	383.75
567.679	397.75
567.891	394.75
568.102	375.75
568.314	383.75
568.526	378.75
568.737	376.75
568.949	364.75
569.161	363.75
569.372	356.75
569.584	350.75
569.795	342.75
570.007	381.75
570.218	444.75
570.43	432.75
570.641	376.75
570.853	353.75
571.064	348.75
571.276	340.75
571.487	324.75
571.698	328.75
571.91	335.75
572.121	340.75
572.333	318.75
572.544	301.75
572.755	323.75
572.966	321.75
573.178	311.75
573.389	326.75
573.6	319.75
573.811	328.75
574.023	323.75
574.234	295.75
574.445	307.75
574.656	297.75
574.867	315.75
575.078	294.75
575.289	306.75
575.501	301.75
575.712	299.75
575.923	296.75
576.134	292.75
576.345	305.75
576.556	306.75
576.767	295.75
576.978	298.75
577.188	309.75
577.399	300.75
577.61	317.75
577.821	317.75
578.032	322.75
578.243	366.75
578.454	742.75
578.665	515.75
578.875	330.75
579.086	314.75
579.297	289.75
579.508	289.75
579.718	288.75
579.929	284.75
580.14	294.75
580.35	293.75
580.561	287.75
580.772	289.75
580.982	274.75
581.193	284.75
581.403	279.75
581.614	273.75
581.825	270.75
582.035	291.75
582.246	293.75
582.456	272.75
582.667	288.75
582.877	275.75
583.087	263.75
583.298	278.75
583.508	272.75
583.719	288.75
583.929	267.75
584.139	288.75
584.35	285.75
584.56	286.75
584.77	285.75
584.981	284.75
585.191	294.75
585.401	293.75
585.611	288.75
585.821	284.75
586.032	274.75
586.242	285.75
586.452	270.75
586.662	258.75
586.872	264.75
587.082	276.75
587.292	276.75
587.502	276.75
587.713	274.75
587.923	270.75
588.133	266.75
588.343	264.75
588.553	275.75
588.762	278.75
588.972	276.75
589.182	284.75
589.392	281.75
589.602	262.75
589.812	289.75
590.022	273.75
590.232	276.75
590.441	276.75
590.651	275.75
590.861	269.75
591.071	268.75
591.281	256.75
591.49	269.75
591.7	278.75
591.91	271.75
592.119	266.75
592.329	276.75
592.539	251.75
592.748	272.75
592.958	269.75
593.167	250.75
593.377	274.75
593.587	294.75
593.796	276.75
594.006	267.75
594.215	262.75
594.424	280.75
594.634	267.75
594.843	258.75
595.053	252.75
595.262	256.75
595.472	256.75
595.681	260.75
595.89	260.75
596.1	270.75
596.309	251.75
596.518	269.75
596.727	260.75
596.937	245.75
597.146	256.75
597.355	267.75
597.564	241.75
597.774	242.75
597.983	242.75
598.192	245.75
598.401	261.75
598.61	232.75
598.819	254.75
599.028	256.75
599.237	238.75
599.446	236.75
599.655	264.75
599.864	264.75
600.073	224.75
600.282	244.75
600.491	245.75
600.7	244.75
600.909	246.75
601.118	240.75
601.327	228.75
601.536	227.75
601.745	224.75
601.953	240.75
602.162	244.75
602.371	224.75
602.58	249.75
602.789	238.75
602.997	221.75
603.206	223.75
603.415	217.75
603.623	223.75
603.832	219.75
604.041	216.75
604.249	236.75
604.458	220.75
604.666	225.75
604.875	224.75
605.084	238.75
605.292	231.75
605.501	226.75
605.709	232.75
605.918	234.75
606.126	236.75
606.334	222.75
606.543	237.75
606.751	230.75
606.96	236.75
607.168	220.75
607.376	240.75
607.585	228.75
607.793	230.75
608.001	209.75
608.21	248.75
608.418	241.75
608.626	240.75
608.834	228.75
609.043	228.75
609.251	220.75
609.459	214.75
609.667	236.75
609.875	224.75
610.083	216.75
610.291	218.75
610.499	209.75
610.707	225.75
610.916	218.75
611.124	226.75
611.332	225.75
611.54	233.75
611.748	241.75
611.955	219.75
612.163	227.75
612.371	223.75
612.579	222.75
612.787	203.75
612.995	212.75
613.203	212.75
613.411	206.75
613.618	215.75
613.826	213.75
614.034	202.75
614.242	210.75
614.449	217.75
614.657	201.75
614.865	215.75
615.072	203.75
615.28	207.75
615.488	196.75
615.695	217.75
615.903	211.75
616.111	227.75
616.318	231.75
616.526	222.75
616.733	200.75
616.941	207.75
617.148	212.75
617.356	216.75
617.563	219.75
617.771	207.75
617.978	202.75
618.185	212.75
618.393	201.75
618.6	212.75
618.807	214.75
619.015	222.75
619.222	230.75
619.429	216.75
619.637	204.75
619.844	190.75
620.051	193.75
620.258	228.75
620.466	209.75
620.673	206.75
620.88	204.75
621.087	200.75
621.294	206.75
621.501	206.75
621.708	212.75
621.915	209.75
622.122	200.75
622.329	210.75
622.536	205.75
622.743	212.75
622.95	204.75
623.157	203.75
623.364	210.75
623.571	203.75
623.778	189.75
623.985	189.75
624.192	211.75
624.399	195.75
624.606	214.75
624.812	200.75
625.019	195.75
625.226	202.75
625.433	208.75
625.639	188.75
625.846	202.75
626.053	203.75
626.259	216.75
626.466	205.75
626.673	196.75
626.879	174.75
627.086	192.75
627.293	192.75
627.499	200.75
627.706	189.75
627.912	190.75
628.119	190.75
628.325	189.75
628.532	194.75
628.738	193.75
628.945	188.75
629.151	192.75
629.357	182.75
629.564	183.75
629.77	176.75
629.976	193.75
630.183	187.75
630.389	173.75
630.595	169.75
630.802	188.75
631.008	177.75
631.214	179.75
631.42	160.75
631.627	196.75
631.833	177.75
632.039	173.75
632.245	171.75
632.451	193.75
632.657	172.75
632.863	178.75
633.069	180.75
633.275	182.75
633.481	178.75
633.688	172.75
633.893	181.75
634.099	177.75
634.305	167.75
634.511	160.75
634.717	144.75
634.923	173.75
635.129	188.75
635.335	158.75
635.541	169.75
635.747	167.75
635.952	153.75
636.158	156.75
636.364	176.75
636.57	156.75
636.775	155.75
636.981	179.75
637.187	170.75
637.392	163.75
637.598	171.75
637.804	162.75
638.009	160.75
638.215	171.75
638.421	160.75
638.626	159.75
638.832	182.75
639.037	175.75
639.243	183.75
639.448	163.75
639.654	155.75
639.859	153.75
640.065	165.75
640.27	158.75
640.475	165.75
640.681	164.75
640.886	165.75
641.091	170.75
641.297	183.75
641.502	154.75
641.707	156.75
641.913	180.75
642.118	153.75
642.323	152.75
642.528	153.75
642.733	156.75
642.939	165.75
643.144	156.75
643.349	164.75
643.554	169.75
643.759	149.75
643.964	155.75
644.169	155.75
644.374	166.75
644.579	151.75
644.784	146.75
644.989	164.75
645.194	154.75
645.399	167.75
645.604	147.75
645.809	168.75
646.014	154.75
646.219	148.75
646.423	155.75
646.628	153.75
646.833	158.75
647.038	164.75
647.243	160.75
647.447	158.75
647.652	148.75
647.857	148.75
648.062	168.75
648.266	164.75
648.471	157.75
648.676	150.75
648.88	163.75
649.085	167.75
649.289	170.75
649.494	177.75
649.698	168.75
649.903	163.75
650.107	173.75
650.312	150.75
650.516	140.75
650.721	132.75
650.925	150.75
651.13	137.75
651.334	137.75
651.539	149.75
651.743	130.75
651.947	150.75
652.152	141.75
652.356	141.75
652.56	125.75
652.764	133.75
652.969	140.75
653.173	146.75
653.377	139.75
653.581	139.75
653.785	133.75
653.99	140.75
654.194	132.75
654.398	131.75
654.602	136.75
654.806	132.75
655.01	146.75
655.214	144.75
655.418	130.75
655.622	130.75
655.826	135.75
656.03	104.75
656.234	114.75
656.438	127.75
656.642	128.75
656.846	120.75
657.049	133.75
657.253	114.75
657.457	104.75
657.661	102.75
657.865	110.75
658.068	114.75
658.272	100.75
658.476	88.75
658.68	113.75
658.883	94.75
659.087	101.75
659.291	116.75
659.494	81.75
659.698	90.75
659.901	102.75
660.105	97.75
660.309	99.75
660.512	84.75
660.716	89.75
660.919	91.75
661.123	104.75
661.326	97.75
661.53	94.75
661.733	86.75
661.936	87.75
662.14	81.75
662.343	79.75
662.546	80.75
662.75	79.75
662.953	87.75
663.156	79.75
663.36	60.75
663.563	80.75
663.766	92.75
663.969	83.75
664.173	83.75
664.376	76.75
664.579	78.75
664.782	94.75
664.985	89.75
665.188	87.75
665.391	73.75
665.594	79.75
665.797	75.75
666	84.75
666.203	73.75
666.406	85.75
666.609	81.75
666.812	96.75
667.015	90.75
667.218	89.75
667.421	89.75
667.624	81.75
667.827	69.75
668.03	84.75
668.232	76.75
668.435	76.75
668.638	91.75
668.841	84.75
669.043	80.75
669.246	100.75
669.449	79.75
669.651	80.75
669.854	95.75
670.057	96.75
670.259	72.75
670.462	69.75
670.665	75.75
670.867	89.75
671.07	102.75
671.272	85.75
671.475	78.75
671.677	83.75
671.88	79.75
672.082	81.75
672.284	76.75
672.487	77.75
672.689	72.75
672.892	77.75
