Data from 1987.PennyLincolnUp.Lamp.En5.5.200Scan.071819.P2_HRD10591_17-14-57-971.txt Node
Date: Thu Jul 18 17:14:57 EDT 2019
User: cochatt
Spectrometer: HR+D1059
Trigger mode: 1
Integration Time (sec): 1.000000E-1
Scans to average: 1
Electric dark correction enabled: true
Nonlinearity correction enabled: false
Boxcar width: 0
XAxis mode: Wavelengths
Number of Pixels in Spectrum: 2048
>>>>>Begin Spectral Data<<<<<
223.165	-16.12
223.4	-16.12
223.635	-16.12
223.869	-12.12
224.104	-17.12
224.338	-20.12
224.573	-16.12
224.808	-5.12
225.042	-7.12
225.277	-21.12
225.511	-9.12
225.746	-3.12
225.98	8.88
226.215	8.88
226.449	22.88
226.683	12.88
226.918	31.88
227.152	41.88
227.387	36.88
227.621	31.88
227.856	39.88
228.09	54.88
228.324	43.88
228.559	63.88
228.793	76.88
229.027	94.88
229.262	122.88
229.496	123.88
229.73	142.88
229.964	166.88
230.199	149.88
230.433	124.88
230.667	114.88
230.901	118.88
231.136	116.88
231.37	113.88
231.604	118.88
231.838	107.88
232.072	119.88
232.306	118.88
232.541	120.88
232.775	106.88
233.009	119.88
233.243	99.88
233.477	123.88
233.711	125.88
233.945	112.88
234.179	106.88
234.413	123.88
234.647	117.88
234.881	107.88
235.115	115.88
235.349	115.88
235.583	114.88
235.817	117.88
236.051	123.88
236.285	133.88
236.519	135.88
236.753	144.88
236.987	134.88
237.221	176.88
237.455	245.88
237.689	192.88
237.922	161.88
238.156	146.88
238.39	133.88
238.624	126.88
238.858	131.88
239.091	129.88
239.325	121.88
239.559	125.88
239.793	132.88
240.027	128.88
240.26	133.88
240.494	161.88
240.728	137.88
240.961	139.88
241.195	147.88
241.429	134.88
241.662	121.88
241.896	114.88
242.13	114.88
242.363	129.88
242.597	128.88
242.83	131.88
243.064	123.88
243.298	137.88
243.531	135.88
243.765	132.88
243.998	141.88
244.232	137.88
244.465	147.88
244.699	132.88
244.932	138.88
245.166	130.88
245.399	130.88
245.633	122.88
245.866	129.88
246.099	121.88
246.333	130.88
246.566	139.88
246.8	132.88
247.033	147.88
247.266	148.88
247.5	168.88
247.733	163.88
247.966	166.88
248.2	167.88
248.433	152.88
248.666	157.88
248.899	176.88
249.133	187.88
249.366	206.88
249.599	203.88
249.832	183.88
250.066	182.88
250.299	161.88
250.532	164.88
250.765	181.88
250.998	219.88
251.231	216.88
251.465	205.88
251.698	200.88
251.931	188.88
252.164	172.88
252.397	189.88
252.63	180.88
252.863	195.88
253.096	209.88
253.329	216.88
253.562	217.88
253.795	211.88
254.028	193.88
254.261	218.88
254.494	232.88
254.727	235.88
254.96	265.88
255.193	266.88
255.426	235.88
255.659	211.88
255.892	193.88
256.124	192.88
256.357	187.88
256.59	203.88
256.823	198.88
257.056	194.88
257.289	196.88
257.521	201.88
257.754	200.88
257.987	202.88
258.22	197.88
258.452	170.88
258.685	177.88
258.918	181.88
259.151	198.88
259.383	196.88
259.616	185.88
259.849	208.88
260.081	217.88
260.314	232.88
260.547	232.88
260.779	235.88
261.012	218.88
261.244	225.88
261.477	206.88
261.71	223.88
261.942	207.88
262.175	221.88
262.407	201.88
262.64	213.88
262.872	211.88
263.105	205.88
263.337	187.88
263.57	187.88
263.802	185.88
264.035	183.88
264.267	176.88
264.499	191.88
264.732	197.88
264.964	195.88
265.197	167.88
265.429	189.88
265.661	189.88
265.894	193.88
266.126	196.88
266.358	185.88
266.591	191.88
266.823	192.88
267.055	195.88
267.287	200.88
267.52	197.88
267.752	197.88
267.984	206.88
268.216	201.88
268.448	200.88
268.681	200.88
268.913	212.88
269.145	254.88
269.377	246.88
269.609	235.88
269.841	236.88
270.073	245.88
270.306	280.88
270.538	298.88
270.77	294.88
271.002	290.88
271.234	268.88
271.466	280.88
271.698	288.88
271.93	298.88
272.162	309.88
272.394	287.88
272.626	277.88
272.858	260.88
273.09	264.88
273.322	253.88
273.553	231.88
273.785	217.88
274.017	214.88
274.249	243.88
274.481	219.88
274.713	232.88
274.945	251.88
275.176	237.88
275.408	233.88
275.64	223.88
275.872	226.88
276.104	252.88
276.335	221.88
276.567	239.88
276.799	247.88
277.031	262.88
277.262	285.88
277.494	279.88
277.726	282.88
277.957	253.88
278.189	253.88
278.421	239.88
278.652	229.88
278.884	243.88
279.115	232.88
279.347	214.88
279.579	212.88
279.81	213.88
280.042	213.88
280.273	238.88
280.505	206.88
280.736	209.88
280.968	222.88
281.199	215.88
281.431	216.88
281.662	204.88
281.894	224.88
282.125	224.88
282.356	236.88
282.588	261.88
282.819	265.88
283.051	242.88
283.282	217.88
283.513	201.88
283.745	210.88
283.976	216.88
284.207	235.88
284.439	224.88
284.67	224.88
284.901	218.88
285.132	212.88
285.364	222.88
285.595	233.88
285.826	221.88
286.057	223.88
286.288	211.88
286.52	231.88
286.751	230.88
286.982	222.88
287.213	240.88
287.444	213.88
287.675	238.88
287.906	225.88
288.138	234.88
288.369	237.88
288.6	244.88
288.831	243.88
289.062	227.88
289.293	237.88
289.524	225.88
289.755	212.88
289.986	204.88
290.217	232.88
290.448	220.88
290.679	224.88
290.91	229.88
291.141	237.88
291.371	226.88
291.602	234.88
291.833	208.88
292.064	232.88
292.295	223.88
292.526	233.88
292.757	232.88
292.987	224.88
293.218	210.88
293.449	200.88
293.68	248.88
293.91	221.88
294.141	234.88
294.372	210.88
294.603	219.88
294.833	232.88
295.064	225.88
295.295	220.88
295.525	239.88
295.756	247.88
295.987	233.88
296.217	287.88
296.448	293.88
296.679	266.88
296.909	244.88
297.14	229.88
297.37	223.88
297.601	237.88
297.831	239.88
298.062	241.88
298.292	241.88
298.523	234.88
298.753	236.88
298.984	238.88
299.214	241.88
299.445	261.88
299.675	235.88
299.905	245.88
300.136	261.88
300.366	242.88
300.597	266.88
300.827	238.88
301.057	264.88
301.288	257.88
301.518	255.88
301.748	253.88
301.979	260.88
302.209	267.88
302.439	277.88
302.669	258.88
302.9	260.88
303.13	238.88
303.36	259.88
303.59	269.88
303.82	268.88
304.051	268.88
304.281	261.88
304.511	250.88
304.741	255.88
304.971	235.88
305.201	255.88
305.431	259.88
305.661	259.88
305.891	263.88
306.121	253.88
306.352	250.88
306.582	260.88
306.812	280.88
307.042	263.88
307.272	269.88
307.502	242.88
307.731	272.88
307.961	274.88
308.191	239.88
308.421	270.88
308.651	263.88
308.881	273.88
309.111	280.88
309.341	291.88
309.571	303.88
309.8	309.88
310.03	334.88
310.26	326.88
310.49	327.88
310.72	344.88
310.949	359.88
311.179	356.88
311.409	338.88
311.639	320.88
311.868	338.88
312.098	332.88
312.328	338.88
312.557	357.88
312.787	369.88
313.017	371.88
313.246	346.88
313.476	323.88
313.706	324.88
313.935	321.88
314.165	327.88
314.394	369.88
314.624	369.88
314.853	340.88
315.083	323.88
315.312	323.88
315.542	314.88
315.771	312.88
316.001	284.88
316.23	304.88
316.46	291.88
316.689	321.88
316.919	306.88
317.148	347.88
317.377	316.88
317.607	321.88
317.836	309.88
318.065	323.88
318.295	312.88
318.524	308.88
318.753	300.88
318.983	314.88
319.212	306.88
319.441	333.88
319.67	327.88
319.9	304.88
320.129	316.88
320.358	324.88
320.587	333.88
320.816	344.88
321.046	336.88
321.275	376.88
321.504	340.88
321.733	359.88
321.962	351.88
322.191	400.88
322.42	394.88
322.649	414.88
322.878	428.88
323.108	440.88
323.337	484.88
323.566	491.88
323.795	545.88
324.024	600.88
324.253	773.88
324.482	1117.88
324.71	1664.88
324.939	2417.88
325.168	2074.88
325.397	1159.88
325.626	752.88
325.855	577.88
326.084	543.88
326.313	498.88
326.542	502.88
326.77	562.88
326.999	684.88
327.228	955.88
327.457	1457.88
327.686	1779.88
327.914	1252.88
328.143	807.88
328.372	671.88
328.6	631.88
328.829	580.88
329.058	592.88
329.287	611.88
329.515	547.88
329.744	468.88
329.972	441.88
330.201	456.88
330.43	506.88
330.658	535.88
330.887	632.88
331.115	605.88
331.344	490.88
331.572	454.88
331.801	455.88
332.03	453.88
332.258	407.88
332.486	377.88
332.715	369.88
332.943	389.88
333.172	402.88
333.4	370.88
333.629	373.88
333.857	377.88
334.085	374.88
334.314	379.88
334.542	348.88
334.771	379.88
334.999	367.88
335.227	357.88
335.455	367.88
335.684	348.88
335.912	344.88
336.14	344.88
336.369	351.88
336.597	363.88
336.825	386.88
337.053	375.88
337.281	357.88
337.51	340.88
337.738	335.88
337.966	356.88
338.194	356.88
338.422	368.88
338.65	344.88
338.878	332.88
339.106	356.88
339.334	352.88
339.562	348.88
339.79	347.88
340.018	342.88
340.246	357.88
340.474	366.88
340.702	345.88
340.93	335.88
341.158	356.88
341.386	351.88
341.614	354.88
341.842	353.88
342.07	341.88
342.298	348.88
342.526	352.88
342.754	331.88
342.981	324.88
343.209	319.88
343.437	349.88
343.665	328.88
343.893	323.88
344.12	337.88
344.348	334.88
344.576	340.88
344.804	357.88
345.031	383.88
345.259	380.88
345.487	364.88
345.714	356.88
345.942	356.88
346.17	341.88
346.397	352.88
346.625	362.88
346.853	343.88
347.08	357.88
347.308	360.88
347.535	367.88
347.763	363.88
347.99	351.88
348.218	369.88
348.445	372.88
348.673	368.88
348.9	348.88
349.128	362.88
349.355	324.88
349.583	329.88
349.81	316.88
350.037	331.88
350.265	336.88
350.492	333.88
350.72	356.88
350.947	350.88
351.174	355.88
351.402	370.88
351.629	362.88
351.856	358.88
352.083	388.88
352.311	373.88
352.538	380.88
352.765	393.88
352.992	363.88
353.22	368.88
353.447	342.88
353.674	364.88
353.901	358.88
354.128	305.88
354.355	331.88
354.583	319.88
354.81	324.88
355.037	332.88
355.264	321.88
355.491	313.88
355.718	304.88
355.945	310.88
356.172	311.88
356.399	306.88
356.626	316.88
356.853	299.88
357.08	307.88
357.307	300.88
357.534	313.88
357.761	296.88
357.988	320.88
358.215	323.88
358.441	324.88
358.668	332.88
358.895	316.88
359.122	325.88
359.349	337.88
359.576	341.88
359.802	396.88
360.029	444.88
360.256	453.88
360.483	407.88
360.709	373.88
360.936	364.88
361.163	371.88
361.39	386.88
361.616	365.88
361.843	367.88
362.07	379.88
362.296	362.88
362.523	361.88
362.749	347.88
362.976	345.88
363.203	362.88
363.429	331.88
363.656	337.88
363.882	340.88
364.109	328.88
364.335	324.88
364.562	325.88
364.788	314.88
365.015	325.88
365.241	336.88
365.468	311.88
365.694	331.88
365.92	340.88
366.147	315.88
366.373	305.88
366.599	328.88
366.826	315.88
367.052	314.88
367.278	318.88
367.505	312.88
367.731	332.88
367.957	316.88
368.184	333.88
368.41	331.88
368.636	347.88
368.862	358.88
369.089	333.88
369.315	337.88
369.541	327.88
369.767	321.88
369.993	323.88
370.219	322.88
370.445	315.88
370.672	320.88
370.898	321.88
371.124	312.88
371.35	311.88
371.576	316.88
371.802	298.88
372.028	311.88
372.254	317.88
372.48	310.88
372.706	319.88
372.932	302.88
373.158	329.88
373.384	303.88
373.61	308.88
373.835	321.88
374.061	299.88
374.287	311.88
374.513	325.88
374.739	309.88
374.965	309.88
375.191	317.88
375.416	312.88
375.642	311.88
375.868	328.88
376.094	324.88
376.319	313.88
376.545	297.88
376.771	305.88
376.997	312.88
377.222	319.88
377.448	316.88
377.674	313.88
377.899	316.88
378.125	302.88
378.35	305.88
378.576	294.88
378.802	311.88
379.027	311.88
379.253	313.88
379.478	313.88
379.704	320.88
379.929	325.88
380.155	328.88
380.38	317.88
380.606	311.88
380.831	335.88
381.057	314.88
381.282	329.88
381.507	338.88
381.733	311.88
381.958	334.88
382.184	309.88
382.409	303.88
382.634	311.88
382.86	308.88
383.085	329.88
383.31	345.88
383.535	338.88
383.761	323.88
383.986	336.88
384.211	333.88
384.436	330.88
384.662	323.88
384.887	330.88
385.112	333.88
385.337	311.88
385.562	315.88
385.787	344.88
386.013	351.88
386.238	350.88
386.463	350.88
386.688	329.88
386.913	320.88
387.138	316.88
387.363	315.88
387.588	335.88
387.813	326.88
388.038	343.88
388.263	352.88
388.488	330.88
388.713	343.88
388.938	326.88
389.163	337.88
389.387	331.88
389.612	339.88
389.837	320.88
390.062	349.88
390.287	318.88
390.512	337.88
390.736	348.88
390.961	333.88
391.186	330.88
391.411	317.88
391.636	318.88
391.86	359.88
392.085	356.88
392.31	323.88
392.534	346.88
392.759	331.88
392.984	333.88
393.208	339.88
393.433	353.88
393.658	327.88
393.882	332.88
394.107	328.88
394.331	327.88
394.556	338.88
394.78	337.88
395.005	340.88
395.229	343.88
395.454	353.88
395.678	339.88
395.903	375.88
396.127	357.88
396.352	369.88
396.576	358.88
396.801	334.88
397.025	342.88
397.249	341.88
397.474	370.88
397.698	351.88
397.922	353.88
398.147	388.88
398.371	361.88
398.595	372.88
398.82	375.88
399.044	379.88
399.268	372.88
399.492	400.88
399.717	406.88
399.941	401.88
400.165	448.88
400.389	465.88
400.613	424.88
400.837	386.88
401.062	401.88
401.286	391.88
401.51	376.88
401.734	382.88
401.958	383.88
402.182	396.88
402.406	391.88
402.63	391.88
402.854	395.88
403.078	375.88
403.302	389.88
403.526	403.88
403.75	394.88
403.974	399.88
404.198	407.88
404.422	396.88
404.645	397.88
404.869	410.88
405.093	435.88
405.317	437.88
405.541	460.88
405.765	426.88
405.988	433.88
406.212	441.88
406.436	462.88
406.66	505.88
406.883	467.88
407.107	475.88
407.331	470.88
407.555	560.88
407.778	567.88
408.002	515.88
408.226	460.88
408.449	454.88
408.673	444.88
408.896	473.88
409.12	516.88
409.344	499.88
409.567	442.88
409.791	397.88
410.014	401.88
410.238	388.88
410.461	395.88
410.685	416.88
410.908	447.88
411.132	448.88
411.355	487.88
411.578	480.88
411.802	414.88
412.025	407.88
412.249	403.88
412.472	403.88
412.695	415.88
412.919	393.88
413.142	393.88
413.365	391.88
413.589	378.88
413.812	377.88
414.035	374.88
414.258	367.88
414.482	359.88
414.705	385.88
414.928	367.88
415.151	370.88
415.374	378.88
415.597	374.88
415.821	380.88
416.044	390.88
416.267	382.88
416.49	378.88
416.713	388.88
416.936	374.88
417.159	378.88
417.382	389.88
417.605	386.88
417.828	412.88
418.051	431.88
418.274	395.88
418.497	387.88
418.72	393.88
418.943	401.88
419.166	393.88
419.389	395.88
419.611	405.88
419.834	401.88
420.057	412.88
420.28	404.88
420.503	398.88
420.726	377.88
420.948	432.88
421.171	461.88
421.394	489.88
421.617	433.88
421.839	447.88
422.062	413.88
422.285	447.88
422.507	502.88
422.73	543.88
422.953	563.88
423.175	486.88
423.398	462.88
423.621	466.88
423.843	460.88
424.066	465.88
424.288	490.88
424.511	477.88
424.733	540.88
424.956	605.88
425.178	590.88
425.401	595.88
425.623	616.88
425.846	513.88
426.068	472.88
426.291	478.88
426.513	469.88
426.735	484.88
426.958	529.88
427.18	587.88
427.402	707.88
427.625	778.88
427.847	751.88
428.069	633.88
428.292	555.88
428.514	511.88
428.736	484.88
428.958	465.88
429.181	462.88
429.403	450.88
429.625	461.88
429.847	498.88
430.069	559.88
430.292	548.88
430.514	453.88
430.736	453.88
430.958	421.88
431.18	426.88
431.402	440.88
431.624	404.88
431.846	428.88
432.068	403.88
432.29	422.88
432.512	395.88
432.734	401.88
432.956	403.88
433.178	415.88
433.4	435.88
433.622	416.88
433.844	405.88
434.066	405.88
434.287	408.88
434.509	417.88
434.731	415.88
434.953	419.88
435.175	432.88
435.397	487.88
435.618	488.88
435.84	524.88
436.062	612.88
436.284	656.88
436.505	576.88
436.727	517.88
436.949	484.88
437.17	459.88
437.392	471.88
437.614	477.88
437.835	536.88
438.057	636.88
438.278	708.88
438.5	691.88
438.721	742.88
438.943	693.88
439.165	591.88
439.386	539.88
439.608	525.88
439.829	518.88
440.05	547.88
440.272	563.88
440.493	531.88
440.715	505.88
440.936	461.88
441.158	464.88
441.379	460.88
441.6	469.88
441.822	508.88
442.043	550.88
442.264	597.88
442.486	620.88
442.707	546.88
442.928	513.88
443.149	521.88
443.371	554.88
443.592	584.88
443.813	648.88
444.034	674.88
444.255	586.88
444.476	502.88
444.698	482.88
444.919	475.88
445.14	548.88
445.361	529.88
445.582	560.88
445.803	601.88
446.024	719.88
446.245	711.88
446.466	653.88
446.687	546.88
446.908	499.88
447.129	479.88
447.35	461.88
447.571	452.88
447.792	471.88
448.013	463.88
448.234	491.88
448.455	538.88
448.675	614.88
448.896	735.88
449.117	635.88
449.338	604.88
449.559	699.88
449.779	756.88
450	628.88
450.221	532.88
450.442	485.88
450.662	468.88
450.883	473.88
451.104	503.88
451.324	482.88
451.545	453.88
451.766	444.88
451.986	417.88
452.207	398.88
452.428	424.88
452.648	390.88
452.869	396.88
453.089	421.88
453.31	454.88
453.53	433.88
453.751	396.88
453.971	426.88
454.192	459.88
454.412	436.88
454.633	410.88
454.853	428.88
455.073	410.88
455.294	430.88
455.514	501.88
455.734	490.88
455.955	416.88
456.175	403.88
456.395	381.88
456.616	385.88
456.836	384.88
457.056	392.88
457.276	370.88
457.497	368.88
457.717	384.88
457.937	372.88
458.157	380.88
458.377	374.88
458.598	427.88
458.818	515.88
459.038	605.88
459.258	601.88
459.478	516.88
459.698	442.88
459.918	426.88
460.138	396.88
460.358	391.88
460.578	411.88
460.798	403.88
461.018	408.88
461.238	411.88
461.458	401.88
461.678	386.88
461.898	405.88
462.118	388.88
462.338	394.88
462.558	402.88
462.777	407.88
462.997	423.88
463.217	409.88
463.437	426.88
463.657	411.88
463.876	420.88
464.096	410.88
464.316	405.88
464.536	425.88
464.755	455.88
464.975	448.88
465.195	530.88
465.414	648.88
465.634	540.88
465.854	470.88
466.073	424.88
466.293	406.88
466.512	415.88
466.732	427.88
466.951	402.88
467.171	403.88
467.391	407.88
467.61	419.88
467.829	433.88
468.049	410.88
468.268	397.88
468.488	403.88
468.707	400.88
468.927	375.88
469.146	396.88
469.365	383.88
469.585	379.88
469.804	401.88
470.023	408.88
470.243	398.88
470.462	414.88
470.681	457.88
470.901	431.88
471.12	408.88
471.339	406.88
471.558	412.88
471.777	399.88
471.997	403.88
472.216	404.88
472.435	416.88
472.654	410.88
472.873	399.88
473.092	396.88
473.311	391.88
473.53	413.88
473.749	422.88
473.968	479.88
474.187	559.88
474.406	602.88
474.625	509.88
474.844	431.88
475.063	413.88
475.282	405.88
475.501	410.88
475.72	399.88
475.939	407.88
476.158	421.88
476.377	431.88
476.596	419.88
476.814	409.88
477.033	440.88
477.252	452.88
477.471	443.88
477.69	448.88
477.908	453.88
478.127	434.88
478.346	436.88
478.564	458.88
478.783	435.88
479.002	467.88
479.22	466.88
479.439	468.88
479.658	501.88
479.876	496.88
480.095	506.88
480.313	530.88
480.532	510.88
480.751	501.88
480.969	502.88
481.188	509.88
481.406	524.88
481.624	476.88
481.843	489.88
482.061	487.88
482.28	465.88
482.498	487.88
482.717	496.88
482.935	461.88
483.153	500.88
483.372	471.88
483.59	495.88
483.808	497.88
484.027	506.88
484.245	470.88
484.463	495.88
484.681	509.88
484.9	493.88
485.118	497.88
485.336	492.88
485.554	515.88
485.772	519.88
485.99	496.88
486.209	511.88
486.427	519.88
486.645	517.88
486.863	561.88
487.081	539.88
487.299	533.88
487.517	536.88
487.735	543.88
487.953	561.88
488.171	528.88
488.389	545.88
488.607	530.88
488.825	537.88
489.043	511.88
489.261	544.88
489.479	544.88
489.696	551.88
489.914	554.88
490.132	555.88
490.35	549.88
490.568	548.88
490.786	556.88
491.003	565.88
491.221	587.88
491.439	611.88
491.657	605.88
491.874	601.88
492.092	601.88
492.31	594.88
492.527	609.88
492.745	603.88
492.963	601.88
493.18	622.88
493.398	637.88
493.615	650.88
493.833	632.88
494.05	633.88
494.268	641.88
494.485	625.88
494.703	630.88
494.92	653.88
495.138	647.88
495.355	632.88
495.573	657.88
495.79	652.88
496.008	653.88
496.225	633.88
496.442	619.88
496.66	605.88
496.877	628.88
497.094	649.88
497.312	636.88
497.529	648.88
497.746	657.88
497.963	639.88
498.181	677.88
498.398	673.88
498.615	706.88
498.832	716.88
499.049	672.88
499.267	693.88
499.484	687.88
499.701	707.88
499.918	722.88
500.135	748.88
500.352	727.88
500.569	746.88
500.786	746.88
501.003	748.88
501.22	762.88
501.437	726.88
501.654	757.88
501.871	771.88
502.088	728.88
502.305	739.88
502.522	691.88
502.739	683.88
502.956	662.88
503.172	695.88
503.389	680.88
503.606	681.88
503.823	676.88
504.04	666.88
504.256	653.88
504.473	655.88
504.69	637.88
504.907	659.88
505.123	640.88
505.34	624.88
505.557	627.88
505.773	644.88
505.99	620.88
506.207	629.88
506.423	635.88
506.64	632.88
506.856	630.88
507.073	629.88
507.289	616.88
507.506	635.88
507.722	632.88
507.939	652.88
508.155	667.88
508.372	660.88
508.588	638.88
508.805	608.88
509.021	627.88
509.238	628.88
509.454	640.88
509.67	624.88
509.887	650.88
510.103	638.88
510.319	661.88
510.536	777.88
510.752	1399.88
510.968	1165.88
511.184	684.88
511.401	653.88
511.617	634.88
511.833	618.88
512.049	577.88
512.265	638.88
512.481	632.88
512.698	583.88
512.914	605.88
513.13	608.88
513.346	589.88
513.562	628.88
513.778	608.88
513.994	624.88
514.21	637.88
514.426	678.88
514.642	772.88
514.858	801.88
515.074	885.88
515.29	1084.88
515.506	1655.88
515.721	1305.88
515.937	824.88
516.153	735.88
516.369	689.88
516.585	657.88
516.801	638.88
517.016	623.88
517.232	631.88
517.448	602.88
517.664	616.88
517.879	619.88
518.095	603.88
518.311	592.88
518.527	597.88
518.742	611.88
518.958	608.88
519.173	617.88
519.389	601.88
519.605	633.88
519.82	647.88
520.036	653.88
520.251	651.88
520.467	709.88
520.682	727.88
520.898	733.88
521.113	785.88
521.329	833.88
521.544	1011.88
521.76	1321.88
521.975	2250.88
522.19	2166.88
522.406	1161.88
522.621	820.88
522.836	713.88
523.052	638.88
523.267	643.88
523.482	587.88
523.698	601.88
523.913	571.88
524.128	587.88
524.343	560.88
524.559	535.88
524.774	516.88
524.989	569.88
525.204	563.88
525.419	556.88
525.634	536.88
525.849	513.88
526.064	513.88
526.28	495.88
526.495	492.88
526.71	485.88
526.925	475.88
527.14	488.88
527.355	477.88
527.57	467.88
527.785	481.88
527.999	475.88
528.214	468.88
528.429	485.88
528.644	483.88
528.859	475.88
529.074	489.88
529.289	513.88
529.503	635.88
529.718	596.88
529.933	552.88
530.148	516.88
530.363	512.88
530.577	482.88
530.792	477.88
531.007	485.88
531.221	493.88
531.436	467.88
531.651	453.88
531.865	470.88
532.08	447.88
532.295	434.88
532.509	424.88
532.724	431.88
532.938	444.88
533.153	440.88
533.367	460.88
533.582	432.88
533.796	448.88
534.011	409.88
534.225	410.88
534.44	438.88
534.654	441.88
534.868	433.88
535.083	434.88
535.297	438.88
535.511	452.88
535.726	460.88
535.94	473.88
536.154	456.88
536.369	444.88
536.583	472.88
536.797	406.88
537.011	416.88
537.225	435.88
537.44	429.88
537.654	406.88
537.868	415.88
538.082	402.88
538.296	415.88
538.51	428.88
538.724	429.88
538.938	427.88
539.153	437.88
539.367	432.88
539.581	444.88
539.795	427.88
540.009	443.88
540.222	448.88
540.436	415.88
540.65	417.88
540.864	427.88
541.078	444.88
541.292	421.88
541.506	419.88
541.72	404.88
541.934	417.88
542.147	408.88
542.361	417.88
542.575	408.88
542.789	418.88
543.002	419.88
543.216	421.88
543.43	445.88
543.644	411.88
543.857	412.88
544.071	410.88
544.285	427.88
544.498	408.88
544.712	406.88
544.925	407.88
545.139	415.88
545.352	381.88
545.566	394.88
545.779	398.88
545.993	408.88
546.206	406.88
546.42	405.88
546.633	391.88
546.847	399.88
547.06	404.88
547.274	393.88
547.487	388.88
547.7	386.88
547.914	401.88
548.127	362.88
548.34	401.88
548.554	367.88
548.767	379.88
548.98	396.88
549.193	392.88
549.407	399.88
549.62	379.88
549.833	372.88
550.046	379.88
550.259	363.88
550.473	376.88
550.686	406.88
550.899	364.88
551.112	374.88
551.325	372.88
551.538	379.88
551.751	370.88
551.964	377.88
552.177	378.88
552.39	356.88
552.603	377.88
552.816	377.88
553.029	384.88
553.242	386.88
553.455	386.88
553.667	395.88
553.88	400.88
554.093	396.88
554.306	413.88
554.519	378.88
554.732	375.88
554.944	373.88
555.157	376.88
555.37	369.88
555.583	371.88
555.795	390.88
556.008	369.88
556.221	353.88
556.433	367.88
556.646	355.88
556.859	367.88
557.071	373.88
557.284	360.88
557.496	349.88
557.709	345.88
557.921	355.88
558.134	330.88
558.346	339.88
558.559	357.88
558.771	321.88
558.984	347.88
559.196	328.88
559.409	332.88
559.621	347.88
559.833	343.88
560.046	365.88
560.258	345.88
560.47	340.88
560.683	355.88
560.895	341.88
561.107	338.88
561.32	338.88
561.532	357.88
561.744	356.88
561.956	320.88
562.168	340.88
562.381	335.88
562.593	334.88
562.805	344.88
563.017	342.88
563.229	345.88
563.441	348.88
563.653	346.88
563.865	347.88
564.077	331.88
564.289	336.88
564.501	338.88
564.713	359.88
564.925	338.88
565.137	365.88
565.349	358.88
565.561	367.88
565.773	365.88
565.985	371.88
566.197	375.88
566.408	362.88
566.62	371.88
566.832	348.88
567.044	362.88
567.255	371.88
567.467	373.88
567.679	374.88
567.891	381.88
568.102	380.88
568.314	362.88
568.526	369.88
568.737	371.88
568.949	367.88
569.161	350.88
569.372	329.88
569.584	344.88
569.795	315.88
570.007	351.88
570.218	416.88
570.43	386.88
570.641	333.88
570.853	341.88
571.064	328.88
571.276	327.88
571.487	319.88
571.698	322.88
571.91	311.88
572.121	329.88
572.333	323.88
572.544	311.88
572.755	306.88
572.966	294.88
573.178	299.88
573.389	304.88
573.6	303.88
573.811	317.88
574.023	301.88
574.234	287.88
574.445	316.88
574.656	292.88
574.867	300.88
575.078	308.88
575.289	296.88
575.501	304.88
575.712	308.88
575.923	319.88
576.134	316.88
576.345	287.88
576.556	281.88
576.767	288.88
576.978	295.88
577.188	289.88
577.399	297.88
577.61	299.88
577.821	279.88
578.032	298.88
578.243	341.88
578.454	652.88
578.665	480.88
578.875	317.88
579.086	294.88
579.297	290.88
579.508	291.88
579.718	271.88
579.929	279.88
580.14	270.88
580.35	273.88
580.561	295.88
580.772	282.88
580.982	275.88
581.193	291.88
581.403	275.88
581.614	278.88
581.825	277.88
582.035	282.88
582.246	292.88
582.456	258.88
582.667	265.88
582.877	268.88
583.087	259.88
583.298	273.88
583.508	269.88
583.719	262.88
583.929	259.88
584.139	270.88
584.35	283.88
584.56	277.88
584.77	273.88
584.981	277.88
585.191	272.88
585.401	245.88
585.611	265.88
585.821	273.88
586.032	272.88
586.242	254.88
586.452	270.88
586.662	254.88
586.872	259.88
587.082	259.88
587.292	263.88
587.502	252.88
587.713	259.88
587.923	270.88
588.133	268.88
588.343	258.88
588.553	263.88
588.762	273.88
588.972	283.88
589.182	323.88
589.392	308.88
589.602	267.88
589.812	298.88
590.022	290.88
590.232	268.88
590.441	270.88
590.651	258.88
590.861	261.88
591.071	255.88
591.281	257.88
591.49	262.88
591.7	258.88
591.91	264.88
592.119	251.88
592.329	262.88
592.539	275.88
592.748	259.88
592.958	284.88
593.167	263.88
593.377	256.88
593.587	270.88
593.796	267.88
594.006	254.88
594.215	258.88
594.424	247.88
594.634	260.88
594.843	235.88
595.053	239.88
595.262	267.88
595.472	247.88
595.681	254.88
595.89	233.88
596.1	247.88
596.309	263.88
596.518	242.88
596.727	245.88
596.937	234.88
597.146	255.88
597.355	243.88
597.564	256.88
597.774	248.88
597.983	259.88
598.192	224.88
598.401	229.88
598.61	244.88
598.819	239.88
599.028	251.88
599.237	241.88
599.446	213.88
599.655	229.88
599.864	244.88
600.073	233.88
600.282	233.88
600.491	243.88
600.7	235.88
600.909	229.88
601.118	220.88
601.327	214.88
601.536	232.88
601.745	239.88
601.953	219.88
602.162	222.88
602.371	255.88
602.58	253.88
602.789	239.88
602.997	220.88
603.206	223.88
603.415	236.88
603.623	226.88
603.832	232.88
604.041	201.88
604.249	215.88
604.458	231.88
604.666	215.88
604.875	220.88
605.084	227.88
605.292	220.88
605.501	235.88
605.709	221.88
605.918	225.88
606.126	208.88
606.334	215.88
606.543	202.88
606.751	211.88
606.96	226.88
607.168	227.88
607.376	223.88
607.585	235.88
607.793	205.88
608.001	225.88
608.21	219.88
608.418	204.88
608.626	211.88
608.834	224.88
609.043	222.88
609.251	214.88
609.459	208.88
609.667	206.88
609.875	202.88
610.083	224.88
610.291	224.88
610.499	217.88
610.707	212.88
610.916	211.88
611.124	203.88
611.332	218.88
611.54	226.88
611.748	231.88
611.955	232.88
612.163	211.88
612.371	215.88
612.579	218.88
612.787	215.88
612.995	216.88
613.203	216.88
613.411	220.88
613.618	197.88
613.826	218.88
614.034	204.88
614.242	221.88
614.449	213.88
614.657	227.88
614.865	208.88
615.072	207.88
615.28	215.88
615.488	205.88
615.695	212.88
615.903	192.88
616.111	212.88
616.318	214.88
616.526	205.88
616.733	208.88
616.941	227.88
617.148	220.88
617.356	219.88
617.563	191.88
617.771	198.88
617.978	226.88
618.185	205.88
618.393	194.88
618.6	187.88
618.807	205.88
619.015	223.88
619.222	201.88
619.429	205.88
619.637	227.88
619.844	187.88
620.051	200.88
620.258	185.88
620.466	190.88
620.673	203.88
620.88	188.88
621.087	201.88
621.294	202.88
621.501	194.88
621.708	199.88
621.915	204.88
622.122	202.88
622.329	195.88
622.536	220.88
622.743	177.88
622.95	197.88
623.157	203.88
623.364	215.88
623.571	203.88
623.778	193.88
623.985	191.88
624.192	182.88
624.399	195.88
624.606	196.88
624.812	202.88
625.019	183.88
625.226	201.88
625.433	180.88
625.639	193.88
625.846	187.88
626.053	196.88
626.259	205.88
626.466	177.88
626.673	191.88
626.879	189.88
627.086	193.88
627.293	185.88
627.499	198.88
627.706	189.88
627.912	181.88
628.119	206.88
628.325	183.88
628.532	175.88
628.738	176.88
628.945	171.88
629.151	171.88
629.357	181.88
629.564	175.88
629.77	176.88
629.976	163.88
630.183	175.88
630.389	164.88
630.595	169.88
630.802	179.88
631.008	172.88
631.214	165.88
631.42	178.88
631.627	169.88
631.833	180.88
632.039	165.88
632.245	188.88
632.451	173.88
632.657	192.88
632.863	159.88
633.069	174.88
633.275	170.88
633.481	176.88
633.688	163.88
633.893	185.88
634.099	179.88
634.305	177.88
634.511	188.88
634.717	167.88
634.923	156.88
635.129	167.88
635.335	163.88
635.541	172.88
635.747	164.88
635.952	150.88
636.158	181.88
636.364	164.88
636.57	155.88
636.775	158.88
636.981	152.88
637.187	172.88
637.392	159.88
637.598	157.88
637.804	172.88
638.009	145.88
638.215	164.88
638.421	163.88
638.626	154.88
638.832	145.88
639.037	167.88
639.243	135.88
639.448	139.88
639.654	163.88
639.859	156.88
640.065	152.88
640.27	167.88
640.475	164.88
640.681	171.88
640.886	147.88
641.091	140.88
641.297	168.88
641.502	167.88
641.707	157.88
641.913	155.88
642.118	152.88
642.323	151.88
642.528	163.88
642.733	137.88
642.939	144.88
643.144	144.88
643.349	154.88
643.554	147.88
643.759	167.88
643.964	164.88
644.169	164.88
644.374	166.88
644.579	151.88
644.784	163.88
644.989	151.88
645.194	148.88
645.399	150.88
645.604	152.88
645.809	152.88
646.014	154.88
646.219	170.88
646.423	160.88
646.628	155.88
646.833	149.88
647.038	155.88
647.243	158.88
647.447	155.88
647.652	151.88
647.857	150.88
648.062	149.88
648.266	139.88
648.471	151.88
648.676	170.88
648.88	153.88
649.085	151.88
649.289	156.88
649.494	140.88
649.698	173.88
649.903	177.88
650.107	148.88
650.312	154.88
650.516	143.88
650.721	138.88
650.925	140.88
651.13	140.88
651.334	136.88
651.539	144.88
651.743	123.88
651.947	143.88
652.152	140.88
652.356	139.88
652.56	129.88
652.764	146.88
652.969	125.88
653.173	134.88
653.377	122.88
653.581	116.88
653.785	109.88
653.99	132.88
654.194	116.88
654.398	116.88
654.602	123.88
654.806	120.88
655.01	132.88
655.214	134.88
655.418	114.88
655.622	127.88
655.826	140.88
656.03	123.88
656.234	109.88
656.438	120.88
656.642	113.88
656.846	120.88
657.049	124.88
657.253	117.88
657.457	95.88
657.661	105.88
657.865	115.88
658.068	101.88
658.272	116.88
658.476	104.88
658.68	98.88
658.883	88.88
659.087	92.88
659.291	97.88
659.494	99.88
659.698	92.88
659.901	88.88
660.105	103.88
660.309	106.88
660.512	77.88
660.716	83.88
660.919	107.88
661.123	69.88
661.326	87.88
661.53	100.88
661.733	99.88
661.936	98.88
662.14	96.88
662.343	83.88
662.546	83.88
662.75	91.88
662.953	78.88
663.156	83.88
663.36	73.88
663.563	90.88
663.766	79.88
663.969	80.88
664.173	66.88
664.376	83.88
664.579	85.88
664.782	80.88
664.985	83.88
665.188	84.88
665.391	82.88
665.594	71.88
665.797	81.88
666	77.88
666.203	77.88
666.406	90.88
666.609	89.88
666.812	81.88
667.015	73.88
667.218	73.88
667.421	92.88
667.624	76.88
667.827	74.88
668.03	95.88
668.232	71.88
668.435	82.88
668.638	80.88
668.841	86.88
669.043	92.88
669.246	79.88
669.449	75.88
669.651	84.88
669.854	82.88
670.057	87.88
670.259	76.88
670.462	86.88
670.665	72.88
670.867	80.88
671.07	84.88
671.272	101.88
671.475	89.88
671.677	80.88
671.88	77.88
672.082	73.88
672.284	76.88
672.487	84.88
672.689	82.88
672.892	72.88
