Data from 1987.PennyLincolnUp.Lamp.En5.5.200Scan.071819.P2_HRD10591_17-15-56-971.txt Node
Date: Thu Jul 18 17:15:56 EDT 2019
User: cochatt
Spectrometer: HR+D1059
Trigger mode: 1
Integration Time (sec): 1.000000E-1
Scans to average: 1
Electric dark correction enabled: true
Nonlinearity correction enabled: false
Boxcar width: 0
XAxis mode: Wavelengths
Number of Pixels in Spectrum: 2048
>>>>>Begin Spectral Data<<<<<
223.165	-1.31
223.4	-1.31
223.635	-1.31
223.869	-8.31
224.104	-31.31
224.338	-9.31
224.573	-20.31
224.808	-9.31
225.042	-13.31
225.277	4.69
225.511	-6.31
225.746	4.69
225.98	-7.31
226.215	11.69
226.449	14.69
226.683	23.69
226.918	24.69
227.152	22.69
227.387	42.69
227.621	47.69
227.856	43.69
228.09	40.69
228.324	47.69
228.559	56.69
228.793	77.69
229.027	115.69
229.262	114.69
229.496	138.69
229.73	143.69
229.964	178.69
230.199	158.69
230.433	136.69
230.667	120.69
230.901	112.69
231.136	116.69
231.37	120.69
231.604	111.69
231.838	114.69
232.072	110.69
232.306	109.69
232.541	121.69
232.775	115.69
233.009	115.69
233.243	99.69
233.477	112.69
233.711	120.69
233.945	125.69
234.179	117.69
234.413	116.69
234.647	126.69
234.881	107.69
235.115	123.69
235.349	127.69
235.583	118.69
235.817	113.69
236.051	141.69
236.285	128.69
236.519	123.69
236.753	128.69
236.987	150.69
237.221	196.69
237.455	255.69
237.689	207.69
237.922	144.69
238.156	131.69
238.39	168.69
238.624	130.69
238.858	120.69
239.091	117.69
239.325	126.69
239.559	135.69
239.793	134.69
240.027	122.69
240.26	159.69
240.494	182.69
240.728	166.69
240.961	155.69
241.195	155.69
241.429	143.69
241.662	122.69
241.896	120.69
242.13	151.69
242.363	137.69
242.597	142.69
242.83	144.69
243.064	137.69
243.298	128.69
243.531	131.69
243.765	134.69
243.998	134.69
244.232	135.69
244.465	126.69
244.699	126.69
244.932	147.69
245.166	138.69
245.399	146.69
245.633	159.69
245.866	140.69
246.099	136.69
246.333	145.69
246.566	146.69
246.8	149.69
247.033	156.69
247.266	154.69
247.5	151.69
247.733	157.69
247.966	174.69
248.2	166.69
248.433	165.69
248.666	171.69
248.899	191.69
249.133	194.69
249.366	212.69
249.599	203.69
249.832	182.69
250.066	176.69
250.299	168.69
250.532	188.69
250.765	188.69
250.998	213.69
251.231	223.69
251.465	208.69
251.698	201.69
251.931	194.69
252.164	200.69
252.397	211.69
252.63	211.69
252.863	191.69
253.096	223.69
253.329	249.69
253.562	215.69
253.795	207.69
254.028	230.69
254.261	222.69
254.494	227.69
254.727	268.69
254.96	303.69
255.193	281.69
255.426	270.69
255.659	238.69
255.892	243.69
256.124	210.69
256.357	215.69
256.59	222.69
256.823	209.69
257.056	227.69
257.289	204.69
257.521	203.69
257.754	190.69
257.987	198.69
258.22	195.69
258.452	197.69
258.685	210.69
258.918	213.69
259.151	197.69
259.383	194.69
259.616	220.69
259.849	207.69
260.081	264.69
260.314	227.69
260.547	275.69
260.779	234.69
261.012	217.69
261.244	228.69
261.477	236.69
261.71	236.69
261.942	247.69
262.175	241.69
262.407	232.69
262.64	204.69
262.872	207.69
263.105	205.69
263.337	190.69
263.57	207.69
263.802	196.69
264.035	205.69
264.267	186.69
264.499	202.69
264.732	194.69
264.964	200.69
265.197	198.69
265.429	191.69
265.661	178.69
265.894	192.69
266.126	197.69
266.358	179.69
266.591	205.69
266.823	202.69
267.055	223.69
267.287	206.69
267.52	222.69
267.752	208.69
267.984	208.69
268.216	182.69
268.448	224.69
268.681	229.69
268.913	220.69
269.145	261.69
269.377	250.69
269.609	252.69
269.841	251.69
270.073	260.69
270.306	268.69
270.538	309.69
270.77	306.69
271.002	297.69
271.234	280.69
271.466	300.69
271.698	316.69
271.93	297.69
272.162	304.69
272.394	302.69
272.626	301.69
272.858	266.69
273.09	270.69
273.322	266.69
273.553	255.69
273.785	253.69
274.017	242.69
274.249	246.69
274.481	242.69
274.713	236.69
274.945	253.69
275.176	246.69
275.408	258.69
275.64	244.69
275.872	243.69
276.104	237.69
276.335	244.69
276.567	248.69
276.799	285.69
277.031	282.69
277.262	299.69
277.494	313.69
277.726	268.69
277.957	267.69
278.189	261.69
278.421	245.69
278.652	236.69
278.884	249.69
279.115	251.69
279.347	247.69
279.579	246.69
279.81	227.69
280.042	234.69
280.273	228.69
280.505	248.69
280.736	233.69
280.968	228.69
281.199	220.69
281.431	217.69
281.662	230.69
281.894	226.69
282.125	221.69
282.356	250.69
282.588	295.69
282.819	286.69
283.051	242.69
283.282	248.69
283.513	244.69
283.745	236.69
283.976	236.69
284.207	246.69
284.439	235.69
284.67	240.69
284.901	216.69
285.132	244.69
285.364	240.69
285.595	227.69
285.826	239.69
286.057	233.69
286.288	238.69
286.52	236.69
286.751	235.69
286.982	238.69
287.213	224.69
287.444	221.69
287.675	251.69
287.906	258.69
288.138	264.69
288.369	260.69
288.6	267.69
288.831	268.69
289.062	243.69
289.293	262.69
289.524	255.69
289.755	245.69
289.986	243.69
290.217	234.69
290.448	238.69
290.679	239.69
290.91	224.69
291.141	229.69
291.371	239.69
291.602	232.69
291.833	242.69
292.064	237.69
292.295	247.69
292.526	259.69
292.757	234.69
292.987	246.69
293.218	255.69
293.449	249.69
293.68	239.69
293.91	248.69
294.141	252.69
294.372	236.69
294.603	240.69
294.833	234.69
295.064	229.69
295.295	254.69
295.525	248.69
295.756	259.69
295.987	270.69
296.217	285.69
296.448	313.69
296.679	272.69
296.909	243.69
297.14	244.69
297.37	247.69
297.601	258.69
297.831	241.69
298.062	255.69
298.292	248.69
298.523	261.69
298.753	259.69
298.984	247.69
299.214	251.69
299.445	243.69
299.675	259.69
299.905	268.69
300.136	258.69
300.366	255.69
300.597	259.69
300.827	256.69
301.057	265.69
301.288	286.69
301.518	268.69
301.748	271.69
301.979	295.69
302.209	253.69
302.439	256.69
302.669	269.69
302.9	277.69
303.13	276.69
303.36	279.69
303.59	283.69
303.82	274.69
304.051	288.69
304.281	269.69
304.511	281.69
304.741	267.69
304.971	274.69
305.201	273.69
305.431	258.69
305.661	271.69
305.891	267.69
306.121	288.69
306.352	286.69
306.582	292.69
306.812	260.69
307.042	271.69
307.272	282.69
307.502	271.69
307.731	285.69
307.961	281.69
308.191	269.69
308.421	280.69
308.651	296.69
308.881	305.69
309.111	283.69
309.341	305.69
309.571	311.69
309.8	330.69
310.03	350.69
310.26	348.69
310.49	349.69
310.72	354.69
310.949	348.69
311.179	383.69
311.409	371.69
311.639	359.69
311.868	346.69
312.098	342.69
312.328	361.69
312.557	385.69
312.787	388.69
313.017	404.69
313.246	383.69
313.476	343.69
313.706	335.69
313.935	333.69
314.165	366.69
314.394	390.69
314.624	389.69
314.853	363.69
315.083	352.69
315.312	330.69
315.542	334.69
315.771	333.69
316.001	326.69
316.23	339.69
316.46	325.69
316.689	347.69
316.919	328.69
317.148	362.69
317.377	358.69
317.607	375.69
317.836	350.69
318.065	331.69
318.295	350.69
318.524	304.69
318.753	319.69
318.983	335.69
319.212	330.69
319.441	356.69
319.67	359.69
319.9	350.69
320.129	325.69
320.358	321.69
320.587	358.69
320.816	363.69
321.046	377.69
321.275	380.69
321.504	365.69
321.733	360.69
321.962	382.69
322.191	400.69
322.42	426.69
322.649	455.69
322.878	475.69
323.108	475.69
323.337	511.69
323.566	565.69
323.795	578.69
324.024	678.69
324.253	822.69
324.482	1231.69
324.71	1871.69
324.939	2720.69
325.168	2386.69
325.397	1294.69
325.626	830.69
325.855	655.69
326.084	566.69
326.313	542.69
326.542	547.69
326.77	614.69
326.999	759.69
327.228	1049.69
327.457	1676.69
327.686	2027.69
327.914	1416.69
328.143	884.69
328.372	731.69
328.6	685.69
328.829	634.69
329.058	660.69
329.287	670.69
329.515	607.69
329.744	536.69
329.972	518.69
330.201	538.69
330.43	550.69
330.658	617.69
330.887	690.69
331.115	666.69
331.344	538.69
331.572	495.69
331.801	479.69
332.03	478.69
332.258	461.69
332.486	435.69
332.715	415.69
332.943	406.69
333.172	396.69
333.4	398.69
333.629	404.69
333.857	423.69
334.085	415.69
334.314	392.69
334.542	424.69
334.771	388.69
334.999	422.69
335.227	376.69
335.455	387.69
335.684	388.69
335.912	383.69
336.14	383.69
336.369	395.69
336.597	386.69
336.825	402.69
337.053	366.69
337.281	375.69
337.51	401.69
337.738	389.69
337.966	413.69
338.194	392.69
338.422	409.69
338.65	392.69
338.878	372.69
339.106	367.69
339.334	388.69
339.562	382.69
339.79	379.69
340.018	375.69
340.246	388.69
340.474	389.69
340.702	390.69
340.93	368.69
341.158	379.69
341.386	373.69
341.614	406.69
341.842	384.69
342.07	366.69
342.298	357.69
342.526	359.69
342.754	375.69
342.981	351.69
343.209	354.69
343.437	370.69
343.665	355.69
343.893	370.69
344.12	380.69
344.348	383.69
344.576	376.69
344.804	378.69
345.031	412.69
345.259	410.69
345.487	387.69
345.714	397.69
345.942	378.69
346.17	360.69
346.397	378.69
346.625	355.69
346.853	371.69
347.08	380.69
347.308	383.69
347.535	402.69
347.763	407.69
347.99	384.69
348.218	388.69
348.445	426.69
348.673	395.69
348.9	393.69
349.128	363.69
349.355	351.69
349.583	362.69
349.81	344.69
350.037	342.69
350.265	346.69
350.492	364.69
350.72	366.69
350.947	380.69
351.174	390.69
351.402	384.69
351.629	397.69
351.856	390.69
352.083	394.69
352.311	419.69
352.538	415.69
352.765	423.69
352.992	402.69
353.22	400.69
353.447	378.69
353.674	368.69
353.901	355.69
354.128	357.69
354.355	328.69
354.583	347.69
354.81	352.69
355.037	327.69
355.264	337.69
355.491	322.69
355.718	343.69
355.945	336.69
356.172	331.69
356.399	325.69
356.626	325.69
356.853	320.69
357.08	332.69
357.307	315.69
357.534	347.69
357.761	347.69
357.988	321.69
358.215	337.69
358.441	332.69
358.668	343.69
358.895	362.69
359.122	351.69
359.349	360.69
359.576	388.69
359.802	422.69
360.029	481.69
360.256	468.69
360.483	462.69
360.709	399.69
360.936	386.69
361.163	390.69
361.39	396.69
361.616	388.69
361.843	371.69
362.07	374.69
362.296	412.69
362.523	375.69
362.749	374.69
362.976	386.69
363.203	370.69
363.429	357.69
363.656	346.69
363.882	349.69
364.109	351.69
364.335	361.69
364.562	362.69
364.788	367.69
365.015	373.69
365.241	358.69
365.468	373.69
365.694	356.69
365.92	360.69
366.147	358.69
366.373	347.69
366.599	339.69
366.826	350.69
367.052	335.69
367.278	346.69
367.505	358.69
367.731	363.69
367.957	357.69
368.184	360.69
368.41	381.69
368.636	340.69
368.862	366.69
369.089	360.69
369.315	340.69
369.541	352.69
369.767	334.69
369.993	363.69
370.219	352.69
370.445	345.69
370.672	329.69
370.898	346.69
371.124	328.69
371.35	320.69
371.576	325.69
371.802	314.69
372.028	328.69
372.254	347.69
372.48	345.69
372.706	323.69
372.932	324.69
373.158	347.69
373.384	353.69
373.61	327.69
373.835	337.69
374.061	329.69
374.287	324.69
374.513	345.69
374.739	326.69
374.965	348.69
375.191	330.69
375.416	317.69
375.642	327.69
375.868	344.69
376.094	344.69
376.319	335.69
376.545	329.69
376.771	332.69
376.997	339.69
377.222	342.69
377.448	339.69
377.674	342.69
377.899	329.69
378.125	335.69
378.35	344.69
378.576	343.69
378.802	329.69
379.027	328.69
379.253	331.69
379.478	336.69
379.704	324.69
379.929	327.69
380.155	343.69
380.38	334.69
380.606	348.69
380.831	351.69
381.057	323.69
381.282	327.69
381.507	336.69
381.733	329.69
381.958	331.69
382.184	347.69
382.409	354.69
382.634	342.69
382.86	335.69
383.085	342.69
383.31	340.69
383.535	339.69
383.761	335.69
383.986	345.69
384.211	339.69
384.436	342.69
384.662	339.69
384.887	341.69
385.112	352.69
385.337	332.69
385.562	352.69
385.787	357.69
386.013	371.69
386.238	362.69
386.463	361.69
386.688	361.69
386.913	351.69
387.138	356.69
387.363	363.69
387.588	338.69
387.813	329.69
388.038	342.69
388.263	339.69
388.488	353.69
388.713	347.69
388.938	363.69
389.163	349.69
389.387	360.69
389.612	347.69
389.837	315.69
390.062	324.69
390.287	342.69
390.512	346.69
390.736	334.69
390.961	347.69
391.186	343.69
391.411	357.69
391.636	372.69
391.86	355.69
392.085	340.69
392.31	344.69
392.534	345.69
392.759	348.69
392.984	360.69
393.208	355.69
393.433	367.69
393.658	354.69
393.882	341.69
394.107	347.69
394.331	344.69
394.556	337.69
394.78	348.69
395.005	364.69
395.229	345.69
395.454	352.69
395.678	349.69
395.903	376.69
396.127	399.69
396.352	393.69
396.576	385.69
396.801	375.69
397.025	386.69
397.249	372.69
397.474	379.69
397.698	374.69
397.922	397.69
398.147	407.69
398.371	427.69
398.595	412.69
398.82	402.69
399.044	402.69
399.268	390.69
399.492	405.69
399.717	427.69
399.941	450.69
400.165	492.69
400.389	528.69
400.613	453.69
400.837	425.69
401.062	432.69
401.286	412.69
401.51	412.69
401.734	407.69
401.958	401.69
402.182	406.69
402.406	432.69
402.63	433.69
402.854	417.69
403.078	411.69
403.302	426.69
403.526	427.69
403.75	418.69
403.974	407.69
404.198	420.69
404.422	406.69
404.645	420.69
404.869	439.69
405.093	444.69
405.317	468.69
405.541	484.69
405.765	487.69
405.988	450.69
406.212	447.69
406.436	486.69
406.66	519.69
406.883	501.69
407.107	478.69
407.331	547.69
407.555	594.69
407.778	596.69
408.002	531.69
408.226	508.69
408.449	460.69
408.673	475.69
408.896	499.69
409.12	532.69
409.344	534.69
409.567	468.69
409.791	447.69
410.014	427.69
410.238	414.69
410.461	422.69
410.685	454.69
410.908	463.69
411.132	507.69
411.355	528.69
411.578	506.69
411.802	452.69
412.025	419.69
412.249	414.69
412.472	423.69
412.695	450.69
412.919	444.69
413.142	407.69
413.365	412.69
413.589	403.69
413.812	416.69
414.035	400.69
414.258	387.69
414.482	397.69
414.705	402.69
414.928	418.69
415.151	380.69
415.374	378.69
415.597	407.69
415.821	390.69
416.044	396.69
416.267	409.69
416.49	392.69
416.713	396.69
416.936	386.69
417.159	415.69
417.382	417.69
417.605	411.69
417.828	421.69
418.051	444.69
418.274	448.69
418.497	414.69
418.72	405.69
418.943	409.69
419.166	427.69
419.389	450.69
419.611	439.69
419.834	440.69
420.057	421.69
420.28	428.69
420.503	420.69
420.726	435.69
420.948	452.69
421.171	519.69
421.394	529.69
421.617	457.69
421.839	456.69
422.062	438.69
422.285	463.69
422.507	540.69
422.73	597.69
422.953	590.69
423.175	491.69
423.398	478.69
423.621	469.69
423.843	484.69
424.066	492.69
424.288	501.69
424.511	504.69
424.733	563.69
424.956	660.69
425.178	628.69
425.401	626.69
425.623	650.69
425.846	572.69
426.068	498.69
426.291	510.69
426.513	526.69
426.735	546.69
426.958	586.69
427.18	640.69
427.402	770.69
427.625	858.69
427.847	831.69
428.069	672.69
428.292	599.69
428.514	558.69
428.736	519.69
428.958	486.69
429.181	490.69
429.403	486.69
429.625	485.69
429.847	526.69
430.069	573.69
430.292	579.69
430.514	506.69
430.736	485.69
430.958	478.69
431.18	471.69
431.402	452.69
431.624	442.69
431.846	438.69
432.068	414.69
432.29	432.69
432.512	442.69
432.734	438.69
432.956	428.69
433.178	453.69
433.4	448.69
433.622	462.69
433.844	434.69
434.066	416.69
434.287	422.69
434.509	444.69
434.731	432.69
434.953	450.69
435.175	464.69
435.397	494.69
435.618	527.69
435.84	583.69
436.062	647.69
436.284	726.69
436.505	638.69
436.727	563.69
436.949	518.69
437.17	512.69
437.392	495.69
437.614	486.69
437.835	554.69
438.057	696.69
438.278	768.69
438.5	764.69
438.721	788.69
438.943	767.69
439.165	621.69
439.386	559.69
439.608	572.69
439.829	563.69
440.05	568.69
440.272	636.69
440.493	591.69
440.715	552.69
440.936	493.69
441.158	503.69
441.379	488.69
441.6	509.69
441.822	506.69
442.043	572.69
442.264	661.69
442.486	711.69
442.707	616.69
442.928	556.69
443.149	555.69
443.371	572.69
443.592	644.69
443.813	694.69
444.034	743.69
444.255	611.69
444.476	554.69
444.698	528.69
444.919	521.69
445.14	626.69
445.361	587.69
445.582	593.69
445.803	642.69
446.024	759.69
446.245	774.69
446.466	696.69
446.687	590.69
446.908	526.69
447.129	518.69
447.35	514.69
447.571	504.69
447.792	481.69
448.013	487.69
448.234	505.69
448.455	590.69
448.675	675.69
448.896	780.69
449.117	674.69
449.338	610.69
449.559	707.69
449.779	819.69
450	673.69
450.221	587.69
450.442	538.69
450.662	481.69
450.883	512.69
451.104	538.69
451.324	517.69
451.545	472.69
451.766	474.69
451.986	458.69
452.207	441.69
452.428	443.69
452.648	441.69
452.869	431.69
453.089	442.69
453.31	452.69
453.53	450.69
453.751	443.69
453.971	457.69
454.192	510.69
454.412	466.69
454.633	442.69
454.853	449.69
455.073	441.69
455.294	490.69
455.514	564.69
455.734	536.69
455.955	433.69
456.175	398.69
456.395	412.69
456.616	399.69
456.836	399.69
457.056	407.69
457.276	390.69
457.497	422.69
457.717	389.69
457.937	398.69
458.157	385.69
458.377	416.69
458.598	447.69
458.818	512.69
459.038	641.69
459.258	674.69
459.478	536.69
459.698	486.69
459.918	460.69
460.138	423.69
460.358	415.69
460.578	415.69
460.798	428.69
461.018	440.69
461.238	431.69
461.458	438.69
461.678	415.69
461.898	426.69
462.118	423.69
462.338	436.69
462.558	432.69
462.777	422.69
462.997	436.69
463.217	420.69
463.437	436.69
463.657	423.69
463.876	442.69
464.096	444.69
464.316	445.69
464.536	464.69
464.755	463.69
464.975	478.69
465.195	550.69
465.414	697.69
465.634	614.69
465.854	523.69
466.073	495.69
466.293	464.69
466.512	413.69
466.732	441.69
466.951	427.69
467.171	424.69
467.391	430.69
467.61	419.69
467.829	461.69
468.049	429.69
468.268	416.69
468.488	408.69
468.707	406.69
468.927	424.69
469.146	420.69
469.365	411.69
469.585	418.69
469.804	434.69
470.023	451.69
470.243	428.69
470.462	464.69
470.681	469.69
470.901	486.69
471.12	432.69
471.339	438.69
471.558	431.69
471.777	443.69
471.997	425.69
472.216	425.69
472.435	448.69
472.654	425.69
472.873	436.69
473.092	412.69
473.311	421.69
473.53	444.69
473.749	438.69
473.968	502.69
474.187	607.69
474.406	637.69
474.625	533.69
474.844	474.69
475.063	448.69
475.282	445.69
475.501	440.69
475.72	455.69
475.939	442.69
476.158	463.69
476.377	447.69
476.596	429.69
476.814	488.69
477.033	482.69
477.252	474.69
477.471	461.69
477.69	455.69
477.908	483.69
478.127	459.69
478.346	449.69
478.564	469.69
478.783	489.69
479.002	487.69
479.22	500.69
479.439	516.69
479.658	517.69
479.876	538.69
480.095	534.69
480.313	578.69
480.532	565.69
480.751	533.69
480.969	523.69
481.188	538.69
481.406	549.69
481.624	523.69
481.843	534.69
482.061	514.69
482.28	495.69
482.498	493.69
482.717	512.69
482.935	515.69
483.153	501.69
483.372	517.69
483.59	508.69
483.808	529.69
484.027	507.69
484.245	517.69
484.463	526.69
484.681	522.69
484.9	515.69
485.118	521.69
485.336	528.69
485.554	526.69
485.772	511.69
485.99	535.69
486.209	549.69
486.427	544.69
486.645	555.69
486.863	596.69
487.081	585.69
487.299	570.69
487.517	567.69
487.735	572.69
487.953	578.69
488.171	557.69
488.389	566.69
488.607	556.69
488.825	578.69
489.043	570.69
489.261	586.69
489.479	569.69
489.696	572.69
489.914	579.69
490.132	599.69
490.35	582.69
490.568	606.69
490.786	599.69
491.003	621.69
491.221	598.69
491.439	639.69
491.657	633.69
491.874	626.69
492.092	664.69
492.31	641.69
492.527	639.69
492.745	638.69
492.963	669.69
493.18	662.69
493.398	674.69
493.615	667.69
493.833	672.69
494.05	708.69
494.268	659.69
494.485	666.69
494.703	676.69
494.92	691.69
495.138	679.69
495.355	690.69
495.573	709.69
495.79	679.69
496.008	688.69
496.225	705.69
496.442	664.69
496.66	657.69
496.877	640.69
497.094	703.69
497.312	679.69
497.529	686.69
497.746	685.69
497.963	723.69
498.181	732.69
498.398	736.69
498.615	718.69
498.832	720.69
499.049	746.69
499.267	737.69
499.484	745.69
499.701	755.69
499.918	795.69
500.135	783.69
500.352	795.69
500.569	802.69
500.786	777.69
501.003	792.69
501.22	806.69
501.437	802.69
501.654	823.69
501.871	794.69
502.088	816.69
502.305	777.69
502.522	755.69
502.739	741.69
502.956	714.69
503.172	697.69
503.389	724.69
503.606	748.69
503.823	715.69
504.04	731.69
504.256	683.69
504.473	696.69
504.69	670.69
504.907	720.69
505.123	683.69
505.34	685.69
505.557	676.69
505.773	639.69
505.99	666.69
506.207	687.69
506.423	680.69
506.64	685.69
506.856	672.69
507.073	663.69
507.289	675.69
507.506	674.69
507.722	675.69
507.939	724.69
508.155	703.69
508.372	685.69
508.588	690.69
508.805	656.69
509.021	652.69
509.238	675.69
509.454	686.69
509.67	656.69
509.887	688.69
510.103	681.69
510.319	704.69
510.536	850.69
510.752	1554.69
510.968	1245.69
511.184	754.69
511.401	682.69
511.617	646.69
511.833	628.69
512.049	636.69
512.265	657.69
512.481	648.69
512.698	630.69
512.914	633.69
513.13	642.69
513.346	620.69
513.562	652.69
513.778	663.69
513.994	663.69
514.21	696.69
514.426	736.69
514.642	815.69
514.858	848.69
515.074	911.69
515.29	1174.69
515.506	1837.69
515.721	1451.69
515.937	896.69
516.153	774.69
516.369	735.69
516.585	724.69
516.801	672.69
517.016	634.69
517.232	668.69
517.448	660.69
517.664	658.69
517.879	658.69
518.095	642.69
518.311	648.69
518.527	618.69
518.742	625.69
518.958	639.69
519.173	652.69
519.389	633.69
519.605	645.69
519.82	669.69
520.036	696.69
520.251	728.69
520.467	810.69
520.682	750.69
520.898	797.69
521.113	856.69
521.329	908.69
521.544	1080.69
521.76	1467.69
521.975	2523.69
522.19	2446.69
522.406	1253.69
522.621	873.69
522.836	743.69
523.052	705.69
523.267	681.69
523.482	638.69
523.698	610.69
523.913	621.69
524.128	595.69
524.343	606.69
524.559	569.69
524.774	562.69
524.989	582.69
525.204	564.69
525.419	564.69
525.634	545.69
525.849	563.69
526.064	548.69
526.28	544.69
526.495	537.69
526.71	547.69
526.925	514.69
527.14	517.69
527.355	515.69
527.57	521.69
527.785	502.69
527.999	498.69
528.214	511.69
528.429	517.69
528.644	505.69
528.859	491.69
529.074	499.69
529.289	532.69
529.503	683.69
529.718	654.69
529.933	571.69
530.148	540.69
530.363	541.69
530.577	508.69
530.792	512.69
531.007	491.69
531.221	505.69
531.436	476.69
531.651	478.69
531.865	460.69
532.08	479.69
532.295	488.69
532.509	466.69
532.724	467.69
532.938	464.69
533.153	469.69
533.367	468.69
533.582	482.69
533.796	458.69
534.011	464.69
534.225	451.69
534.44	459.69
534.654	442.69
534.868	455.69
535.083	463.69
535.297	449.69
535.511	459.69
535.726	500.69
535.94	456.69
536.154	468.69
536.369	469.69
536.583	450.69
536.797	452.69
537.011	458.69
537.225	464.69
537.44	444.69
537.654	455.69
537.868	440.69
538.082	455.69
538.296	474.69
538.51	451.69
538.724	453.69
538.938	461.69
539.153	448.69
539.367	471.69
539.581	481.69
539.795	456.69
540.009	450.69
540.222	460.69
540.436	471.69
540.65	468.69
540.864	465.69
541.078	463.69
541.292	462.69
541.506	430.69
541.72	449.69
541.934	440.69
542.147	429.69
542.361	444.69
542.575	431.69
542.789	430.69
543.002	451.69
543.216	442.69
543.43	444.69
543.644	443.69
543.857	436.69
544.071	419.69
544.285	442.69
544.498	426.69
544.712	428.69
544.925	404.69
545.139	411.69
545.352	422.69
545.566	414.69
545.779	422.69
545.993	428.69
546.206	428.69
546.42	427.69
546.633	425.69
546.847	429.69
547.06	406.69
547.274	450.69
547.487	393.69
547.7	392.69
547.914	388.69
548.127	393.69
548.34	420.69
548.554	414.69
548.767	399.69
548.98	383.69
549.193	402.69
549.407	398.69
549.62	390.69
549.833	394.69
550.046	387.69
550.259	379.69
550.473	383.69
550.686	390.69
550.899	399.69
551.112	407.69
551.325	387.69
551.538	384.69
551.751	397.69
551.964	387.69
552.177	393.69
552.39	396.69
552.603	406.69
552.816	362.69
553.029	412.69
553.242	394.69
553.455	407.69
553.667	406.69
553.88	438.69
554.093	423.69
554.306	417.69
554.519	413.69
554.732	405.69
554.944	401.69
555.157	379.69
555.37	413.69
555.583	395.69
555.795	406.69
556.008	395.69
556.221	382.69
556.433	367.69
556.646	378.69
556.859	370.69
557.071	384.69
557.284	373.69
557.496	386.69
557.709	374.69
557.921	349.69
558.134	376.69
558.346	361.69
558.559	367.69
558.771	358.69
558.984	374.69
559.196	371.69
559.409	375.69
559.621	365.69
559.833	350.69
560.046	358.69
560.258	350.69
560.47	364.69
560.683	352.69
560.895	350.69
561.107	364.69
561.32	371.69
561.532	363.69
561.744	340.69
561.956	364.69
562.168	358.69
562.381	356.69
562.593	351.69
562.805	349.69
563.017	343.69
563.229	354.69
563.441	354.69
563.653	366.69
563.865	373.69
564.077	380.69
564.289	358.69
564.501	359.69
564.713	353.69
564.925	350.69
565.137	404.69
565.349	389.69
565.561	382.69
565.773	375.69
565.985	389.69
566.197	391.69
566.408	387.69
566.62	370.69
566.832	395.69
567.044	374.69
567.255	393.69
567.467	395.69
567.679	393.69
567.891	387.69
568.102	384.69
568.314	397.69
568.526	370.69
568.737	372.69
568.949	372.69
569.161	375.69
569.372	375.69
569.584	360.69
569.795	358.69
570.007	367.69
570.218	445.69
570.43	434.69
570.641	352.69
570.853	366.69
571.064	341.69
571.276	345.69
571.487	332.69
571.698	338.69
571.91	340.69
572.121	337.69
572.333	345.69
572.544	335.69
572.755	330.69
572.966	314.69
573.178	326.69
573.389	315.69
573.6	304.69
573.811	327.69
574.023	321.69
574.234	318.69
574.445	313.69
574.656	312.69
574.867	308.69
575.078	319.69
575.289	314.69
575.501	313.69
575.712	288.69
575.923	320.69
576.134	298.69
576.345	320.69
576.556	290.69
576.767	315.69
576.978	317.69
577.188	310.69
577.399	284.69
577.61	294.69
577.821	297.69
578.032	308.69
578.243	359.69
578.454	710.69
578.665	493.69
578.875	327.69
579.086	316.69
579.297	281.69
579.508	292.69
579.718	313.69
579.929	300.69
580.14	307.69
580.35	298.69
580.561	306.69
580.772	298.69
580.982	293.69
581.193	300.69
581.403	287.69
581.614	290.69
581.825	280.69
582.035	272.69
582.246	283.69
582.456	285.69
582.667	300.69
582.877	272.69
583.087	301.69
583.298	277.69
583.508	282.69
583.719	288.69
583.929	300.69
584.139	294.69
584.35	271.69
584.56	287.69
584.77	279.69
584.981	283.69
585.191	312.69
585.401	276.69
585.611	287.69
585.821	287.69
586.032	288.69
586.242	297.69
586.452	263.69
586.662	287.69
586.872	279.69
587.082	268.69
587.292	287.69
587.502	266.69
587.713	279.69
587.923	261.69
588.133	255.69
588.343	272.69
588.553	266.69
588.762	278.69
588.972	276.69
589.182	285.69
589.392	293.69
589.602	268.69
589.812	287.69
590.022	283.69
590.232	275.69
590.441	260.69
590.651	265.69
590.861	289.69
591.071	278.69
591.281	281.69
591.49	286.69
591.7	292.69
591.91	273.69
592.119	260.69
592.329	275.69
592.539	275.69
592.748	266.69
592.958	290.69
593.167	298.69
593.377	277.69
593.587	300.69
593.796	271.69
594.006	262.69
594.215	267.69
594.424	253.69
594.634	267.69
594.843	284.69
595.053	262.69
595.262	273.69
595.472	272.69
595.681	268.69
595.89	261.69
596.1	242.69
596.309	235.69
596.518	274.69
596.727	242.69
596.937	248.69
597.146	272.69
597.355	243.69
597.564	253.69
597.774	250.69
597.983	244.69
598.192	250.69
598.401	255.69
598.61	255.69
598.819	253.69
599.028	231.69
599.237	264.69
599.446	250.69
599.655	268.69
599.864	245.69
600.073	240.69
600.282	242.69
600.491	235.69
600.7	256.69
600.909	250.69
601.118	253.69
601.327	225.69
601.536	234.69
601.745	232.69
601.953	221.69
602.162	226.69
602.371	229.69
602.58	247.69
602.789	240.69
602.997	235.69
603.206	235.69
603.415	216.69
603.623	229.69
603.832	223.69
604.041	216.69
604.249	231.69
604.458	225.69
604.666	215.69
604.875	236.69
605.084	231.69
605.292	231.69
605.501	232.69
605.709	235.69
605.918	237.69
606.126	229.69
606.334	212.69
606.543	230.69
606.751	215.69
606.96	222.69
607.168	235.69
607.376	218.69
607.585	224.69
607.793	222.69
608.001	226.69
608.21	227.69
608.418	217.69
608.626	223.69
608.834	222.69
609.043	216.69
609.251	223.69
609.459	218.69
609.667	223.69
609.875	221.69
610.083	222.69
610.291	226.69
610.499	220.69
610.707	236.69
610.916	228.69
611.124	226.69
611.332	222.69
611.54	228.69
611.748	224.69
611.955	230.69
612.163	226.69
612.371	233.69
612.579	218.69
612.787	234.69
612.995	214.69
613.203	227.69
613.411	212.69
613.618	228.69
613.826	219.69
614.034	231.69
614.242	209.69
614.449	214.69
614.657	228.69
614.865	220.69
615.072	225.69
615.28	207.69
615.488	233.69
615.695	218.69
615.903	205.69
616.111	227.69
616.318	229.69
616.526	213.69
616.733	206.69
616.941	218.69
617.148	215.69
617.356	207.69
617.563	230.69
617.771	215.69
617.978	221.69
618.185	215.69
618.393	229.69
618.6	220.69
618.807	204.69
619.015	214.69
619.222	199.69
619.429	206.69
619.637	212.69
619.844	200.69
620.051	203.69
620.258	218.69
620.466	216.69
620.673	208.69
620.88	207.69
621.087	214.69
621.294	211.69
621.501	222.69
621.708	216.69
621.915	211.69
622.122	206.69
622.329	210.69
622.536	205.69
622.743	198.69
622.95	211.69
623.157	205.69
623.364	203.69
623.571	210.69
623.778	191.69
623.985	200.69
624.192	207.69
624.399	193.69
624.606	206.69
624.812	201.69
625.019	203.69
625.226	218.69
625.433	204.69
625.639	200.69
625.846	192.69
626.053	205.69
626.259	194.69
626.466	202.69
626.673	201.69
626.879	185.69
627.086	202.69
627.293	188.69
627.499	201.69
627.706	202.69
627.912	200.69
628.119	215.69
628.325	199.69
628.532	190.69
628.738	192.69
628.945	200.69
629.151	191.69
629.357	203.69
629.564	200.69
629.77	188.69
629.976	198.69
630.183	182.69
630.389	198.69
630.595	181.69
630.802	190.69
631.008	175.69
631.214	181.69
631.42	175.69
631.627	178.69
631.833	167.69
632.039	178.69
632.245	179.69
632.451	185.69
632.657	179.69
632.863	179.69
633.069	183.69
633.275	169.69
633.481	182.69
633.688	173.69
633.893	173.69
634.099	171.69
634.305	180.69
634.511	151.69
634.717	171.69
634.923	176.69
635.129	183.69
635.335	178.69
635.541	167.69
635.747	167.69
635.952	172.69
636.158	172.69
636.364	172.69
636.57	163.69
636.775	170.69
636.981	169.69
637.187	168.69
637.392	169.69
637.598	165.69
637.804	176.69
638.009	168.69
638.215	171.69
638.421	166.69
638.626	166.69
638.832	168.69
639.037	175.69
639.243	161.69
639.448	172.69
639.654	168.69
639.859	166.69
640.065	173.69
640.27	174.69
640.475	158.69
640.681	170.69
640.886	171.69
641.091	168.69
641.297	155.69
641.502	156.69
641.707	159.69
641.913	170.69
642.118	154.69
642.323	156.69
642.528	158.69
642.733	166.69
642.939	170.69
643.144	168.69
643.349	147.69
643.554	153.69
643.759	156.69
643.964	168.69
644.169	175.69
644.374	158.69
644.579	153.69
644.784	161.69
644.989	154.69
645.194	163.69
645.399	173.69
645.604	158.69
645.809	143.69
646.014	165.69
646.219	150.69
646.423	164.69
646.628	178.69
646.833	159.69
647.038	159.69
647.243	152.69
647.447	146.69
647.652	155.69
647.857	155.69
648.062	179.69
648.266	151.69
648.471	151.69
648.676	158.69
648.88	171.69
649.085	160.69
649.289	143.69
649.494	158.69
649.698	172.69
649.903	173.69
650.107	166.69
650.312	162.69
650.516	138.69
650.721	154.69
650.925	141.69
651.13	144.69
651.334	147.69
651.539	134.69
651.743	139.69
651.947	132.69
652.152	144.69
652.356	140.69
652.56	111.69
652.764	145.69
652.969	136.69
653.173	148.69
653.377	149.69
653.581	131.69
653.785	153.69
653.99	129.69
654.194	136.69
654.398	122.69
654.602	124.69
654.806	137.69
655.01	133.69
655.214	142.69
655.418	126.69
655.622	127.69
655.826	132.69
656.03	118.69
656.234	135.69
656.438	118.69
656.642	124.69
656.846	127.69
657.049	132.69
657.253	114.69
657.457	95.69
657.661	120.69
657.865	99.69
658.068	107.69
658.272	107.69
658.476	110.69
658.68	124.69
658.883	107.69
659.087	100.69
659.291	103.69
659.494	108.69
659.698	110.69
659.901	98.69
660.105	91.69
660.309	86.69
660.512	105.69
660.716	107.69
660.919	95.69
661.123	98.69
661.326	102.69
661.53	79.69
661.733	96.69
661.936	81.69
662.14	90.69
662.343	85.69
662.546	98.69
662.75	81.69
662.953	91.69
663.156	89.69
663.36	83.69
663.563	79.69
663.766	83.69
663.969	78.69
664.173	77.69
664.376	86.69
664.579	80.69
664.782	96.69
664.985	76.69
665.188	63.69
665.391	91.69
665.594	86.69
665.797	88.69
666	79.69
666.203	68.69
666.406	92.69
666.609	88.69
666.812	78.69
667.015	87.69
667.218	89.69
667.421	96.69
667.624	87.69
667.827	78.69
668.03	81.69
668.232	92.69
668.435	86.69
668.638	90.69
668.841	99.69
669.043	76.69
669.246	91.69
669.449	80.69
669.651	68.69
669.854	66.69
670.057	102.69
670.259	72.69
670.462	79.69
670.665	85.69
670.867	80.69
671.07	89.69
671.272	84.69
671.475	99.69
671.677	91.69
671.88	86.69
672.082	88.69
672.284	75.69
672.487	88.69
672.689	88.69
672.892	85.69
