Data from 1987.PennyLincolnUp.Lamp.En5.5.200Scan.071819.P2_HRD10591_17-13-47-972.txt Node
Date: Thu Jul 18 17:13:47 EDT 2019
User: cochatt
Spectrometer: HR+D1059
Trigger mode: 1
Integration Time (sec): 1.000000E-1
Scans to average: 1
Electric dark correction enabled: true
Nonlinearity correction enabled: false
Boxcar width: 0
XAxis mode: Wavelengths
Number of Pixels in Spectrum: 2048
>>>>>Begin Spectral Data<<<<<
223.165	-8.94
223.4	-8.94
223.635	-8.94
223.869	-7.94
224.104	-12.94
224.338	-19.94
224.573	-13.94
224.808	-31.94
225.042	-6.94
225.277	-2.94
225.511	-11.94
225.746	6.06
225.98	0.06
226.215	12.06
226.449	15.06
226.683	23.06
226.918	31.06
227.152	30.06
227.387	12.06
227.621	34.06
227.856	41.06
228.09	35.06
228.324	64.06
228.559	59.06
228.793	90.06
229.027	112.06
229.262	126.06
229.496	143.06
229.73	162.06
229.964	204.06
230.199	144.06
230.433	137.06
230.667	138.06
230.901	142.06
231.136	126.06
231.37	108.06
231.604	126.06
231.838	116.06
232.072	109.06
232.306	127.06
232.541	109.06
232.775	103.06
233.009	128.06
233.243	110.06
233.477	105.06
233.711	117.06
233.945	123.06
234.179	111.06
234.413	115.06
234.647	115.06
234.881	114.06
235.115	118.06
235.349	122.06
235.583	119.06
235.817	121.06
236.051	125.06
236.285	127.06
236.519	146.06
236.753	130.06
236.987	157.06
237.221	182.06
237.455	230.06
237.689	201.06
237.922	154.06
238.156	146.06
238.39	150.06
238.624	141.06
238.858	127.06
239.091	127.06
239.325	124.06
239.559	138.06
239.793	138.06
240.027	140.06
240.26	152.06
240.494	166.06
240.728	144.06
240.961	155.06
241.195	156.06
241.429	126.06
241.662	129.06
241.896	135.06
242.13	124.06
242.363	125.06
242.597	120.06
242.83	134.06
243.064	130.06
243.298	147.06
243.531	128.06
243.765	127.06
243.998	120.06
244.232	127.06
244.465	140.06
244.699	140.06
244.932	144.06
245.166	143.06
245.399	138.06
245.633	131.06
245.866	134.06
246.099	140.06
246.333	135.06
246.566	137.06
246.8	134.06
247.033	157.06
247.266	167.06
247.5	143.06
247.733	145.06
247.966	163.06
248.2	170.06
248.433	174.06
248.666	166.06
248.899	150.06
249.133	195.06
249.366	185.06
249.599	205.06
249.832	197.06
250.066	155.06
250.299	161.06
250.532	159.06
250.765	182.06
250.998	186.06
251.231	203.06
251.465	193.06
251.698	184.06
251.931	190.06
252.164	188.06
252.397	186.06
252.63	183.06
252.863	196.06
253.096	191.06
253.329	198.06
253.562	191.06
253.795	213.06
254.028	198.06
254.261	207.06
254.494	182.06
254.727	230.06
254.96	245.06
255.193	241.06
255.426	229.06
255.659	201.06
255.892	190.06
256.124	206.06
256.357	210.06
256.59	200.06
256.823	175.06
257.056	188.06
257.289	186.06
257.521	203.06
257.754	180.06
257.987	184.06
258.22	179.06
258.452	196.06
258.685	182.06
258.918	197.06
259.151	196.06
259.383	189.06
259.616	199.06
259.849	212.06
260.081	211.06
260.314	239.06
260.547	227.06
260.779	249.06
261.012	210.06
261.244	219.06
261.477	204.06
261.71	222.06
261.942	265.06
262.175	323.06
262.407	308.06
262.64	229.06
262.872	211.06
263.105	218.06
263.337	232.06
263.57	208.06
263.802	211.06
264.035	195.06
264.267	188.06
264.499	198.06
264.732	209.06
264.964	191.06
265.197	196.06
265.429	198.06
265.661	208.06
265.894	194.06
266.126	205.06
266.358	192.06
266.591	199.06
266.823	205.06
267.055	191.06
267.287	203.06
267.52	192.06
267.752	208.06
267.984	202.06
268.216	198.06
268.448	208.06
268.681	221.06
268.913	221.06
269.145	219.06
269.377	259.06
269.609	259.06
269.841	246.06
270.073	238.06
270.306	249.06
270.538	256.06
270.77	281.06
271.002	276.06
271.234	253.06
271.466	263.06
271.698	271.06
271.93	278.06
272.162	294.06
272.394	294.06
272.626	293.06
272.858	278.06
273.09	285.06
273.322	258.06
273.553	261.06
273.785	239.06
274.017	248.06
274.249	251.06
274.481	251.06
274.713	253.06
274.945	265.06
275.176	253.06
275.408	266.06
275.64	255.06
275.872	247.06
276.104	270.06
276.335	264.06
276.567	281.06
276.799	322.06
277.031	331.06
277.262	329.06
277.494	310.06
277.726	286.06
277.957	285.06
278.189	267.06
278.421	256.06
278.652	261.06
278.884	247.06
279.115	249.06
279.347	302.06
279.579	364.06
279.81	411.06
280.042	370.06
280.273	332.06
280.505	342.06
280.736	292.06
280.968	270.06
281.199	255.06
281.431	252.06
281.662	246.06
281.894	239.06
282.125	260.06
282.356	294.06
282.588	374.06
282.819	368.06
283.051	284.06
283.282	248.06
283.513	253.06
283.745	234.06
283.976	248.06
284.207	250.06
284.439	265.06
284.67	247.06
284.901	249.06
285.132	275.06
285.364	310.06
285.595	295.06
285.826	256.06
286.057	250.06
286.288	236.06
286.52	250.06
286.751	258.06
286.982	240.06
287.213	264.06
287.444	260.06
287.675	264.06
287.906	270.06
288.138	278.06
288.369	314.06
288.6	307.06
288.831	265.06
289.062	252.06
289.293	263.06
289.524	245.06
289.755	252.06
289.986	250.06
290.217	233.06
290.448	232.06
290.679	239.06
290.91	249.06
291.141	238.06
291.371	240.06
291.602	242.06
291.833	244.06
292.064	252.06
292.295	247.06
292.526	256.06
292.757	248.06
292.987	226.06
293.218	268.06
293.449	258.06
293.68	258.06
293.91	253.06
294.141	250.06
294.372	244.06
294.603	263.06
294.833	241.06
295.064	269.06
295.295	258.06
295.525	253.06
295.756	273.06
295.987	311.06
296.217	372.06
296.448	390.06
296.679	317.06
296.909	269.06
297.14	285.06
297.37	277.06
297.601	261.06
297.831	262.06
298.062	246.06
298.292	245.06
298.523	270.06
298.753	278.06
298.984	268.06
299.214	265.06
299.445	263.06
299.675	281.06
299.905	296.06
300.136	300.06
300.366	280.06
300.597	301.06
300.827	290.06
301.057	317.06
301.288	348.06
301.518	329.06
301.748	299.06
301.979	278.06
302.209	297.06
302.439	306.06
302.669	307.06
302.9	309.06
303.13	308.06
303.36	293.06
303.59	308.06
303.82	336.06
304.051	338.06
304.281	291.06
304.511	259.06
304.741	277.06
304.971	280.06
305.201	288.06
305.431	293.06
305.661	288.06
305.891	287.06
306.121	290.06
306.352	300.06
306.582	334.06
306.812	323.06
307.042	301.06
307.272	309.06
307.502	316.06
307.731	336.06
307.961	321.06
308.191	312.06
308.421	316.06
308.651	322.06
308.881	333.06
309.111	347.06
309.341	370.06
309.571	401.06
309.8	415.06
310.03	430.06
310.26	450.06
310.49	456.06
310.72	471.06
310.949	518.06
311.179	548.06
311.409	453.06
311.639	442.06
311.868	427.06
312.098	438.06
312.328	456.06
312.557	485.06
312.787	538.06
313.017	534.06
313.246	451.06
313.476	422.06
313.706	420.06
313.935	442.06
314.165	462.06
314.394	515.06
314.624	495.06
314.853	452.06
315.083	438.06
315.312	362.06
315.542	382.06
315.771	398.06
316.001	405.06
316.23	418.06
316.46	425.06
316.689	407.06
316.919	434.06
317.148	432.06
317.377	437.06
317.607	459.06
317.836	466.06
318.065	459.06
318.295	478.06
318.524	443.06
318.753	418.06
318.983	413.06
319.212	409.06
319.441	446.06
319.67	470.06
319.9	399.06
320.129	423.06
320.358	397.06
320.587	419.06
320.816	460.06
321.046	465.06
321.275	488.06
321.504	466.06
321.733	458.06
321.962	489.06
322.191	540.06
322.42	592.06
322.649	638.06
322.878	652.06
323.108	714.06
323.337	793.06
323.566	861.06
323.795	987.06
324.024	1154.06
324.253	1501.06
324.482	2214.06
324.71	3157.06
324.939	4138.06
325.168	3630.06
325.397	2215.06
325.626	1438.06
325.855	1081.06
326.084	893.06
326.313	839.06
326.542	891.06
326.77	1004.06
326.999	1252.06
327.228	1847.06
327.457	2767.06
327.686	3300.06
327.914	2388.06
328.143	1576.06
328.372	1250.06
328.6	1095.06
328.829	988.06
329.058	1046.06
329.287	1048.06
329.515	927.06
329.744	784.06
329.972	758.06
330.201	742.06
330.43	849.06
330.658	954.06
330.887	1079.06
331.115	1018.06
331.344	784.06
331.572	691.06
331.801	714.06
332.03	641.06
332.258	615.06
332.486	525.06
332.715	476.06
332.943	488.06
333.172	511.06
333.4	504.06
333.629	502.06
333.857	550.06
334.085	557.06
334.314	515.06
334.542	541.06
334.771	573.06
334.999	546.06
335.227	496.06
335.455	471.06
335.684	433.06
335.912	444.06
336.14	443.06
336.369	473.06
336.597	488.06
336.825	498.06
337.053	474.06
337.281	442.06
337.51	437.06
337.738	448.06
337.966	424.06
338.194	468.06
338.422	478.06
338.65	459.06
338.878	419.06
339.106	399.06
339.334	426.06
339.562	420.06
339.79	421.06
340.018	445.06
340.246	431.06
340.474	444.06
340.702	460.06
340.93	445.06
341.158	428.06
341.386	456.06
341.614	453.06
341.842	452.06
342.07	449.06
342.298	422.06
342.526	410.06
342.754	397.06
342.981	346.06
343.209	391.06
343.437	377.06
343.665	391.06
343.893	379.06
344.12	379.06
344.348	406.06
344.576	421.06
344.804	461.06
345.031	484.06
345.259	516.06
345.487	524.06
345.714	477.06
345.942	464.06
346.17	455.06
346.397	444.06
346.625	436.06
346.853	424.06
347.08	430.06
347.308	447.06
347.535	483.06
347.763	494.06
347.99	472.06
348.218	489.06
348.445	526.06
348.673	488.06
348.9	460.06
349.128	446.06
349.355	406.06
349.583	422.06
349.81	407.06
350.037	414.06
350.265	418.06
350.492	414.06
350.72	416.06
350.947	439.06
351.174	476.06
351.402	488.06
351.629	494.06
351.856	514.06
352.083	506.06
352.311	540.06
352.538	541.06
352.765	555.06
352.992	525.06
353.22	502.06
353.447	463.06
353.674	437.06
353.901	402.06
354.128	378.06
354.355	375.06
354.583	373.06
354.81	379.06
355.037	365.06
355.264	326.06
355.491	348.06
355.718	351.06
355.945	345.06
356.172	330.06
356.399	334.06
356.626	364.06
356.853	353.06
357.08	370.06
357.307	365.06
357.534	354.06
357.761	348.06
357.988	377.06
358.215	389.06
358.441	395.06
358.668	378.06
358.895	378.06
359.122	398.06
359.349	423.06
359.576	479.06
359.802	556.06
360.029	661.06
360.256	702.06
360.483	607.06
360.709	518.06
360.936	474.06
361.163	466.06
361.39	502.06
361.616	481.06
361.843	475.06
362.07	514.06
362.296	507.06
362.523	501.06
362.749	458.06
362.976	430.06
363.203	427.06
363.429	418.06
363.656	399.06
363.882	413.06
364.109	421.06
364.335	415.06
364.562	408.06
364.788	400.06
365.015	405.06
365.241	396.06
365.468	415.06
365.694	438.06
365.92	442.06
366.147	406.06
366.373	396.06
366.599	381.06
366.826	366.06
367.052	399.06
367.278	383.06
367.505	391.06
367.731	395.06
367.957	377.06
368.184	400.06
368.41	405.06
368.636	419.06
368.862	411.06
369.089	392.06
369.315	373.06
369.541	400.06
369.767	363.06
369.993	380.06
370.219	391.06
370.445	363.06
370.672	365.06
370.898	364.06
371.124	357.06
371.35	349.06
371.576	329.06
371.802	346.06
372.028	352.06
372.254	339.06
372.48	349.06
372.706	337.06
372.932	315.06
373.158	332.06
373.384	352.06
373.61	365.06
373.835	392.06
374.061	384.06
374.287	405.06
374.513	365.06
374.739	370.06
374.965	378.06
375.191	376.06
375.416	346.06
375.642	330.06
375.868	356.06
376.094	355.06
376.319	339.06
376.545	329.06
376.771	353.06
376.997	336.06
377.222	338.06
377.448	344.06
377.674	327.06
377.899	319.06
378.125	314.06
378.35	316.06
378.576	317.06
378.802	300.06
379.027	317.06
379.253	314.06
379.478	307.06
379.704	332.06
379.929	333.06
380.155	347.06
380.38	358.06
380.606	361.06
380.831	322.06
381.057	335.06
381.282	350.06
381.507	344.06
381.733	343.06
381.958	339.06
382.184	372.06
382.409	348.06
382.634	364.06
382.86	345.06
383.085	373.06
383.31	352.06
383.535	368.06
383.761	363.06
383.986	365.06
384.211	366.06
384.436	332.06
384.662	324.06
384.887	346.06
385.112	348.06
385.337	344.06
385.562	363.06
385.787	377.06
386.013	380.06
386.238	417.06
386.463	404.06
386.688	378.06
386.913	366.06
387.138	360.06
387.363	366.06
387.588	347.06
387.813	328.06
388.038	361.06
388.263	363.06
388.488	358.06
388.713	352.06
388.938	338.06
389.163	343.06
389.387	365.06
389.612	341.06
389.837	331.06
390.062	322.06
390.287	351.06
390.512	350.06
390.736	366.06
390.961	350.06
391.186	349.06
391.411	369.06
391.636	382.06
391.86	374.06
392.085	372.06
392.31	407.06
392.534	421.06
392.759	518.06
392.984	609.06
393.208	957.06
393.433	1577.06
393.658	1725.06
393.882	837.06
394.107	537.06
394.331	446.06
394.556	446.06
394.78	428.06
395.005	386.06
395.229	399.06
395.454	378.06
395.678	397.06
395.903	407.06
396.127	475.06
396.352	549.06
396.576	628.06
396.801	919.06
397.025	1322.06
397.249	968.06
397.474	516.06
397.698	448.06
397.922	421.06
398.147	410.06
398.371	419.06
398.595	376.06
398.82	377.06
399.044	387.06
399.268	401.06
399.492	390.06
399.717	413.06
399.941	442.06
400.165	460.06
400.389	463.06
400.613	441.06
400.837	411.06
401.062	416.06
401.286	406.06
401.51	399.06
401.734	419.06
401.958	419.06
402.182	422.06
402.406	471.06
402.63	477.06
402.854	443.06
403.078	420.06
403.302	442.06
403.526	426.06
403.75	422.06
403.974	408.06
404.198	403.06
404.422	428.06
404.645	427.06
404.869	466.06
405.093	453.06
405.317	477.06
405.541	518.06
405.765	482.06
405.988	468.06
406.212	524.06
406.436	581.06
406.66	596.06
406.883	509.06
407.107	510.06
407.331	539.06
407.555	586.06
407.778	582.06
408.002	535.06
408.226	470.06
408.449	475.06
408.673	484.06
408.896	465.06
409.12	488.06
409.344	459.06
409.567	447.06
409.791	424.06
410.014	398.06
410.238	391.06
410.461	396.06
410.685	406.06
410.908	427.06
411.132	466.06
411.355	471.06
411.578	462.06
411.802	420.06
412.025	417.06
412.249	415.06
412.472	423.06
412.695	446.06
412.919	426.06
413.142	394.06
413.365	375.06
413.589	378.06
413.812	372.06
414.035	363.06
414.258	357.06
414.482	368.06
414.705	358.06
414.928	362.06
415.151	367.06
415.374	350.06
415.597	364.06
415.821	362.06
416.044	344.06
416.267	374.06
416.49	354.06
416.713	374.06
416.936	370.06
417.159	367.06
417.382	390.06
417.605	380.06
417.828	404.06
418.051	420.06
418.274	415.06
418.497	386.06
418.72	392.06
418.943	370.06
419.166	382.06
419.389	402.06
419.611	375.06
419.834	389.06
420.057	388.06
420.28	386.06
420.503	394.06
420.726	379.06
420.948	398.06
421.171	446.06
421.394	477.06
421.617	414.06
421.839	402.06
422.062	402.06
422.285	444.06
422.507	590.06
422.73	892.06
422.953	1069.06
423.175	660.06
423.398	471.06
423.621	434.06
423.843	436.06
424.066	438.06
424.288	435.06
424.511	485.06
424.733	540.06
424.956	591.06
425.178	589.06
425.401	582.06
425.623	567.06
425.846	495.06
426.068	498.06
426.291	527.06
426.513	492.06
426.735	488.06
426.958	526.06
427.18	601.06
427.402	741.06
427.625	928.06
427.847	1007.06
428.069	788.06
428.292	634.06
428.514	568.06
428.736	564.06
428.958	514.06
429.181	477.06
429.403	469.06
429.625	466.06
429.847	507.06
430.069	570.06
430.292	616.06
430.514	579.06
430.736	505.06
430.958	471.06
431.18	457.06
431.402	421.06
431.624	405.06
431.846	393.06
432.068	410.06
432.29	420.06
432.512	401.06
432.734	398.06
432.956	414.06
433.178	412.06
433.4	436.06
433.622	421.06
433.844	419.06
434.066	398.06
434.287	392.06
434.509	409.06
434.731	413.06
434.953	401.06
435.175	428.06
435.397	447.06
435.618	483.06
435.84	521.06
436.062	585.06
436.284	613.06
436.505	543.06
436.727	506.06
436.949	450.06
437.17	468.06
437.392	455.06
437.614	462.06
437.835	563.06
438.057	733.06
438.278	761.06
438.5	692.06
438.721	735.06
438.943	679.06
439.165	578.06
439.386	543.06
439.608	550.06
439.829	530.06
440.05	574.06
440.272	621.06
440.493	583.06
440.715	527.06
440.936	510.06
441.158	490.06
441.379	488.06
441.6	507.06
441.822	562.06
442.043	561.06
442.264	586.06
442.486	627.06
442.707	594.06
442.928	548.06
443.149	545.06
443.371	558.06
443.592	605.06
443.813	673.06
444.034	655.06
444.255	594.06
444.476	519.06
444.698	499.06
444.919	492.06
445.14	590.06
445.361	588.06
445.582	627.06
445.803	695.06
446.024	735.06
446.245	688.06
446.466	635.06
446.687	568.06
446.908	506.06
447.129	518.06
447.35	468.06
447.571	469.06
447.792	463.06
448.013	475.06
448.234	508.06
448.455	554.06
448.675	601.06
448.896	672.06
449.117	602.06
449.338	567.06
449.559	655.06
449.779	703.06
450	620.06
450.221	532.06
450.442	518.06
450.662	519.06
450.883	606.06
451.104	668.06
451.324	644.06
451.545	566.06
451.766	518.06
451.986	469.06
452.207	479.06
452.428	461.06
452.648	468.06
452.869	479.06
453.089	495.06
453.31	510.06
453.53	534.06
453.751	530.06
453.971	549.06
454.192	622.06
454.412	591.06
454.633	528.06
454.853	483.06
455.073	478.06
455.294	501.06
455.514	584.06
455.734	565.06
455.955	436.06
456.175	413.06
456.395	413.06
456.616	399.06
456.836	390.06
457.056	389.06
457.276	390.06
457.497	403.06
457.717	395.06
457.937	415.06
458.157	411.06
458.377	454.06
458.598	493.06
458.818	688.06
459.038	859.06
459.258	775.06
459.478	617.06
459.698	534.06
459.918	470.06
460.138	453.06
460.358	424.06
460.578	449.06
460.798	434.06
461.018	422.06
461.238	417.06
461.458	403.06
461.678	407.06
461.898	424.06
462.118	389.06
462.338	414.06
462.558	388.06
462.777	397.06
462.997	406.06
463.217	417.06
463.437	405.06
463.657	403.06
463.876	410.06
464.096	425.06
464.316	470.06
464.536	499.06
464.755	506.06
464.975	544.06
465.195	736.06
465.414	1074.06
465.634	864.06
465.854	670.06
466.073	559.06
466.293	527.06
466.512	485.06
466.732	462.06
466.951	452.06
467.171	440.06
467.391	460.06
467.61	492.06
467.829	564.06
468.049	498.06
468.268	468.06
468.488	466.06
468.707	426.06
468.927	406.06
469.146	427.06
469.365	410.06
469.585	422.06
469.804	426.06
470.023	477.06
470.243	489.06
470.462	514.06
470.681	603.06
470.901	582.06
471.12	498.06
471.339	483.06
471.558	447.06
471.777	450.06
471.997	432.06
472.216	444.06
472.435	446.06
472.654	472.06
472.873	421.06
473.092	426.06
473.311	430.06
473.53	418.06
473.749	449.06
473.968	459.06
474.187	554.06
474.406	580.06
474.625	500.06
474.844	435.06
475.063	429.06
475.282	455.06
475.501	423.06
475.72	404.06
475.939	428.06
476.158	427.06
476.377	454.06
476.596	429.06
476.814	467.06
477.033	520.06
477.252	477.06
477.471	464.06
477.69	454.06
477.908	447.06
478.127	458.06
478.346	462.06
478.564	445.06
478.783	457.06
479.002	460.06
479.22	499.06
479.439	528.06
479.658	599.06
479.876	586.06
480.095	574.06
480.313	570.06
480.532	552.06
480.751	534.06
480.969	530.06
481.188	586.06
481.406	655.06
481.624	564.06
481.843	520.06
482.061	525.06
482.28	509.06
482.498	482.06
482.717	517.06
482.935	490.06
483.153	483.06
483.372	500.06
483.59	508.06
483.808	478.06
484.027	491.06
484.245	498.06
484.463	494.06
484.681	506.06
484.9	496.06
485.118	490.06
485.336	512.06
485.554	494.06
485.772	487.06
485.99	519.06
486.209	500.06
486.427	527.06
486.645	558.06
486.863	603.06
487.081	622.06
487.299	592.06
487.517	545.06
487.735	534.06
487.953	532.06
488.171	542.06
488.389	539.06
488.607	559.06
488.825	549.06
489.043	542.06
489.261	525.06
489.479	499.06
489.696	527.06
489.914	516.06
490.132	535.06
490.35	553.06
490.568	543.06
490.786	546.06
491.003	524.06
491.221	572.06
491.439	557.06
491.657	550.06
491.874	549.06
492.092	566.06
492.31	557.06
492.527	567.06
492.745	565.06
492.963	576.06
493.18	587.06
493.398	579.06
493.615	630.06
493.833	580.06
494.05	581.06
494.268	574.06
494.485	583.06
494.703	566.06
494.92	563.06
495.138	582.06
495.355	597.06
495.573	583.06
495.79	598.06
496.008	612.06
496.225	590.06
496.442	565.06
496.66	594.06
496.877	584.06
497.094	594.06
497.312	610.06
497.529	620.06
497.746	594.06
497.963	630.06
498.181	648.06
498.398	658.06
498.615	656.06
498.832	646.06
499.049	649.06
499.267	637.06
499.484	641.06
499.701	646.06
499.918	655.06
500.135	664.06
500.352	678.06
500.569	675.06
500.786	688.06
501.003	696.06
501.22	678.06
501.437	675.06
501.654	707.06
501.871	754.06
502.088	764.06
502.305	704.06
502.522	679.06
502.739	680.06
502.956	655.06
503.172	629.06
503.389	669.06
503.606	708.06
503.823	752.06
504.04	701.06
504.256	672.06
504.473	630.06
504.69	599.06
504.907	637.06
505.123	610.06
505.34	615.06
505.557	614.06
505.773	591.06
505.99	620.06
506.207	610.06
506.423	599.06
506.64	596.06
506.856	628.06
507.073	645.06
507.289	630.06
507.506	634.06
507.722	728.06
507.939	833.06
508.155	748.06
508.372	684.06
508.588	650.06
508.805	650.06
509.021	658.06
509.238	670.06
509.454	657.06
509.67	654.06
509.887	682.06
510.103	713.06
510.319	784.06
510.536	1227.06
510.752	2937.06
510.968	2356.06
511.184	1004.06
511.401	802.06
511.617	774.06
511.833	725.06
512.049	710.06
512.265	708.06
512.481	692.06
512.698	700.06
512.914	714.06
513.13	732.06
513.346	750.06
513.562	765.06
513.778	802.06
513.994	868.06
514.21	943.06
514.426	1064.06
514.642	1272.06
514.858	1470.06
515.074	1693.06
515.29	2342.06
515.506	3875.06
515.721	2922.06
515.937	1599.06
516.153	1222.06
516.369	1067.06
516.585	943.06
516.801	862.06
517.016	864.06
517.232	809.06
517.448	820.06
517.664	820.06
517.879	782.06
518.095	755.06
518.311	783.06
518.527	804.06
518.742	815.06
518.958	799.06
519.173	826.06
519.389	824.06
519.605	883.06
519.82	867.06
520.036	956.06
520.251	1075.06
520.467	1208.06
520.682	1229.06
520.898	1300.06
521.113	1476.06
521.329	1754.06
521.544	2214.06
521.76	3227.06
521.975	5484.06
522.19	5251.06
522.406	2635.06
522.621	1650.06
522.836	1276.06
523.052	1077.06
523.267	995.06
523.482	904.06
523.698	864.06
523.913	857.06
524.128	824.06
524.343	784.06
524.559	743.06
524.774	713.06
524.989	695.06
525.204	707.06
525.419	747.06
525.634	703.06
525.849	663.06
526.064	596.06
526.28	592.06
526.495	626.06
526.71	656.06
526.925	634.06
527.14	612.06
527.355	654.06
527.57	563.06
527.785	566.06
527.999	536.06
528.214	542.06
528.429	557.06
528.644	554.06
528.859	550.06
529.074	587.06
529.289	694.06
529.503	1047.06
529.718	950.06
529.933	747.06
530.148	646.06
530.363	608.06
530.577	570.06
530.792	548.06
531.007	550.06
531.221	525.06
531.436	518.06
531.651	524.06
531.865	515.06
532.08	506.06
532.295	498.06
532.509	493.06
532.724	495.06
532.938	485.06
533.153	480.06
533.367	472.06
533.582	469.06
533.796	456.06
534.011	478.06
534.225	464.06
534.44	448.06
534.654	458.06
534.868	466.06
535.083	487.06
535.297	490.06
535.511	525.06
535.726	549.06
535.94	560.06
536.154	508.06
536.369	499.06
536.583	471.06
536.797	467.06
537.011	477.06
537.225	445.06
537.44	465.06
537.654	463.06
537.868	455.06
538.082	468.06
538.296	472.06
538.51	457.06
538.724	462.06
538.938	459.06
539.153	465.06
539.367	532.06
539.581	547.06
539.795	511.06
540.009	471.06
540.222	473.06
540.436	477.06
540.65	445.06
540.864	450.06
541.078	489.06
541.292	493.06
541.506	465.06
541.72	458.06
541.934	429.06
542.147	446.06
542.361	435.06
542.575	444.06
542.789	432.06
543.002	438.06
543.216	457.06
543.43	459.06
543.644	480.06
543.857	426.06
544.071	444.06
544.285	464.06
544.498	449.06
544.712	423.06
544.925	410.06
545.139	398.06
545.352	412.06
545.566	405.06
545.779	416.06
545.993	410.06
546.206	398.06
546.42	400.06
546.633	406.06
546.847	384.06
547.06	421.06
547.274	394.06
547.487	401.06
547.7	401.06
547.914	405.06
548.127	393.06
548.34	388.06
548.554	404.06
548.767	401.06
548.98	396.06
549.193	392.06
549.407	400.06
549.62	397.06
549.833	402.06
550.046	408.06
550.259	406.06
550.473	379.06
550.686	399.06
550.899	413.06
551.112	382.06
551.325	377.06
551.538	406.06
551.751	397.06
551.964	395.06
552.177	379.06
552.39	388.06
552.603	386.06
552.816	407.06
553.029	399.06
553.242	397.06
553.455	409.06
553.667	461.06
553.88	532.06
554.093	459.06
554.306	456.06
554.519	439.06
554.732	420.06
554.944	402.06
555.157	393.06
555.37	387.06
555.583	416.06
555.795	406.06
556.008	402.06
556.221	382.06
556.433	395.06
556.646	371.06
556.859	361.06
557.071	375.06
557.284	352.06
557.496	381.06
557.709	351.06
557.921	366.06
558.134	354.06
558.346	371.06
558.559	374.06
558.771	374.06
558.984	411.06
559.196	531.06
559.409	446.06
559.621	431.06
559.833	425.06
560.046	415.06
560.258	418.06
560.47	380.06
560.683	374.06
560.895	380.06
561.107	346.06
561.32	326.06
561.532	349.06
561.744	352.06
561.956	336.06
562.168	343.06
562.381	338.06
562.593	350.06
562.805	355.06
563.017	325.06
563.229	331.06
563.441	352.06
563.653	356.06
563.865	319.06
564.077	330.06
564.289	336.06
564.501	359.06
564.713	347.06
564.925	349.06
565.137	392.06
565.349	373.06
565.561	348.06
565.773	325.06
565.985	356.06
566.197	346.06
566.408	356.06
566.62	358.06
566.832	351.06
567.044	355.06
567.255	370.06
567.467	347.06
567.679	364.06
567.891	370.06
568.102	366.06
568.314	373.06
568.526	386.06
568.737	393.06
568.949	389.06
569.161	431.06
569.372	388.06
569.584	359.06
569.795	363.06
570.007	386.06
570.218	650.06
570.43	592.06
570.641	396.06
570.853	328.06
571.064	327.06
571.276	346.06
571.487	328.06
571.698	332.06
571.91	328.06
572.121	322.06
572.333	314.06
572.544	306.06
572.755	315.06
572.966	307.06
573.178	316.06
573.389	298.06
573.6	335.06
573.811	311.06
574.023	312.06
574.234	308.06
574.445	318.06
574.656	286.06
574.867	297.06
575.078	301.06
575.289	316.06
575.501	297.06
575.712	306.06
575.923	311.06
576.134	295.06
576.345	310.06
576.556	303.06
576.767	315.06
576.978	316.06
577.188	309.06
577.399	295.06
577.61	293.06
577.821	317.06
578.032	372.06
578.243	522.06
578.454	1431.06
578.665	929.06
578.875	427.06
579.086	333.06
579.297	322.06
579.508	317.06
579.718	276.06
579.929	288.06
580.14	295.06
580.35	288.06
580.561	292.06
580.772	291.06
580.982	295.06
581.193	296.06
581.403	294.06
581.614	276.06
581.825	291.06
582.035	304.06
582.246	286.06
582.456	281.06
582.667	272.06
582.877	281.06
583.087	284.06
583.298	302.06
583.508	284.06
583.719	268.06
583.929	301.06
584.139	283.06
584.35	289.06
584.56	294.06
584.77	308.06
584.981	311.06
585.191	301.06
585.401	299.06
585.611	300.06
585.821	321.06
586.032	340.06
586.242	335.06
586.452	314.06
586.662	316.06
586.872	318.06
587.082	311.06
587.292	310.06
587.502	334.06
587.713	342.06
587.923	364.06
588.133	390.06
588.343	442.06
588.553	535.06
588.762	656.06
588.972	1149.06
589.182	2791.06
589.392	2986.06
589.602	1666.06
589.812	2542.06
590.022	2057.06
590.232	921.06
590.441	616.06
590.651	467.06
590.861	430.06
591.071	386.06
591.281	362.06
591.49	360.06
591.7	331.06
591.91	331.06
592.119	300.06
592.329	318.06
592.539	328.06
592.748	342.06
592.958	323.06
593.167	303.06
593.377	306.06
593.587	310.06
593.796	301.06
594.006	313.06
594.215	311.06
594.424	284.06
594.634	278.06
594.843	267.06
595.053	278.06
595.262	281.06
595.472	274.06
595.681	259.06
595.89	267.06
596.1	262.06
596.309	284.06
596.518	267.06
596.727	269.06
596.937	248.06
597.146	271.06
597.355	272.06
597.564	266.06
597.774	262.06
597.983	280.06
598.192	247.06
598.401	265.06
598.61	270.06
598.819	273.06
599.028	267.06
599.237	251.06
599.446	257.06
599.655	258.06
599.864	269.06
600.073	266.06
600.282	260.06
600.491	260.06
600.7	261.06
600.909	240.06
601.118	255.06
601.327	253.06
601.536	243.06
601.745	235.06
601.953	231.06
602.162	248.06
602.371	256.06
602.58	238.06
602.789	243.06
602.997	238.06
603.206	244.06
603.415	253.06
603.623	226.06
603.832	246.06
604.041	250.06
604.249	244.06
604.458	255.06
604.666	244.06
604.875	251.06
605.084	252.06
605.292	251.06
605.501	251.06
605.709	257.06
605.918	239.06
606.126	234.06
606.334	246.06
606.543	257.06
606.751	235.06
606.96	238.06
607.168	237.06
607.376	247.06
607.585	226.06
607.793	258.06
608.001	229.06
608.21	231.06
608.418	251.06
608.626	251.06
608.834	237.06
609.043	258.06
609.251	250.06
609.459	250.06
609.667	245.06
609.875	212.06
610.083	230.06
610.291	227.06
610.499	254.06
610.707	250.06
610.916	235.06
611.124	242.06
611.332	244.06
611.54	246.06
611.748	251.06
611.955	235.06
612.163	248.06
612.371	292.06
612.579	319.06
612.787	283.06
612.995	248.06
613.203	260.06
613.411	225.06
613.618	240.06
613.826	234.06
614.034	226.06
614.242	235.06
614.449	254.06
614.657	244.06
614.865	250.06
615.072	243.06
615.28	240.06
615.488	238.06
615.695	244.06
615.903	263.06
616.111	256.06
616.318	330.06
616.526	374.06
616.733	302.06
616.941	271.06
617.148	278.06
617.356	276.06
617.563	268.06
617.771	277.06
617.978	253.06
618.185	264.06
618.393	261.06
618.6	245.06
618.807	246.06
619.015	262.06
619.222	252.06
619.429	260.06
619.637	254.06
619.844	225.06
620.051	252.06
620.258	251.06
620.466	236.06
620.673	227.06
620.88	227.06
621.087	231.06
621.294	240.06
621.501	234.06
621.708	236.06
621.915	238.06
622.122	213.06
622.329	238.06
622.536	234.06
622.743	221.06
622.95	228.06
623.157	217.06
623.364	240.06
623.571	213.06
623.778	217.06
623.985	222.06
624.192	220.06
624.399	218.06
624.606	204.06
624.812	231.06
625.019	212.06
625.226	222.06
625.433	226.06
625.639	226.06
625.846	219.06
626.053	218.06
626.259	220.06
626.466	235.06
626.673	212.06
626.879	212.06
627.086	217.06
627.293	196.06
627.499	221.06
627.706	199.06
627.912	203.06
628.119	205.06
628.325	207.06
628.532	196.06
628.738	210.06
628.945	204.06
629.151	207.06
629.357	184.06
629.564	196.06
629.77	196.06
629.976	197.06
630.183	187.06
630.389	201.06
630.595	205.06
630.802	183.06
631.008	195.06
631.214	202.06
631.42	182.06
631.627	194.06
631.833	207.06
632.039	198.06
632.245	196.06
632.451	198.06
632.657	196.06
632.863	174.06
633.069	194.06
633.275	188.06
633.481	187.06
633.688	202.06
633.893	195.06
634.099	203.06
634.305	179.06
634.511	185.06
634.717	189.06
634.923	187.06
635.129	180.06
635.335	197.06
635.541	173.06
635.747	184.06
635.952	188.06
636.158	182.06
636.364	203.06
636.57	178.06
636.775	191.06
636.981	194.06
637.187	188.06
637.392	181.06
637.598	160.06
637.804	173.06
638.009	202.06
638.215	169.06
638.421	184.06
638.626	182.06
638.832	182.06
639.037	183.06
639.243	187.06
639.448	162.06
639.654	165.06
639.859	164.06
640.065	167.06
640.27	194.06
640.475	170.06
640.681	176.06
640.886	181.06
641.091	172.06
641.297	189.06
641.502	170.06
641.707	172.06
641.913	179.06
642.118	179.06
642.323	167.06
642.528	169.06
642.733	172.06
642.939	162.06
643.144	189.06
643.349	162.06
643.554	167.06
643.759	174.06
643.964	200.06
644.169	242.06
644.374	187.06
644.579	171.06
644.784	172.06
644.989	175.06
645.194	169.06
645.399	176.06
645.604	174.06
645.809	173.06
646.014	158.06
646.219	160.06
646.423	214.06
646.628	202.06
646.833	176.06
647.038	168.06
647.243	193.06
647.447	186.06
647.652	180.06
647.857	184.06
648.062	174.06
648.266	182.06
648.471	185.06
648.676	182.06
648.88	195.06
649.085	196.06
649.289	192.06
649.494	209.06
649.698	228.06
649.903	208.06
650.107	208.06
650.312	182.06
650.516	169.06
650.721	190.06
650.925	171.06
651.13	190.06
651.334	175.06
651.539	162.06
651.743	167.06
651.947	169.06
652.152	155.06
652.356	151.06
652.56	143.06
652.764	134.06
652.969	146.06
653.173	150.06
653.377	148.06
653.581	158.06
653.785	162.06
653.99	148.06
654.194	157.06
654.398	163.06
654.602	136.06
654.806	156.06
655.01	162.06
655.214	143.06
655.418	151.06
655.622	157.06
655.826	145.06
656.03	162.06
656.234	143.06
656.438	156.06
656.642	138.06
656.846	154.06
657.049	146.06
657.253	145.06
657.457	139.06
657.661	139.06
657.865	128.06
658.068	122.06
658.272	119.06
658.476	131.06
658.68	130.06
658.883	114.06
659.087	106.06
659.291	114.06
659.494	114.06
659.698	109.06
659.901	98.06
660.105	86.06
660.309	115.06
660.512	99.06
660.716	104.06
660.919	109.06
661.123	112.06
661.326	90.06
661.53	101.06
661.733	106.06
661.936	86.06
662.14	91.06
662.343	77.06
662.546	83.06
662.75	100.06
662.953	93.06
663.156	83.06
663.36	72.06
663.563	92.06
663.766	84.06
663.969	80.06
664.173	89.06
664.376	77.06
664.579	87.06
664.782	75.06
664.985	89.06
665.188	85.06
665.391	73.06
665.594	93.06
665.797	82.06
666	76.06
666.203	70.06
666.406	82.06
666.609	87.06
666.812	88.06
667.015	80.06
667.218	88.06
667.421	96.06
667.624	103.06
667.827	87.06
668.03	87.06
668.232	78.06
668.435	84.06
668.638	95.06
668.841	98.06
669.043	86.06
669.246	76.06
669.449	73.06
669.651	97.06
669.854	83.06
670.057	89.06
670.259	85.06
670.462	76.06
670.665	104.06
670.867	88.06
671.07	83.06
671.272	90.06
671.475	80.06
671.677	84.06
671.88	101.06
672.082	87.06
672.284	91.06
672.487	81.06
672.689	86.06
672.892	85.06
