Data from 1987.PennyLincolnUp.Lamp.En5.5.200Scan.071819.P2_HRD10591_17-15-51-972.txt Node
Date: Thu Jul 18 17:15:51 EDT 2019
User: cochatt
Spectrometer: HR+D1059
Trigger mode: 1
Integration Time (sec): 1.000000E-1
Scans to average: 1
Electric dark correction enabled: true
Nonlinearity correction enabled: false
Boxcar width: 0
XAxis mode: Wavelengths
Number of Pixels in Spectrum: 2048
>>>>>Begin Spectral Data<<<<<
223.165	-6.25
223.4	-6.25
223.635	-6.25
223.869	-15.25
224.104	-18.25
224.338	-15.25
224.573	-20.25
224.808	-10.25
225.042	-14.25
225.277	-6.25
225.511	-2.25
225.746	5.75
225.98	9.75
226.215	9.75
226.449	20.75
226.683	20.75
226.918	12.75
227.152	28.75
227.387	25.75
227.621	31.75
227.856	44.75
228.09	54.75
228.324	48.75
228.559	56.75
228.793	61.75
229.027	118.75
229.262	104.75
229.496	132.75
229.73	159.75
229.964	161.75
230.199	152.75
230.433	127.75
230.667	116.75
230.901	122.75
231.136	116.75
231.37	118.75
231.604	127.75
231.838	114.75
232.072	104.75
232.306	133.75
232.541	129.75
232.775	113.75
233.009	127.75
233.243	110.75
233.477	113.75
233.711	117.75
233.945	113.75
234.179	112.75
234.413	130.75
234.647	122.75
234.881	115.75
235.115	105.75
235.349	115.75
235.583	109.75
235.817	122.75
236.051	131.75
236.285	136.75
236.519	111.75
236.753	127.75
236.987	149.75
237.221	198.75
237.455	265.75
237.689	211.75
237.922	143.75
238.156	119.75
238.39	142.75
238.624	104.75
238.858	117.75
239.091	129.75
239.325	119.75
239.559	116.75
239.793	127.75
240.027	131.75
240.26	144.75
240.494	161.75
240.728	157.75
240.961	149.75
241.195	156.75
241.429	140.75
241.662	136.75
241.896	140.75
242.13	132.75
242.363	125.75
242.597	134.75
242.83	131.75
243.064	133.75
243.298	141.75
243.531	137.75
243.765	129.75
243.998	140.75
244.232	138.75
244.465	151.75
244.699	131.75
244.932	150.75
245.166	145.75
245.399	144.75
245.633	124.75
245.866	146.75
246.099	138.75
246.333	147.75
246.566	143.75
246.8	151.75
247.033	159.75
247.266	149.75
247.5	156.75
247.733	164.75
247.966	135.75
248.2	165.75
248.433	175.75
248.666	163.75
248.899	195.75
249.133	189.75
249.366	227.75
249.599	213.75
249.832	189.75
250.066	159.75
250.299	180.75
250.532	203.75
250.765	196.75
250.998	209.75
251.231	221.75
251.465	226.75
251.698	194.75
251.931	187.75
252.164	187.75
252.397	189.75
252.63	201.75
252.863	212.75
253.096	224.75
253.329	223.75
253.562	219.75
253.795	220.75
254.028	219.75
254.261	220.75
254.494	214.75
254.727	266.75
254.96	291.75
255.193	277.75
255.426	243.75
255.659	225.75
255.892	225.75
256.124	214.75
256.357	206.75
256.59	197.75
256.823	183.75
257.056	195.75
257.289	200.75
257.521	191.75
257.754	205.75
257.987	200.75
258.22	197.75
258.452	197.75
258.685	205.75
258.918	199.75
259.151	214.75
259.383	217.75
259.616	216.75
259.849	213.75
260.081	221.75
260.314	249.75
260.547	261.75
260.779	247.75
261.012	225.75
261.244	210.75
261.477	197.75
261.71	223.75
261.942	212.75
262.175	227.75
262.407	219.75
262.64	215.75
262.872	187.75
263.105	197.75
263.337	179.75
263.57	181.75
263.802	189.75
264.035	196.75
264.267	190.75
264.499	187.75
264.732	201.75
264.964	183.75
265.197	179.75
265.429	192.75
265.661	191.75
265.894	193.75
266.126	199.75
266.358	193.75
266.591	187.75
266.823	201.75
267.055	220.75
267.287	214.75
267.52	201.75
267.752	208.75
267.984	198.75
268.216	203.75
268.448	212.75
268.681	208.75
268.913	233.75
269.145	233.75
269.377	260.75
269.609	256.75
269.841	266.75
270.073	262.75
270.306	280.75
270.538	323.75
270.77	309.75
271.002	298.75
271.234	298.75
271.466	283.75
271.698	311.75
271.93	305.75
272.162	309.75
272.394	302.75
272.626	297.75
272.858	270.75
273.09	283.75
273.322	269.75
273.553	259.75
273.785	241.75
274.017	244.75
274.249	223.75
274.481	223.75
274.713	237.75
274.945	229.75
275.176	249.75
275.408	232.75
275.64	239.75
275.872	241.75
276.104	237.75
276.335	249.75
276.567	243.75
276.799	263.75
277.031	292.75
277.262	291.75
277.494	293.75
277.726	278.75
277.957	248.75
278.189	271.75
278.421	263.75
278.652	243.75
278.884	232.75
279.115	239.75
279.347	244.75
279.579	226.75
279.81	244.75
280.042	215.75
280.273	232.75
280.505	221.75
280.736	240.75
280.968	235.75
281.199	233.75
281.431	219.75
281.662	212.75
281.894	235.75
282.125	228.75
282.356	272.75
282.588	276.75
282.819	306.75
283.051	255.75
283.282	230.75
283.513	229.75
283.745	235.75
283.976	236.75
284.207	236.75
284.439	239.75
284.67	223.75
284.901	225.75
285.132	231.75
285.364	235.75
285.595	240.75
285.826	233.75
286.057	242.75
286.288	240.75
286.52	243.75
286.751	255.75
286.982	233.75
287.213	229.75
287.444	227.75
287.675	220.75
287.906	252.75
288.138	264.75
288.369	254.75
288.6	269.75
288.831	234.75
289.062	253.75
289.293	251.75
289.524	220.75
289.755	220.75
289.986	249.75
290.217	245.75
290.448	228.75
290.679	226.75
290.91	232.75
291.141	240.75
291.371	222.75
291.602	246.75
291.833	221.75
292.064	255.75
292.295	228.75
292.526	223.75
292.757	230.75
292.987	239.75
293.218	226.75
293.449	232.75
293.68	240.75
293.91	235.75
294.141	233.75
294.372	227.75
294.603	254.75
294.833	241.75
295.064	256.75
295.295	238.75
295.525	243.75
295.756	251.75
295.987	248.75
296.217	287.75
296.448	300.75
296.679	257.75
296.909	240.75
297.14	245.75
297.37	275.75
297.601	247.75
297.831	267.75
298.062	245.75
298.292	261.75
298.523	256.75
298.753	269.75
298.984	264.75
299.214	246.75
299.445	234.75
299.675	241.75
299.905	263.75
300.136	273.75
300.366	248.75
300.597	246.75
300.827	266.75
301.057	260.75
301.288	291.75
301.518	277.75
301.748	279.75
301.979	265.75
302.209	261.75
302.439	276.75
302.669	284.75
302.9	256.75
303.13	272.75
303.36	272.75
303.59	285.75
303.82	302.75
304.051	277.75
304.281	273.75
304.511	253.75
304.741	245.75
304.971	264.75
305.201	271.75
305.431	247.75
305.661	260.75
305.891	275.75
306.121	286.75
306.352	296.75
306.582	295.75
306.812	294.75
307.042	285.75
307.272	270.75
307.502	290.75
307.731	276.75
307.961	272.75
308.191	263.75
308.421	280.75
308.651	276.75
308.881	293.75
309.111	295.75
309.341	308.75
309.571	315.75
309.8	337.75
310.03	337.75
310.26	358.75
310.49	322.75
310.72	351.75
310.949	396.75
311.179	375.75
311.409	356.75
311.639	343.75
311.868	353.75
312.098	338.75
312.328	343.75
312.557	380.75
312.787	403.75
313.017	417.75
313.246	364.75
313.476	322.75
313.706	344.75
313.935	324.75
314.165	362.75
314.394	373.75
314.624	366.75
314.853	342.75
315.083	344.75
315.312	312.75
315.542	322.75
315.771	320.75
316.001	314.75
316.23	335.75
316.46	302.75
316.689	335.75
316.919	351.75
317.148	331.75
317.377	351.75
317.607	358.75
317.836	348.75
318.065	342.75
318.295	330.75
318.524	324.75
318.753	321.75
318.983	333.75
319.212	311.75
319.441	344.75
319.67	347.75
319.9	340.75
320.129	340.75
320.358	359.75
320.587	345.75
320.816	338.75
321.046	363.75
321.275	388.75
321.504	359.75
321.733	367.75
321.962	385.75
322.191	404.75
322.42	421.75
322.649	456.75
322.878	457.75
323.108	488.75
323.337	526.75
323.566	543.75
323.795	603.75
324.024	635.75
324.253	856.75
324.482	1243.75
324.71	1898.75
324.939	2679.75
325.168	2357.75
325.397	1271.75
325.626	849.75
325.855	653.75
326.084	568.75
326.313	557.75
326.542	550.75
326.77	607.75
326.999	751.75
327.228	1062.75
327.457	1642.75
327.686	2067.75
327.914	1418.75
328.143	882.75
328.372	739.75
328.6	684.75
328.829	634.75
329.058	676.75
329.287	673.75
329.515	631.75
329.744	518.75
329.972	513.75
330.201	520.75
330.43	566.75
330.658	614.75
330.887	681.75
331.115	677.75
331.344	571.75
331.572	499.75
331.801	514.75
332.03	508.75
332.258	426.75
332.486	413.75
332.715	387.75
332.943	401.75
333.172	409.75
333.4	398.75
333.629	418.75
333.857	412.75
334.085	402.75
334.314	377.75
334.542	393.75
334.771	409.75
334.999	397.75
335.227	394.75
335.455	385.75
335.684	394.75
335.912	374.75
336.14	369.75
336.369	385.75
336.597	394.75
336.825	389.75
337.053	381.75
337.281	376.75
337.51	367.75
337.738	381.75
337.966	397.75
338.194	395.75
338.422	384.75
338.65	360.75
338.878	393.75
339.106	365.75
339.334	360.75
339.562	378.75
339.79	383.75
340.018	386.75
340.246	369.75
340.474	388.75
340.702	378.75
340.93	380.75
341.158	372.75
341.386	362.75
341.614	395.75
341.842	388.75
342.07	349.75
342.298	374.75
342.526	383.75
342.754	370.75
342.981	345.75
343.209	352.75
343.437	323.75
343.665	363.75
343.893	350.75
344.12	349.75
344.348	359.75
344.576	367.75
344.804	407.75
345.031	406.75
345.259	398.75
345.487	382.75
345.714	386.75
345.942	370.75
346.17	381.75
346.397	379.75
346.625	377.75
346.853	378.75
347.08	364.75
347.308	371.75
347.535	379.75
347.763	397.75
347.99	365.75
348.218	398.75
348.445	394.75
348.673	414.75
348.9	396.75
349.128	390.75
349.355	362.75
349.583	345.75
349.81	337.75
350.037	356.75
350.265	371.75
350.492	367.75
350.72	369.75
350.947	373.75
351.174	372.75
351.402	395.75
351.629	404.75
351.856	383.75
352.083	410.75
352.311	409.75
352.538	426.75
352.765	419.75
352.992	400.75
353.22	399.75
353.447	390.75
353.674	379.75
353.901	356.75
354.128	328.75
354.355	343.75
354.583	357.75
354.81	336.75
355.037	338.75
355.264	324.75
355.491	350.75
355.718	337.75
355.945	332.75
356.172	342.75
356.399	325.75
356.626	325.75
356.853	348.75
357.08	331.75
357.307	319.75
357.534	332.75
357.761	336.75
357.988	335.75
358.215	343.75
358.441	327.75
358.668	363.75
358.895	357.75
359.122	371.75
359.349	368.75
359.576	382.75
359.802	428.75
360.029	456.75
360.256	470.75
360.483	443.75
360.709	390.75
360.936	388.75
361.163	361.75
361.39	397.75
361.616	385.75
361.843	382.75
362.07	372.75
362.296	395.75
362.523	389.75
362.749	387.75
362.976	383.75
363.203	372.75
363.429	343.75
363.656	361.75
363.882	366.75
364.109	335.75
364.335	350.75
364.562	357.75
364.788	361.75
365.015	346.75
365.241	336.75
365.468	351.75
365.694	350.75
365.92	360.75
366.147	338.75
366.373	330.75
366.599	345.75
366.826	359.75
367.052	363.75
367.278	342.75
367.505	354.75
367.731	353.75
367.957	353.75
368.184	337.75
368.41	361.75
368.636	375.75
368.862	357.75
369.089	356.75
369.315	344.75
369.541	368.75
369.767	352.75
369.993	350.75
370.219	358.75
370.445	330.75
370.672	309.75
370.898	325.75
371.124	320.75
371.35	308.75
371.576	324.75
371.802	318.75
372.028	317.75
372.254	332.75
372.48	315.75
372.706	317.75
372.932	332.75
373.158	320.75
373.384	332.75
373.61	321.75
373.835	322.75
374.061	330.75
374.287	345.75
374.513	342.75
374.739	333.75
374.965	343.75
375.191	341.75
375.416	339.75
375.642	321.75
375.868	344.75
376.094	316.75
376.319	336.75
376.545	320.75
376.771	344.75
376.997	316.75
377.222	320.75
377.448	338.75
377.674	327.75
377.899	329.75
378.125	333.75
378.35	327.75
378.576	332.75
378.802	348.75
379.027	318.75
379.253	326.75
379.478	327.75
379.704	321.75
379.929	329.75
380.155	342.75
380.38	328.75
380.606	338.75
380.831	332.75
381.057	315.75
381.282	331.75
381.507	343.75
381.733	333.75
381.958	331.75
382.184	337.75
382.409	345.75
382.634	331.75
382.86	338.75
383.085	327.75
383.31	340.75
383.535	333.75
383.761	333.75
383.986	372.75
384.211	347.75
384.436	341.75
384.662	332.75
384.887	320.75
385.112	340.75
385.337	332.75
385.562	371.75
385.787	349.75
386.013	379.75
386.238	374.75
386.463	354.75
386.688	352.75
386.913	370.75
387.138	343.75
387.363	351.75
387.588	350.75
387.813	368.75
388.038	341.75
388.263	335.75
388.488	354.75
388.713	320.75
388.938	352.75
389.163	353.75
389.387	348.75
389.612	368.75
389.837	351.75
390.062	358.75
390.287	343.75
390.512	338.75
390.736	340.75
390.961	358.75
391.186	343.75
391.411	346.75
391.636	364.75
391.86	361.75
392.085	355.75
392.31	357.75
392.534	358.75
392.759	347.75
392.984	338.75
393.208	364.75
393.433	375.75
393.658	351.75
393.882	343.75
394.107	370.75
394.331	351.75
394.556	352.75
394.78	331.75
395.005	348.75
395.229	359.75
395.454	354.75
395.678	352.75
395.903	378.75
396.127	385.75
396.352	397.75
396.576	386.75
396.801	379.75
397.025	372.75
397.249	360.75
397.474	357.75
397.698	372.75
397.922	393.75
398.147	394.75
398.371	404.75
398.595	380.75
398.82	383.75
399.044	392.75
399.268	389.75
399.492	413.75
399.717	429.75
399.941	455.75
400.165	487.75
400.389	489.75
400.613	481.75
400.837	429.75
401.062	406.75
401.286	393.75
401.51	406.75
401.734	409.75
401.958	409.75
402.182	393.75
402.406	440.75
402.63	437.75
402.854	428.75
403.078	409.75
403.302	415.75
403.526	442.75
403.75	424.75
403.974	435.75
404.198	423.75
404.422	430.75
404.645	414.75
404.869	424.75
405.093	416.75
405.317	457.75
405.541	505.75
405.765	451.75
405.988	439.75
406.212	454.75
406.436	495.75
406.66	522.75
406.883	491.75
407.107	519.75
407.331	542.75
407.555	603.75
407.778	588.75
408.002	543.75
408.226	486.75
408.449	462.75
408.673	497.75
408.896	513.75
409.12	564.75
409.344	501.75
409.567	463.75
409.791	435.75
410.014	436.75
410.238	442.75
410.461	450.75
410.685	429.75
410.908	465.75
411.132	487.75
411.355	537.75
411.578	487.75
411.802	451.75
412.025	473.75
412.249	427.75
412.472	441.75
412.695	444.75
412.919	439.75
413.142	437.75
413.365	424.75
413.589	426.75
413.812	420.75
414.035	394.75
414.258	408.75
414.482	395.75
414.705	380.75
414.928	396.75
415.151	416.75
415.374	405.75
415.597	379.75
415.821	396.75
416.044	421.75
416.267	411.75
416.49	401.75
416.713	396.75
416.936	404.75
417.159	400.75
417.382	416.75
417.605	421.75
417.828	417.75
418.051	428.75
418.274	457.75
418.497	439.75
418.72	446.75
418.943	403.75
419.166	419.75
419.389	447.75
419.611	435.75
419.834	424.75
420.057	418.75
420.28	431.75
420.503	426.75
420.726	431.75
420.948	443.75
421.171	487.75
421.394	541.75
421.617	483.75
421.839	449.75
422.062	464.75
422.285	472.75
422.507	524.75
422.73	596.75
422.953	583.75
423.175	500.75
423.398	497.75
423.621	497.75
423.843	502.75
424.066	496.75
424.288	511.75
424.511	521.75
424.733	576.75
424.956	641.75
425.178	657.75
425.401	640.75
425.623	633.75
425.846	568.75
426.068	525.75
426.291	531.75
426.513	541.75
426.735	530.75
426.958	575.75
427.18	660.75
427.402	759.75
427.625	855.75
427.847	802.75
428.069	664.75
428.292	579.75
428.514	539.75
428.736	493.75
428.958	517.75
429.181	481.75
429.403	474.75
429.625	497.75
429.847	523.75
430.069	595.75
430.292	607.75
430.514	518.75
430.736	472.75
430.958	458.75
431.18	461.75
431.402	461.75
431.624	441.75
431.846	432.75
432.068	421.75
432.29	428.75
432.512	433.75
432.734	437.75
432.956	432.75
433.178	443.75
433.4	479.75
433.622	473.75
433.844	437.75
434.066	446.75
434.287	424.75
434.509	449.75
434.731	454.75
434.953	455.75
435.175	487.75
435.397	516.75
435.618	531.75
435.84	557.75
436.062	660.75
436.284	733.75
436.505	625.75
436.727	545.75
436.949	501.75
437.17	487.75
437.392	500.75
437.614	515.75
437.835	553.75
438.057	669.75
438.278	728.75
438.5	754.75
438.721	789.75
438.943	740.75
439.165	619.75
439.386	572.75
439.608	567.75
439.829	568.75
440.05	601.75
440.272	623.75
440.493	595.75
440.715	536.75
440.936	498.75
441.158	511.75
441.379	482.75
441.6	509.75
441.822	535.75
442.043	583.75
442.264	643.75
442.486	697.75
442.707	600.75
442.928	548.75
443.149	546.75
443.371	593.75
443.592	641.75
443.813	713.75
444.034	738.75
444.255	630.75
444.476	550.75
444.698	499.75
444.919	500.75
445.14	602.75
445.361	569.75
445.582	561.75
445.803	642.75
446.024	733.75
446.245	755.75
446.466	690.75
446.687	597.75
446.908	576.75
447.129	496.75
447.35	483.75
447.571	511.75
447.792	482.75
448.013	508.75
448.234	538.75
448.455	602.75
448.675	690.75
448.896	779.75
449.117	699.75
449.338	649.75
449.559	727.75
449.779	809.75
450	657.75
450.221	579.75
450.442	523.75
450.662	487.75
450.883	503.75
451.104	541.75
451.324	515.75
451.545	496.75
451.766	475.75
451.986	441.75
452.207	422.75
452.428	449.75
452.648	454.75
452.869	439.75
453.089	448.75
453.31	471.75
453.53	461.75
453.751	431.75
453.971	450.75
454.192	499.75
454.412	469.75
454.633	443.75
454.853	454.75
455.073	464.75
455.294	483.75
455.514	549.75
455.734	534.75
455.955	433.75
456.175	420.75
456.395	411.75
456.616	409.75
456.836	393.75
457.056	402.75
457.276	395.75
457.497	399.75
457.717	397.75
457.937	385.75
458.157	416.75
458.377	413.75
458.598	441.75
458.818	533.75
459.038	654.75
459.258	639.75
459.478	540.75
459.698	450.75
459.918	458.75
460.138	443.75
460.358	440.75
460.578	446.75
460.798	443.75
461.018	434.75
461.238	414.75
461.458	401.75
461.678	419.75
461.898	431.75
462.118	429.75
462.338	432.75
462.558	435.75
462.777	405.75
462.997	447.75
463.217	436.75
463.437	430.75
463.657	433.75
463.876	442.75
464.096	435.75
464.316	437.75
464.536	464.75
464.755	467.75
464.975	452.75
465.195	569.75
465.414	697.75
465.634	588.75
465.854	531.75
466.073	479.75
466.293	455.75
466.512	439.75
466.732	438.75
466.951	426.75
467.171	423.75
467.391	432.75
467.61	452.75
467.829	463.75
468.049	469.75
468.268	433.75
468.488	434.75
468.707	407.75
468.927	396.75
469.146	425.75
469.365	417.75
469.585	422.75
469.804	427.75
470.023	436.75
470.243	449.75
470.462	443.75
470.681	477.75
470.901	460.75
471.12	444.75
471.339	437.75
471.558	435.75
471.777	437.75
471.997	418.75
472.216	427.75
472.435	445.75
472.654	443.75
472.873	426.75
473.092	435.75
473.311	429.75
473.53	415.75
473.749	466.75
473.968	484.75
474.187	610.75
474.406	643.75
474.625	504.75
474.844	451.75
475.063	443.75
475.282	412.75
475.501	451.75
475.72	451.75
475.939	443.75
476.158	475.75
476.377	434.75
476.596	451.75
476.814	454.75
477.033	469.75
477.252	468.75
477.471	456.75
477.69	466.75
477.908	453.75
478.127	454.75
478.346	461.75
478.564	442.75
478.783	451.75
479.002	489.75
479.22	497.75
479.439	521.75
479.658	551.75
479.876	537.75
480.095	537.75
480.313	578.75
480.532	535.75
480.751	520.75
480.969	532.75
481.188	531.75
481.406	540.75
481.624	533.75
481.843	508.75
482.061	519.75
482.28	504.75
482.498	513.75
482.717	510.75
482.935	506.75
483.153	495.75
483.372	492.75
483.59	511.75
483.808	496.75
484.027	488.75
484.245	523.75
484.463	533.75
484.681	522.75
484.9	524.75
485.118	520.75
485.336	549.75
485.554	525.75
485.772	548.75
485.99	540.75
486.209	549.75
486.427	534.75
486.645	578.75
486.863	595.75
487.081	570.75
487.299	573.75
487.517	575.75
487.735	570.75
487.953	559.75
488.171	584.75
488.389	571.75
488.607	561.75
488.825	562.75
489.043	561.75
489.261	554.75
489.479	580.75
489.696	570.75
489.914	589.75
490.132	573.75
490.35	597.75
490.568	602.75
490.786	595.75
491.003	602.75
491.221	599.75
491.439	639.75
491.657	665.75
491.874	640.75
492.092	661.75
492.31	660.75
492.527	656.75
492.745	652.75
492.963	653.75
493.18	673.75
493.398	671.75
493.615	675.75
493.833	684.75
494.05	664.75
494.268	701.75
494.485	658.75
494.703	685.75
494.92	672.75
495.138	674.75
495.355	668.75
495.573	665.75
495.79	680.75
496.008	691.75
496.225	691.75
496.442	696.75
496.66	683.75
496.877	692.75
497.094	669.75
497.312	677.75
497.529	704.75
497.746	679.75
497.963	702.75
498.181	730.75
498.398	740.75
498.615	732.75
498.832	745.75
499.049	712.75
499.267	730.75
499.484	742.75
499.701	755.75
499.918	774.75
500.135	767.75
500.352	816.75
500.569	787.75
500.786	791.75
501.003	808.75
501.22	794.75
501.437	788.75
501.654	767.75
501.871	797.75
502.088	796.75
502.305	792.75
502.522	754.75
502.739	744.75
502.956	750.75
503.172	725.75
503.389	736.75
503.606	740.75
503.823	719.75
504.04	719.75
504.256	687.75
504.473	677.75
504.69	670.75
504.907	713.75
505.123	665.75
505.34	704.75
505.557	661.75
505.773	646.75
505.99	679.75
506.207	672.75
506.423	696.75
506.64	679.75
506.856	657.75
507.073	657.75
507.289	640.75
507.506	684.75
507.722	704.75
507.939	742.75
508.155	705.75
508.372	695.75
508.588	654.75
508.805	658.75
509.021	671.75
509.238	682.75
509.454	668.75
509.67	683.75
509.887	656.75
510.103	659.75
510.319	695.75
510.536	842.75
510.752	1574.75
510.968	1299.75
511.184	751.75
511.401	696.75
511.617	681.75
511.833	646.75
512.049	610.75
512.265	642.75
512.481	628.75
512.698	633.75
512.914	633.75
513.13	620.75
513.346	635.75
513.562	641.75
513.778	639.75
513.994	661.75
514.21	705.75
514.426	733.75
514.642	796.75
514.858	861.75
515.074	952.75
515.29	1189.75
515.506	1835.75
515.721	1456.75
515.937	923.75
516.153	781.75
516.369	724.75
516.585	718.75
516.801	674.75
517.016	652.75
517.232	671.75
517.448	637.75
517.664	664.75
517.879	649.75
518.095	641.75
518.311	649.75
518.527	623.75
518.742	643.75
518.958	640.75
519.173	637.75
519.389	631.75
519.605	659.75
519.82	664.75
520.036	693.75
520.251	753.75
520.467	770.75
520.682	771.75
520.898	792.75
521.113	838.75
521.329	925.75
521.544	1106.75
521.76	1430.75
521.975	2493.75
522.19	2471.75
522.406	1283.75
522.621	893.75
522.836	800.75
523.052	712.75
523.267	661.75
523.482	638.75
523.698	596.75
523.913	617.75
524.128	608.75
524.343	569.75
524.559	584.75
524.774	549.75
524.989	569.75
525.204	584.75
525.419	585.75
525.634	568.75
525.849	568.75
526.064	520.75
526.28	523.75
526.495	504.75
526.71	509.75
526.925	514.75
527.14	505.75
527.355	502.75
527.57	504.75
527.785	497.75
527.999	485.75
528.214	474.75
528.429	502.75
528.644	508.75
528.859	514.75
529.074	505.75
529.289	548.75
529.503	689.75
529.718	661.75
529.933	587.75
530.148	548.75
530.363	516.75
530.577	516.75
530.792	492.75
531.007	488.75
531.221	496.75
531.436	481.75
531.651	478.75
531.865	474.75
532.08	482.75
532.295	480.75
532.509	456.75
532.724	482.75
532.938	467.75
533.153	458.75
533.367	487.75
533.582	448.75
533.796	465.75
534.011	464.75
534.225	445.75
534.44	460.75
534.654	459.75
534.868	461.75
535.083	453.75
535.297	441.75
535.511	476.75
535.726	478.75
535.94	471.75
536.154	470.75
536.369	452.75
536.583	441.75
536.797	464.75
537.011	462.75
537.225	440.75
537.44	460.75
537.654	450.75
537.868	436.75
538.082	449.75
538.296	461.75
538.51	448.75
538.724	452.75
538.938	433.75
539.153	458.75
539.367	475.75
539.581	485.75
539.795	462.75
540.009	445.75
540.222	462.75
540.436	441.75
540.65	445.75
540.864	429.75
541.078	470.75
541.292	476.75
541.506	459.75
541.72	447.75
541.934	451.75
542.147	436.75
542.361	432.75
542.575	431.75
542.789	424.75
543.002	418.75
543.216	469.75
543.43	439.75
543.644	443.75
543.857	442.75
544.071	421.75
544.285	446.75
544.498	436.75
544.712	438.75
544.925	418.75
545.139	431.75
545.352	413.75
545.566	408.75
545.779	414.75
545.993	424.75
546.206	405.75
546.42	427.75
546.633	397.75
546.847	404.75
547.06	410.75
547.274	424.75
547.487	407.75
547.7	391.75
547.914	400.75
548.127	396.75
548.34	405.75
548.554	402.75
548.767	396.75
548.98	385.75
549.193	387.75
549.407	404.75
549.62	389.75
549.833	388.75
550.046	404.75
550.259	412.75
550.473	394.75
550.686	369.75
550.899	372.75
551.112	391.75
551.325	401.75
551.538	385.75
551.751	393.75
551.964	379.75
552.177	393.75
552.39	372.75
552.603	371.75
552.816	382.75
553.029	395.75
553.242	399.75
553.455	402.75
553.667	413.75
553.88	431.75
554.093	413.75
554.306	411.75
554.519	402.75
554.732	395.75
554.944	395.75
555.157	376.75
555.37	383.75
555.583	383.75
555.795	361.75
556.008	375.75
556.221	379.75
556.433	368.75
556.646	360.75
556.859	365.75
557.071	361.75
557.284	386.75
557.496	363.75
557.709	383.75
557.921	369.75
558.134	360.75
558.346	347.75
558.559	375.75
558.771	364.75
558.984	356.75
559.196	339.75
559.409	365.75
559.621	353.75
559.833	377.75
560.046	371.75
560.258	368.75
560.47	374.75
560.683	373.75
560.895	361.75
561.107	355.75
561.32	358.75
561.532	350.75
561.744	366.75
561.956	369.75
562.168	371.75
562.381	353.75
562.593	353.75
562.805	385.75
563.017	362.75
563.229	352.75
563.441	347.75
563.653	362.75
563.865	367.75
564.077	363.75
564.289	355.75
564.501	363.75
564.713	375.75
564.925	371.75
565.137	398.75
565.349	369.75
565.561	385.75
565.773	355.75
565.985	389.75
566.197	379.75
566.408	387.75
566.62	370.75
566.832	389.75
567.044	385.75
567.255	406.75
567.467	372.75
567.679	388.75
567.891	378.75
568.102	376.75
568.314	381.75
568.526	391.75
568.737	370.75
568.949	363.75
569.161	354.75
569.372	341.75
569.584	357.75
569.795	340.75
570.007	341.75
570.218	445.75
570.43	431.75
570.641	361.75
570.853	335.75
571.064	347.75
571.276	339.75
571.487	316.75
571.698	329.75
571.91	339.75
572.121	323.75
572.333	325.75
572.544	328.75
572.755	321.75
572.966	337.75
573.178	322.75
573.389	307.75
573.6	329.75
573.811	317.75
574.023	305.75
574.234	308.75
574.445	298.75
574.656	325.75
574.867	314.75
575.078	305.75
575.289	317.75
575.501	294.75
575.712	316.75
575.923	303.75
576.134	309.75
576.345	287.75
576.556	303.75
576.767	316.75
576.978	305.75
577.188	307.75
577.399	315.75
577.61	294.75
577.821	308.75
578.032	297.75
578.243	373.75
578.454	707.75
578.665	497.75
578.875	325.75
579.086	304.75
579.297	298.75
579.508	284.75
579.718	275.75
579.929	275.75
580.14	280.75
580.35	292.75
580.561	286.75
580.772	282.75
580.982	266.75
581.193	293.75
581.403	287.75
581.614	276.75
581.825	287.75
582.035	275.75
582.246	278.75
582.456	270.75
582.667	289.75
582.877	278.75
583.087	275.75
583.298	288.75
583.508	273.75
583.719	280.75
583.929	279.75
584.139	283.75
584.35	275.75
584.56	276.75
584.77	285.75
584.981	281.75
585.191	288.75
585.401	274.75
585.611	299.75
585.821	264.75
586.032	285.75
586.242	261.75
586.452	291.75
586.662	288.75
586.872	266.75
587.082	261.75
587.292	246.75
587.502	278.75
587.713	265.75
587.923	268.75
588.133	265.75
588.343	265.75
588.553	255.75
588.762	279.75
588.972	291.75
589.182	292.75
589.392	290.75
589.602	264.75
589.812	277.75
590.022	281.75
590.232	280.75
590.441	278.75
590.651	269.75
590.861	267.75
591.071	262.75
591.281	272.75
591.49	259.75
591.7	283.75
591.91	269.75
592.119	270.75
592.329	270.75
592.539	274.75
592.748	279.75
592.958	267.75
593.167	278.75
593.377	273.75
593.587	266.75
593.796	253.75
594.006	264.75
594.215	263.75
594.424	266.75
594.634	255.75
594.843	272.75
595.053	266.75
595.262	271.75
595.472	268.75
595.681	257.75
595.89	276.75
596.1	272.75
596.309	274.75
596.518	245.75
596.727	243.75
596.937	263.75
597.146	263.75
597.355	233.75
597.564	258.75
597.774	245.75
597.983	243.75
598.192	257.75
598.401	263.75
598.61	261.75
598.819	252.75
599.028	252.75
599.237	233.75
599.446	244.75
599.655	251.75
599.864	236.75
600.073	232.75
600.282	247.75
600.491	229.75
600.7	231.75
600.909	264.75
601.118	234.75
601.327	244.75
601.536	229.75
601.745	242.75
601.953	233.75
602.162	232.75
602.371	245.75
602.58	229.75
602.789	226.75
602.997	229.75
603.206	232.75
603.415	235.75
603.623	219.75
603.832	235.75
604.041	228.75
604.249	242.75
604.458	240.75
604.666	236.75
604.875	222.75
605.084	219.75
605.292	223.75
605.501	229.75
605.709	216.75
605.918	223.75
606.126	235.75
606.334	215.75
606.543	221.75
606.751	240.75
606.96	219.75
607.168	225.75
607.376	217.75
607.585	220.75
607.793	227.75
608.001	209.75
608.21	220.75
608.418	235.75
608.626	220.75
608.834	211.75
609.043	226.75
609.251	233.75
609.459	228.75
609.667	230.75
609.875	220.75
610.083	204.75
610.291	207.75
610.499	229.75
610.707	230.75
610.916	221.75
611.124	221.75
611.332	217.75
611.54	216.75
611.748	232.75
611.955	226.75
612.163	212.75
612.371	223.75
612.579	217.75
612.787	212.75
612.995	242.75
613.203	231.75
613.411	208.75
613.618	220.75
613.826	230.75
614.034	227.75
614.242	225.75
614.449	201.75
614.657	211.75
614.865	220.75
615.072	216.75
615.28	216.75
615.488	223.75
615.695	222.75
615.903	213.75
616.111	216.75
616.318	222.75
616.526	222.75
616.733	230.75
616.941	218.75
617.148	215.75
617.356	203.75
617.563	208.75
617.771	215.75
617.978	211.75
618.185	217.75
618.393	201.75
618.6	216.75
618.807	214.75
619.015	212.75
619.222	216.75
619.429	194.75
619.637	212.75
619.844	222.75
620.051	223.75
620.258	224.75
620.466	216.75
620.673	187.75
620.88	203.75
621.087	220.75
621.294	208.75
621.501	211.75
621.708	211.75
621.915	217.75
622.122	203.75
622.329	229.75
622.536	199.75
622.743	219.75
622.95	197.75
623.157	195.75
623.364	200.75
623.571	187.75
623.778	205.75
623.985	198.75
624.192	184.75
624.399	196.75
624.606	196.75
624.812	210.75
625.019	201.75
625.226	207.75
625.433	185.75
625.639	216.75
625.846	192.75
626.053	197.75
626.259	197.75
626.466	187.75
626.673	192.75
626.879	212.75
627.086	217.75
627.293	197.75
627.499	181.75
627.706	188.75
627.912	189.75
628.119	200.75
628.325	194.75
628.532	189.75
628.738	192.75
628.945	189.75
629.151	172.75
629.357	180.75
629.564	177.75
629.77	195.75
629.976	186.75
630.183	186.75
630.389	192.75
630.595	172.75
630.802	199.75
631.008	183.75
631.214	169.75
631.42	177.75
631.627	200.75
631.833	188.75
632.039	172.75
632.245	180.75
632.451	183.75
632.657	177.75
632.863	176.75
633.069	169.75
633.275	179.75
633.481	174.75
633.688	153.75
633.893	183.75
634.099	163.75
634.305	183.75
634.511	162.75
634.717	171.75
634.923	163.75
635.129	185.75
635.335	163.75
635.541	159.75
635.747	177.75
635.952	162.75
636.158	166.75
636.364	175.75
636.57	173.75
636.775	165.75
636.981	187.75
637.187	164.75
637.392	168.75
637.598	167.75
637.804	182.75
638.009	161.75
638.215	175.75
638.421	176.75
638.626	156.75
638.832	166.75
639.037	169.75
639.243	159.75
639.448	152.75
639.654	160.75
639.859	153.75
640.065	164.75
640.27	166.75
640.475	145.75
640.681	152.75
640.886	165.75
641.091	164.75
641.297	159.75
641.502	163.75
641.707	165.75
641.913	161.75
642.118	156.75
642.323	176.75
642.528	156.75
642.733	152.75
642.939	171.75
643.144	160.75
643.349	157.75
643.554	180.75
643.759	152.75
643.964	160.75
644.169	158.75
644.374	145.75
644.579	164.75
644.784	146.75
644.989	155.75
645.194	161.75
645.399	139.75
645.604	143.75
645.809	145.75
646.014	150.75
646.219	153.75
646.423	156.75
646.628	153.75
646.833	157.75
647.038	180.75
647.243	155.75
647.447	166.75
647.652	148.75
647.857	139.75
648.062	149.75
648.266	156.75
648.471	169.75
648.676	155.75
648.88	155.75
649.085	153.75
649.289	158.75
649.494	168.75
649.698	173.75
649.903	175.75
650.107	171.75
650.312	151.75
650.516	166.75
650.721	155.75
650.925	144.75
651.13	147.75
651.334	136.75
651.539	135.75
651.743	145.75
651.947	143.75
652.152	149.75
652.356	135.75
652.56	147.75
652.764	132.75
652.969	122.75
653.173	144.75
653.377	139.75
653.581	138.75
653.785	132.75
653.99	124.75
654.194	129.75
654.398	132.75
654.602	128.75
654.806	126.75
655.01	128.75
655.214	127.75
655.418	129.75
655.622	118.75
655.826	121.75
656.03	116.75
656.234	123.75
656.438	123.75
656.642	120.75
656.846	125.75
657.049	103.75
657.253	107.75
657.457	111.75
657.661	108.75
657.865	98.75
658.068	118.75
658.272	107.75
658.476	97.75
658.68	111.75
658.883	111.75
659.087	93.75
659.291	90.75
659.494	88.75
659.698	89.75
659.901	92.75
660.105	83.75
660.309	97.75
660.512	92.75
660.716	98.75
660.919	98.75
661.123	80.75
661.326	93.75
661.53	94.75
661.733	98.75
661.936	95.75
662.14	92.75
662.343	96.75
662.546	95.75
662.75	82.75
662.953	93.75
663.156	92.75
663.36	84.75
663.563	88.75
663.766	88.75
663.969	76.75
664.173	86.75
664.376	83.75
664.579	100.75
664.782	85.75
664.985	89.75
665.188	87.75
665.391	69.75
665.594	87.75
665.797	95.75
666	91.75
666.203	74.75
666.406	72.75
666.609	62.75
666.812	76.75
667.015	85.75
667.218	88.75
667.421	79.75
667.624	76.75
667.827	71.75
668.03	94.75
668.232	73.75
668.435	81.75
668.638	87.75
668.841	79.75
669.043	88.75
669.246	79.75
669.449	90.75
669.651	96.75
669.854	93.75
670.057	83.75
670.259	77.75
670.462	81.75
670.665	79.75
670.867	87.75
671.07	72.75
671.272	75.75
671.475	73.75
671.677	82.75
671.88	78.75
672.082	81.75
672.284	72.75
672.487	95.75
672.689	75.75
672.892	85.75
