Data from 1987.PennyLincolnUp.Lamp.En5.5.200Scan.071819.P2_HRD10591_17-14-11-977.txt Node
Date: Thu Jul 18 17:14:11 EDT 2019
User: cochatt
Spectrometer: HR+D1059
Trigger mode: 1
Integration Time (sec): 1.000000E-1
Scans to average: 1
Electric dark correction enabled: true
Nonlinearity correction enabled: false
Boxcar width: 0
XAxis mode: Wavelengths
Number of Pixels in Spectrum: 2048
>>>>>Begin Spectral Data<<<<<
223.165	-3.31
223.4	-3.31
223.635	-3.31
223.869	-21.31
224.104	-14.31
224.338	-20.31
224.573	-2.31
224.808	-4.31
225.042	-4.31
225.277	-2.31
225.511	-4.31
225.746	-4.31
225.98	-9.31
226.215	16.69
226.449	8.69
226.683	11.69
226.918	19.69
227.152	33.69
227.387	29.69
227.621	43.69
227.856	37.69
228.09	34.69
228.324	56.69
228.559	59.69
228.793	64.69
229.027	100.69
229.262	120.69
229.496	115.69
229.73	136.69
229.964	145.69
230.199	129.69
230.433	118.69
230.667	111.69
230.901	113.69
231.136	121.69
231.37	116.69
231.604	107.69
231.838	113.69
232.072	117.69
232.306	106.69
232.541	99.69
232.775	102.69
233.009	102.69
233.243	95.69
233.477	96.69
233.711	113.69
233.945	106.69
234.179	104.69
234.413	120.69
234.647	103.69
234.881	111.69
235.115	110.69
235.349	112.69
235.583	108.69
235.817	113.69
236.051	129.69
236.285	118.69
236.519	116.69
236.753	119.69
236.987	152.69
237.221	180.69
237.455	229.69
237.689	191.69
237.922	141.69
238.156	117.69
238.39	117.69
238.624	115.69
238.858	106.69
239.091	128.69
239.325	105.69
239.559	123.69
239.793	117.69
240.027	107.69
240.26	139.69
240.494	148.69
240.728	146.69
240.961	148.69
241.195	137.69
241.429	125.69
241.662	116.69
241.896	117.69
242.13	128.69
242.363	121.69
242.597	124.69
242.83	127.69
243.064	121.69
243.298	130.69
243.531	114.69
243.765	127.69
243.998	121.69
244.232	127.69
244.465	121.69
244.699	146.69
244.932	135.69
245.166	131.69
245.399	116.69
245.633	118.69
245.866	120.69
246.099	122.69
246.333	142.69
246.566	133.69
246.8	139.69
247.033	138.69
247.266	143.69
247.5	139.69
247.733	152.69
247.966	154.69
248.2	147.69
248.433	146.69
248.666	151.69
248.899	165.69
249.133	167.69
249.366	193.69
249.599	187.69
249.832	167.69
250.066	164.69
250.299	154.69
250.532	180.69
250.765	176.69
250.998	193.69
251.231	195.69
251.465	197.69
251.698	182.69
251.931	183.69
252.164	182.69
252.397	181.69
252.63	181.69
252.863	182.69
253.096	196.69
253.329	191.69
253.562	211.69
253.795	193.69
254.028	195.69
254.261	200.69
254.494	213.69
254.727	216.69
254.96	251.69
255.193	247.69
255.426	223.69
255.659	213.69
255.892	199.69
256.124	212.69
256.357	205.69
256.59	199.69
256.823	172.69
257.056	184.69
257.289	176.69
257.521	196.69
257.754	203.69
257.987	183.69
258.22	184.69
258.452	184.69
258.685	199.69
258.918	191.69
259.151	196.69
259.383	193.69
259.616	206.69
259.849	211.69
260.081	192.69
260.314	206.69
260.547	241.69
260.779	217.69
261.012	193.69
261.244	203.69
261.477	208.69
261.71	196.69
261.942	205.69
262.175	204.69
262.407	208.69
262.64	183.69
262.872	184.69
263.105	195.69
263.337	188.69
263.57	185.69
263.802	170.69
264.035	166.69
264.267	183.69
264.499	165.69
264.732	181.69
264.964	182.69
265.197	184.69
265.429	179.69
265.661	183.69
265.894	179.69
266.126	168.69
266.358	183.69
266.591	164.69
266.823	181.69
267.055	196.69
267.287	198.69
267.52	183.69
267.752	189.69
267.984	184.69
268.216	191.69
268.448	201.69
268.681	188.69
268.913	199.69
269.145	218.69
269.377	234.69
269.609	233.69
269.841	229.69
270.073	229.69
270.306	237.69
270.538	271.69
270.77	273.69
271.002	265.69
271.234	249.69
271.466	247.69
271.698	279.69
271.93	292.69
272.162	275.69
272.394	253.69
272.626	268.69
272.858	239.69
273.09	245.69
273.322	244.69
273.553	216.69
273.785	241.69
274.017	210.69
274.249	212.69
274.481	213.69
274.713	213.69
274.945	221.69
275.176	211.69
275.408	224.69
275.64	215.69
275.872	199.69
276.104	221.69
276.335	228.69
276.567	220.69
276.799	233.69
277.031	245.69
277.262	263.69
277.494	234.69
277.726	243.69
277.957	241.69
278.189	232.69
278.421	228.69
278.652	211.69
278.884	212.69
279.115	218.69
279.347	202.69
279.579	226.69
279.81	242.69
280.042	215.69
280.273	201.69
280.505	207.69
280.736	191.69
280.968	204.69
281.199	203.69
281.431	205.69
281.662	218.69
281.894	204.69
282.125	215.69
282.356	239.69
282.588	254.69
282.819	261.69
283.051	215.69
283.282	203.69
283.513	228.69
283.745	213.69
283.976	211.69
284.207	231.69
284.439	215.69
284.67	214.69
284.901	192.69
285.132	219.69
285.364	209.69
285.595	193.69
285.826	192.69
286.057	214.69
286.288	225.69
286.52	208.69
286.751	199.69
286.982	216.69
287.213	226.69
287.444	206.69
287.675	205.69
287.906	234.69
288.138	233.69
288.369	208.69
288.6	236.69
288.831	235.69
289.062	230.69
289.293	209.69
289.524	220.69
289.755	230.69
289.986	207.69
290.217	190.69
290.448	202.69
290.679	211.69
290.91	211.69
291.141	204.69
291.371	211.69
291.602	205.69
291.833	212.69
292.064	203.69
292.295	199.69
292.526	224.69
292.757	212.69
292.987	215.69
293.218	213.69
293.449	202.69
293.68	217.69
293.91	217.69
294.141	217.69
294.372	209.69
294.603	225.69
294.833	213.69
295.064	215.69
295.295	209.69
295.525	218.69
295.756	227.69
295.987	235.69
296.217	261.69
296.448	265.69
296.679	241.69
296.909	224.69
297.14	225.69
297.37	224.69
297.601	226.69
297.831	216.69
298.062	215.69
298.292	247.69
298.523	223.69
298.753	222.69
298.984	229.69
299.214	229.69
299.445	238.69
299.675	239.69
299.905	245.69
300.136	227.69
300.366	224.69
300.597	232.69
300.827	239.69
301.057	251.69
301.288	263.69
301.518	241.69
301.748	243.69
301.979	240.69
302.209	225.69
302.439	245.69
302.669	235.69
302.9	251.69
303.13	239.69
303.36	243.69
303.59	243.69
303.82	263.69
304.051	244.69
304.281	251.69
304.511	240.69
304.741	247.69
304.971	245.69
305.201	243.69
305.431	251.69
305.661	232.69
305.891	233.69
306.121	228.69
306.352	257.69
306.582	243.69
306.812	253.69
307.042	255.69
307.272	247.69
307.502	233.69
307.731	242.69
307.961	249.69
308.191	257.69
308.421	258.69
308.651	244.69
308.881	260.69
309.111	286.69
309.341	266.69
309.571	282.69
309.8	286.69
310.03	304.69
310.26	293.69
310.49	287.69
310.72	322.69
310.949	325.69
311.179	338.69
311.409	308.69
311.639	296.69
311.868	322.69
312.098	281.69
312.328	308.69
312.557	322.69
312.787	330.69
313.017	337.69
313.246	323.69
313.476	311.69
313.706	286.69
313.935	304.69
314.165	328.69
314.394	332.69
314.624	315.69
314.853	307.69
315.083	297.69
315.312	293.69
315.542	283.69
315.771	274.69
316.001	277.69
316.23	282.69
316.46	291.69
316.689	310.69
316.919	309.69
317.148	301.69
317.377	308.69
317.607	287.69
317.836	303.69
318.065	293.69
318.295	291.69
318.524	292.69
318.753	284.69
318.983	289.69
319.212	297.69
319.441	297.69
319.67	331.69
319.9	298.69
320.129	299.69
320.358	293.69
320.587	293.69
320.816	307.69
321.046	311.69
321.275	318.69
321.504	324.69
321.733	324.69
321.962	329.69
322.191	354.69
322.42	364.69
322.649	383.69
322.878	380.69
323.108	379.69
323.337	415.69
323.566	462.69
323.795	448.69
324.024	564.69
324.253	665.69
324.482	934.69
324.71	1477.69
324.939	2081.69
325.168	1831.69
325.397	999.69
325.626	647.69
325.855	537.69
326.084	481.69
326.313	446.69
326.542	459.69
326.77	497.69
326.999	596.69
327.228	847.69
327.457	1281.69
327.686	1519.69
327.914	1103.69
328.143	713.69
328.372	603.69
328.6	535.69
328.829	518.69
329.058	513.69
329.287	526.69
329.515	495.69
329.744	453.69
329.972	411.69
330.201	438.69
330.43	458.69
330.658	505.69
330.887	576.69
331.115	551.69
331.344	449.69
331.572	383.69
331.801	414.69
332.03	407.69
332.258	379.69
332.486	361.69
332.715	346.69
332.943	347.69
333.172	363.69
333.4	339.69
333.629	336.69
333.857	361.69
334.085	357.69
334.314	336.69
334.542	365.69
334.771	372.69
334.999	347.69
335.227	354.69
335.455	359.69
335.684	338.69
335.912	336.69
336.14	331.69
336.369	332.69
336.597	333.69
336.825	333.69
337.053	335.69
337.281	330.69
337.51	341.69
337.738	336.69
337.966	327.69
338.194	344.69
338.422	340.69
338.65	322.69
338.878	326.69
339.106	313.69
339.334	322.69
339.562	327.69
339.79	345.69
340.018	309.69
340.246	332.69
340.474	341.69
340.702	341.69
340.93	327.69
341.158	345.69
341.386	341.69
341.614	329.69
341.842	339.69
342.07	329.69
342.298	324.69
342.526	325.69
342.754	329.69
342.981	310.69
343.209	335.69
343.437	316.69
343.665	311.69
343.893	315.69
344.12	321.69
344.348	330.69
344.576	333.69
344.804	353.69
345.031	354.69
345.259	368.69
345.487	371.69
345.714	352.69
345.942	339.69
346.17	318.69
346.397	328.69
346.625	306.69
346.853	333.69
347.08	323.69
347.308	330.69
347.535	345.69
347.763	351.69
347.99	341.69
348.218	356.69
348.445	338.69
348.673	361.69
348.9	343.69
349.128	319.69
349.355	312.69
349.583	323.69
349.81	309.69
350.037	316.69
350.265	306.69
350.492	336.69
350.72	323.69
350.947	331.69
351.174	343.69
351.402	356.69
351.629	353.69
351.856	330.69
352.083	354.69
352.311	342.69
352.538	353.69
352.765	372.69
352.992	339.69
353.22	341.69
353.447	354.69
353.674	346.69
353.901	325.69
354.128	304.69
354.355	309.69
354.583	308.69
354.81	311.69
355.037	297.69
355.264	291.69
355.491	287.69
355.718	286.69
355.945	292.69
356.172	297.69
356.399	288.69
356.626	282.69
356.853	316.69
357.08	299.69
357.307	319.69
357.534	292.69
357.761	295.69
357.988	297.69
358.215	310.69
358.441	313.69
358.668	309.69
358.895	288.69
359.122	326.69
359.349	323.69
359.576	323.69
359.802	357.69
360.029	425.69
360.256	421.69
360.483	386.69
360.709	347.69
360.936	369.69
361.163	335.69
361.39	352.69
361.616	353.69
361.843	330.69
362.07	337.69
362.296	354.69
362.523	354.69
362.749	343.69
362.976	338.69
363.203	324.69
363.429	316.69
363.656	347.69
363.882	335.69
364.109	310.69
364.335	312.69
364.562	322.69
364.788	316.69
365.015	313.69
365.241	297.69
365.468	312.69
365.694	316.69
365.92	348.69
366.147	310.69
366.373	304.69
366.599	330.69
366.826	314.69
367.052	311.69
367.278	311.69
367.505	297.69
367.731	307.69
367.957	310.69
368.184	307.69
368.41	323.69
368.636	333.69
368.862	337.69
369.089	326.69
369.315	301.69
369.541	305.69
369.767	323.69
369.993	326.69
370.219	332.69
370.445	339.69
370.672	303.69
370.898	291.69
371.124	309.69
371.35	300.69
371.576	292.69
371.802	319.69
372.028	311.69
372.254	304.69
372.48	312.69
372.706	313.69
372.932	298.69
373.158	316.69
373.384	320.69
373.61	307.69
373.835	299.69
374.061	301.69
374.287	317.69
374.513	315.69
374.739	317.69
374.965	305.69
375.191	316.69
375.416	311.69
375.642	301.69
375.868	308.69
376.094	312.69
376.319	297.69
376.545	316.69
376.771	317.69
376.997	310.69
377.222	300.69
377.448	311.69
377.674	290.69
377.899	279.69
378.125	302.69
378.35	301.69
378.576	311.69
378.802	308.69
379.027	314.69
379.253	292.69
379.478	309.69
379.704	296.69
379.929	315.69
380.155	328.69
380.38	316.69
380.606	304.69
380.831	309.69
381.057	288.69
381.282	314.69
381.507	318.69
381.733	312.69
381.958	303.69
382.184	322.69
382.409	300.69
382.634	300.69
382.86	307.69
383.085	303.69
383.31	323.69
383.535	303.69
383.761	326.69
383.986	309.69
384.211	322.69
384.436	332.69
384.662	318.69
384.887	313.69
385.112	320.69
385.337	323.69
385.562	339.69
385.787	324.69
386.013	353.69
386.238	324.69
386.463	341.69
386.688	348.69
386.913	304.69
387.138	321.69
387.363	322.69
387.588	316.69
387.813	337.69
388.038	330.69
388.263	340.69
388.488	341.69
388.713	315.69
388.938	345.69
389.163	325.69
389.387	310.69
389.612	331.69
389.837	327.69
390.062	320.69
390.287	331.69
390.512	307.69
390.736	337.69
390.961	328.69
391.186	326.69
391.411	330.69
391.636	327.69
391.86	330.69
392.085	332.69
392.31	315.69
392.534	332.69
392.759	330.69
392.984	321.69
393.208	333.69
393.433	352.69
393.658	359.69
393.882	332.69
394.107	336.69
394.331	327.69
394.556	327.69
394.78	320.69
395.005	337.69
395.229	332.69
395.454	321.69
395.678	345.69
395.903	354.69
396.127	367.69
396.352	378.69
396.576	352.69
396.801	356.69
397.025	339.69
397.249	360.69
397.474	363.69
397.698	363.69
397.922	373.69
398.147	398.69
398.371	377.69
398.595	363.69
398.82	364.69
399.044	361.69
399.268	386.69
399.492	393.69
399.717	387.69
399.941	436.69
400.165	444.69
400.389	467.69
400.613	432.69
400.837	405.69
401.062	399.69
401.286	365.69
401.51	395.69
401.734	375.69
401.958	379.69
402.182	377.69
402.406	404.69
402.63	393.69
402.854	395.69
403.078	388.69
403.302	379.69
403.526	405.69
403.75	389.69
403.974	393.69
404.198	385.69
404.422	371.69
404.645	397.69
404.869	411.69
405.093	405.69
405.317	450.69
405.541	458.69
405.765	426.69
405.988	416.69
406.212	426.69
406.436	446.69
406.66	445.69
406.883	453.69
407.107	483.69
407.331	481.69
407.555	544.69
407.778	541.69
408.002	475.69
408.226	447.69
408.449	451.69
408.673	446.69
408.896	469.69
409.12	505.69
409.344	474.69
409.567	403.69
409.791	409.69
410.014	396.69
410.238	399.69
410.461	403.69
410.685	403.69
410.908	427.69
411.132	461.69
411.355	479.69
411.578	465.69
411.802	435.69
412.025	413.69
412.249	397.69
412.472	385.69
412.695	415.69
412.919	393.69
413.142	389.69
413.365	378.69
413.589	375.69
413.812	377.69
414.035	377.69
414.258	385.69
414.482	369.69
414.705	392.69
414.928	368.69
415.151	360.69
415.374	364.69
415.597	381.69
415.821	375.69
416.044	372.69
416.267	377.69
416.49	369.69
416.713	387.69
416.936	365.69
417.159	378.69
417.382	381.69
417.605	415.69
417.828	388.69
418.051	413.69
418.274	398.69
418.497	391.69
418.72	388.69
418.943	358.69
419.166	379.69
419.389	406.69
419.611	403.69
419.834	396.69
420.057	412.69
420.28	400.69
420.503	396.69
420.726	413.69
420.948	433.69
421.171	461.69
421.394	496.69
421.617	440.69
421.839	427.69
422.062	412.69
422.285	423.69
422.507	500.69
422.73	538.69
422.953	554.69
423.175	438.69
423.398	450.69
423.621	423.69
423.843	455.69
424.066	455.69
424.288	450.69
424.511	457.69
424.733	515.69
424.956	592.69
425.178	565.69
425.401	571.69
425.623	589.69
425.846	510.69
426.068	471.69
426.291	465.69
426.513	467.69
426.735	484.69
426.958	523.69
427.18	588.69
427.402	697.69
427.625	770.69
427.847	691.69
428.069	596.69
428.292	530.69
428.514	511.69
428.736	448.69
428.958	482.69
429.181	447.69
429.403	436.69
429.625	443.69
429.847	471.69
430.069	549.69
430.292	541.69
430.514	450.69
430.736	413.69
430.958	421.69
431.18	414.69
431.402	409.69
431.624	395.69
431.846	395.69
432.068	392.69
432.29	398.69
432.512	427.69
432.734	408.69
432.956	379.69
433.178	409.69
433.4	403.69
433.622	405.69
433.844	403.69
434.066	398.69
434.287	380.69
434.509	427.69
434.731	396.69
434.953	405.69
435.175	431.69
435.397	477.69
435.618	469.69
435.84	507.69
436.062	589.69
436.284	629.69
436.505	548.69
436.727	491.69
436.949	437.69
437.17	433.69
437.392	451.69
437.614	458.69
437.835	516.69
438.057	590.69
438.278	660.69
438.5	685.69
438.721	732.69
438.943	682.69
439.165	563.69
439.386	509.69
439.608	506.69
439.829	493.69
440.05	518.69
440.272	559.69
440.493	535.69
440.715	489.69
440.936	477.69
441.158	460.69
441.379	448.69
441.6	456.69
441.822	479.69
442.043	506.69
442.264	603.69
442.486	637.69
442.707	548.69
442.928	509.69
443.149	507.69
443.371	521.69
443.592	563.69
443.813	639.69
444.034	683.69
444.255	548.69
444.476	470.69
444.698	475.69
444.919	467.69
445.14	568.69
445.361	533.69
445.582	515.69
445.803	563.69
446.024	692.69
446.245	682.69
446.466	625.69
446.687	529.69
446.908	481.69
447.129	456.69
447.35	437.69
447.571	437.69
447.792	440.69
448.013	444.69
448.234	473.69
448.455	535.69
448.675	648.69
448.896	718.69
449.117	626.69
449.338	584.69
449.559	664.69
449.779	738.69
450	615.69
450.221	528.69
450.442	456.69
450.662	434.69
450.883	441.69
451.104	477.69
451.324	474.69
451.545	426.69
451.766	410.69
451.986	411.69
452.207	418.69
452.428	381.69
452.648	389.69
452.869	380.69
453.089	412.69
453.31	415.69
453.53	411.69
453.751	395.69
453.971	422.69
454.192	426.69
454.412	417.69
454.633	409.69
454.853	414.69
455.073	391.69
455.294	428.69
455.514	475.69
455.734	478.69
455.955	426.69
456.175	383.69
456.395	359.69
456.616	358.69
456.836	383.69
457.056	373.69
457.276	362.69
457.497	363.69
457.717	378.69
457.937	379.69
458.157	372.69
458.377	383.69
458.598	413.69
458.818	472.69
459.038	563.69
459.258	563.69
459.478	463.69
459.698	412.69
459.918	394.69
460.138	420.69
460.358	404.69
460.578	394.69
460.798	390.69
461.018	389.69
461.238	403.69
461.458	392.69
461.678	385.69
461.898	401.69
462.118	377.69
462.338	399.69
462.558	410.69
462.777	381.69
462.997	391.69
463.217	428.69
463.437	398.69
463.657	398.69
463.876	389.69
464.096	413.69
464.316	390.69
464.536	425.69
464.755	409.69
464.975	436.69
465.195	498.69
465.414	571.69
465.634	488.69
465.854	453.69
466.073	444.69
466.293	406.69
466.512	389.69
466.732	395.69
466.951	385.69
467.171	383.69
467.391	395.69
467.61	420.69
467.829	421.69
468.049	383.69
468.268	390.69
468.488	373.69
468.707	393.69
468.927	390.69
469.146	402.69
469.365	380.69
469.585	384.69
469.804	382.69
470.023	400.69
470.243	406.69
470.462	383.69
470.681	418.69
470.901	424.69
471.12	402.69
471.339	394.69
471.558	397.69
471.777	400.69
471.997	397.69
472.216	393.69
472.435	409.69
472.654	388.69
472.873	396.69
473.092	412.69
473.311	391.69
473.53	394.69
473.749	402.69
473.968	456.69
474.187	547.69
474.406	567.69
474.625	460.69
474.844	423.69
475.063	423.69
475.282	407.69
475.501	392.69
475.72	397.69
475.939	402.69
476.158	407.69
476.377	407.69
476.596	407.69
476.814	432.69
477.033	427.69
477.252	412.69
477.471	416.69
477.69	436.69
477.908	434.69
478.127	441.69
478.346	437.69
478.564	436.69
478.783	447.69
479.002	426.69
479.22	448.69
479.439	457.69
479.658	482.69
479.876	471.69
480.095	506.69
480.313	520.69
480.532	493.69
480.751	479.69
480.969	478.69
481.188	486.69
481.406	527.69
481.624	488.69
481.843	461.69
482.061	474.69
482.28	473.69
482.498	479.69
482.717	451.69
482.935	488.69
483.153	470.69
483.372	457.69
483.59	481.69
483.808	465.69
484.027	480.69
484.245	490.69
484.463	472.69
484.681	489.69
484.9	496.69
485.118	505.69
485.336	475.69
485.554	472.69
485.772	485.69
485.99	495.69
486.209	499.69
486.427	510.69
486.645	526.69
486.863	551.69
487.081	528.69
487.299	518.69
487.517	531.69
487.735	535.69
487.953	521.69
488.171	503.69
488.389	521.69
488.607	517.69
488.825	530.69
489.043	524.69
489.261	530.69
489.479	505.69
489.696	521.69
489.914	520.69
490.132	514.69
490.35	541.69
490.568	536.69
490.786	548.69
491.003	563.69
491.221	587.69
491.439	569.69
491.657	598.69
491.874	593.69
492.092	576.69
492.31	603.69
492.527	595.69
492.745	592.69
492.963	606.69
493.18	616.69
493.398	610.69
493.615	617.69
493.833	599.69
494.05	608.69
494.268	590.69
494.485	622.69
494.703	635.69
494.92	636.69
495.138	617.69
495.355	627.69
495.573	627.69
495.79	643.69
496.008	632.69
496.225	615.69
496.442	620.69
496.66	647.69
496.877	613.69
497.094	624.69
497.312	631.69
497.529	634.69
497.746	643.69
497.963	645.69
498.181	655.69
498.398	655.69
498.615	646.69
498.832	681.69
499.049	684.69
499.267	663.69
499.484	708.69
499.701	696.69
499.918	724.69
500.135	765.69
500.352	778.69
500.569	757.69
500.786	746.69
501.003	725.69
501.22	769.69
501.437	755.69
501.654	742.69
501.871	743.69
502.088	732.69
502.305	703.69
502.522	673.69
502.739	698.69
502.956	659.69
503.172	657.69
503.389	647.69
503.606	663.69
503.823	677.69
504.04	660.69
504.256	653.69
504.473	629.69
504.69	612.69
504.907	628.69
505.123	643.69
505.34	622.69
505.557	619.69
505.773	602.69
505.99	610.69
506.207	629.69
506.423	609.69
506.64	609.69
506.856	609.69
507.073	600.69
507.289	632.69
507.506	601.69
507.722	612.69
507.939	639.69
508.155	630.69
508.372	581.69
508.588	601.69
508.805	587.69
509.021	576.69
509.238	607.69
509.454	635.69
509.67	621.69
509.887	599.69
510.103	606.69
510.319	643.69
510.536	732.69
510.752	1256.69
510.968	1055.69
511.184	657.69
511.401	605.69
511.617	590.69
511.833	588.69
512.049	585.69
512.265	589.69
512.481	561.69
512.698	560.69
512.914	572.69
513.13	580.69
513.346	552.69
513.562	567.69
513.778	595.69
513.994	586.69
514.21	602.69
514.426	645.69
514.642	683.69
514.858	699.69
515.074	790.69
515.29	932.69
515.506	1394.69
515.721	1149.69
515.937	738.69
516.153	669.69
516.369	625.69
516.585	617.69
516.801	578.69
517.016	606.69
517.232	594.69
517.448	580.69
517.664	576.69
517.879	552.69
518.095	573.69
518.311	571.69
518.527	562.69
518.742	566.69
518.958	580.69
519.173	567.69
519.389	554.69
519.605	588.69
519.82	571.69
520.036	605.69
520.251	639.69
520.467	649.69
520.682	650.69
520.898	674.69
521.113	718.69
521.329	763.69
521.544	884.69
521.76	1149.69
521.975	1880.69
522.19	1890.69
522.406	995.69
522.621	703.69
522.836	632.69
523.052	601.69
523.267	587.69
523.482	561.69
523.698	561.69
523.913	541.69
524.128	535.69
524.343	539.69
524.559	506.69
524.774	517.69
524.989	491.69
525.204	525.69
525.419	497.69
525.634	497.69
525.849	506.69
526.064	479.69
526.28	475.69
526.495	486.69
526.71	475.69
526.925	484.69
527.14	464.69
527.355	464.69
527.57	482.69
527.785	479.69
527.999	460.69
528.214	463.69
528.429	442.69
528.644	459.69
528.859	464.69
529.074	464.69
529.289	475.69
529.503	594.69
529.718	576.69
529.933	506.69
530.148	467.69
530.363	480.69
530.577	455.69
530.792	451.69
531.007	455.69
531.221	460.69
531.436	447.69
531.651	443.69
531.865	449.69
532.08	449.69
532.295	454.69
532.509	430.69
532.724	422.69
532.938	433.69
533.153	433.69
533.367	416.69
533.582	438.69
533.796	449.69
534.011	445.69
534.225	399.69
534.44	397.69
534.654	420.69
534.868	403.69
535.083	429.69
535.297	427.69
535.511	415.69
535.726	452.69
535.94	451.69
536.154	445.69
536.369	425.69
536.583	404.69
536.797	444.69
537.011	412.69
537.225	409.69
537.44	422.69
537.654	421.69
537.868	402.69
538.082	418.69
538.296	410.69
538.51	413.69
538.724	421.69
538.938	416.69
539.153	433.69
539.367	427.69
539.581	442.69
539.795	428.69
540.009	420.69
540.222	404.69
540.436	416.69
540.65	417.69
540.864	423.69
541.078	404.69
541.292	431.69
541.506	410.69
541.72	417.69
541.934	422.69
542.147	404.69
542.361	407.69
542.575	398.69
542.789	407.69
543.002	419.69
543.216	403.69
543.43	406.69
543.644	404.69
543.857	394.69
544.071	417.69
544.285	415.69
544.498	424.69
544.712	390.69
544.925	411.69
545.139	384.69
545.352	397.69
545.566	387.69
545.779	376.69
545.993	402.69
546.206	412.69
546.42	387.69
546.633	376.69
546.847	377.69
547.06	391.69
547.274	369.69
547.487	375.69
547.7	377.69
547.914	389.69
548.127	369.69
548.34	359.69
548.554	379.69
548.767	375.69
548.98	377.69
549.193	371.69
549.407	384.69
549.62	362.69
549.833	380.69
550.046	362.69
550.259	348.69
550.473	378.69
550.686	367.69
550.899	369.69
551.112	372.69
551.325	374.69
551.538	378.69
551.751	367.69
551.964	346.69
552.177	367.69
552.39	343.69
552.603	364.69
552.816	376.69
553.029	375.69
553.242	378.69
553.455	375.69
553.667	399.69
553.88	386.69
554.093	401.69
554.306	404.69
554.519	361.69
554.732	371.69
554.944	362.69
555.157	363.69
555.37	354.69
555.583	351.69
555.795	363.69
556.008	351.69
556.221	363.69
556.433	361.69
556.646	341.69
556.859	343.69
557.071	347.69
557.284	350.69
557.496	358.69
557.709	338.69
557.921	323.69
558.134	357.69
558.346	347.69
558.559	353.69
558.771	346.69
558.984	351.69
559.196	343.69
559.409	332.69
559.621	352.69
559.833	341.69
560.046	353.69
560.258	313.69
560.47	340.69
560.683	327.69
560.895	341.69
561.107	346.69
561.32	330.69
561.532	348.69
561.744	327.69
561.956	343.69
562.168	323.69
562.381	341.69
562.593	346.69
562.805	354.69
563.017	319.69
563.229	344.69
563.441	329.69
563.653	346.69
563.865	331.69
564.077	346.69
564.289	356.69
564.501	347.69
564.713	324.69
564.925	348.69
565.137	368.69
565.349	337.69
565.561	343.69
565.773	348.69
565.985	372.69
566.197	365.69
566.408	382.69
566.62	381.69
566.832	372.69
567.044	375.69
567.255	387.69
567.467	383.69
567.679	385.69
567.891	391.69
568.102	365.69
568.314	370.69
568.526	368.69
568.737	372.69
568.949	377.69
569.161	346.69
569.372	352.69
569.584	349.69
569.795	337.69
570.007	329.69
570.218	394.69
570.43	379.69
570.641	324.69
570.853	325.69
571.064	326.69
571.276	324.69
571.487	319.69
571.698	331.69
571.91	301.69
572.121	307.69
572.333	296.69
572.544	313.69
572.755	283.69
572.966	313.69
573.178	321.69
573.389	313.69
573.6	312.69
573.811	303.69
574.023	293.69
574.234	298.69
574.445	291.69
574.656	292.69
574.867	309.69
575.078	280.69
575.289	305.69
575.501	299.69
575.712	292.69
575.923	282.69
576.134	286.69
576.345	268.69
576.556	296.69
576.767	297.69
576.978	286.69
577.188	290.69
577.399	290.69
577.61	279.69
577.821	281.69
578.032	307.69
578.243	332.69
578.454	579.69
578.665	441.69
578.875	305.69
579.086	287.69
579.297	273.69
579.508	274.69
579.718	291.69
579.929	284.69
580.14	268.69
580.35	281.69
580.561	258.69
580.772	282.69
580.982	263.69
581.193	269.69
581.403	285.69
581.614	287.69
581.825	271.69
582.035	275.69
582.246	269.69
582.456	271.69
582.667	272.69
582.877	257.69
583.087	274.69
583.298	281.69
583.508	260.69
583.719	263.69
583.929	264.69
584.139	254.69
584.35	264.69
584.56	273.69
584.77	275.69
584.981	270.69
585.191	259.69
585.401	259.69
585.611	264.69
585.821	244.69
586.032	241.69
586.242	254.69
586.452	262.69
586.662	245.69
586.872	277.69
587.082	261.69
587.292	250.69
587.502	248.69
587.713	259.69
587.923	240.69
588.133	261.69
588.343	264.69
588.553	255.69
588.762	266.69
588.972	260.69
589.182	371.69
589.392	382.69
589.602	293.69
589.812	363.69
590.022	308.69
590.232	273.69
590.441	267.69
590.651	261.69
590.861	265.69
591.071	259.69
591.281	256.69
591.49	258.69
591.7	265.69
591.91	258.69
592.119	267.69
592.329	261.69
592.539	265.69
592.748	268.69
592.958	267.69
593.167	261.69
593.377	257.69
593.587	259.69
593.796	248.69
594.006	245.69
594.215	258.69
594.424	260.69
594.634	252.69
594.843	252.69
595.053	239.69
595.262	242.69
595.472	257.69
595.681	255.69
595.89	252.69
596.1	252.69
596.309	240.69
596.518	243.69
596.727	244.69
596.937	234.69
597.146	248.69
597.355	251.69
597.564	238.69
597.774	242.69
597.983	243.69
598.192	225.69
598.401	228.69
598.61	251.69
598.819	235.69
599.028	225.69
599.237	215.69
599.446	242.69
599.655	252.69
599.864	231.69
600.073	236.69
600.282	233.69
600.491	217.69
600.7	224.69
600.909	226.69
601.118	232.69
601.327	229.69
601.536	238.69
601.745	233.69
601.953	217.69
602.162	243.69
602.371	228.69
602.58	214.69
602.789	229.69
602.997	247.69
603.206	245.69
603.415	211.69
603.623	231.69
603.832	224.69
604.041	232.69
604.249	211.69
604.458	207.69
604.666	209.69
604.875	224.69
605.084	222.69
605.292	218.69
605.501	224.69
605.709	214.69
605.918	213.69
606.126	217.69
606.334	219.69
606.543	228.69
606.751	229.69
606.96	212.69
607.168	225.69
607.376	218.69
607.585	205.69
607.793	225.69
608.001	229.69
608.21	204.69
608.418	200.69
608.626	212.69
608.834	231.69
609.043	216.69
609.251	217.69
609.459	216.69
609.667	217.69
609.875	206.69
610.083	218.69
610.291	215.69
610.499	231.69
610.707	210.69
610.916	211.69
611.124	217.69
611.332	211.69
611.54	214.69
611.748	208.69
611.955	213.69
612.163	201.69
612.371	221.69
612.579	232.69
612.787	201.69
612.995	205.69
613.203	221.69
613.411	197.69
613.618	202.69
613.826	195.69
614.034	199.69
614.242	209.69
614.449	214.69
614.657	215.69
614.865	212.69
615.072	209.69
615.28	196.69
615.488	213.69
615.695	218.69
615.903	202.69
616.111	218.69
616.318	219.69
616.526	209.69
616.733	224.69
616.941	192.69
617.148	219.69
617.356	211.69
617.563	215.69
617.771	202.69
617.978	193.69
618.185	204.69
618.393	207.69
618.6	209.69
618.807	182.69
619.015	213.69
619.222	194.69
619.429	228.69
619.637	195.69
619.844	195.69
620.051	182.69
620.258	212.69
620.466	187.69
620.673	193.69
620.88	185.69
621.087	210.69
621.294	204.69
621.501	192.69
621.708	220.69
621.915	208.69
622.122	201.69
622.329	213.69
622.536	199.69
622.743	195.69
622.95	189.69
623.157	191.69
623.364	206.69
623.571	195.69
623.778	194.69
623.985	205.69
624.192	195.69
624.399	181.69
624.606	175.69
624.812	197.69
625.019	192.69
625.226	197.69
625.433	201.69
625.639	192.69
625.846	181.69
626.053	201.69
626.259	194.69
626.466	177.69
626.673	188.69
626.879	180.69
627.086	194.69
627.293	183.69
627.499	185.69
627.706	173.69
627.912	179.69
628.119	176.69
628.325	189.69
628.532	198.69
628.738	198.69
628.945	181.69
629.151	197.69
629.357	177.69
629.564	182.69
629.77	175.69
629.976	168.69
630.183	170.69
630.389	167.69
630.595	172.69
630.802	191.69
631.008	167.69
631.214	179.69
631.42	163.69
631.627	176.69
631.833	177.69
632.039	179.69
632.245	161.69
632.451	172.69
632.657	183.69
632.863	164.69
633.069	169.69
633.275	162.69
633.481	155.69
633.688	164.69
633.893	177.69
634.099	175.69
634.305	181.69
634.511	172.69
634.717	181.69
634.923	169.69
635.129	172.69
635.335	195.69
635.541	161.69
635.747	153.69
635.952	171.69
636.158	162.69
636.364	164.69
636.57	163.69
636.775	156.69
636.981	163.69
637.187	170.69
637.392	176.69
637.598	168.69
637.804	147.69
638.009	141.69
638.215	152.69
638.421	163.69
638.626	161.69
638.832	160.69
639.037	160.69
639.243	159.69
639.448	156.69
639.654	165.69
639.859	158.69
640.065	165.69
640.27	166.69
640.475	159.69
640.681	153.69
640.886	160.69
641.091	164.69
641.297	159.69
641.502	163.69
641.707	169.69
641.913	154.69
642.118	139.69
642.323	148.69
642.528	159.69
642.733	149.69
642.939	160.69
643.144	157.69
643.349	155.69
643.554	155.69
643.759	148.69
643.964	132.69
644.169	161.69
644.374	148.69
644.579	152.69
644.784	167.69
644.989	151.69
645.194	151.69
645.399	139.69
645.604	146.69
645.809	146.69
646.014	151.69
646.219	144.69
646.423	164.69
646.628	153.69
646.833	155.69
647.038	156.69
647.243	163.69
647.447	150.69
647.652	159.69
647.857	147.69
648.062	155.69
648.266	156.69
648.471	150.69
648.676	154.69
648.88	163.69
649.085	156.69
649.289	144.69
649.494	159.69
649.698	156.69
649.903	166.69
650.107	168.69
650.312	152.69
650.516	162.69
650.721	133.69
650.925	148.69
651.13	150.69
651.334	131.69
651.539	133.69
651.743	139.69
651.947	151.69
652.152	137.69
652.356	132.69
652.56	123.69
652.764	133.69
652.969	140.69
653.173	117.69
653.377	135.69
653.581	132.69
653.785	131.69
653.99	134.69
654.194	125.69
654.398	124.69
654.602	136.69
654.806	132.69
655.01	142.69
655.214	139.69
655.418	126.69
655.622	118.69
655.826	110.69
656.03	125.69
656.234	117.69
656.438	122.69
656.642	111.69
656.846	125.69
657.049	116.69
657.253	125.69
657.457	121.69
657.661	125.69
657.865	105.69
658.068	111.69
658.272	107.69
658.476	105.69
658.68	108.69
658.883	89.69
659.087	88.69
659.291	98.69
659.494	96.69
659.698	89.69
659.901	88.69
660.105	94.69
660.309	81.69
660.512	88.69
660.716	103.69
660.919	87.69
661.123	81.69
661.326	93.69
661.53	86.69
661.733	85.69
661.936	95.69
662.14	78.69
662.343	82.69
662.546	77.69
662.75	93.69
662.953	90.69
663.156	77.69
663.36	81.69
663.563	81.69
663.766	74.69
663.969	86.69
664.173	83.69
664.376	80.69
664.579	82.69
664.782	79.69
664.985	81.69
665.188	87.69
665.391	76.69
665.594	72.69
665.797	80.69
666	66.69
666.203	80.69
666.406	88.69
666.609	74.69
666.812	86.69
667.015	69.69
667.218	78.69
667.421	84.69
667.624	77.69
667.827	88.69
668.03	68.69
668.232	86.69
668.435	67.69
668.638	76.69
668.841	83.69
669.043	84.69
669.246	75.69
669.449	85.69
669.651	79.69
669.854	91.69
670.057	93.69
670.259	73.69
670.462	85.69
670.665	80.69
670.867	75.69
671.07	94.69
671.272	83.69
671.475	87.69
671.677	91.69
671.88	83.69
672.082	89.69
672.284	81.69
672.487	76.69
672.689	69.69
672.892	87.69
