Data from 1987.PennyLincolnUp.Lamp.En5.5.200Scan.071819.P2_HRD10591_17-16-14-972.txt Node
Date: Thu Jul 18 17:16:14 EDT 2019
User: cochatt
Spectrometer: HR+D1059
Trigger mode: 1
Integration Time (sec): 1.000000E-1
Scans to average: 1
Electric dark correction enabled: true
Nonlinearity correction enabled: false
Boxcar width: 0
XAxis mode: Wavelengths
Number of Pixels in Spectrum: 2048
>>>>>Begin Spectral Data<<<<<
223.165	-16.31
223.4	-16.31
223.635	-16.31
223.869	-11.31
224.104	-16.31
224.338	-19.31
224.573	-12.31
224.808	-11.31
225.042	-2.31
225.277	-3.31
225.511	2.69
225.746	1.69
225.98	-1.31
226.215	7.69
226.449	22.69
226.683	13.69
226.918	20.69
227.152	24.69
227.387	29.69
227.621	37.69
227.856	32.69
228.09	44.69
228.324	52.69
228.559	69.69
228.793	66.69
229.027	107.69
229.262	115.69
229.496	132.69
229.73	165.69
229.964	184.69
230.199	137.69
230.433	137.69
230.667	128.69
230.901	123.69
231.136	105.69
231.37	125.69
231.604	122.69
231.838	112.69
232.072	123.69
232.306	128.69
232.541	115.69
232.775	115.69
233.009	98.69
233.243	125.69
233.477	130.69
233.711	134.69
233.945	120.69
234.179	117.69
234.413	137.69
234.647	123.69
234.881	131.69
235.115	119.69
235.349	122.69
235.583	117.69
235.817	124.69
236.051	120.69
236.285	133.69
236.519	123.69
236.753	150.69
236.987	170.69
237.221	212.69
237.455	271.69
237.689	218.69
237.922	160.69
238.156	147.69
238.39	128.69
238.624	132.69
238.858	124.69
239.091	128.69
239.325	136.69
239.559	128.69
239.793	121.69
240.027	136.69
240.26	160.69
240.494	170.69
240.728	179.69
240.961	150.69
241.195	152.69
241.429	157.69
241.662	159.69
241.896	127.69
242.13	139.69
242.363	140.69
242.597	137.69
242.83	131.69
243.064	132.69
243.298	132.69
243.531	147.69
243.765	143.69
243.998	136.69
244.232	142.69
244.465	143.69
244.699	146.69
244.932	143.69
245.166	144.69
245.399	153.69
245.633	144.69
245.866	134.69
246.099	153.69
246.333	150.69
246.566	136.69
246.8	155.69
247.033	143.69
247.266	132.69
247.5	167.69
247.733	171.69
247.966	173.69
248.2	169.69
248.433	156.69
248.666	170.69
248.899	173.69
249.133	210.69
249.366	237.69
249.599	209.69
249.832	178.69
250.066	186.69
250.299	164.69
250.532	187.69
250.765	195.69
250.998	231.69
251.231	218.69
251.465	222.69
251.698	219.69
251.931	204.69
252.164	208.69
252.397	206.69
252.63	190.69
252.863	203.69
253.096	202.69
253.329	235.69
253.562	227.69
253.795	230.69
254.028	222.69
254.261	231.69
254.494	243.69
254.727	245.69
254.96	284.69
255.193	278.69
255.426	267.69
255.659	237.69
255.892	229.69
256.124	219.69
256.357	224.69
256.59	206.69
256.823	204.69
257.056	191.69
257.289	205.69
257.521	228.69
257.754	200.69
257.987	203.69
258.22	198.69
258.452	201.69
258.685	215.69
258.918	183.69
259.151	202.69
259.383	210.69
259.616	224.69
259.849	233.69
260.081	226.69
260.314	257.69
260.547	249.69
260.779	240.69
261.012	248.69
261.244	218.69
261.477	206.69
261.71	213.69
261.942	239.69
262.175	267.69
262.407	234.69
262.64	224.69
262.872	212.69
263.105	205.69
263.337	191.69
263.57	210.69
263.802	190.69
264.035	191.69
264.267	202.69
264.499	210.69
264.732	186.69
264.964	194.69
265.197	188.69
265.429	206.69
265.661	197.69
265.894	200.69
266.126	189.69
266.358	202.69
266.591	193.69
266.823	213.69
267.055	205.69
267.287	208.69
267.52	195.69
267.752	219.69
267.984	202.69
268.216	207.69
268.448	224.69
268.681	217.69
268.913	229.69
269.145	242.69
269.377	272.69
269.609	274.69
269.841	257.69
270.073	271.69
270.306	291.69
270.538	312.69
270.77	325.69
271.002	306.69
271.234	291.69
271.466	296.69
271.698	321.69
271.93	313.69
272.162	320.69
272.394	317.69
272.626	300.69
272.858	296.69
273.09	269.69
273.322	258.69
273.553	264.69
273.785	261.69
274.017	242.69
274.249	259.69
274.481	255.69
274.713	256.69
274.945	248.69
275.176	240.69
275.408	238.69
275.64	255.69
275.872	250.69
276.104	244.69
276.335	249.69
276.567	266.69
276.799	276.69
277.031	294.69
277.262	322.69
277.494	323.69
277.726	299.69
277.957	257.69
278.189	253.69
278.421	255.69
278.652	248.69
278.884	261.69
279.115	244.69
279.347	235.69
279.579	236.69
279.81	232.69
280.042	232.69
280.273	240.69
280.505	246.69
280.736	218.69
280.968	225.69
281.199	257.69
281.431	232.69
281.662	245.69
281.894	246.69
282.125	244.69
282.356	255.69
282.588	299.69
282.819	304.69
283.051	250.69
283.282	243.69
283.513	239.69
283.745	239.69
283.976	253.69
284.207	237.69
284.439	246.69
284.67	231.69
284.901	258.69
285.132	249.69
285.364	251.69
285.595	233.69
285.826	244.69
286.057	254.69
286.288	250.69
286.52	240.69
286.751	247.69
286.982	242.69
287.213	240.69
287.444	238.69
287.675	243.69
287.906	260.69
288.138	263.69
288.369	260.69
288.6	270.69
288.831	245.69
289.062	242.69
289.293	259.69
289.524	258.69
289.755	259.69
289.986	246.69
290.217	248.69
290.448	236.69
290.679	239.69
290.91	247.69
291.141	253.69
291.371	240.69
291.602	246.69
291.833	244.69
292.064	257.69
292.295	244.69
292.526	242.69
292.757	249.69
292.987	232.69
293.218	248.69
293.449	256.69
293.68	256.69
293.91	220.69
294.141	245.69
294.372	246.69
294.603	257.69
294.833	238.69
295.064	242.69
295.295	235.69
295.525	266.69
295.756	265.69
295.987	267.69
296.217	300.69
296.448	317.69
296.679	291.69
296.909	250.69
297.14	244.69
297.37	246.69
297.601	260.69
297.831	238.69
298.062	263.69
298.292	255.69
298.523	257.69
298.753	260.69
298.984	252.69
299.214	247.69
299.445	266.69
299.675	268.69
299.905	274.69
300.136	266.69
300.366	252.69
300.597	251.69
300.827	292.69
301.057	273.69
301.288	295.69
301.518	306.69
301.748	266.69
301.979	273.69
302.209	274.69
302.439	279.69
302.669	290.69
302.9	268.69
303.13	262.69
303.36	278.69
303.59	284.69
303.82	293.69
304.051	302.69
304.281	278.69
304.511	272.69
304.741	272.69
304.971	272.69
305.201	273.69
305.431	275.69
305.661	272.69
305.891	258.69
306.121	273.69
306.352	285.69
306.582	285.69
306.812	286.69
307.042	283.69
307.272	285.69
307.502	267.69
307.731	286.69
307.961	267.69
308.191	276.69
308.421	290.69
308.651	295.69
308.881	309.69
309.111	299.69
309.341	302.69
309.571	310.69
309.8	327.69
310.03	340.69
310.26	370.69
310.49	354.69
310.72	382.69
310.949	398.69
311.179	376.69
311.409	363.69
311.639	343.69
311.868	348.69
312.098	362.69
312.328	342.69
312.557	400.69
312.787	404.69
313.017	417.69
313.246	374.69
313.476	351.69
313.706	332.69
313.935	360.69
314.165	379.69
314.394	393.69
314.624	388.69
314.853	347.69
315.083	363.69
315.312	356.69
315.542	334.69
315.771	321.69
316.001	342.69
316.23	330.69
316.46	336.69
316.689	352.69
316.919	356.69
317.148	369.69
317.377	357.69
317.607	337.69
317.836	361.69
318.065	345.69
318.295	343.69
318.524	339.69
318.753	323.69
318.983	345.69
319.212	344.69
319.441	349.69
319.67	365.69
319.9	357.69
320.129	332.69
320.358	346.69
320.587	377.69
320.816	353.69
321.046	382.69
321.275	376.69
321.504	382.69
321.733	386.69
321.962	380.69
322.191	406.69
322.42	428.69
322.649	472.69
322.878	456.69
323.108	496.69
323.337	526.69
323.566	558.69
323.795	620.69
324.024	696.69
324.253	892.69
324.482	1286.69
324.71	2032.69
324.939	2805.69
325.168	2494.69
325.397	1345.69
325.626	856.69
325.855	677.69
326.084	606.69
326.313	569.69
326.542	584.69
326.77	628.69
326.999	792.69
327.228	1122.69
327.457	1769.69
327.686	2141.69
327.914	1396.69
328.143	907.69
328.372	759.69
328.6	732.69
328.829	689.69
329.058	715.69
329.287	681.69
329.515	626.69
329.744	527.69
329.972	527.69
330.201	505.69
330.43	585.69
330.658	640.69
330.887	735.69
331.115	702.69
331.344	572.69
331.572	504.69
331.801	491.69
332.03	493.69
332.258	449.69
332.486	438.69
332.715	426.69
332.943	438.69
333.172	395.69
333.4	408.69
333.629	394.69
333.857	430.69
334.085	400.69
334.314	428.69
334.542	402.69
334.771	398.69
334.999	387.69
335.227	423.69
335.455	405.69
335.684	389.69
335.912	387.69
336.14	374.69
336.369	370.69
336.597	396.69
336.825	422.69
337.053	410.69
337.281	367.69
337.51	380.69
337.738	382.69
337.966	399.69
338.194	407.69
338.422	394.69
338.65	377.69
338.878	380.69
339.106	358.69
339.334	378.69
339.562	385.69
339.79	378.69
340.018	386.69
340.246	390.69
340.474	408.69
340.702	390.69
340.93	371.69
341.158	376.69
341.386	402.69
341.614	390.69
341.842	410.69
342.07	364.69
342.298	362.69
342.526	369.69
342.754	355.69
342.981	352.69
343.209	354.69
343.437	354.69
343.665	363.69
343.893	363.69
344.12	360.69
344.348	365.69
344.576	374.69
344.804	390.69
345.031	391.69
345.259	430.69
345.487	405.69
345.714	394.69
345.942	397.69
346.17	371.69
346.397	367.69
346.625	380.69
346.853	359.69
347.08	386.69
347.308	380.69
347.535	385.69
347.763	426.69
347.99	409.69
348.218	384.69
348.445	426.69
348.673	410.69
348.9	398.69
349.128	360.69
349.355	370.69
349.583	372.69
349.81	368.69
350.037	355.69
350.265	372.69
350.492	363.69
350.72	375.69
350.947	374.69
351.174	398.69
351.402	419.69
351.629	382.69
351.856	394.69
352.083	398.69
352.311	446.69
352.538	437.69
352.765	424.69
352.992	416.69
353.22	395.69
353.447	390.69
353.674	382.69
353.901	375.69
354.128	328.69
354.355	340.69
354.583	352.69
354.81	347.69
355.037	350.69
355.264	332.69
355.491	344.69
355.718	339.69
355.945	359.69
356.172	343.69
356.399	340.69
356.626	350.69
356.853	329.69
357.08	324.69
357.307	338.69
357.534	331.69
357.761	337.69
357.988	327.69
358.215	337.69
358.441	332.69
358.668	333.69
358.895	354.69
359.122	370.69
359.349	379.69
359.576	385.69
359.802	437.69
360.029	462.69
360.256	512.69
360.483	470.69
360.709	406.69
360.936	378.69
361.163	378.69
361.39	415.69
361.616	400.69
361.843	402.69
362.07	399.69
362.296	386.69
362.523	405.69
362.749	412.69
362.976	384.69
363.203	376.69
363.429	377.69
363.656	365.69
363.882	353.69
364.109	372.69
364.335	367.69
364.562	374.69
364.788	365.69
365.015	374.69
365.241	367.69
365.468	358.69
365.694	379.69
365.92	401.69
366.147	363.69
366.373	347.69
366.599	363.69
366.826	376.69
367.052	346.69
367.278	347.69
367.505	349.69
367.731	341.69
367.957	361.69
368.184	356.69
368.41	368.69
368.636	375.69
368.862	358.69
369.089	362.69
369.315	355.69
369.541	356.69
369.767	331.69
369.993	346.69
370.219	366.69
370.445	342.69
370.672	355.69
370.898	343.69
371.124	343.69
371.35	328.69
371.576	342.69
371.802	332.69
372.028	336.69
372.254	320.69
372.48	322.69
372.706	345.69
372.932	335.69
373.158	335.69
373.384	343.69
373.61	351.69
373.835	339.69
374.061	353.69
374.287	340.69
374.513	351.69
374.739	349.69
374.965	359.69
375.191	347.69
375.416	335.69
375.642	341.69
375.868	347.69
376.094	340.69
376.319	335.69
376.545	323.69
376.771	339.69
376.997	333.69
377.222	326.69
377.448	318.69
377.674	349.69
377.899	326.69
378.125	336.69
378.35	325.69
378.576	330.69
378.802	320.69
379.027	337.69
379.253	329.69
379.478	334.69
379.704	334.69
379.929	346.69
380.155	333.69
380.38	340.69
380.606	335.69
380.831	334.69
381.057	339.69
381.282	341.69
381.507	354.69
381.733	331.69
381.958	346.69
382.184	338.69
382.409	345.69
382.634	339.69
382.86	333.69
383.085	328.69
383.31	329.69
383.535	336.69
383.761	347.69
383.986	351.69
384.211	349.69
384.436	329.69
384.662	327.69
384.887	363.69
385.112	356.69
385.337	357.69
385.562	347.69
385.787	336.69
386.013	370.69
386.238	369.69
386.463	371.69
386.688	359.69
386.913	342.69
387.138	350.69
387.363	376.69
387.588	335.69
387.813	344.69
388.038	361.69
388.263	352.69
388.488	332.69
388.713	367.69
388.938	356.69
389.163	367.69
389.387	357.69
389.612	355.69
389.837	353.69
390.062	340.69
390.287	360.69
390.512	343.69
390.736	354.69
390.961	370.69
391.186	331.69
391.411	348.69
391.636	351.69
391.86	371.69
392.085	369.69
392.31	359.69
392.534	366.69
392.759	359.69
392.984	352.69
393.208	339.69
393.433	350.69
393.658	333.69
393.882	365.69
394.107	345.69
394.331	358.69
394.556	357.69
394.78	349.69
395.005	349.69
395.229	358.69
395.454	365.69
395.678	357.69
395.903	388.69
396.127	407.69
396.352	400.69
396.576	381.69
396.801	387.69
397.025	388.69
397.249	343.69
397.474	382.69
397.698	392.69
397.922	408.69
398.147	406.69
398.371	422.69
398.595	375.69
398.82	397.69
399.044	387.69
399.268	416.69
399.492	438.69
399.717	440.69
399.941	474.69
400.165	479.69
400.389	526.69
400.613	475.69
400.837	454.69
401.062	428.69
401.286	418.69
401.51	421.69
401.734	414.69
401.958	431.69
402.182	405.69
402.406	448.69
402.63	461.69
402.854	426.69
403.078	426.69
403.302	402.69
403.526	414.69
403.75	449.69
403.974	423.69
404.198	435.69
404.422	426.69
404.645	447.69
404.869	461.69
405.093	458.69
405.317	480.69
405.541	506.69
405.765	495.69
405.988	500.69
406.212	485.69
406.436	511.69
406.66	525.69
406.883	478.69
407.107	525.69
407.331	558.69
407.555	619.69
407.778	586.69
408.002	539.69
408.226	488.69
408.449	487.69
408.673	492.69
408.896	520.69
409.12	544.69
409.344	506.69
409.567	462.69
409.791	455.69
410.014	431.69
410.238	431.69
410.461	422.69
410.685	449.69
410.908	450.69
411.132	489.69
411.355	535.69
411.578	509.69
411.802	455.69
412.025	438.69
412.249	455.69
412.472	432.69
412.695	466.69
412.919	434.69
413.142	430.69
413.365	406.69
413.589	410.69
413.812	416.69
414.035	396.69
414.258	421.69
414.482	379.69
414.705	424.69
414.928	404.69
415.151	402.69
415.374	379.69
415.597	401.69
415.821	392.69
416.044	420.69
416.267	422.69
416.49	389.69
416.713	411.69
416.936	415.69
417.159	413.69
417.382	445.69
417.605	443.69
417.828	451.69
418.051	449.69
418.274	447.69
418.497	418.69
418.72	419.69
418.943	420.69
419.166	421.69
419.389	440.69
419.611	444.69
419.834	451.69
420.057	440.69
420.28	428.69
420.503	427.69
420.726	441.69
420.948	446.69
421.171	499.69
421.394	562.69
421.617	485.69
421.839	450.69
422.062	464.69
422.285	452.69
422.507	534.69
422.73	602.69
422.953	589.69
423.175	511.69
423.398	474.69
423.621	477.69
423.843	486.69
424.066	498.69
424.288	495.69
424.511	535.69
424.733	579.69
424.956	685.69
425.178	652.69
425.401	639.69
425.623	667.69
425.846	570.69
426.068	515.69
426.291	518.69
426.513	519.69
426.735	547.69
426.958	595.69
427.18	637.69
427.402	758.69
427.625	867.69
427.847	828.69
428.069	708.69
428.292	595.69
428.514	544.69
428.736	519.69
428.958	510.69
429.181	478.69
429.403	474.69
429.625	495.69
429.847	527.69
430.069	596.69
430.292	610.69
430.514	477.69
430.736	480.69
430.958	466.69
431.18	466.69
431.402	451.69
431.624	446.69
431.846	429.69
432.068	448.69
432.29	432.69
432.512	437.69
432.734	446.69
432.956	457.69
433.178	488.69
433.4	479.69
433.622	439.69
433.844	436.69
434.066	429.69
434.287	444.69
434.509	445.69
434.731	457.69
434.953	454.69
435.175	472.69
435.397	506.69
435.618	529.69
435.84	587.69
436.062	643.69
436.284	740.69
436.505	602.69
436.727	534.69
436.949	512.69
437.17	499.69
437.392	493.69
437.614	522.69
437.835	564.69
438.057	714.69
438.278	792.69
438.5	746.69
438.721	810.69
438.943	784.69
439.165	642.69
439.386	566.69
439.608	560.69
439.829	565.69
440.05	580.69
440.272	649.69
440.493	608.69
440.715	541.69
440.936	519.69
441.158	499.69
441.379	483.69
441.6	502.69
441.822	538.69
442.043	578.69
442.264	677.69
442.486	711.69
442.707	591.69
442.928	571.69
443.149	538.69
443.371	588.69
443.592	627.69
443.813	725.69
444.034	749.69
444.255	626.69
444.476	572.69
444.698	526.69
444.919	504.69
445.14	589.69
445.361	591.69
445.582	604.69
445.803	659.69
446.024	747.69
446.245	778.69
446.466	714.69
446.687	596.69
446.908	562.69
447.129	532.69
447.35	489.69
447.571	506.69
447.792	485.69
448.013	511.69
448.234	527.69
448.455	566.69
448.675	679.69
448.896	756.69
449.117	675.69
449.338	668.69
449.559	760.69
449.779	827.69
450	683.69
450.221	586.69
450.442	534.69
450.662	504.69
450.883	516.69
451.104	556.69
451.324	512.69
451.545	502.69
451.766	471.69
451.986	438.69
452.207	438.69
452.428	438.69
452.648	440.69
452.869	464.69
453.089	460.69
453.31	491.69
453.53	476.69
453.751	443.69
453.971	472.69
454.192	499.69
454.412	483.69
454.633	463.69
454.853	442.69
455.073	452.69
455.294	465.69
455.514	535.69
455.734	529.69
455.955	447.69
456.175	418.69
456.395	395.69
456.616	409.69
456.836	400.69
457.056	402.69
457.276	398.69
457.497	411.69
457.717	404.69
457.937	404.69
458.157	443.69
458.377	434.69
458.598	464.69
458.818	538.69
459.038	652.69
459.258	655.69
459.478	537.69
459.698	494.69
459.918	455.69
460.138	433.69
460.358	452.69
460.578	440.69
460.798	451.69
461.018	420.69
461.238	434.69
461.458	416.69
461.678	414.69
461.898	425.69
462.118	446.69
462.338	415.69
462.558	422.69
462.777	420.69
462.997	420.69
463.217	462.69
463.437	457.69
463.657	450.69
463.876	448.69
464.096	452.69
464.316	454.69
464.536	465.69
464.755	464.69
464.975	497.69
465.195	578.69
465.414	698.69
465.634	616.69
465.854	525.69
466.073	484.69
466.293	461.69
466.512	441.69
466.732	444.69
466.951	431.69
467.171	420.69
467.391	439.69
467.61	458.69
467.829	477.69
468.049	452.69
468.268	450.69
468.488	431.69
468.707	418.69
468.927	424.69
469.146	423.69
469.365	434.69
469.585	424.69
469.804	423.69
470.023	459.69
470.243	459.69
470.462	458.69
470.681	486.69
470.901	487.69
471.12	444.69
471.339	456.69
471.558	412.69
471.777	452.69
471.997	418.69
472.216	450.69
472.435	436.69
472.654	439.69
472.873	436.69
473.092	436.69
473.311	436.69
473.53	415.69
473.749	474.69
473.968	501.69
474.187	623.69
474.406	674.69
474.625	546.69
474.844	490.69
475.063	450.69
475.282	454.69
475.501	439.69
475.72	456.69
475.939	460.69
476.158	442.69
476.377	469.69
476.596	452.69
476.814	470.69
477.033	468.69
477.252	471.69
477.471	468.69
477.69	460.69
477.908	464.69
478.127	475.69
478.346	483.69
478.564	487.69
478.783	486.69
479.002	480.69
479.22	522.69
479.439	516.69
479.658	528.69
479.876	562.69
480.095	553.69
480.313	578.69
480.532	552.69
480.751	548.69
480.969	519.69
481.188	530.69
481.406	584.69
481.624	526.69
481.843	548.69
482.061	514.69
482.28	514.69
482.498	490.69
482.717	503.69
482.935	516.69
483.153	514.69
483.372	519.69
483.59	530.69
483.808	542.69
484.027	525.69
484.245	550.69
484.463	514.69
484.681	517.69
484.9	528.69
485.118	547.69
485.336	514.69
485.554	552.69
485.772	558.69
485.99	542.69
486.209	543.69
486.427	562.69
486.645	558.69
486.863	575.69
487.081	607.69
487.299	577.69
487.517	561.69
487.735	557.69
487.953	591.69
488.171	578.69
488.389	570.69
488.607	578.69
488.825	567.69
489.043	572.69
489.261	582.69
489.479	573.69
489.696	584.69
489.914	575.69
490.132	600.69
490.35	598.69
490.568	587.69
490.786	613.69
491.003	614.69
491.221	637.69
491.439	637.69
491.657	664.69
491.874	648.69
492.092	656.69
492.31	651.69
492.527	648.69
492.745	645.69
492.963	656.69
493.18	665.69
493.398	672.69
493.615	708.69
493.833	700.69
494.05	668.69
494.268	699.69
494.485	685.69
494.703	692.69
494.92	683.69
495.138	684.69
495.355	679.69
495.573	685.69
495.79	675.69
496.008	683.69
496.225	704.69
496.442	706.69
496.66	688.69
496.877	679.69
497.094	678.69
497.312	708.69
497.529	719.69
497.746	730.69
497.963	715.69
498.181	746.69
498.398	733.69
498.615	735.69
498.832	751.69
499.049	756.69
499.267	755.69
499.484	754.69
499.701	772.69
499.918	766.69
500.135	796.69
500.352	811.69
500.569	817.69
500.786	794.69
501.003	810.69
501.22	799.69
501.437	803.69
501.654	812.69
501.871	852.69
502.088	826.69
502.305	800.69
502.522	779.69
502.739	774.69
502.956	733.69
503.172	723.69
503.389	715.69
503.606	719.69
503.823	735.69
504.04	717.69
504.256	726.69
504.473	713.69
504.69	684.69
504.907	704.69
505.123	687.69
505.34	696.69
505.557	681.69
505.773	722.69
505.99	673.69
506.207	680.69
506.423	680.69
506.64	685.69
506.856	656.69
507.073	696.69
507.289	680.69
507.506	693.69
507.722	702.69
507.939	732.69
508.155	706.69
508.372	700.69
508.588	663.69
508.805	679.69
509.021	671.69
509.238	685.69
509.454	686.69
509.67	675.69
509.887	672.69
510.103	677.69
510.319	723.69
510.536	848.69
510.752	1610.69
510.968	1334.69
511.184	753.69
511.401	702.69
511.617	682.69
511.833	663.69
512.049	654.69
512.265	650.69
512.481	646.69
512.698	674.69
512.914	668.69
513.13	663.69
513.346	663.69
513.562	655.69
513.778	662.69
513.994	684.69
514.21	730.69
514.426	777.69
514.642	853.69
514.858	896.69
515.074	972.69
515.29	1228.69
515.506	1911.69
515.721	1537.69
515.937	951.69
516.153	809.69
516.369	767.69
516.585	735.69
516.801	695.69
517.016	668.69
517.232	690.69
517.448	687.69
517.664	664.69
517.879	681.69
518.095	658.69
518.311	637.69
518.527	668.69
518.742	668.69
518.958	660.69
519.173	646.69
519.389	666.69
519.605	681.69
519.82	690.69
520.036	715.69
520.251	729.69
520.467	807.69
520.682	794.69
520.898	806.69
521.113	866.69
521.329	984.69
521.544	1130.69
521.76	1549.69
521.975	2671.69
522.19	2608.69
522.406	1305.69
522.621	930.69
522.836	812.69
523.052	750.69
523.267	690.69
523.482	639.69
523.698	686.69
523.913	650.69
524.128	646.69
524.343	601.69
524.559	602.69
524.774	570.69
524.989	563.69
525.204	571.69
525.419	616.69
525.634	573.69
525.849	554.69
526.064	541.69
526.28	522.69
526.495	521.69
526.71	518.69
526.925	510.69
527.14	518.69
527.355	524.69
527.57	500.69
527.785	513.69
527.999	530.69
528.214	520.69
528.429	516.69
528.644	503.69
528.859	512.69
529.074	527.69
529.289	573.69
529.503	701.69
529.718	670.69
529.933	598.69
530.148	570.69
530.363	541.69
530.577	514.69
530.792	524.69
531.007	494.69
531.221	498.69
531.436	485.69
531.651	502.69
531.865	488.69
532.08	476.69
532.295	492.69
532.509	500.69
532.724	475.69
532.938	472.69
533.153	461.69
533.367	457.69
533.582	480.69
533.796	463.69
534.011	469.69
534.225	455.69
534.44	469.69
534.654	451.69
534.868	475.69
535.083	454.69
535.297	472.69
535.511	468.69
535.726	485.69
535.94	498.69
536.154	483.69
536.369	482.69
536.583	461.69
536.797	453.69
537.011	437.69
537.225	455.69
537.44	446.69
537.654	429.69
537.868	443.69
538.082	466.69
538.296	443.69
538.51	445.69
538.724	453.69
538.938	453.69
539.153	457.69
539.367	487.69
539.581	471.69
539.795	488.69
540.009	482.69
540.222	448.69
540.436	450.69
540.65	442.69
540.864	461.69
541.078	465.69
541.292	472.69
541.506	454.69
541.72	436.69
541.934	448.69
542.147	454.69
542.361	434.69
542.575	458.69
542.789	440.69
543.002	436.69
543.216	447.69
543.43	436.69
543.644	440.69
543.857	439.69
544.071	450.69
544.285	438.69
544.498	438.69
544.712	459.69
544.925	450.69
545.139	444.69
545.352	424.69
545.566	420.69
545.779	428.69
545.993	436.69
546.206	414.69
546.42	424.69
546.633	407.69
546.847	372.69
547.06	402.69
547.274	416.69
547.487	413.69
547.7	391.69
547.914	406.69
548.127	420.69
548.34	403.69
548.554	400.69
548.767	390.69
548.98	425.69
549.193	381.69
549.407	398.69
549.62	387.69
549.833	432.69
550.046	400.69
550.259	400.69
550.473	407.69
550.686	393.69
550.899	394.69
551.112	403.69
551.325	425.69
551.538	411.69
551.751	400.69
551.964	400.69
552.177	403.69
552.39	388.69
552.603	402.69
552.816	386.69
553.029	397.69
553.242	406.69
553.455	419.69
553.667	410.69
553.88	422.69
554.093	430.69
554.306	397.69
554.519	395.69
554.732	391.69
554.944	403.69
555.157	405.69
555.37	395.69
555.583	388.69
555.795	413.69
556.008	370.69
556.221	373.69
556.433	376.69
556.646	384.69
556.859	374.69
557.071	382.69
557.284	392.69
557.496	374.69
557.709	370.69
557.921	346.69
558.134	374.69
558.346	386.69
558.559	375.69
558.771	367.69
558.984	358.69
559.196	368.69
559.409	363.69
559.621	352.69
559.833	352.69
560.046	366.69
560.258	371.69
560.47	372.69
560.683	372.69
560.895	371.69
561.107	364.69
561.32	370.69
561.532	359.69
561.744	376.69
561.956	378.69
562.168	367.69
562.381	372.69
562.593	369.69
562.805	359.69
563.017	371.69
563.229	378.69
563.441	386.69
563.653	380.69
563.865	344.69
564.077	361.69
564.289	356.69
564.501	360.69
564.713	375.69
564.925	352.69
565.137	376.69
565.349	392.69
565.561	371.69
565.773	378.69
565.985	391.69
566.197	370.69
566.408	388.69
566.62	405.69
566.832	395.69
567.044	403.69
567.255	393.69
567.467	393.69
567.679	379.69
567.891	398.69
568.102	406.69
568.314	405.69
568.526	393.69
568.737	390.69
568.949	362.69
569.161	376.69
569.372	374.69
569.584	374.69
569.795	356.69
570.007	362.69
570.218	455.69
570.43	434.69
570.641	363.69
570.853	360.69
571.064	349.69
571.276	358.69
571.487	339.69
571.698	326.69
571.91	330.69
572.121	336.69
572.333	328.69
572.544	342.69
572.755	335.69
572.966	326.69
573.178	320.69
573.389	323.69
573.6	330.69
573.811	334.69
574.023	316.69
574.234	323.69
574.445	321.69
574.656	307.69
574.867	295.69
575.078	319.69
575.289	310.69
575.501	309.69
575.712	316.69
575.923	317.69
576.134	303.69
576.345	297.69
576.556	325.69
576.767	323.69
576.978	321.69
577.188	318.69
577.399	316.69
577.61	318.69
577.821	326.69
578.032	326.69
578.243	398.69
578.454	757.69
578.665	532.69
578.875	344.69
579.086	331.69
579.297	295.69
579.508	300.69
579.718	296.69
579.929	299.69
580.14	284.69
580.35	307.69
580.561	283.69
580.772	291.69
580.982	269.69
581.193	291.69
581.403	281.69
581.614	298.69
581.825	280.69
582.035	284.69
582.246	298.69
582.456	295.69
582.667	286.69
582.877	262.69
583.087	293.69
583.298	277.69
583.508	292.69
583.719	284.69
583.929	278.69
584.139	294.69
584.35	283.69
584.56	290.69
584.77	298.69
584.981	289.69
585.191	280.69
585.401	288.69
585.611	275.69
585.821	290.69
586.032	290.69
586.242	276.69
586.452	291.69
586.662	288.69
586.872	276.69
587.082	275.69
587.292	278.69
587.502	271.69
587.713	271.69
587.923	258.69
588.133	242.69
588.343	269.69
588.553	264.69
588.762	285.69
588.972	292.69
589.182	303.69
589.392	289.69
589.602	260.69
589.812	284.69
590.022	280.69
590.232	287.69
590.441	280.69
590.651	264.69
590.861	262.69
591.071	277.69
591.281	279.69
591.49	261.69
591.7	279.69
591.91	268.69
592.119	274.69
592.329	276.69
592.539	311.69
592.748	272.69
592.958	269.69
593.167	275.69
593.377	277.69
593.587	263.69
593.796	278.69
594.006	253.69
594.215	287.69
594.424	276.69
594.634	266.69
594.843	271.69
595.053	281.69
595.262	265.69
595.472	251.69
595.681	271.69
595.89	272.69
596.1	262.69
596.309	257.69
596.518	265.69
596.727	270.69
596.937	280.69
597.146	253.69
597.355	234.69
597.564	264.69
597.774	265.69
597.983	270.69
598.192	245.69
598.401	245.69
598.61	253.69
598.819	260.69
599.028	242.69
599.237	243.69
599.446	243.69
599.655	253.69
599.864	250.69
600.073	222.69
600.282	239.69
600.491	250.69
600.7	242.69
600.909	242.69
601.118	243.69
601.327	239.69
601.536	244.69
601.745	249.69
601.953	241.69
602.162	229.69
602.371	234.69
602.58	233.69
602.789	238.69
602.997	237.69
603.206	218.69
603.415	239.69
603.623	222.69
603.832	227.69
604.041	222.69
604.249	220.69
604.458	230.69
604.666	214.69
604.875	244.69
605.084	227.69
605.292	228.69
605.501	224.69
605.709	239.69
605.918	235.69
606.126	216.69
606.334	234.69
606.543	229.69
606.751	224.69
606.96	230.69
607.168	221.69
607.376	228.69
607.585	244.69
607.793	224.69
608.001	219.69
608.21	226.69
608.418	218.69
608.626	221.69
608.834	237.69
609.043	225.69
609.251	231.69
609.459	234.69
609.667	222.69
609.875	226.69
610.083	213.69
610.291	234.69
610.499	211.69
610.707	223.69
610.916	235.69
611.124	239.69
611.332	229.69
611.54	220.69
611.748	229.69
611.955	235.69
612.163	218.69
612.371	228.69
612.579	226.69
612.787	218.69
612.995	214.69
613.203	242.69
613.411	213.69
613.618	220.69
613.826	212.69
614.034	202.69
614.242	233.69
614.449	224.69
614.657	231.69
614.865	231.69
615.072	221.69
615.28	226.69
615.488	226.69
615.695	214.69
615.903	210.69
616.111	203.69
616.318	212.69
616.526	219.69
616.733	210.69
616.941	219.69
617.148	234.69
617.356	223.69
617.563	202.69
617.771	221.69
617.978	198.69
618.185	221.69
618.393	206.69
618.6	210.69
618.807	198.69
619.015	203.69
619.222	204.69
619.429	216.69
619.637	223.69
619.844	208.69
620.051	228.69
620.258	211.69
620.466	190.69
620.673	206.69
620.88	213.69
621.087	211.69
621.294	209.69
621.501	207.69
621.708	218.69
621.915	213.69
622.122	220.69
622.329	201.69
622.536	206.69
622.743	212.69
622.95	205.69
623.157	200.69
623.364	197.69
623.571	212.69
623.778	212.69
623.985	201.69
624.192	213.69
624.399	202.69
624.606	198.69
624.812	199.69
625.019	192.69
625.226	195.69
625.433	203.69
625.639	202.69
625.846	208.69
626.053	198.69
626.259	209.69
626.466	203.69
626.673	205.69
626.879	190.69
627.086	203.69
627.293	206.69
627.499	179.69
627.706	190.69
627.912	192.69
628.119	179.69
628.325	190.69
628.532	204.69
628.738	200.69
628.945	187.69
629.151	194.69
629.357	172.69
629.564	187.69
629.77	189.69
629.976	194.69
630.183	206.69
630.389	196.69
630.595	192.69
630.802	201.69
631.008	198.69
631.214	187.69
631.42	194.69
631.627	186.69
631.833	182.69
632.039	203.69
632.245	171.69
632.451	170.69
632.657	192.69
632.863	173.69
633.069	167.69
633.275	180.69
633.481	156.69
633.688	195.69
633.893	171.69
634.099	171.69
634.305	182.69
634.511	168.69
634.717	182.69
634.923	184.69
635.129	168.69
635.335	180.69
635.541	179.69
635.747	156.69
635.952	178.69
636.158	161.69
636.364	168.69
636.57	170.69
636.775	173.69
636.981	179.69
637.187	172.69
637.392	175.69
637.598	165.69
637.804	170.69
638.009	166.69
638.215	155.69
638.421	164.69
638.626	172.69
638.832	164.69
639.037	155.69
639.243	158.69
639.448	168.69
639.654	170.69
639.859	173.69
640.065	157.69
640.27	168.69
640.475	162.69
640.681	150.69
640.886	178.69
641.091	173.69
641.297	174.69
641.502	151.69
641.707	158.69
641.913	174.69
642.118	175.69
642.323	150.69
642.528	154.69
642.733	154.69
642.939	157.69
643.144	156.69
643.349	167.69
643.554	162.69
643.759	149.69
643.964	160.69
644.169	161.69
644.374	158.69
644.579	152.69
644.784	169.69
644.989	158.69
645.194	151.69
645.399	153.69
645.604	144.69
645.809	162.69
646.014	150.69
646.219	156.69
646.423	161.69
646.628	155.69
646.833	167.69
647.038	138.69
647.243	159.69
647.447	149.69
647.652	158.69
647.857	152.69
648.062	156.69
648.266	159.69
648.471	154.69
648.676	164.69
648.88	160.69
649.085	180.69
649.289	166.69
649.494	161.69
649.698	195.69
649.903	192.69
650.107	168.69
650.312	165.69
650.516	157.69
650.721	160.69
650.925	163.69
651.13	143.69
651.334	139.69
651.539	126.69
651.743	150.69
651.947	151.69
652.152	142.69
652.356	139.69
652.56	140.69
652.764	140.69
652.969	118.69
653.173	142.69
653.377	126.69
653.581	126.69
653.785	127.69
653.99	137.69
654.194	128.69
654.398	142.69
654.602	142.69
654.806	141.69
655.01	125.69
655.214	122.69
655.418	131.69
655.622	124.69
655.826	127.69
656.03	124.69
656.234	131.69
656.438	120.69
656.642	119.69
656.846	123.69
657.049	105.69
657.253	114.69
657.457	109.69
657.661	102.69
657.865	106.69
658.068	112.69
658.272	114.69
658.476	102.69
658.68	100.69
658.883	102.69
659.087	103.69
659.291	92.69
659.494	103.69
659.698	121.69
659.901	100.69
660.105	103.69
660.309	83.69
660.512	97.69
660.716	86.69
660.919	87.69
661.123	88.69
661.326	82.69
661.53	91.69
661.733	80.69
661.936	87.69
662.14	98.69
662.343	93.69
662.546	88.69
662.75	98.69
662.953	70.69
663.156	87.69
663.36	86.69
663.563	84.69
663.766	88.69
663.969	79.69
664.173	81.69
664.376	92.69
664.579	82.69
664.782	71.69
664.985	92.69
665.188	82.69
665.391	84.69
665.594	76.69
665.797	78.69
666	80.69
666.203	76.69
666.406	88.69
666.609	87.69
666.812	82.69
667.015	83.69
667.218	79.69
667.421	82.69
667.624	86.69
667.827	87.69
668.03	86.69
668.232	99.69
668.435	92.69
668.638	57.69
668.841	82.69
669.043	76.69
669.246	85.69
669.449	82.69
669.651	78.69
669.854	76.69
670.057	85.69
670.259	98.69
670.462	93.69
670.665	81.69
670.867	72.69
671.07	86.69
671.272	91.69
671.475	87.69
671.677	71.69
671.88	88.69
672.082	94.69
672.284	72.69
672.487	80.69
672.689	76.69
672.892	78.69
