Data from 1987.PennyLincolnUp.Lamp.En5.5.200Scan.071819.P2_HRD10591_17-15-44-971.txt Node
Date: Thu Jul 18 17:15:44 EDT 2019
User: cochatt
Spectrometer: HR+D1059
Trigger mode: 1
Integration Time (sec): 1.000000E-1
Scans to average: 1
Electric dark correction enabled: true
Nonlinearity correction enabled: false
Boxcar width: 0
XAxis mode: Wavelengths
Number of Pixels in Spectrum: 2048
>>>>>Begin Spectral Data<<<<<
223.165	-11.94
223.4	-11.94
223.635	-11.94
223.869	-11.94
224.104	-16.94
224.338	-23.94
224.573	-5.94
224.808	-17.94
225.042	6.06
225.277	-15.94
225.511	5.06
225.746	-2.94
225.98	6.06
226.215	12.06
226.449	6.06
226.683	28.06
226.918	8.06
227.152	36.06
227.387	45.06
227.621	28.06
227.856	34.06
228.09	41.06
228.324	38.06
228.559	66.06
228.793	75.06
229.027	118.06
229.262	102.06
229.496	119.06
229.73	142.06
229.964	177.06
230.199	155.06
230.433	128.06
230.667	121.06
230.901	108.06
231.136	118.06
231.37	112.06
231.604	123.06
231.838	106.06
232.072	113.06
232.306	105.06
232.541	112.06
232.775	114.06
233.009	113.06
233.243	112.06
233.477	105.06
233.711	117.06
233.945	119.06
234.179	110.06
234.413	123.06
234.647	124.06
234.881	115.06
235.115	120.06
235.349	116.06
235.583	131.06
235.817	109.06
236.051	127.06
236.285	117.06
236.519	108.06
236.753	134.06
236.987	145.06
237.221	207.06
237.455	264.06
237.689	206.06
237.922	138.06
238.156	128.06
238.39	136.06
238.624	128.06
238.858	111.06
239.091	122.06
239.325	123.06
239.559	115.06
239.793	124.06
240.027	139.06
240.26	148.06
240.494	162.06
240.728	167.06
240.961	150.06
241.195	145.06
241.429	133.06
241.662	142.06
241.896	145.06
242.13	132.06
242.363	123.06
242.597	131.06
242.83	139.06
243.064	123.06
243.298	133.06
243.531	135.06
243.765	130.06
243.998	133.06
244.232	132.06
244.465	120.06
244.699	138.06
244.932	142.06
245.166	144.06
245.399	156.06
245.633	129.06
245.866	138.06
246.099	135.06
246.333	140.06
246.566	149.06
246.8	146.06
247.033	150.06
247.266	156.06
247.5	140.06
247.733	182.06
247.966	165.06
248.2	168.06
248.433	163.06
248.666	182.06
248.899	176.06
249.133	191.06
249.366	209.06
249.599	198.06
249.832	190.06
250.066	190.06
250.299	173.06
250.532	170.06
250.765	191.06
250.998	220.06
251.231	218.06
251.465	207.06
251.698	211.06
251.931	192.06
252.164	196.06
252.397	199.06
252.63	189.06
252.863	185.06
253.096	216.06
253.329	223.06
253.562	232.06
253.795	225.06
254.028	212.06
254.261	223.06
254.494	225.06
254.727	248.06
254.96	290.06
255.193	288.06
255.426	264.06
255.659	240.06
255.892	222.06
256.124	213.06
256.357	205.06
256.59	206.06
256.823	184.06
257.056	207.06
257.289	195.06
257.521	204.06
257.754	193.06
257.987	205.06
258.22	197.06
258.452	203.06
258.685	193.06
258.918	193.06
259.151	183.06
259.383	199.06
259.616	196.06
259.849	196.06
260.081	211.06
260.314	228.06
260.547	254.06
260.779	247.06
261.012	209.06
261.244	222.06
261.477	217.06
261.71	222.06
261.942	221.06
262.175	242.06
262.407	215.06
262.64	199.06
262.872	204.06
263.105	198.06
263.337	200.06
263.57	193.06
263.802	194.06
264.035	205.06
264.267	191.06
264.499	194.06
264.732	178.06
264.964	187.06
265.197	200.06
265.429	183.06
265.661	181.06
265.894	196.06
266.126	187.06
266.358	193.06
266.591	182.06
266.823	195.06
267.055	187.06
267.287	196.06
267.52	211.06
267.752	214.06
267.984	209.06
268.216	206.06
268.448	204.06
268.681	226.06
268.913	224.06
269.145	204.06
269.377	268.06
269.609	258.06
269.841	246.06
270.073	248.06
270.306	271.06
270.538	291.06
270.77	318.06
271.002	315.06
271.234	299.06
271.466	294.06
271.698	298.06
271.93	306.06
272.162	294.06
272.394	303.06
272.626	294.06
272.858	278.06
273.09	270.06
273.322	255.06
273.553	260.06
273.785	243.06
274.017	252.06
274.249	252.06
274.481	255.06
274.713	248.06
274.945	248.06
275.176	238.06
275.408	240.06
275.64	239.06
275.872	248.06
276.104	214.06
276.335	238.06
276.567	231.06
276.799	272.06
277.031	266.06
277.262	295.06
277.494	290.06
277.726	272.06
277.957	250.06
278.189	246.06
278.421	234.06
278.652	256.06
278.884	234.06
279.115	230.06
279.347	214.06
279.579	233.06
279.81	234.06
280.042	239.06
280.273	216.06
280.505	228.06
280.736	227.06
280.968	223.06
281.199	217.06
281.431	222.06
281.662	215.06
281.894	243.06
282.125	238.06
282.356	258.06
282.588	296.06
282.819	284.06
283.051	241.06
283.282	213.06
283.513	217.06
283.745	217.06
283.976	242.06
284.207	224.06
284.439	242.06
284.67	231.06
284.901	239.06
285.132	227.06
285.364	222.06
285.595	240.06
285.826	221.06
286.057	224.06
286.288	230.06
286.52	244.06
286.751	221.06
286.982	231.06
287.213	231.06
287.444	243.06
287.675	242.06
287.906	258.06
288.138	257.06
288.369	264.06
288.6	257.06
288.831	248.06
289.062	240.06
289.293	243.06
289.524	225.06
289.755	224.06
289.986	238.06
290.217	225.06
290.448	228.06
290.679	247.06
290.91	228.06
291.141	224.06
291.371	235.06
291.602	220.06
291.833	243.06
292.064	258.06
292.295	215.06
292.526	240.06
292.757	223.06
292.987	228.06
293.218	244.06
293.449	238.06
293.68	239.06
293.91	249.06
294.141	248.06
294.372	234.06
294.603	228.06
294.833	242.06
295.064	232.06
295.295	219.06
295.525	266.06
295.756	264.06
295.987	263.06
296.217	279.06
296.448	313.06
296.679	261.06
296.909	250.06
297.14	249.06
297.37	258.06
297.601	248.06
297.831	225.06
298.062	232.06
298.292	256.06
298.523	263.06
298.753	244.06
298.984	239.06
299.214	236.06
299.445	236.06
299.675	256.06
299.905	278.06
300.136	258.06
300.366	249.06
300.597	243.06
300.827	259.06
301.057	252.06
301.288	249.06
301.518	266.06
301.748	259.06
301.979	268.06
302.209	265.06
302.439	270.06
302.669	262.06
302.9	263.06
303.13	264.06
303.36	271.06
303.59	281.06
303.82	285.06
304.051	280.06
304.281	266.06
304.511	267.06
304.741	276.06
304.971	252.06
305.201	247.06
305.431	258.06
305.661	260.06
305.891	265.06
306.121	266.06
306.352	273.06
306.582	295.06
306.812	282.06
307.042	275.06
307.272	268.06
307.502	278.06
307.731	274.06
307.961	294.06
308.191	289.06
308.421	282.06
308.651	283.06
308.881	290.06
309.111	283.06
309.341	296.06
309.571	304.06
309.8	312.06
310.03	346.06
310.26	350.06
310.49	340.06
310.72	349.06
310.949	355.06
311.179	376.06
311.409	368.06
311.639	359.06
311.868	353.06
312.098	340.06
312.328	345.06
312.557	395.06
312.787	406.06
313.017	392.06
313.246	351.06
313.476	328.06
313.706	335.06
313.935	346.06
314.165	355.06
314.394	372.06
314.624	344.06
314.853	340.06
315.083	349.06
315.312	320.06
315.542	314.06
315.771	335.06
316.001	318.06
316.23	328.06
316.46	326.06
316.689	331.06
316.919	342.06
317.148	353.06
317.377	347.06
317.607	336.06
317.836	344.06
318.065	338.06
318.295	336.06
318.524	317.06
318.753	310.06
318.983	306.06
319.212	330.06
319.441	351.06
319.67	369.06
319.9	338.06
320.129	332.06
320.358	343.06
320.587	332.06
320.816	353.06
321.046	347.06
321.275	379.06
321.504	353.06
321.733	380.06
321.962	379.06
322.191	408.06
322.42	414.06
322.649	445.06
322.878	472.06
323.108	467.06
323.337	501.06
323.566	550.06
323.795	570.06
324.024	660.06
324.253	852.06
324.482	1218.06
324.71	1881.06
324.939	2642.06
325.168	2345.06
325.397	1276.06
325.626	828.06
325.855	647.06
326.084	586.06
326.313	542.06
326.542	580.06
326.77	615.06
326.999	740.06
327.228	1094.06
327.457	1652.06
327.686	2022.06
327.914	1415.06
328.143	890.06
328.372	739.06
328.6	678.06
328.829	631.06
329.058	652.06
329.287	672.06
329.515	606.06
329.744	541.06
329.972	507.06
330.201	514.06
330.43	547.06
330.658	615.06
330.887	690.06
331.115	658.06
331.344	531.06
331.572	484.06
331.801	495.06
332.03	483.06
332.258	450.06
332.486	419.06
332.715	399.06
332.943	414.06
333.172	379.06
333.4	378.06
333.629	386.06
333.857	404.06
334.085	418.06
334.314	388.06
334.542	371.06
334.771	388.06
334.999	395.06
335.227	398.06
335.455	409.06
335.684	396.06
335.912	379.06
336.14	361.06
336.369	368.06
336.597	386.06
336.825	372.06
337.053	375.06
337.281	364.06
337.51	368.06
337.738	374.06
337.966	375.06
338.194	378.06
338.422	361.06
338.65	350.06
338.878	352.06
339.106	372.06
339.334	360.06
339.562	366.06
339.79	366.06
340.018	375.06
340.246	359.06
340.474	404.06
340.702	376.06
340.93	380.06
341.158	376.06
341.386	385.06
341.614	388.06
341.842	374.06
342.07	371.06
342.298	379.06
342.526	353.06
342.754	330.06
342.981	343.06
343.209	339.06
343.437	330.06
343.665	352.06
343.893	340.06
344.12	359.06
344.348	350.06
344.576	353.06
344.804	376.06
345.031	378.06
345.259	394.06
345.487	387.06
345.714	384.06
345.942	367.06
346.17	372.06
346.397	363.06
346.625	343.06
346.853	363.06
347.08	353.06
347.308	373.06
347.535	389.06
347.763	404.06
347.99	409.06
348.218	384.06
348.445	394.06
348.673	397.06
348.9	377.06
349.128	353.06
349.355	345.06
349.583	363.06
349.81	352.06
350.037	355.06
350.265	360.06
350.492	363.06
350.72	369.06
350.947	374.06
351.174	384.06
351.402	402.06
351.629	388.06
351.856	387.06
352.083	407.06
352.311	417.06
352.538	406.06
352.765	403.06
352.992	388.06
353.22	395.06
353.447	376.06
353.674	372.06
353.901	355.06
354.128	349.06
354.355	346.06
354.583	346.06
354.81	336.06
355.037	323.06
355.264	318.06
355.491	318.06
355.718	334.06
355.945	337.06
356.172	320.06
356.399	321.06
356.626	335.06
356.853	333.06
357.08	338.06
357.307	318.06
357.534	318.06
357.761	307.06
357.988	329.06
358.215	330.06
358.441	326.06
358.668	338.06
358.895	325.06
359.122	344.06
359.349	368.06
359.576	365.06
359.802	411.06
360.029	454.06
360.256	488.06
360.483	449.06
360.709	394.06
360.936	375.06
361.163	374.06
361.39	378.06
361.616	384.06
361.843	398.06
362.07	361.06
362.296	377.06
362.523	368.06
362.749	374.06
362.976	389.06
363.203	354.06
363.429	343.06
363.656	352.06
363.882	329.06
364.109	342.06
364.335	348.06
364.562	321.06
364.788	346.06
365.015	338.06
365.241	358.06
365.468	362.06
365.694	360.06
365.92	376.06
366.147	346.06
366.373	342.06
366.599	348.06
366.826	340.06
367.052	345.06
367.278	334.06
367.505	332.06
367.731	343.06
367.957	338.06
368.184	355.06
368.41	343.06
368.636	364.06
368.862	369.06
369.089	360.06
369.315	338.06
369.541	359.06
369.767	318.06
369.993	330.06
370.219	348.06
370.445	336.06
370.672	322.06
370.898	332.06
371.124	345.06
371.35	319.06
371.576	310.06
371.802	326.06
372.028	336.06
372.254	339.06
372.48	313.06
372.706	335.06
372.932	306.06
373.158	315.06
373.384	298.06
373.61	316.06
373.835	323.06
374.061	342.06
374.287	341.06
374.513	351.06
374.739	330.06
374.965	323.06
375.191	315.06
375.416	327.06
375.642	329.06
375.868	335.06
376.094	307.06
376.319	314.06
376.545	340.06
376.771	316.06
376.997	326.06
377.222	316.06
377.448	321.06
377.674	320.06
377.899	312.06
378.125	319.06
378.35	304.06
378.576	326.06
378.802	339.06
379.027	292.06
379.253	294.06
379.478	319.06
379.704	336.06
379.929	328.06
380.155	318.06
380.38	344.06
380.606	330.06
380.831	314.06
381.057	326.06
381.282	330.06
381.507	329.06
381.733	336.06
381.958	313.06
382.184	328.06
382.409	327.06
382.634	331.06
382.86	328.06
383.085	316.06
383.31	324.06
383.535	343.06
383.761	350.06
383.986	327.06
384.211	328.06
384.436	330.06
384.662	339.06
384.887	326.06
385.112	351.06
385.337	353.06
385.562	335.06
385.787	341.06
386.013	346.06
386.238	351.06
386.463	370.06
386.688	358.06
386.913	351.06
387.138	343.06
387.363	344.06
387.588	340.06
387.813	345.06
388.038	342.06
388.263	345.06
388.488	331.06
388.713	337.06
388.938	343.06
389.163	340.06
389.387	358.06
389.612	343.06
389.837	344.06
390.062	359.06
390.287	340.06
390.512	338.06
390.736	342.06
390.961	330.06
391.186	340.06
391.411	324.06
391.636	343.06
391.86	339.06
392.085	340.06
392.31	354.06
392.534	326.06
392.759	353.06
392.984	330.06
393.208	328.06
393.433	339.06
393.658	359.06
393.882	341.06
394.107	358.06
394.331	370.06
394.556	340.06
394.78	337.06
395.005	322.06
395.229	345.06
395.454	345.06
395.678	345.06
395.903	381.06
396.127	396.06
396.352	381.06
396.576	357.06
396.801	357.06
397.025	354.06
397.249	354.06
397.474	354.06
397.698	367.06
397.922	373.06
398.147	399.06
398.371	407.06
398.595	378.06
398.82	376.06
399.044	399.06
399.268	383.06
399.492	393.06
399.717	420.06
399.941	443.06
400.165	468.06
400.389	491.06
400.613	434.06
400.837	440.06
401.062	411.06
401.286	410.06
401.51	386.06
401.734	382.06
401.958	412.06
402.182	409.06
402.406	414.06
402.63	419.06
402.854	429.06
403.078	428.06
403.302	414.06
403.526	418.06
403.75	401.06
403.974	402.06
404.198	400.06
404.422	418.06
404.645	434.06
404.869	410.06
405.093	436.06
405.317	468.06
405.541	500.06
405.765	452.06
405.988	432.06
406.212	463.06
406.436	487.06
406.66	497.06
406.883	457.06
407.107	498.06
407.331	520.06
407.555	586.06
407.778	592.06
408.002	546.06
408.226	488.06
408.449	470.06
408.673	474.06
408.896	494.06
409.12	525.06
409.344	523.06
409.567	472.06
409.791	440.06
410.014	423.06
410.238	420.06
410.461	424.06
410.685	411.06
410.908	435.06
411.132	470.06
411.355	526.06
411.578	477.06
411.802	416.06
412.025	422.06
412.249	422.06
412.472	411.06
412.695	426.06
412.919	414.06
413.142	426.06
413.365	389.06
413.589	413.06
413.812	403.06
414.035	394.06
414.258	396.06
414.482	366.06
414.705	391.06
414.928	372.06
415.151	384.06
415.374	378.06
415.597	375.06
415.821	376.06
416.044	390.06
416.267	412.06
416.49	397.06
416.713	376.06
416.936	420.06
417.159	388.06
417.382	423.06
417.605	407.06
417.828	412.06
418.051	434.06
418.274	411.06
418.497	411.06
418.72	405.06
418.943	387.06
419.166	403.06
419.389	414.06
419.611	445.06
419.834	426.06
420.057	440.06
420.28	434.06
420.503	416.06
420.726	421.06
420.948	458.06
421.171	479.06
421.394	521.06
421.617	446.06
421.839	442.06
422.062	419.06
422.285	456.06
422.507	516.06
422.73	562.06
422.953	583.06
423.175	495.06
423.398	472.06
423.621	464.06
423.843	490.06
424.066	494.06
424.288	488.06
424.511	486.06
424.733	585.06
424.956	619.06
425.178	627.06
425.401	631.06
425.623	633.06
425.846	546.06
426.068	522.06
426.291	496.06
426.513	479.06
426.735	535.06
426.958	567.06
427.18	647.06
427.402	768.06
427.625	862.06
427.847	786.06
428.069	679.06
428.292	576.06
428.514	524.06
428.736	492.06
428.958	483.06
429.181	466.06
429.403	440.06
429.625	479.06
429.847	506.06
430.069	590.06
430.292	566.06
430.514	467.06
430.736	459.06
430.958	436.06
431.18	425.06
431.402	433.06
431.624	424.06
431.846	414.06
432.068	448.06
432.29	421.06
432.512	425.06
432.734	455.06
432.956	440.06
433.178	460.06
433.4	443.06
433.622	449.06
433.844	431.06
434.066	437.06
434.287	425.06
434.509	426.06
434.731	440.06
434.953	440.06
435.175	467.06
435.397	496.06
435.618	505.06
435.84	529.06
436.062	616.06
436.284	688.06
436.505	591.06
436.727	522.06
436.949	508.06
437.17	479.06
437.392	470.06
437.614	520.06
437.835	547.06
438.057	676.06
438.278	772.06
438.5	725.06
438.721	781.06
438.943	756.06
439.165	634.06
439.386	583.06
439.608	537.06
439.829	541.06
440.05	561.06
440.272	630.06
440.493	586.06
440.715	515.06
440.936	512.06
441.158	496.06
441.379	480.06
441.6	492.06
441.822	531.06
442.043	572.06
442.264	638.06
442.486	698.06
442.707	596.06
442.928	550.06
443.149	512.06
443.371	549.06
443.592	613.06
443.813	673.06
444.034	719.06
444.255	624.06
444.476	566.06
444.698	520.06
444.919	508.06
445.14	576.06
445.361	528.06
445.582	544.06
445.803	612.06
446.024	752.06
446.245	727.06
446.466	694.06
446.687	561.06
446.908	534.06
447.129	512.06
447.35	474.06
447.571	479.06
447.792	512.06
448.013	495.06
448.234	499.06
448.455	562.06
448.675	676.06
448.896	746.06
449.117	679.06
449.338	645.06
449.559	736.06
449.779	805.06
450	661.06
450.221	554.06
450.442	511.06
450.662	494.06
450.883	513.06
451.104	534.06
451.324	498.06
451.545	491.06
451.766	479.06
451.986	442.06
452.207	416.06
452.428	446.06
452.648	420.06
452.869	417.06
453.089	449.06
453.31	459.06
453.53	435.06
453.751	435.06
453.971	463.06
454.192	483.06
454.412	472.06
454.633	438.06
454.853	450.06
455.073	437.06
455.294	474.06
455.514	535.06
455.734	527.06
455.955	430.06
456.175	404.06
456.395	387.06
456.616	385.06
456.836	396.06
457.056	391.06
457.276	375.06
457.497	375.06
457.717	403.06
457.937	382.06
458.157	395.06
458.377	404.06
458.598	453.06
458.818	529.06
459.038	638.06
459.258	650.06
459.478	530.06
459.698	458.06
459.918	428.06
460.138	417.06
460.358	415.06
460.578	419.06
460.798	414.06
461.018	426.06
461.238	420.06
461.458	397.06
461.678	387.06
461.898	426.06
462.118	410.06
462.338	423.06
462.558	402.06
462.777	425.06
462.997	390.06
463.217	420.06
463.437	423.06
463.657	420.06
463.876	431.06
464.096	410.06
464.316	442.06
464.536	440.06
464.755	453.06
464.975	466.06
465.195	564.06
465.414	681.06
465.634	583.06
465.854	518.06
466.073	473.06
466.293	436.06
466.512	417.06
466.732	432.06
466.951	422.06
467.171	397.06
467.391	430.06
467.61	434.06
467.829	450.06
468.049	436.06
468.268	416.06
468.488	420.06
468.707	400.06
468.927	406.06
469.146	424.06
469.365	418.06
469.585	412.06
469.804	423.06
470.023	423.06
470.243	445.06
470.462	447.06
470.681	453.06
470.901	456.06
471.12	411.06
471.339	419.06
471.558	438.06
471.777	425.06
471.997	415.06
472.216	419.06
472.435	419.06
472.654	411.06
472.873	413.06
473.092	425.06
473.311	438.06
473.53	409.06
473.749	432.06
473.968	511.06
474.187	595.06
474.406	638.06
474.625	514.06
474.844	447.06
475.063	441.06
475.282	443.06
475.501	450.06
475.72	435.06
475.939	431.06
476.158	430.06
476.377	436.06
476.596	437.06
476.814	473.06
477.033	457.06
477.252	457.06
477.471	447.06
477.69	438.06
477.908	463.06
478.127	449.06
478.346	456.06
478.564	470.06
478.783	450.06
479.002	470.06
479.22	464.06
479.439	524.06
479.658	518.06
479.876	522.06
480.095	522.06
480.313	547.06
480.532	563.06
480.751	546.06
480.969	526.06
481.188	540.06
481.406	548.06
481.624	522.06
481.843	508.06
482.061	502.06
482.28	494.06
482.498	477.06
482.717	492.06
482.935	510.06
483.153	497.06
483.372	494.06
483.59	503.06
483.808	503.06
484.027	505.06
484.245	499.06
484.463	509.06
484.681	528.06
484.9	512.06
485.118	487.06
485.336	524.06
485.554	516.06
485.772	534.06
485.99	529.06
486.209	537.06
486.427	531.06
486.645	566.06
486.863	572.06
487.081	591.06
487.299	568.06
487.517	582.06
487.735	541.06
487.953	562.06
488.171	549.06
488.389	558.06
488.607	551.06
488.825	574.06
489.043	527.06
489.261	564.06
489.479	587.06
489.696	556.06
489.914	547.06
490.132	573.06
490.35	576.06
490.568	576.06
490.786	604.06
491.003	612.06
491.221	598.06
491.439	610.06
491.657	651.06
491.874	635.06
492.092	645.06
492.31	643.06
492.527	631.06
492.745	657.06
492.963	658.06
493.18	658.06
493.398	674.06
493.615	652.06
493.833	640.06
494.05	657.06
494.268	652.06
494.485	658.06
494.703	655.06
494.92	650.06
495.138	670.06
495.355	676.06
495.573	671.06
495.79	674.06
496.008	683.06
496.225	649.06
496.442	672.06
496.66	670.06
496.877	675.06
497.094	670.06
497.312	672.06
497.529	680.06
497.746	707.06
497.963	706.06
498.181	715.06
498.398	733.06
498.615	668.06
498.832	729.06
499.049	715.06
499.267	723.06
499.484	727.06
499.701	735.06
499.918	730.06
500.135	778.06
500.352	773.06
500.569	770.06
500.786	768.06
501.003	796.06
501.22	778.06
501.437	792.06
501.654	786.06
501.871	799.06
502.088	806.06
502.305	768.06
502.522	744.06
502.739	713.06
502.956	733.06
503.172	701.06
503.389	716.06
503.606	730.06
503.823	731.06
504.04	700.06
504.256	704.06
504.473	701.06
504.69	677.06
504.907	667.06
505.123	657.06
505.34	684.06
505.557	662.06
505.773	686.06
505.99	664.06
506.207	668.06
506.423	671.06
506.64	693.06
506.856	668.06
507.073	670.06
507.289	669.06
507.506	657.06
507.722	699.06
507.939	722.06
508.155	700.06
508.372	670.06
508.588	654.06
508.805	639.06
509.021	644.06
509.238	664.06
509.454	684.06
509.67	655.06
509.887	665.06
510.103	656.06
510.319	699.06
510.536	834.06
510.752	1550.06
510.968	1288.06
511.184	735.06
511.401	700.06
511.617	673.06
511.833	638.06
512.049	649.06
512.265	622.06
512.481	631.06
512.698	628.06
512.914	622.06
513.13	628.06
513.346	627.06
513.562	636.06
513.778	641.06
513.994	656.06
514.21	686.06
514.426	734.06
514.642	817.06
514.858	843.06
515.074	918.06
515.29	1176.06
515.506	1832.06
515.721	1468.06
515.937	898.06
516.153	774.06
516.369	724.06
516.585	708.06
516.801	664.06
517.016	663.06
517.232	639.06
517.448	651.06
517.664	646.06
517.879	624.06
518.095	636.06
518.311	677.06
518.527	624.06
518.742	663.06
518.958	671.06
519.173	611.06
519.389	652.06
519.605	660.06
519.82	657.06
520.036	692.06
520.251	722.06
520.467	790.06
520.682	769.06
520.898	787.06
521.113	826.06
521.329	912.06
521.544	1098.06
521.76	1463.06
521.975	2536.06
522.19	2451.06
522.406	1253.06
522.621	891.06
522.836	772.06
523.052	721.06
523.267	672.06
523.482	626.06
523.698	624.06
523.913	614.06
524.128	617.06
524.343	588.06
524.559	563.06
524.774	567.06
524.989	529.06
525.204	548.06
525.419	550.06
525.634	540.06
525.849	534.06
526.064	521.06
526.28	549.06
526.495	527.06
526.71	514.06
526.925	518.06
527.14	517.06
527.355	509.06
527.57	502.06
527.785	468.06
527.999	454.06
528.214	494.06
528.429	474.06
528.644	483.06
528.859	510.06
529.074	511.06
529.289	542.06
529.503	678.06
529.718	650.06
529.933	559.06
530.148	530.06
530.363	522.06
530.577	508.06
530.792	492.06
531.007	495.06
531.221	500.06
531.436	486.06
531.651	472.06
531.865	471.06
532.08	467.06
532.295	473.06
532.509	460.06
532.724	449.06
532.938	466.06
533.153	437.06
533.367	454.06
533.582	454.06
533.796	465.06
534.011	448.06
534.225	446.06
534.44	437.06
534.654	442.06
534.868	462.06
535.083	436.06
535.297	449.06
535.511	468.06
535.726	467.06
535.94	460.06
536.154	483.06
536.369	456.06
536.583	444.06
536.797	476.06
537.011	444.06
537.225	432.06
537.44	447.06
537.654	420.06
537.868	432.06
538.082	448.06
538.296	427.06
538.51	449.06
538.724	436.06
538.938	440.06
539.153	453.06
539.367	462.06
539.581	457.06
539.795	434.06
540.009	449.06
540.222	439.06
540.436	440.06
540.65	420.06
540.864	432.06
541.078	447.06
541.292	454.06
541.506	452.06
541.72	424.06
541.934	444.06
542.147	432.06
542.361	403.06
542.575	440.06
542.789	420.06
543.002	418.06
543.216	442.06
543.43	439.06
543.644	417.06
543.857	438.06
544.071	438.06
544.285	441.06
544.498	418.06
544.712	410.06
544.925	418.06
545.139	400.06
545.352	416.06
545.566	410.06
545.779	388.06
545.993	403.06
546.206	407.06
546.42	415.06
546.633	400.06
546.847	394.06
547.06	403.06
547.274	412.06
547.487	400.06
547.7	386.06
547.914	398.06
548.127	380.06
548.34	388.06
548.554	385.06
548.767	415.06
548.98	386.06
549.193	387.06
549.407	405.06
549.62	387.06
549.833	391.06
550.046	368.06
550.259	379.06
550.473	387.06
550.686	386.06
550.899	380.06
551.112	374.06
551.325	391.06
551.538	376.06
551.751	405.06
551.964	389.06
552.177	392.06
552.39	386.06
552.603	385.06
552.816	401.06
553.029	383.06
553.242	369.06
553.455	388.06
553.667	421.06
553.88	411.06
554.093	416.06
554.306	387.06
554.519	383.06
554.732	379.06
554.944	382.06
555.157	363.06
555.37	367.06
555.583	398.06
555.795	378.06
556.008	369.06
556.221	384.06
556.433	372.06
556.646	344.06
556.859	348.06
557.071	378.06
557.284	357.06
557.496	364.06
557.709	332.06
557.921	352.06
558.134	354.06
558.346	348.06
558.559	356.06
558.771	353.06
558.984	369.06
559.196	336.06
559.409	360.06
559.621	359.06
559.833	357.06
560.046	337.06
560.258	343.06
560.47	335.06
560.683	351.06
560.895	373.06
561.107	352.06
561.32	330.06
561.532	343.06
561.744	353.06
561.956	341.06
562.168	338.06
562.381	351.06
562.593	356.06
562.805	338.06
563.017	340.06
563.229	347.06
563.441	343.06
563.653	347.06
563.865	346.06
564.077	342.06
564.289	331.06
564.501	355.06
564.713	377.06
564.925	366.06
565.137	388.06
565.349	375.06
565.561	371.06
565.773	368.06
565.985	370.06
566.197	370.06
566.408	370.06
566.62	372.06
566.832	368.06
567.044	385.06
567.255	366.06
567.467	377.06
567.679	373.06
567.891	391.06
568.102	366.06
568.314	356.06
568.526	380.06
568.737	380.06
568.949	365.06
569.161	372.06
569.372	354.06
569.584	373.06
569.795	350.06
570.007	360.06
570.218	427.06
570.43	422.06
570.641	350.06
570.853	356.06
571.064	342.06
571.276	328.06
571.487	319.06
571.698	327.06
571.91	304.06
572.121	286.06
572.333	313.06
572.544	314.06
572.755	319.06
572.966	322.06
573.178	309.06
573.389	301.06
573.6	316.06
573.811	326.06
574.023	304.06
574.234	298.06
574.445	331.06
574.656	302.06
574.867	313.06
575.078	299.06
575.289	315.06
575.501	303.06
575.712	288.06
575.923	287.06
576.134	294.06
576.345	297.06
576.556	290.06
576.767	291.06
576.978	298.06
577.188	313.06
577.399	286.06
577.61	291.06
577.821	286.06
578.032	314.06
578.243	355.06
578.454	710.06
578.665	486.06
578.875	341.06
579.086	302.06
579.297	293.06
579.508	288.06
579.718	297.06
579.929	284.06
580.14	289.06
580.35	302.06
580.561	283.06
580.772	272.06
580.982	284.06
581.193	282.06
581.403	298.06
581.614	286.06
581.825	281.06
582.035	267.06
582.246	278.06
582.456	274.06
582.667	274.06
582.877	263.06
583.087	281.06
583.298	267.06
583.508	266.06
583.719	273.06
583.929	292.06
584.139	277.06
584.35	270.06
584.56	272.06
584.77	277.06
584.981	257.06
585.191	276.06
585.401	285.06
585.611	275.06
585.821	257.06
586.032	267.06
586.242	270.06
586.452	281.06
586.662	287.06
586.872	279.06
587.082	248.06
587.292	274.06
587.502	268.06
587.713	270.06
587.923	265.06
588.133	262.06
588.343	275.06
588.553	262.06
588.762	275.06
588.972	256.06
589.182	267.06
589.392	309.06
589.602	274.06
589.812	269.06
590.022	295.06
590.232	265.06
590.441	248.06
590.651	282.06
590.861	266.06
591.071	276.06
591.281	264.06
591.49	256.06
591.7	272.06
591.91	263.06
592.119	248.06
592.329	251.06
592.539	268.06
592.748	247.06
592.958	266.06
593.167	263.06
593.377	259.06
593.587	270.06
593.796	254.06
594.006	242.06
594.215	276.06
594.424	254.06
594.634	262.06
594.843	259.06
595.053	246.06
595.262	254.06
595.472	264.06
595.681	257.06
595.89	275.06
596.1	245.06
596.309	245.06
596.518	240.06
596.727	235.06
596.937	251.06
597.146	254.06
597.355	242.06
597.564	238.06
597.774	255.06
597.983	255.06
598.192	249.06
598.401	266.06
598.61	227.06
598.819	239.06
599.028	216.06
599.237	224.06
599.446	233.06
599.655	224.06
599.864	234.06
600.073	236.06
600.282	225.06
600.491	232.06
600.7	234.06
600.909	222.06
601.118	240.06
601.327	222.06
601.536	231.06
601.745	233.06
601.953	238.06
602.162	224.06
602.371	218.06
602.58	216.06
602.789	233.06
602.997	216.06
603.206	224.06
603.415	218.06
603.623	214.06
603.832	218.06
604.041	224.06
604.249	226.06
604.458	226.06
604.666	228.06
604.875	218.06
605.084	219.06
605.292	222.06
605.501	209.06
605.709	213.06
605.918	222.06
606.126	207.06
606.334	214.06
606.543	223.06
606.751	218.06
606.96	224.06
607.168	220.06
607.376	211.06
607.585	220.06
607.793	219.06
608.001	211.06
608.21	235.06
608.418	226.06
608.626	220.06
608.834	222.06
609.043	226.06
609.251	223.06
609.459	215.06
609.667	230.06
609.875	212.06
610.083	219.06
610.291	212.06
610.499	215.06
610.707	221.06
610.916	214.06
611.124	225.06
611.332	224.06
611.54	230.06
611.748	214.06
611.955	215.06
612.163	219.06
612.371	216.06
612.579	218.06
612.787	200.06
612.995	226.06
613.203	201.06
613.411	196.06
613.618	207.06
613.826	211.06
614.034	212.06
614.242	214.06
614.449	206.06
614.657	190.06
614.865	209.06
615.072	226.06
615.28	203.06
615.488	217.06
615.695	206.06
615.903	214.06
616.111	211.06
616.318	218.06
616.526	207.06
616.733	193.06
616.941	195.06
617.148	214.06
617.356	220.06
617.563	204.06
617.771	216.06
617.978	203.06
618.185	210.06
618.393	197.06
618.6	209.06
618.807	202.06
619.015	208.06
619.222	195.06
619.429	206.06
619.637	204.06
619.844	182.06
620.051	202.06
620.258	187.06
620.466	208.06
620.673	212.06
620.88	191.06
621.087	209.06
621.294	195.06
621.501	213.06
621.708	184.06
621.915	199.06
622.122	208.06
622.329	202.06
622.536	203.06
622.743	199.06
622.95	205.06
623.157	199.06
623.364	212.06
623.571	195.06
623.778	195.06
623.985	193.06
624.192	196.06
624.399	198.06
624.606	198.06
624.812	209.06
625.019	201.06
625.226	201.06
625.433	196.06
625.639	182.06
625.846	190.06
626.053	175.06
626.259	199.06
626.466	195.06
626.673	186.06
626.879	178.06
627.086	201.06
627.293	180.06
627.499	184.06
627.706	194.06
627.912	186.06
628.119	183.06
628.325	177.06
628.532	191.06
628.738	198.06
628.945	171.06
629.151	175.06
629.357	187.06
629.564	196.06
629.77	182.06
629.976	174.06
630.183	177.06
630.389	182.06
630.595	188.06
630.802	185.06
631.008	174.06
631.214	165.06
631.42	192.06
631.627	190.06
631.833	163.06
632.039	173.06
632.245	172.06
632.451	174.06
632.657	171.06
632.863	182.06
633.069	188.06
633.275	171.06
633.481	167.06
633.688	168.06
633.893	185.06
634.099	171.06
634.305	154.06
634.511	169.06
634.717	158.06
634.923	171.06
635.129	176.06
635.335	154.06
635.541	165.06
635.747	188.06
635.952	167.06
636.158	163.06
636.364	170.06
636.57	155.06
636.775	174.06
636.981	172.06
637.187	158.06
637.392	172.06
637.598	151.06
637.804	165.06
638.009	164.06
638.215	167.06
638.421	159.06
638.626	159.06
638.832	148.06
639.037	166.06
639.243	154.06
639.448	163.06
639.654	151.06
639.859	164.06
640.065	151.06
640.27	171.06
640.475	158.06
640.681	154.06
640.886	149.06
641.091	171.06
641.297	161.06
641.502	161.06
641.707	146.06
641.913	154.06
642.118	161.06
642.323	147.06
642.528	144.06
642.733	155.06
642.939	153.06
643.144	165.06
643.349	162.06
643.554	152.06
643.759	158.06
643.964	144.06
644.169	153.06
644.374	155.06
644.579	153.06
644.784	138.06
644.989	147.06
645.194	145.06
645.399	152.06
645.604	157.06
645.809	160.06
646.014	154.06
646.219	164.06
646.423	150.06
646.628	157.06
646.833	162.06
647.038	144.06
647.243	141.06
647.447	135.06
647.652	146.06
647.857	133.06
648.062	146.06
648.266	158.06
648.471	154.06
648.676	159.06
648.88	151.06
649.085	144.06
649.289	155.06
649.494	177.06
649.698	181.06
649.903	155.06
650.107	161.06
650.312	164.06
650.516	140.06
650.721	134.06
650.925	142.06
651.13	128.06
651.334	145.06
651.539	147.06
651.743	131.06
651.947	134.06
652.152	137.06
652.356	128.06
652.56	128.06
652.764	119.06
652.969	135.06
653.173	136.06
653.377	121.06
653.581	124.06
653.785	122.06
653.99	126.06
654.194	126.06
654.398	123.06
654.602	125.06
654.806	117.06
655.01	119.06
655.214	120.06
655.418	120.06
655.622	128.06
655.826	117.06
656.03	122.06
656.234	130.06
656.438	115.06
656.642	113.06
656.846	122.06
657.049	97.06
657.253	131.06
657.457	104.06
657.661	113.06
657.865	99.06
658.068	104.06
658.272	86.06
658.476	103.06
658.68	116.06
658.883	104.06
659.087	94.06
659.291	95.06
659.494	97.06
659.698	84.06
659.901	88.06
660.105	96.06
660.309	104.06
660.512	94.06
660.716	80.06
660.919	88.06
661.123	98.06
661.326	98.06
661.53	73.06
661.733	79.06
661.936	78.06
662.14	91.06
662.343	85.06
662.546	79.06
662.75	87.06
662.953	83.06
663.156	78.06
663.36	84.06
663.563	76.06
663.766	80.06
663.969	75.06
664.173	76.06
664.376	74.06
664.579	80.06
664.782	76.06
664.985	76.06
665.188	91.06
665.391	79.06
665.594	66.06
665.797	74.06
666	73.06
666.203	61.06
666.406	75.06
666.609	73.06
666.812	79.06
667.015	83.06
667.218	60.06
667.421	78.06
667.624	87.06
667.827	80.06
668.03	76.06
668.232	66.06
668.435	81.06
668.638	86.06
668.841	87.06
669.043	101.06
669.246	84.06
669.449	86.06
669.651	90.06
669.854	81.06
670.057	77.06
670.259	76.06
670.462	90.06
670.665	85.06
670.867	75.06
671.07	84.06
671.272	88.06
671.475	84.06
671.677	86.06
671.88	75.06
672.082	82.06
672.284	77.06
672.487	79.06
672.689	81.06
672.892	75.06
