Data from 1987.PennyLincolnUp.Lamp.En5.5.200Scan.071819.P2_HRD10591_17-16-50-971.txt Node
Date: Thu Jul 18 17:16:50 EDT 2019
User: cochatt
Spectrometer: HR+D1059
Trigger mode: 1
Integration Time (sec): 1.000000E-1
Scans to average: 1
Electric dark correction enabled: true
Nonlinearity correction enabled: false
Boxcar width: 0
XAxis mode: Wavelengths
Number of Pixels in Spectrum: 2048
>>>>>Begin Spectral Data<<<<<
223.165	-31.12
223.4	-31.12
223.635	-31.12
223.869	-30.12
224.104	-24.12
224.338	-8.12
224.573	-14.12
224.808	-9.12
225.042	-5.12
225.277	7.88
225.511	0.88
225.746	19.88
225.98	0.88
226.215	8.88
226.449	19.88
226.683	12.88
226.918	19.88
227.152	30.88
227.387	10.88
227.621	32.88
227.856	40.88
228.09	48.88
228.324	62.88
228.559	55.88
228.793	85.88
229.027	106.88
229.262	116.88
229.496	126.88
229.73	147.88
229.964	182.88
230.199	148.88
230.433	124.88
230.667	142.88
230.901	121.88
231.136	106.88
231.37	120.88
231.604	114.88
231.838	108.88
232.072	105.88
232.306	109.88
232.541	108.88
232.775	104.88
233.009	115.88
233.243	108.88
233.477	109.88
233.711	119.88
233.945	120.88
234.179	105.88
234.413	114.88
234.647	118.88
234.881	115.88
235.115	117.88
235.349	106.88
235.583	115.88
235.817	128.88
236.051	128.88
236.285	127.88
236.519	123.88
236.753	125.88
236.987	170.88
237.221	203.88
237.455	278.88
237.689	204.88
237.922	158.88
238.156	147.88
238.39	137.88
238.624	138.88
238.858	118.88
239.091	128.88
239.325	131.88
239.559	137.88
239.793	143.88
240.027	146.88
240.26	148.88
240.494	177.88
240.728	152.88
240.961	150.88
241.195	137.88
241.429	138.88
241.662	129.88
241.896	129.88
242.13	133.88
242.363	124.88
242.597	138.88
242.83	132.88
243.064	130.88
243.298	133.88
243.531	122.88
243.765	133.88
243.998	128.88
244.232	130.88
244.465	135.88
244.699	140.88
244.932	139.88
245.166	138.88
245.399	134.88
245.633	135.88
245.866	145.88
246.099	138.88
246.333	150.88
246.566	139.88
246.8	148.88
247.033	143.88
247.266	163.88
247.5	165.88
247.733	165.88
247.966	170.88
248.2	167.88
248.433	168.88
248.666	181.88
248.899	180.88
249.133	199.88
249.366	219.88
249.599	197.88
249.832	177.88
250.066	182.88
250.299	170.88
250.532	172.88
250.765	195.88
250.998	216.88
251.231	223.88
251.465	224.88
251.698	203.88
251.931	195.88
252.164	202.88
252.397	186.88
252.63	206.88
252.863	211.88
253.096	224.88
253.329	227.88
253.562	236.88
253.795	232.88
254.028	225.88
254.261	221.88
254.494	232.88
254.727	263.88
254.96	288.88
255.193	278.88
255.426	246.88
255.659	249.88
255.892	213.88
256.124	222.88
256.357	215.88
256.59	219.88
256.823	201.88
257.056	201.88
257.289	202.88
257.521	189.88
257.754	198.88
257.987	192.88
258.22	186.88
258.452	202.88
258.685	210.88
258.918	201.88
259.151	199.88
259.383	217.88
259.616	208.88
259.849	224.88
260.081	227.88
260.314	239.88
260.547	259.88
260.779	251.88
261.012	231.88
261.244	228.88
261.477	234.88
261.71	230.88
261.942	236.88
262.175	250.88
262.407	232.88
262.64	210.88
262.872	211.88
263.105	202.88
263.337	205.88
263.57	206.88
263.802	202.88
264.035	199.88
264.267	190.88
264.499	200.88
264.732	182.88
264.964	186.88
265.197	188.88
265.429	182.88
265.661	188.88
265.894	199.88
266.126	215.88
266.358	195.88
266.591	179.88
266.823	201.88
267.055	204.88
267.287	204.88
267.52	205.88
267.752	213.88
267.984	215.88
268.216	196.88
268.448	217.88
268.681	217.88
268.913	213.88
269.145	234.88
269.377	267.88
269.609	272.88
269.841	261.88
270.073	234.88
270.306	275.88
270.538	299.88
270.77	309.88
271.002	296.88
271.234	280.88
271.466	290.88
271.698	304.88
271.93	308.88
272.162	324.88
272.394	305.88
272.626	296.88
272.858	290.88
273.09	270.88
273.322	261.88
273.553	252.88
273.785	254.88
274.017	250.88
274.249	231.88
274.481	232.88
274.713	251.88
274.945	247.88
275.176	252.88
275.408	244.88
275.64	219.88
275.872	230.88
276.104	238.88
276.335	254.88
276.567	242.88
276.799	273.88
277.031	293.88
277.262	307.88
277.494	312.88
277.726	280.88
277.957	258.88
278.189	258.88
278.421	245.88
278.652	245.88
278.884	210.88
279.115	225.88
279.347	245.88
279.579	233.88
279.81	225.88
280.042	223.88
280.273	218.88
280.505	224.88
280.736	214.88
280.968	226.88
281.199	214.88
281.431	230.88
281.662	235.88
281.894	210.88
282.125	226.88
282.356	262.88
282.588	275.88
282.819	282.88
283.051	236.88
283.282	237.88
283.513	254.88
283.745	244.88
283.976	244.88
284.207	221.88
284.439	268.88
284.67	240.88
284.901	239.88
285.132	233.88
285.364	217.88
285.595	228.88
285.826	241.88
286.057	237.88
286.288	225.88
286.52	228.88
286.751	215.88
286.982	228.88
287.213	252.88
287.444	239.88
287.675	242.88
287.906	251.88
288.138	269.88
288.369	263.88
288.6	266.88
288.831	248.88
289.062	255.88
289.293	242.88
289.524	250.88
289.755	243.88
289.986	227.88
290.217	237.88
290.448	236.88
290.679	236.88
290.91	243.88
291.141	248.88
291.371	227.88
291.602	230.88
291.833	240.88
292.064	240.88
292.295	236.88
292.526	232.88
292.757	237.88
292.987	226.88
293.218	248.88
293.449	237.88
293.68	229.88
293.91	252.88
294.141	231.88
294.372	226.88
294.603	230.88
294.833	237.88
295.064	247.88
295.295	248.88
295.525	238.88
295.756	258.88
295.987	278.88
296.217	274.88
296.448	328.88
296.679	261.88
296.909	249.88
297.14	236.88
297.37	255.88
297.601	246.88
297.831	234.88
298.062	240.88
298.292	249.88
298.523	248.88
298.753	243.88
298.984	240.88
299.214	238.88
299.445	246.88
299.675	252.88
299.905	254.88
300.136	267.88
300.366	270.88
300.597	254.88
300.827	258.88
301.057	277.88
301.288	277.88
301.518	280.88
301.748	266.88
301.979	266.88
302.209	275.88
302.439	280.88
302.669	280.88
302.9	263.88
303.13	274.88
303.36	280.88
303.59	266.88
303.82	317.88
304.051	299.88
304.281	262.88
304.511	273.88
304.741	262.88
304.971	250.88
305.201	262.88
305.431	262.88
305.661	263.88
305.891	282.88
306.121	277.88
306.352	309.88
306.582	303.88
306.812	270.88
307.042	268.88
307.272	282.88
307.502	267.88
307.731	308.88
307.961	283.88
308.191	283.88
308.421	278.88
308.651	299.88
308.881	292.88
309.111	297.88
309.341	294.88
309.571	308.88
309.8	319.88
310.03	330.88
310.26	363.88
310.49	362.88
310.72	376.88
310.949	384.88
311.179	387.88
311.409	359.88
311.639	350.88
311.868	355.88
312.098	352.88
312.328	365.88
312.557	385.88
312.787	405.88
313.017	407.88
313.246	387.88
313.476	356.88
313.706	348.88
313.935	332.88
314.165	377.88
314.394	380.88
314.624	378.88
314.853	354.88
315.083	356.88
315.312	326.88
315.542	328.88
315.771	325.88
316.001	324.88
316.23	308.88
316.46	322.88
316.689	330.88
316.919	327.88
317.148	349.88
317.377	347.88
317.607	354.88
317.836	333.88
318.065	339.88
318.295	341.88
318.524	326.88
318.753	342.88
318.983	332.88
319.212	317.88
319.441	354.88
319.67	346.88
319.9	340.88
320.129	331.88
320.358	328.88
320.587	325.88
320.816	367.88
321.046	358.88
321.275	355.88
321.504	382.88
321.733	372.88
321.962	412.88
322.191	414.88
322.42	433.88
322.649	440.88
322.878	472.88
323.108	488.88
323.337	542.88
323.566	561.88
323.795	618.88
324.024	690.88
324.253	894.88
324.482	1244.88
324.71	1978.88
324.939	2746.88
325.168	2394.88
325.397	1354.88
325.626	829.88
325.855	658.88
326.084	562.88
326.313	589.88
326.542	556.88
326.77	634.88
326.999	770.88
327.228	1076.88
327.457	1698.88
327.686	2062.88
327.914	1448.88
328.143	900.88
328.372	768.88
328.6	689.88
328.829	658.88
329.058	676.88
329.287	692.88
329.515	618.88
329.744	546.88
329.972	532.88
330.201	513.88
330.43	562.88
330.658	640.88
330.887	695.88
331.115	675.88
331.344	544.88
331.572	511.88
331.801	500.88
332.03	489.88
332.258	451.88
332.486	432.88
332.715	406.88
332.943	397.88
333.172	393.88
333.4	397.88
333.629	411.88
333.857	425.88
334.085	432.88
334.314	390.88
334.542	398.88
334.771	406.88
334.999	412.88
335.227	393.88
335.455	400.88
335.684	398.88
335.912	384.88
336.14	378.88
336.369	382.88
336.597	404.88
336.825	395.88
337.053	397.88
337.281	377.88
337.51	368.88
337.738	388.88
337.966	393.88
338.194	391.88
338.422	385.88
338.65	403.88
338.878	390.88
339.106	364.88
339.334	358.88
339.562	348.88
339.79	368.88
340.018	363.88
340.246	383.88
340.474	398.88
340.702	381.88
340.93	372.88
341.158	361.88
341.386	361.88
341.614	377.88
341.842	386.88
342.07	359.88
342.298	374.88
342.526	359.88
342.754	331.88
342.981	330.88
343.209	356.88
343.437	346.88
343.665	357.88
343.893	341.88
344.12	362.88
344.348	362.88
344.576	375.88
344.804	406.88
345.031	392.88
345.259	421.88
345.487	398.88
345.714	380.88
345.942	377.88
346.17	374.88
346.397	384.88
346.625	385.88
346.853	368.88
347.08	385.88
347.308	371.88
347.535	408.88
347.763	410.88
347.99	417.88
348.218	378.88
348.445	417.88
348.673	408.88
348.9	399.88
349.128	360.88
349.355	338.88
349.583	351.88
349.81	361.88
350.037	343.88
350.265	347.88
350.492	346.88
350.72	346.88
350.947	378.88
351.174	384.88
351.402	416.88
351.629	390.88
351.856	369.88
352.083	408.88
352.311	402.88
352.538	428.88
352.765	423.88
352.992	405.88
353.22	376.88
353.447	382.88
353.674	363.88
353.901	352.88
354.128	335.88
354.355	346.88
354.583	328.88
354.81	330.88
355.037	356.88
355.264	309.88
355.491	326.88
355.718	328.88
355.945	332.88
356.172	299.88
356.399	313.88
356.626	334.88
356.853	308.88
357.08	325.88
357.307	319.88
357.534	338.88
357.761	332.88
357.988	324.88
358.215	352.88
358.441	344.88
358.668	340.88
358.895	366.88
359.122	355.88
359.349	368.88
359.576	389.88
359.802	426.88
360.029	466.88
360.256	493.88
360.483	448.88
360.709	394.88
360.936	395.88
361.163	378.88
361.39	398.88
361.616	400.88
361.843	386.88
362.07	383.88
362.296	379.88
362.523	371.88
362.749	390.88
362.976	374.88
363.203	357.88
363.429	350.88
363.656	361.88
363.882	364.88
364.109	360.88
364.335	356.88
364.562	346.88
364.788	346.88
365.015	347.88
365.241	362.88
365.468	364.88
365.694	364.88
365.92	369.88
366.147	353.88
366.373	324.88
366.599	334.88
366.826	348.88
367.052	353.88
367.278	347.88
367.505	339.88
367.731	342.88
367.957	344.88
368.184	346.88
368.41	347.88
368.636	384.88
368.862	365.88
369.089	352.88
369.315	343.88
369.541	337.88
369.767	334.88
369.993	336.88
370.219	328.88
370.445	335.88
370.672	326.88
370.898	312.88
371.124	324.88
371.35	316.88
371.576	323.88
371.802	322.88
372.028	332.88
372.254	330.88
372.48	315.88
372.706	324.88
372.932	322.88
373.158	313.88
373.384	319.88
373.61	354.88
373.835	328.88
374.061	321.88
374.287	337.88
374.513	333.88
374.739	324.88
374.965	339.88
375.191	338.88
375.416	323.88
375.642	326.88
375.868	329.88
376.094	326.88
376.319	320.88
376.545	331.88
376.771	332.88
376.997	318.88
377.222	336.88
377.448	322.88
377.674	317.88
377.899	331.88
378.125	318.88
378.35	334.88
378.576	318.88
378.802	314.88
379.027	321.88
379.253	310.88
379.478	319.88
379.704	322.88
379.929	318.88
380.155	340.88
380.38	357.88
380.606	335.88
380.831	334.88
381.057	353.88
381.282	324.88
381.507	328.88
381.733	331.88
381.958	313.88
382.184	321.88
382.409	328.88
382.634	322.88
382.86	320.88
383.085	321.88
383.31	342.88
383.535	340.88
383.761	336.88
383.986	333.88
384.211	344.88
384.436	334.88
384.662	325.88
384.887	329.88
385.112	355.88
385.337	336.88
385.562	339.88
385.787	349.88
386.013	362.88
386.238	371.88
386.463	353.88
386.688	340.88
386.913	342.88
387.138	338.88
387.363	378.88
387.588	346.88
387.813	351.88
388.038	344.88
388.263	329.88
388.488	329.88
388.713	360.88
388.938	362.88
389.163	352.88
389.387	343.88
389.612	348.88
389.837	338.88
390.062	355.88
390.287	342.88
390.512	349.88
390.736	335.88
390.961	330.88
391.186	328.88
391.411	355.88
391.636	342.88
391.86	337.88
392.085	334.88
392.31	331.88
392.534	354.88
392.759	328.88
392.984	325.88
393.208	340.88
393.433	344.88
393.658	334.88
393.882	351.88
394.107	343.88
394.331	347.88
394.556	339.88
394.78	352.88
395.005	330.88
395.229	353.88
395.454	342.88
395.678	333.88
395.903	396.88
396.127	396.88
396.352	388.88
396.576	370.88
396.801	359.88
397.025	382.88
397.249	380.88
397.474	369.88
397.698	376.88
397.922	386.88
398.147	385.88
398.371	389.88
398.595	385.88
398.82	384.88
399.044	374.88
399.268	390.88
399.492	407.88
399.717	430.88
399.941	449.88
400.165	472.88
400.389	494.88
400.613	460.88
400.837	425.88
401.062	410.88
401.286	410.88
401.51	394.88
401.734	394.88
401.958	397.88
402.182	399.88
402.406	422.88
402.63	448.88
402.854	396.88
403.078	395.88
403.302	414.88
403.526	420.88
403.75	445.88
403.974	389.88
404.198	398.88
404.422	402.88
404.645	406.88
404.869	432.88
405.093	466.88
405.317	472.88
405.541	482.88
405.765	448.88
405.988	440.88
406.212	453.88
406.436	480.88
406.66	489.88
406.883	479.88
407.107	490.88
407.331	521.88
407.555	582.88
407.778	578.88
408.002	558.88
408.226	492.88
408.449	491.88
408.673	480.88
408.896	513.88
409.12	562.88
409.344	512.88
409.567	457.88
409.791	426.88
410.014	427.88
410.238	415.88
410.461	433.88
410.685	440.88
410.908	441.88
411.132	481.88
411.355	508.88
411.578	478.88
411.802	444.88
412.025	421.88
412.249	420.88
412.472	427.88
412.695	449.88
412.919	440.88
413.142	426.88
413.365	406.88
413.589	401.88
413.812	396.88
414.035	426.88
414.258	386.88
414.482	388.88
414.705	388.88
414.928	395.88
415.151	373.88
415.374	390.88
415.597	378.88
415.821	390.88
416.044	385.88
416.267	411.88
416.49	406.88
416.713	424.88
416.936	389.88
417.159	409.88
417.382	416.88
417.605	417.88
417.828	438.88
418.051	420.88
418.274	441.88
418.497	411.88
418.72	395.88
418.943	395.88
419.166	425.88
419.389	426.88
419.611	428.88
419.834	422.88
420.057	420.88
420.28	454.88
420.503	414.88
420.726	409.88
420.948	450.88
421.171	480.88
421.394	517.88
421.617	470.88
421.839	435.88
422.062	450.88
422.285	461.88
422.507	501.88
422.73	582.88
422.953	574.88
423.175	488.88
423.398	466.88
423.621	460.88
423.843	506.88
424.066	510.88
424.288	496.88
424.511	508.88
424.733	567.88
424.956	640.88
425.178	632.88
425.401	596.88
425.623	646.88
425.846	540.88
426.068	524.88
426.291	515.88
426.513	533.88
426.735	512.88
426.958	579.88
427.18	629.88
427.402	757.88
427.625	860.88
427.847	778.88
428.069	666.88
428.292	576.88
428.514	552.88
428.736	528.88
428.958	500.88
429.181	459.88
429.403	463.88
429.625	482.88
429.847	529.88
430.069	595.88
430.292	579.88
430.514	484.88
430.736	466.88
430.958	480.88
431.18	449.88
431.402	449.88
431.624	430.88
431.846	428.88
432.068	429.88
432.29	421.88
432.512	425.88
432.734	433.88
432.956	424.88
433.178	450.88
433.4	471.88
433.622	456.88
433.844	426.88
434.066	403.88
434.287	423.88
434.509	440.88
434.731	424.88
434.953	444.88
435.175	463.88
435.397	499.88
435.618	516.88
435.84	550.88
436.062	647.88
436.284	688.88
436.505	613.88
436.727	519.88
436.949	518.88
437.17	481.88
437.392	478.88
437.614	515.88
437.835	554.88
438.057	675.88
438.278	748.88
438.5	748.88
438.721	775.88
438.943	757.88
439.165	629.88
439.386	566.88
439.608	543.88
439.829	556.88
440.05	594.88
440.272	635.88
440.493	586.88
440.715	540.88
440.936	510.88
441.158	480.88
441.379	498.88
441.6	478.88
441.822	522.88
442.043	540.88
442.264	650.88
442.486	676.88
442.707	612.88
442.928	566.88
443.149	532.88
443.371	568.88
443.592	611.88
443.813	702.88
444.034	763.88
444.255	627.88
444.476	554.88
444.698	514.88
444.919	516.88
445.14	589.88
445.361	580.88
445.582	570.88
445.803	636.88
446.024	741.88
446.245	765.88
446.466	678.88
446.687	583.88
446.908	542.88
447.129	511.88
447.35	501.88
447.571	490.88
447.792	469.88
448.013	481.88
448.234	513.88
448.455	574.88
448.675	685.88
448.896	775.88
449.117	658.88
449.338	635.88
449.559	714.88
449.779	811.88
450	673.88
450.221	565.88
450.442	538.88
450.662	505.88
450.883	515.88
451.104	535.88
451.324	529.88
451.545	492.88
451.766	471.88
451.986	451.88
452.207	435.88
452.428	444.88
452.648	447.88
452.869	425.88
453.089	452.88
453.31	460.88
453.53	452.88
453.751	430.88
453.971	462.88
454.192	517.88
454.412	483.88
454.633	460.88
454.853	462.88
455.073	433.88
455.294	468.88
455.514	541.88
455.734	533.88
455.955	444.88
456.175	430.88
456.395	401.88
456.616	403.88
456.836	377.88
457.056	394.88
457.276	399.88
457.497	395.88
457.717	403.88
457.937	402.88
458.157	413.88
458.377	416.88
458.598	458.88
458.818	540.88
459.038	648.88
459.258	646.88
459.478	548.88
459.698	491.88
459.918	440.88
460.138	437.88
460.358	434.88
460.578	420.88
460.798	442.88
461.018	429.88
461.238	415.88
461.458	416.88
461.678	405.88
461.898	408.88
462.118	399.88
462.338	419.88
462.558	415.88
462.777	416.88
462.997	418.88
463.217	430.88
463.437	428.88
463.657	416.88
463.876	422.88
464.096	428.88
464.316	449.88
464.536	444.88
464.755	443.88
464.975	448.88
465.195	557.88
465.414	711.88
465.634	601.88
465.854	526.88
466.073	475.88
466.293	451.88
466.512	454.88
466.732	420.88
466.951	414.88
467.171	408.88
467.391	444.88
467.61	457.88
467.829	454.88
468.049	451.88
468.268	430.88
468.488	419.88
468.707	433.88
468.927	411.88
469.146	412.88
469.365	403.88
469.585	402.88
469.804	423.88
470.023	444.88
470.243	439.88
470.462	446.88
470.681	475.88
470.901	461.88
471.12	431.88
471.339	442.88
471.558	449.88
471.777	449.88
471.997	406.88
472.216	436.88
472.435	437.88
472.654	428.88
472.873	412.88
473.092	415.88
473.311	423.88
473.53	427.88
473.749	429.88
473.968	508.88
474.187	600.88
474.406	631.88
474.625	525.88
474.844	457.88
475.063	433.88
475.282	434.88
475.501	426.88
475.72	448.88
475.939	423.88
476.158	436.88
476.377	425.88
476.596	427.88
476.814	460.88
477.033	476.88
477.252	460.88
477.471	467.88
477.69	452.88
477.908	477.88
478.127	461.88
478.346	458.88
478.564	460.88
478.783	466.88
479.002	472.88
479.22	476.88
479.439	509.88
479.658	518.88
479.876	539.88
480.095	532.88
480.313	570.88
480.532	549.88
480.751	521.88
480.969	524.88
481.188	533.88
481.406	540.88
481.624	526.88
481.843	508.88
482.061	492.88
482.28	519.88
482.498	500.88
482.717	497.88
482.935	482.88
483.153	521.88
483.372	522.88
483.59	489.88
483.808	498.88
484.027	502.88
484.245	503.88
484.463	514.88
484.681	513.88
484.9	517.88
485.118	520.88
485.336	544.88
485.554	521.88
485.772	523.88
485.99	548.88
486.209	542.88
486.427	534.88
486.645	551.88
486.863	600.88
487.081	573.88
487.299	564.88
487.517	571.88
487.735	548.88
487.953	569.88
488.171	555.88
488.389	541.88
488.607	552.88
488.825	548.88
489.043	579.88
489.261	571.88
489.479	565.88
489.696	552.88
489.914	582.88
490.132	561.88
490.35	592.88
490.568	605.88
490.786	605.88
491.003	635.88
491.221	619.88
491.439	640.88
491.657	628.88
491.874	631.88
492.092	664.88
492.31	666.88
492.527	661.88
492.745	664.88
492.963	643.88
493.18	685.88
493.398	656.88
493.615	658.88
493.833	661.88
494.05	665.88
494.268	650.88
494.485	674.88
494.703	670.88
494.92	675.88
495.138	693.88
495.355	674.88
495.573	676.88
495.79	681.88
496.008	687.88
496.225	684.88
496.442	683.88
496.66	693.88
496.877	676.88
497.094	693.88
497.312	690.88
497.529	685.88
497.746	690.88
497.963	691.88
498.181	725.88
498.398	719.88
498.615	729.88
498.832	723.88
499.049	723.88
499.267	718.88
499.484	753.88
499.701	735.88
499.918	724.88
500.135	748.88
500.352	771.88
500.569	772.88
500.786	777.88
501.003	779.88
501.22	809.88
501.437	785.88
501.654	821.88
501.871	825.88
502.088	802.88
502.305	768.88
502.522	752.88
502.739	734.88
502.956	705.88
503.172	708.88
503.389	709.88
503.606	713.88
503.823	731.88
504.04	701.88
504.256	682.88
504.473	673.88
504.69	676.88
504.907	697.88
505.123	672.88
505.34	676.88
505.557	663.88
505.773	679.88
505.99	680.88
506.207	669.88
506.423	685.88
506.64	653.88
506.856	660.88
507.073	664.88
507.289	669.88
507.506	661.88
507.722	708.88
507.939	729.88
508.155	708.88
508.372	685.88
508.588	672.88
508.805	654.88
509.021	640.88
509.238	686.88
509.454	684.88
509.67	675.88
509.887	685.88
510.103	666.88
510.319	717.88
510.536	861.88
510.752	1571.88
510.968	1344.88
511.184	759.88
511.401	683.88
511.617	679.88
511.833	656.88
512.049	640.88
512.265	640.88
512.481	631.88
512.698	637.88
512.914	620.88
513.13	660.88
513.346	653.88
513.562	640.88
513.778	668.88
513.994	678.88
514.21	709.88
514.426	740.88
514.642	836.88
514.858	854.88
515.074	944.88
515.29	1213.88
515.506	1879.88
515.721	1501.88
515.937	937.88
516.153	804.88
516.369	739.88
516.585	692.88
516.801	686.88
517.016	674.88
517.232	657.88
517.448	652.88
517.664	644.88
517.879	652.88
518.095	631.88
518.311	678.88
518.527	651.88
518.742	643.88
518.958	640.88
519.173	665.88
519.389	658.88
519.605	636.88
519.82	685.88
520.036	685.88
520.251	745.88
520.467	792.88
520.682	779.88
520.898	808.88
521.113	871.88
521.329	945.88
521.544	1120.88
521.76	1483.88
521.975	2571.88
522.19	2525.88
522.406	1331.88
522.621	899.88
522.836	786.88
523.052	718.88
523.267	668.88
523.482	647.88
523.698	624.88
523.913	626.88
524.128	634.88
524.343	596.88
524.559	572.88
524.774	579.88
524.989	553.88
525.204	568.88
525.419	580.88
525.634	556.88
525.849	552.88
526.064	531.88
526.28	548.88
526.495	497.88
526.71	511.88
526.925	522.88
527.14	515.88
527.355	515.88
527.57	501.88
527.785	500.88
527.999	486.88
528.214	505.88
528.429	493.88
528.644	489.88
528.859	485.88
529.074	505.88
529.289	535.88
529.503	691.88
529.718	651.88
529.933	593.88
530.148	546.88
530.363	506.88
530.577	501.88
530.792	497.88
531.007	481.88
531.221	457.88
531.436	450.88
531.651	469.88
531.865	493.88
532.08	494.88
532.295	485.88
532.509	472.88
532.724	453.88
532.938	458.88
533.153	450.88
533.367	466.88
533.582	462.88
533.796	442.88
534.011	438.88
534.225	446.88
534.44	446.88
534.654	450.88
534.868	447.88
535.083	467.88
535.297	449.88
535.511	494.88
535.726	486.88
535.94	479.88
536.154	452.88
536.369	466.88
536.583	458.88
536.797	436.88
537.011	424.88
537.225	447.88
537.44	456.88
537.654	438.88
537.868	458.88
538.082	451.88
538.296	445.88
538.51	449.88
538.724	460.88
538.938	422.88
539.153	449.88
539.367	462.88
539.581	462.88
539.795	465.88
540.009	442.88
540.222	445.88
540.436	443.88
540.65	446.88
540.864	447.88
541.078	464.88
541.292	446.88
541.506	433.88
541.72	441.88
541.934	423.88
542.147	411.88
542.361	417.88
542.575	426.88
542.789	432.88
543.002	440.88
543.216	430.88
543.43	450.88
543.644	432.88
543.857	426.88
544.071	443.88
544.285	449.88
544.498	432.88
544.712	410.88
544.925	439.88
545.139	419.88
545.352	422.88
545.566	401.88
545.779	392.88
545.993	397.88
546.206	414.88
546.42	409.88
546.633	399.88
546.847	388.88
547.06	407.88
547.274	408.88
547.487	388.88
547.7	402.88
547.914	387.88
548.127	386.88
548.34	380.88
548.554	383.88
548.767	369.88
548.98	410.88
549.193	405.88
549.407	377.88
549.62	407.88
549.833	402.88
550.046	397.88
550.259	391.88
550.473	382.88
550.686	386.88
550.899	386.88
551.112	384.88
551.325	387.88
551.538	379.88
551.751	391.88
551.964	383.88
552.177	384.88
552.39	403.88
552.603	399.88
552.816	394.88
553.029	401.88
553.242	381.88
553.455	404.88
553.667	415.88
553.88	437.88
554.093	406.88
554.306	401.88
554.519	401.88
554.732	383.88
554.944	399.88
555.157	376.88
555.37	361.88
555.583	374.88
555.795	416.88
556.008	380.88
556.221	382.88
556.433	382.88
556.646	368.88
556.859	363.88
557.071	370.88
557.284	361.88
557.496	371.88
557.709	368.88
557.921	365.88
558.134	355.88
558.346	377.88
558.559	360.88
558.771	354.88
558.984	356.88
559.196	359.88
559.409	337.88
559.621	346.88
559.833	344.88
560.046	373.88
560.258	354.88
560.47	359.88
560.683	346.88
560.895	360.88
561.107	331.88
561.32	344.88
561.532	359.88
561.744	349.88
561.956	347.88
562.168	349.88
562.381	340.88
562.593	337.88
562.805	351.88
563.017	349.88
563.229	354.88
563.441	366.88
563.653	355.88
563.865	359.88
564.077	357.88
564.289	358.88
564.501	354.88
564.713	359.88
564.925	359.88
565.137	379.88
565.349	362.88
565.561	374.88
565.773	374.88
565.985	365.88
566.197	373.88
566.408	365.88
566.62	346.88
566.832	377.88
567.044	380.88
567.255	411.88
567.467	386.88
567.679	382.88
567.891	396.88
568.102	375.88
568.314	379.88
568.526	379.88
568.737	353.88
568.949	362.88
569.161	343.88
569.372	354.88
569.584	369.88
569.795	361.88
570.007	370.88
570.218	410.88
570.43	423.88
570.641	350.88
570.853	341.88
571.064	335.88
571.276	322.88
571.487	334.88
571.698	323.88
571.91	319.88
572.121	326.88
572.333	302.88
572.544	320.88
572.755	317.88
572.966	341.88
573.178	294.88
573.389	314.88
573.6	319.88
573.811	312.88
574.023	308.88
574.234	325.88
574.445	298.88
574.656	293.88
574.867	304.88
575.078	315.88
575.289	300.88
575.501	316.88
575.712	297.88
575.923	296.88
576.134	287.88
576.345	299.88
576.556	302.88
576.767	300.88
576.978	307.88
577.188	307.88
577.399	302.88
577.61	299.88
577.821	306.88
578.032	290.88
578.243	362.88
578.454	728.88
578.665	497.88
578.875	326.88
579.086	296.88
579.297	306.88
579.508	283.88
579.718	279.88
579.929	273.88
580.14	295.88
580.35	296.88
580.561	278.88
580.772	283.88
580.982	270.88
581.193	258.88
581.403	272.88
581.614	290.88
581.825	292.88
582.035	262.88
582.246	275.88
582.456	272.88
582.667	270.88
582.877	280.88
583.087	279.88
583.298	271.88
583.508	274.88
583.719	298.88
583.929	276.88
584.139	258.88
584.35	291.88
584.56	302.88
584.77	278.88
584.981	277.88
585.191	280.88
585.401	273.88
585.611	266.88
585.821	280.88
586.032	276.88
586.242	258.88
586.452	265.88
586.662	260.88
586.872	267.88
587.082	269.88
587.292	265.88
587.502	267.88
587.713	277.88
587.923	280.88
588.133	260.88
588.343	240.88
588.553	263.88
588.762	278.88
588.972	272.88
589.182	265.88
589.392	277.88
589.602	270.88
589.812	268.88
590.022	277.88
590.232	262.88
590.441	280.88
590.651	249.88
590.861	246.88
591.071	276.88
591.281	274.88
591.49	266.88
591.7	278.88
591.91	283.88
592.119	265.88
592.329	263.88
592.539	281.88
592.748	271.88
592.958	275.88
593.167	263.88
593.377	270.88
593.587	269.88
593.796	258.88
594.006	268.88
594.215	276.88
594.424	268.88
594.634	254.88
594.843	267.88
595.053	276.88
595.262	264.88
595.472	252.88
595.681	248.88
595.89	251.88
596.1	265.88
596.309	233.88
596.518	264.88
596.727	248.88
596.937	269.88
597.146	263.88
597.355	237.88
597.564	235.88
597.774	253.88
597.983	225.88
598.192	231.88
598.401	243.88
598.61	240.88
598.819	242.88
599.028	231.88
599.237	226.88
599.446	231.88
599.655	240.88
599.864	235.88
600.073	240.88
600.282	245.88
600.491	229.88
600.7	240.88
600.909	226.88
601.118	246.88
601.327	233.88
601.536	223.88
601.745	229.88
601.953	228.88
602.162	248.88
602.371	231.88
602.58	219.88
602.789	235.88
602.997	228.88
603.206	233.88
603.415	224.88
603.623	216.88
603.832	216.88
604.041	216.88
604.249	209.88
604.458	212.88
604.666	234.88
604.875	224.88
605.084	237.88
605.292	211.88
605.501	218.88
605.709	223.88
605.918	214.88
606.126	223.88
606.334	218.88
606.543	225.88
606.751	225.88
606.96	223.88
607.168	206.88
607.376	228.88
607.585	217.88
607.793	221.88
608.001	208.88
608.21	224.88
608.418	205.88
608.626	213.88
608.834	217.88
609.043	221.88
609.251	220.88
609.459	221.88
609.667	216.88
609.875	221.88
610.083	221.88
610.291	209.88
610.499	214.88
610.707	230.88
610.916	228.88
611.124	223.88
611.332	216.88
611.54	234.88
611.748	218.88
611.955	198.88
612.163	197.88
612.371	204.88
612.579	210.88
612.787	214.88
612.995	233.88
613.203	234.88
613.411	206.88
613.618	220.88
613.826	218.88
614.034	195.88
614.242	210.88
614.449	217.88
614.657	211.88
614.865	213.88
615.072	214.88
615.28	226.88
615.488	202.88
615.695	212.88
615.903	191.88
616.111	225.88
616.318	217.88
616.526	209.88
616.733	212.88
616.941	198.88
617.148	201.88
617.356	212.88
617.563	196.88
617.771	215.88
617.978	200.88
618.185	202.88
618.393	207.88
618.6	211.88
618.807	205.88
619.015	200.88
619.222	219.88
619.429	196.88
619.637	208.88
619.844	208.88
620.051	203.88
620.258	212.88
620.466	210.88
620.673	191.88
620.88	195.88
621.087	209.88
621.294	200.88
621.501	206.88
621.708	205.88
621.915	188.88
622.122	208.88
622.329	220.88
622.536	182.88
622.743	216.88
622.95	224.88
623.157	210.88
623.364	210.88
623.571	197.88
623.778	214.88
623.985	200.88
624.192	212.88
624.399	206.88
624.606	200.88
624.812	189.88
625.019	200.88
625.226	184.88
625.433	202.88
625.639	194.88
625.846	205.88
626.053	209.88
626.259	200.88
626.466	195.88
626.673	168.88
626.879	199.88
627.086	192.88
627.293	195.88
627.499	197.88
627.706	194.88
627.912	184.88
628.119	187.88
628.325	189.88
628.532	196.88
628.738	199.88
628.945	183.88
629.151	178.88
629.357	181.88
629.564	181.88
629.77	175.88
629.976	201.88
630.183	196.88
630.389	188.88
630.595	193.88
630.802	184.88
631.008	187.88
631.214	191.88
631.42	181.88
631.627	190.88
631.833	182.88
632.039	169.88
632.245	172.88
632.451	176.88
632.657	180.88
632.863	184.88
633.069	188.88
633.275	159.88
633.481	169.88
633.688	176.88
633.893	173.88
634.099	164.88
634.305	169.88
634.511	173.88
634.717	167.88
634.923	165.88
635.129	149.88
635.335	160.88
635.541	168.88
635.747	173.88
635.952	165.88
636.158	168.88
636.364	152.88
636.57	160.88
636.775	168.88
636.981	179.88
637.187	155.88
637.392	165.88
637.598	155.88
637.804	172.88
638.009	157.88
638.215	161.88
638.421	163.88
638.626	162.88
638.832	167.88
639.037	138.88
639.243	168.88
639.448	151.88
639.654	145.88
639.859	141.88
640.065	142.88
640.27	162.88
640.475	160.88
640.681	169.88
640.886	150.88
641.091	157.88
641.297	166.88
641.502	159.88
641.707	150.88
641.913	162.88
642.118	162.88
642.323	157.88
642.528	155.88
642.733	149.88
642.939	161.88
643.144	157.88
643.349	161.88
643.554	160.88
643.759	155.88
643.964	161.88
644.169	142.88
644.374	149.88
644.579	152.88
644.784	144.88
644.989	140.88
645.194	163.88
645.399	162.88
645.604	153.88
645.809	156.88
646.014	156.88
646.219	148.88
646.423	176.88
646.628	151.88
646.833	152.88
647.038	151.88
647.243	141.88
647.447	154.88
647.652	153.88
647.857	137.88
648.062	141.88
648.266	150.88
648.471	155.88
648.676	146.88
648.88	169.88
649.085	138.88
649.289	156.88
649.494	161.88
649.698	176.88
649.903	179.88
650.107	161.88
650.312	138.88
650.516	152.88
650.721	146.88
650.925	133.88
651.13	141.88
651.334	150.88
651.539	143.88
651.743	144.88
651.947	120.88
652.152	128.88
652.356	138.88
652.56	129.88
652.764	131.88
652.969	136.88
653.173	134.88
653.377	148.88
653.581	141.88
653.785	118.88
653.99	122.88
654.194	128.88
654.398	130.88
654.602	133.88
654.806	132.88
655.01	130.88
655.214	129.88
655.418	127.88
655.622	128.88
655.826	142.88
656.03	108.88
656.234	128.88
656.438	127.88
656.642	116.88
656.846	119.88
657.049	110.88
657.253	113.88
657.457	107.88
657.661	99.88
657.865	104.88
658.068	107.88
658.272	108.88
658.476	102.88
658.68	102.88
658.883	93.88
659.087	97.88
659.291	93.88
659.494	94.88
659.698	123.88
659.901	92.88
660.105	93.88
660.309	78.88
660.512	91.88
660.716	80.88
660.919	93.88
661.123	106.88
661.326	75.88
661.53	72.88
661.733	86.88
661.936	100.88
662.14	83.88
662.343	88.88
662.546	68.88
662.75	81.88
662.953	103.88
663.156	92.88
663.36	89.88
663.563	82.88
663.766	86.88
663.969	79.88
664.173	84.88
664.376	68.88
664.579	82.88
664.782	78.88
664.985	84.88
665.188	86.88
665.391	75.88
665.594	96.88
665.797	95.88
666	78.88
666.203	76.88
666.406	81.88
666.609	78.88
666.812	84.88
667.015	72.88
667.218	91.88
667.421	87.88
667.624	82.88
667.827	73.88
668.03	86.88
668.232	77.88
668.435	83.88
668.638	81.88
668.841	96.88
669.043	82.88
669.246	94.88
669.449	86.88
669.651	83.88
669.854	71.88
670.057	75.88
670.259	75.88
670.462	86.88
670.665	79.88
670.867	76.88
671.07	90.88
671.272	88.88
671.475	84.88
671.677	82.88
671.88	91.88
672.082	85.88
672.284	76.88
672.487	72.88
672.689	73.88
672.892	85.88
