Data from 1987.PennyLincolnUp.Lamp.En5.5.200Scan.071819.P2_HRD10591_17-14-04-972.txt Node
Date: Thu Jul 18 17:14:04 EDT 2019
User: cochatt
Spectrometer: HR+D1059
Trigger mode: 1
Integration Time (sec): 1.000000E-1
Scans to average: 1
Electric dark correction enabled: true
Nonlinearity correction enabled: false
Boxcar width: 0
XAxis mode: Wavelengths
Number of Pixels in Spectrum: 2048
>>>>>Begin Spectral Data<<<<<
223.165	-13.62
223.4	-13.62
223.635	-13.62
223.869	-16.62
224.104	-12.62
224.338	-22.62
224.573	-11.62
224.808	-9.62
225.042	0.38
225.277	6.38
225.511	2.38
225.746	1.38
225.98	6.38
226.215	5.38
226.449	15.38
226.683	4.38
226.918	24.38
227.152	20.38
227.387	35.38
227.621	47.38
227.856	46.38
228.09	28.38
228.324	52.38
228.559	56.38
228.793	68.38
229.027	97.38
229.262	100.38
229.496	117.38
229.73	127.38
229.964	143.38
230.199	127.38
230.433	114.38
230.667	107.38
230.901	106.38
231.136	112.38
231.37	109.38
231.604	96.38
231.838	115.38
232.072	100.38
232.306	114.38
232.541	99.38
232.775	116.38
233.009	118.38
233.243	113.38
233.477	103.38
233.711	110.38
233.945	87.38
234.179	108.38
234.413	111.38
234.647	118.38
234.881	117.38
235.115	124.38
235.349	115.38
235.583	107.38
235.817	124.38
236.051	126.38
236.285	114.38
236.519	100.38
236.753	136.38
236.987	143.38
237.221	175.38
237.455	224.38
237.689	192.38
237.922	132.38
238.156	130.38
238.39	137.38
238.624	117.38
238.858	124.38
239.091	119.38
239.325	110.38
239.559	112.38
239.793	112.38
240.027	124.38
240.26	137.38
240.494	145.38
240.728	142.38
240.961	127.38
241.195	124.38
241.429	115.38
241.662	130.38
241.896	127.38
242.13	141.38
242.363	123.38
242.597	120.38
242.83	124.38
243.064	120.38
243.298	145.38
243.531	120.38
243.765	132.38
243.998	116.38
244.232	131.38
244.465	128.38
244.699	128.38
244.932	122.38
245.166	123.38
245.399	129.38
245.633	126.38
245.866	123.38
246.099	130.38
246.333	138.38
246.566	153.38
246.8	134.38
247.033	146.38
247.266	139.38
247.5	146.38
247.733	146.38
247.966	147.38
248.2	160.38
248.433	151.38
248.666	166.38
248.899	169.38
249.133	170.38
249.366	176.38
249.599	162.38
249.832	158.38
250.066	160.38
250.299	160.38
250.532	176.38
250.765	177.38
250.998	187.38
251.231	198.38
251.465	181.38
251.698	185.38
251.931	187.38
252.164	166.38
252.397	168.38
252.63	180.38
252.863	176.38
253.096	199.38
253.329	214.38
253.562	208.38
253.795	197.38
254.028	187.38
254.261	199.38
254.494	217.38
254.727	226.38
254.96	236.38
255.193	230.38
255.426	211.38
255.659	206.38
255.892	190.38
256.124	194.38
256.357	172.38
256.59	172.38
256.823	184.38
257.056	178.38
257.289	187.38
257.521	184.38
257.754	186.38
257.987	174.38
258.22	184.38
258.452	171.38
258.685	188.38
258.918	182.38
259.151	184.38
259.383	180.38
259.616	192.38
259.849	186.38
260.081	192.38
260.314	214.38
260.547	214.38
260.779	217.38
261.012	213.38
261.244	181.38
261.477	202.38
261.71	188.38
261.942	192.38
262.175	203.38
262.407	214.38
262.64	183.38
262.872	179.38
263.105	180.38
263.337	186.38
263.57	173.38
263.802	172.38
264.035	157.38
264.267	184.38
264.499	164.38
264.732	170.38
264.964	186.38
265.197	171.38
265.429	162.38
265.661	182.38
265.894	184.38
266.126	168.38
266.358	163.38
266.591	185.38
266.823	162.38
267.055	192.38
267.287	194.38
267.52	172.38
267.752	183.38
267.984	187.38
268.216	180.38
268.448	166.38
268.681	188.38
268.913	196.38
269.145	210.38
269.377	201.38
269.609	227.38
269.841	225.38
270.073	224.38
270.306	232.38
270.538	270.38
270.77	242.38
271.002	260.38
271.234	235.38
271.466	244.38
271.698	251.38
271.93	266.38
272.162	267.38
272.394	254.38
272.626	263.38
272.858	248.38
273.09	237.38
273.322	244.38
273.553	203.38
273.785	218.38
274.017	204.38
274.249	216.38
274.481	212.38
274.713	208.38
274.945	217.38
275.176	204.38
275.408	202.38
275.64	208.38
275.872	201.38
276.104	219.38
276.335	225.38
276.567	209.38
276.799	232.38
277.031	237.38
277.262	256.38
277.494	260.38
277.726	248.38
277.957	229.38
278.189	220.38
278.421	215.38
278.652	229.38
278.884	206.38
279.115	192.38
279.347	206.38
279.579	207.38
279.81	205.38
280.042	220.38
280.273	218.38
280.505	199.38
280.736	205.38
280.968	192.38
281.199	191.38
281.431	199.38
281.662	203.38
281.894	198.38
282.125	195.38
282.356	230.38
282.588	226.38
282.819	236.38
283.051	205.38
283.282	205.38
283.513	193.38
283.745	210.38
283.976	206.38
284.207	197.38
284.439	225.38
284.67	216.38
284.901	219.38
285.132	205.38
285.364	211.38
285.595	212.38
285.826	198.38
286.057	224.38
286.288	202.38
286.52	221.38
286.751	213.38
286.982	212.38
287.213	206.38
287.444	216.38
287.675	214.38
287.906	201.38
288.138	218.38
288.369	238.38
288.6	233.38
288.831	216.38
289.062	215.38
289.293	220.38
289.524	216.38
289.755	209.38
289.986	187.38
290.217	221.38
290.448	220.38
290.679	211.38
290.91	219.38
291.141	225.38
291.371	212.38
291.602	191.38
291.833	217.38
292.064	196.38
292.295	216.38
292.526	213.38
292.757	210.38
292.987	212.38
293.218	212.38
293.449	213.38
293.68	216.38
293.91	213.38
294.141	199.38
294.372	215.38
294.603	211.38
294.833	211.38
295.064	209.38
295.295	201.38
295.525	213.38
295.756	212.38
295.987	208.38
296.217	260.38
296.448	274.38
296.679	223.38
296.909	212.38
297.14	215.38
297.37	221.38
297.601	217.38
297.831	221.38
298.062	213.38
298.292	216.38
298.523	228.38
298.753	231.38
298.984	213.38
299.214	222.38
299.445	228.38
299.675	211.38
299.905	226.38
300.136	230.38
300.366	210.38
300.597	203.38
300.827	224.38
301.057	219.38
301.288	226.38
301.518	236.38
301.748	224.38
301.979	245.38
302.209	250.38
302.439	222.38
302.669	229.38
302.9	239.38
303.13	233.38
303.36	229.38
303.59	226.38
303.82	244.38
304.051	249.38
304.281	242.38
304.511	238.38
304.741	222.38
304.971	230.38
305.201	241.38
305.431	242.38
305.661	227.38
305.891	225.38
306.121	243.38
306.352	240.38
306.582	230.38
306.812	256.38
307.042	241.38
307.272	252.38
307.502	245.38
307.731	236.38
307.961	233.38
308.191	253.38
308.421	231.38
308.651	233.38
308.881	254.38
309.111	251.38
309.341	262.38
309.571	284.38
309.8	272.38
310.03	294.38
310.26	296.38
310.49	289.38
310.72	280.38
310.949	312.38
311.179	308.38
311.409	284.38
311.639	278.38
311.868	301.38
312.098	304.38
312.328	270.38
312.557	308.38
312.787	342.38
313.017	321.38
313.246	291.38
313.476	283.38
313.706	288.38
313.935	299.38
314.165	307.38
314.394	322.38
314.624	300.38
314.853	302.38
315.083	273.38
315.312	274.38
315.542	279.38
315.771	277.38
316.001	268.38
316.23	262.38
316.46	278.38
316.689	292.38
316.919	275.38
317.148	297.38
317.377	286.38
317.607	297.38
317.836	275.38
318.065	296.38
318.295	282.38
318.524	283.38
318.753	289.38
318.983	276.38
319.212	295.38
319.441	292.38
319.67	301.38
319.9	282.38
320.129	290.38
320.358	288.38
320.587	288.38
320.816	296.38
321.046	304.38
321.275	316.38
321.504	325.38
321.733	294.38
321.962	309.38
322.191	324.38
322.42	326.38
322.649	344.38
322.878	362.38
323.108	348.38
323.337	390.38
323.566	424.38
323.795	458.38
324.024	507.38
324.253	613.38
324.482	872.38
324.71	1326.38
324.939	1899.38
325.168	1686.38
325.397	919.38
325.626	607.38
325.855	489.38
326.084	448.38
326.313	425.38
326.542	429.38
326.77	441.38
326.999	576.38
327.228	763.38
327.457	1152.38
327.686	1474.38
327.914	984.38
328.143	657.38
328.372	544.38
328.6	499.38
328.829	480.38
329.058	508.38
329.287	505.38
329.515	426.38
329.744	405.38
329.972	396.38
330.201	386.38
330.43	410.38
330.658	449.38
330.887	486.38
331.115	521.38
331.344	437.38
331.572	383.38
331.801	390.38
332.03	367.38
332.258	353.38
332.486	343.38
332.715	343.38
332.943	329.38
333.172	334.38
333.4	339.38
333.629	317.38
333.857	357.38
334.085	360.38
334.314	326.38
334.542	343.38
334.771	352.38
334.999	345.38
335.227	343.38
335.455	327.38
335.684	320.38
335.912	332.38
336.14	325.38
336.369	315.38
336.597	336.38
336.825	334.38
337.053	326.38
337.281	326.38
337.51	322.38
337.738	323.38
337.966	320.38
338.194	324.38
338.422	312.38
338.65	310.38
338.878	321.38
339.106	312.38
339.334	320.38
339.562	326.38
339.79	321.38
340.018	300.38
340.246	326.38
340.474	335.38
340.702	317.38
340.93	315.38
341.158	332.38
341.386	311.38
341.614	323.38
341.842	333.38
342.07	321.38
342.298	321.38
342.526	320.38
342.754	293.38
342.981	280.38
343.209	310.38
343.437	309.38
343.665	313.38
343.893	318.38
344.12	313.38
344.348	314.38
344.576	321.38
344.804	319.38
345.031	348.38
345.259	350.38
345.487	329.38
345.714	345.38
345.942	330.38
346.17	319.38
346.397	306.38
346.625	331.38
346.853	312.38
347.08	332.38
347.308	332.38
347.535	341.38
347.763	331.38
347.99	333.38
348.218	326.38
348.445	347.38
348.673	340.38
348.9	314.38
349.128	294.38
349.355	308.38
349.583	303.38
349.81	305.38
350.037	307.38
350.265	314.38
350.492	309.38
350.72	296.38
350.947	345.38
351.174	326.38
351.402	318.38
351.629	337.38
351.856	338.38
352.083	339.38
352.311	346.38
352.538	343.38
352.765	338.38
352.992	339.38
353.22	333.38
353.447	326.38
353.674	333.38
353.901	292.38
354.128	306.38
354.355	291.38
354.583	302.38
354.81	291.38
355.037	303.38
355.264	291.38
355.491	293.38
355.718	297.38
355.945	306.38
356.172	300.38
356.399	297.38
356.626	275.38
356.853	290.38
357.08	288.38
357.307	281.38
357.534	289.38
357.761	279.38
357.988	299.38
358.215	288.38
358.441	285.38
358.668	309.38
358.895	298.38
359.122	292.38
359.349	310.38
359.576	317.38
359.802	338.38
360.029	378.38
360.256	384.38
360.483	364.38
360.709	347.38
360.936	321.38
361.163	337.38
361.39	324.38
361.616	331.38
361.843	310.38
362.07	329.38
362.296	317.38
362.523	327.38
362.749	313.38
362.976	304.38
363.203	304.38
363.429	300.38
363.656	308.38
363.882	315.38
364.109	310.38
364.335	308.38
364.562	302.38
364.788	294.38
365.015	277.38
365.241	308.38
365.468	329.38
365.694	314.38
365.92	322.38
366.147	288.38
366.373	316.38
366.599	304.38
366.826	279.38
367.052	297.38
367.278	304.38
367.505	315.38
367.731	301.38
367.957	301.38
368.184	294.38
368.41	303.38
368.636	322.38
368.862	305.38
369.089	315.38
369.315	304.38
369.541	301.38
369.767	280.38
369.993	299.38
370.219	293.38
370.445	308.38
370.672	313.38
370.898	304.38
371.124	289.38
371.35	292.38
371.576	284.38
371.802	282.38
372.028	299.38
372.254	302.38
372.48	278.38
372.706	292.38
372.932	301.38
373.158	297.38
373.384	281.38
373.61	299.38
373.835	291.38
374.061	306.38
374.287	291.38
374.513	304.38
374.739	308.38
374.965	309.38
375.191	306.38
375.416	304.38
375.642	316.38
375.868	292.38
376.094	288.38
376.319	302.38
376.545	314.38
376.771	294.38
376.997	282.38
377.222	314.38
377.448	291.38
377.674	298.38
377.899	281.38
378.125	288.38
378.35	299.38
378.576	288.38
378.802	294.38
379.027	291.38
379.253	291.38
379.478	295.38
379.704	312.38
379.929	306.38
380.155	293.38
380.38	288.38
380.606	303.38
380.831	304.38
381.057	300.38
381.282	296.38
381.507	297.38
381.733	309.38
381.958	300.38
382.184	299.38
382.409	316.38
382.634	300.38
382.86	312.38
383.085	307.38
383.31	322.38
383.535	306.38
383.761	311.38
383.986	297.38
384.211	294.38
384.436	313.38
384.662	314.38
384.887	313.38
385.112	299.38
385.337	309.38
385.562	331.38
385.787	325.38
386.013	322.38
386.238	320.38
386.463	312.38
386.688	327.38
386.913	318.38
387.138	317.38
387.363	312.38
387.588	325.38
387.813	317.38
388.038	323.38
388.263	321.38
388.488	296.38
388.713	316.38
388.938	324.38
389.163	337.38
389.387	321.38
389.612	318.38
389.837	331.38
390.062	315.38
390.287	319.38
390.512	329.38
390.736	307.38
390.961	318.38
391.186	321.38
391.411	321.38
391.636	341.38
391.86	314.38
392.085	324.38
392.31	327.38
392.534	328.38
392.759	316.38
392.984	334.38
393.208	320.38
393.433	350.38
393.658	342.38
393.882	333.38
394.107	315.38
394.331	310.38
394.556	315.38
394.78	332.38
395.005	318.38
395.229	321.38
395.454	333.38
395.678	339.38
395.903	342.38
396.127	351.38
396.352	355.38
396.576	363.38
396.801	342.38
397.025	351.38
397.249	362.38
397.474	344.38
397.698	348.38
397.922	346.38
398.147	345.38
398.371	361.38
398.595	368.38
398.82	347.38
399.044	362.38
399.268	363.38
399.492	386.38
399.717	380.38
399.941	420.38
400.165	420.38
400.389	437.38
400.613	428.38
400.837	390.38
401.062	365.38
401.286	380.38
401.51	376.38
401.734	372.38
401.958	355.38
402.182	376.38
402.406	378.38
402.63	382.38
402.854	384.38
403.078	372.38
403.302	374.38
403.526	382.38
403.75	381.38
403.974	364.38
404.198	366.38
404.422	366.38
404.645	391.38
404.869	370.38
405.093	384.38
405.317	409.38
405.541	452.38
405.765	412.38
405.988	391.38
406.212	418.38
406.436	430.38
406.66	442.38
406.883	429.38
407.107	434.38
407.331	469.38
407.555	514.38
407.778	517.38
408.002	488.38
408.226	448.38
408.449	430.38
408.673	426.38
408.896	454.38
409.12	488.38
409.344	461.38
409.567	410.38
409.791	402.38
410.014	381.38
410.238	381.38
410.461	417.38
410.685	396.38
410.908	400.38
411.132	424.38
411.355	450.38
411.578	455.38
411.802	411.38
412.025	400.38
412.249	377.38
412.472	395.38
412.695	401.38
412.919	404.38
413.142	371.38
413.365	356.38
413.589	376.38
413.812	352.38
414.035	361.38
414.258	357.38
414.482	342.38
414.705	371.38
414.928	378.38
415.151	355.38
415.374	340.38
415.597	355.38
415.821	369.38
416.044	361.38
416.267	362.38
416.49	363.38
416.713	363.38
416.936	394.38
417.159	374.38
417.382	373.38
417.605	375.38
417.828	387.38
418.051	389.38
418.274	381.38
418.497	367.38
418.72	376.38
418.943	371.38
419.166	392.38
419.389	392.38
419.611	381.38
419.834	396.38
420.057	384.38
420.28	373.38
420.503	387.38
420.726	393.38
420.948	412.38
421.171	441.38
421.394	468.38
421.617	434.38
421.839	396.38
422.062	414.38
422.285	398.38
422.507	453.38
422.73	520.38
422.953	506.38
423.175	474.38
423.398	431.38
423.621	427.38
423.843	420.38
424.066	456.38
424.288	413.38
424.511	462.38
424.733	509.38
424.956	568.38
425.178	590.38
425.401	578.38
425.623	570.38
425.846	497.38
426.068	458.38
426.291	446.38
426.513	441.38
426.735	441.38
426.958	494.38
427.18	572.38
427.402	677.38
427.625	736.38
427.847	667.38
428.069	584.38
428.292	515.38
428.514	470.38
428.736	466.38
428.958	429.38
429.181	425.38
429.403	431.38
429.625	434.38
429.847	460.38
430.069	512.38
430.292	506.38
430.514	453.38
430.736	454.38
430.958	423.38
431.18	388.38
431.402	412.38
431.624	395.38
431.846	393.38
432.068	379.38
432.29	408.38
432.512	411.38
432.734	398.38
432.956	402.38
433.178	411.38
433.4	421.38
433.622	386.38
433.844	391.38
434.066	384.38
434.287	373.38
434.509	372.38
434.731	398.38
434.953	412.38
435.175	424.38
435.397	450.38
435.618	460.38
435.84	498.38
436.062	589.38
436.284	661.38
436.505	556.38
436.727	470.38
436.949	442.38
437.17	451.38
437.392	441.38
437.614	429.38
437.835	467.38
438.057	564.38
438.278	644.38
438.5	640.38
438.721	686.38
438.943	691.38
439.165	561.38
439.386	482.38
439.608	497.38
439.829	474.38
440.05	496.38
440.272	533.38
440.493	502.38
440.715	457.38
440.936	456.38
441.158	425.38
441.379	423.38
441.6	419.38
441.822	454.38
442.043	518.38
442.264	573.38
442.486	594.38
442.707	502.38
442.928	494.38
443.149	493.38
443.371	490.38
443.592	554.38
443.813	604.38
444.034	641.38
444.255	556.38
444.476	482.38
444.698	479.38
444.919	451.38
445.14	534.38
445.361	496.38
445.582	488.38
445.803	539.38
446.024	632.38
446.245	646.38
446.466	594.38
446.687	514.38
446.908	463.38
447.129	452.38
447.35	421.38
447.571	434.38
447.792	431.38
448.013	434.38
448.234	450.38
448.455	493.38
448.675	592.38
448.896	649.38
449.117	590.38
449.338	587.38
449.559	641.38
449.779	708.38
450	586.38
450.221	492.38
450.442	431.38
450.662	428.38
450.883	432.38
451.104	427.38
451.324	448.38
451.545	428.38
451.766	399.38
451.986	403.38
452.207	363.38
452.428	375.38
452.648	380.38
452.869	396.38
453.089	392.38
453.31	407.38
453.53	404.38
453.751	380.38
453.971	395.38
454.192	388.38
454.412	390.38
454.633	380.38
454.853	403.38
455.073	373.38
455.294	401.38
455.514	490.38
455.734	472.38
455.955	396.38
456.175	393.38
456.395	342.38
456.616	339.38
456.836	343.38
457.056	354.38
457.276	346.38
457.497	355.38
457.717	365.38
457.937	357.38
458.157	394.38
458.377	378.38
458.598	380.38
458.818	451.38
459.038	527.38
459.258	555.38
459.478	435.38
459.698	392.38
459.918	387.38
460.138	402.38
460.358	391.38
460.578	376.38
460.798	390.38
461.018	382.38
461.238	380.38
461.458	380.38
461.678	380.38
461.898	383.38
462.118	377.38
462.338	389.38
462.558	382.38
462.777	401.38
462.997	393.38
463.217	399.38
463.437	388.38
463.657	390.38
463.876	407.38
464.096	397.38
464.316	410.38
464.536	412.38
464.755	392.38
464.975	427.38
465.195	459.38
465.414	539.38
465.634	491.38
465.854	429.38
466.073	383.38
466.293	396.38
466.512	394.38
466.732	388.38
466.951	410.38
467.171	368.38
467.391	389.38
467.61	393.38
467.829	406.38
468.049	382.38
468.268	376.38
468.488	378.38
468.707	361.38
468.927	370.38
469.146	380.38
469.365	373.38
469.585	357.38
469.804	378.38
470.023	386.38
470.243	398.38
470.462	392.38
470.681	428.38
470.901	420.38
471.12	380.38
471.339	401.38
471.558	389.38
471.777	390.38
471.997	390.38
472.216	386.38
472.435	400.38
472.654	400.38
472.873	374.38
473.092	388.38
473.311	385.38
473.53	377.38
473.749	404.38
473.968	433.38
474.187	552.38
474.406	572.38
474.625	456.38
474.844	399.38
475.063	409.38
475.282	400.38
475.501	384.38
475.72	416.38
475.939	395.38
476.158	400.38
476.377	397.38
476.596	416.38
476.814	395.38
477.033	418.38
477.252	427.38
477.471	423.38
477.69	407.38
477.908	417.38
478.127	412.38
478.346	415.38
478.564	411.38
478.783	418.38
479.002	436.38
479.22	427.38
479.439	430.38
479.658	482.38
479.876	485.38
480.095	503.38
480.313	501.38
480.532	486.38
480.751	473.38
480.969	468.38
481.188	500.38
481.406	490.38
481.624	476.38
481.843	451.38
482.061	466.38
482.28	461.38
482.498	459.38
482.717	454.38
482.935	484.38
483.153	456.38
483.372	452.38
483.59	434.38
483.808	480.38
484.027	471.38
484.245	452.38
484.463	476.38
484.681	467.38
484.9	467.38
485.118	483.38
485.336	479.38
485.554	479.38
485.772	481.38
485.99	473.38
486.209	514.38
486.427	457.38
486.645	476.38
486.863	504.38
487.081	518.38
487.299	505.38
487.517	508.38
487.735	518.38
487.953	502.38
488.171	496.38
488.389	499.38
488.607	506.38
488.825	524.38
489.043	510.38
489.261	512.38
489.479	504.38
489.696	516.38
489.914	516.38
490.132	524.38
490.35	515.38
490.568	532.38
490.786	532.38
491.003	548.38
491.221	550.38
491.439	560.38
491.657	572.38
491.874	560.38
492.092	581.38
492.31	583.38
492.527	593.38
492.745	572.38
492.963	605.38
493.18	598.38
493.398	592.38
493.615	594.38
493.833	598.38
494.05	600.38
494.268	591.38
494.485	585.38
494.703	598.38
494.92	619.38
495.138	589.38
495.355	614.38
495.573	596.38
495.79	606.38
496.008	601.38
496.225	595.38
496.442	603.38
496.66	616.38
496.877	618.38
497.094	592.38
497.312	598.38
497.529	609.38
497.746	634.38
497.963	620.38
498.181	634.38
498.398	656.38
498.615	644.38
498.832	667.38
499.049	655.38
499.267	653.38
499.484	673.38
499.701	683.38
499.918	700.38
500.135	708.38
500.352	720.38
500.569	755.38
500.786	736.38
501.003	729.38
501.22	718.38
501.437	729.38
501.654	719.38
501.871	753.38
502.088	732.38
502.305	664.38
502.522	660.38
502.739	665.38
502.956	630.38
503.172	636.38
503.389	616.38
503.606	608.38
503.823	656.38
504.04	637.38
504.256	613.38
504.473	626.38
504.69	621.38
504.907	619.38
505.123	610.38
505.34	593.38
505.557	604.38
505.773	617.38
505.99	599.38
506.207	595.38
506.423	602.38
506.64	590.38
506.856	568.38
507.073	576.38
507.289	590.38
507.506	564.38
507.722	610.38
507.939	632.38
508.155	606.38
508.372	585.38
508.588	563.38
508.805	585.38
509.021	576.38
509.238	583.38
509.454	600.38
509.67	581.38
509.887	568.38
510.103	592.38
510.319	571.38
510.536	691.38
510.752	1186.38
510.968	978.38
511.184	626.38
511.401	592.38
511.617	591.38
511.833	545.38
512.049	555.38
512.265	566.38
512.481	543.38
512.698	562.38
512.914	555.38
513.13	555.38
513.346	545.38
513.562	558.38
513.778	576.38
513.994	574.38
514.21	589.38
514.426	606.38
514.642	664.38
514.858	676.38
515.074	723.38
515.29	868.38
515.506	1284.38
515.721	1078.38
515.937	698.38
516.153	637.38
516.369	636.38
516.585	577.38
516.801	532.38
517.016	557.38
517.232	566.38
517.448	568.38
517.664	568.38
517.879	561.38
518.095	552.38
518.311	568.38
518.527	523.38
518.742	536.38
518.958	556.38
519.173	535.38
519.389	563.38
519.605	537.38
519.82	545.38
520.036	563.38
520.251	597.38
520.467	632.38
520.682	626.38
520.898	654.38
521.113	688.38
521.329	725.38
521.544	794.38
521.76	1069.38
521.975	1727.38
522.19	1690.38
522.406	901.38
522.621	672.38
522.836	617.38
523.052	580.38
523.267	552.38
523.482	538.38
523.698	518.38
523.913	542.38
524.128	512.38
524.343	480.38
524.559	506.38
524.774	486.38
524.989	484.38
525.204	488.38
525.419	503.38
525.634	479.38
525.849	477.38
526.064	459.38
526.28	459.38
526.495	457.38
526.71	468.38
526.925	446.38
527.14	452.38
527.355	457.38
527.57	446.38
527.785	457.38
527.999	440.38
528.214	432.38
528.429	448.38
528.644	440.38
528.859	449.38
529.074	440.38
529.289	484.38
529.503	562.38
529.718	535.38
529.933	483.38
530.148	444.38
530.363	441.38
530.577	445.38
530.792	430.38
531.007	424.38
531.221	420.38
531.436	439.38
531.651	425.38
531.865	436.38
532.08	407.38
532.295	405.38
532.509	428.38
532.724	437.38
532.938	426.38
533.153	420.38
533.367	403.38
533.582	408.38
533.796	425.38
534.011	414.38
534.225	438.38
534.44	406.38
534.654	412.38
534.868	403.38
535.083	406.38
535.297	405.38
535.511	412.38
535.726	429.38
535.94	426.38
536.154	427.38
536.369	401.38
536.583	417.38
536.797	398.38
537.011	390.38
537.225	388.38
537.44	379.38
537.654	388.38
537.868	384.38
538.082	389.38
538.296	396.38
538.51	416.38
538.724	410.38
538.938	398.38
539.153	385.38
539.367	427.38
539.581	414.38
539.795	402.38
540.009	401.38
540.222	408.38
540.436	402.38
540.65	396.38
540.864	396.38
541.078	404.38
541.292	406.38
541.506	399.38
541.72	400.38
541.934	398.38
542.147	408.38
542.361	392.38
542.575	389.38
542.789	399.38
543.002	399.38
543.216	392.38
543.43	392.38
543.644	395.38
543.857	391.38
544.071	374.38
544.285	373.38
544.498	381.38
544.712	378.38
544.925	380.38
545.139	397.38
545.352	369.38
545.566	384.38
545.779	380.38
545.993	374.38
546.206	403.38
546.42	375.38
546.633	356.38
546.847	388.38
547.06	379.38
547.274	380.38
547.487	393.38
547.7	362.38
547.914	390.38
548.127	382.38
548.34	380.38
548.554	379.38
548.767	378.38
548.98	369.38
549.193	387.38
549.407	368.38
549.62	351.38
549.833	370.38
550.046	355.38
550.259	370.38
550.473	357.38
550.686	360.38
550.899	348.38
551.112	340.38
551.325	374.38
551.538	370.38
551.751	377.38
551.964	362.38
552.177	349.38
552.39	358.38
552.603	371.38
552.816	380.38
553.029	377.38
553.242	366.38
553.455	392.38
553.667	362.38
553.88	367.38
554.093	374.38
554.306	374.38
554.519	377.38
554.732	347.38
554.944	351.38
555.157	352.38
555.37	362.38
555.583	360.38
555.795	352.38
556.008	357.38
556.221	358.38
556.433	357.38
556.646	351.38
556.859	348.38
557.071	349.38
557.284	357.38
557.496	340.38
557.709	312.38
557.921	324.38
558.134	330.38
558.346	318.38
558.559	340.38
558.771	334.38
558.984	344.38
559.196	328.38
559.409	338.38
559.621	331.38
559.833	327.38
560.046	304.38
560.258	329.38
560.47	328.38
560.683	336.38
560.895	323.38
561.107	321.38
561.32	334.38
561.532	307.38
561.744	328.38
561.956	332.38
562.168	347.38
562.381	330.38
562.593	350.38
562.805	330.38
563.017	334.38
563.229	328.38
563.441	343.38
563.653	347.38
563.865	319.38
564.077	346.38
564.289	329.38
564.501	353.38
564.713	351.38
564.925	352.38
565.137	361.38
565.349	360.38
565.561	357.38
565.773	343.38
565.985	365.38
566.197	354.38
566.408	347.38
566.62	370.38
566.832	380.38
567.044	363.38
567.255	373.38
567.467	382.38
567.679	375.38
567.891	388.38
568.102	352.38
568.314	364.38
568.526	382.38
568.737	336.38
568.949	357.38
569.161	349.38
569.372	317.38
569.584	345.38
569.795	330.38
570.007	340.38
570.218	375.38
570.43	370.38
570.641	336.38
570.853	326.38
571.064	296.38
571.276	331.38
571.487	321.38
571.698	317.38
571.91	313.38
572.121	312.38
572.333	314.38
572.544	298.38
572.755	293.38
572.966	321.38
573.178	299.38
573.389	292.38
573.6	297.38
573.811	277.38
574.023	284.38
574.234	298.38
574.445	296.38
574.656	310.38
574.867	315.38
575.078	290.38
575.289	285.38
575.501	279.38
575.712	285.38
575.923	284.38
576.134	297.38
576.345	299.38
576.556	285.38
576.767	275.38
576.978	288.38
577.188	282.38
577.399	268.38
577.61	279.38
577.821	296.38
578.032	282.38
578.243	325.38
578.454	550.38
578.665	394.38
578.875	312.38
579.086	288.38
579.297	281.38
579.508	270.38
579.718	288.38
579.929	287.38
580.14	282.38
580.35	270.38
580.561	278.38
580.772	270.38
580.982	267.38
581.193	262.38
581.403	271.38
581.614	278.38
581.825	270.38
582.035	276.38
582.246	268.38
582.456	280.38
582.667	262.38
582.877	254.38
583.087	246.38
583.298	249.38
583.508	243.38
583.719	265.38
583.929	272.38
584.139	252.38
584.35	266.38
584.56	271.38
584.77	266.38
584.981	256.38
585.191	268.38
585.401	263.38
585.611	270.38
585.821	252.38
586.032	257.38
586.242	267.38
586.452	264.38
586.662	256.38
586.872	269.38
587.082	253.38
587.292	258.38
587.502	244.38
587.713	265.38
587.923	254.38
588.133	262.38
588.343	249.38
588.553	245.38
588.762	266.38
588.972	289.38
589.182	404.38
589.392	403.38
589.602	299.38
589.812	383.38
590.022	328.38
590.232	262.38
590.441	258.38
590.651	261.38
590.861	249.38
591.071	254.38
591.281	268.38
591.49	257.38
591.7	260.38
591.91	256.38
592.119	241.38
592.329	246.38
592.539	250.38
592.748	262.38
592.958	257.38
593.167	254.38
593.377	242.38
593.587	272.38
593.796	261.38
594.006	249.38
594.215	244.38
594.424	256.38
594.634	237.38
594.843	231.38
595.053	238.38
595.262	255.38
595.472	242.38
595.681	243.38
595.89	250.38
596.1	244.38
596.309	248.38
596.518	229.38
596.727	257.38
596.937	245.38
597.146	235.38
597.355	240.38
597.564	245.38
597.774	209.38
597.983	242.38
598.192	240.38
598.401	233.38
598.61	220.38
598.819	226.38
599.028	233.38
599.237	242.38
599.446	236.38
599.655	227.38
599.864	220.38
600.073	237.38
600.282	216.38
600.491	217.38
600.7	241.38
600.909	228.38
601.118	226.38
601.327	229.38
601.536	223.38
601.745	214.38
601.953	230.38
602.162	225.38
602.371	215.38
602.58	233.38
602.789	217.38
602.997	223.38
603.206	225.38
603.415	223.38
603.623	216.38
603.832	230.38
604.041	222.38
604.249	216.38
604.458	216.38
604.666	206.38
604.875	209.38
605.084	214.38
605.292	222.38
605.501	229.38
605.709	216.38
605.918	230.38
606.126	205.38
606.334	200.38
606.543	214.38
606.751	222.38
606.96	200.38
607.168	206.38
607.376	214.38
607.585	208.38
607.793	230.38
608.001	205.38
608.21	217.38
608.418	203.38
608.626	197.38
608.834	220.38
609.043	216.38
609.251	198.38
609.459	206.38
609.667	225.38
609.875	209.38
610.083	217.38
610.291	205.38
610.499	211.38
610.707	212.38
610.916	206.38
611.124	200.38
611.332	220.38
611.54	221.38
611.748	212.38
611.955	194.38
612.163	214.38
612.371	205.38
612.579	201.38
612.787	203.38
612.995	221.38
613.203	210.38
613.411	200.38
613.618	213.38
613.826	202.38
614.034	208.38
614.242	216.38
614.449	197.38
614.657	212.38
614.865	212.38
615.072	219.38
615.28	204.38
615.488	210.38
615.695	205.38
615.903	209.38
616.111	213.38
616.318	213.38
616.526	205.38
616.733	223.38
616.941	193.38
617.148	218.38
617.356	206.38
617.563	187.38
617.771	230.38
617.978	212.38
618.185	203.38
618.393	214.38
618.6	196.38
618.807	201.38
619.015	198.38
619.222	178.38
619.429	200.38
619.637	214.38
619.844	208.38
620.051	189.38
620.258	197.38
620.466	178.38
620.673	184.38
620.88	198.38
621.087	191.38
621.294	202.38
621.501	190.38
621.708	205.38
621.915	219.38
622.122	194.38
622.329	199.38
622.536	198.38
622.743	184.38
622.95	182.38
623.157	180.38
623.364	184.38
623.571	188.38
623.778	194.38
623.985	207.38
624.192	189.38
624.399	182.38
624.606	178.38
624.812	171.38
625.019	189.38
625.226	192.38
625.433	196.38
625.639	200.38
625.846	194.38
626.053	182.38
626.259	179.38
626.466	188.38
626.673	190.38
626.879	184.38
627.086	180.38
627.293	185.38
627.499	183.38
627.706	181.38
627.912	186.38
628.119	179.38
628.325	178.38
628.532	182.38
628.738	176.38
628.945	182.38
629.151	184.38
629.357	181.38
629.564	184.38
629.77	179.38
629.976	196.38
630.183	171.38
630.389	182.38
630.595	199.38
630.802	179.38
631.008	178.38
631.214	181.38
631.42	185.38
631.627	187.38
631.833	194.38
632.039	180.38
632.245	154.38
632.451	162.38
632.657	164.38
632.863	155.38
633.069	169.38
633.275	160.38
633.481	176.38
633.688	173.38
633.893	172.38
634.099	172.38
634.305	176.38
634.511	144.38
634.717	154.38
634.923	159.38
635.129	167.38
635.335	172.38
635.541	167.38
635.747	166.38
635.952	159.38
636.158	164.38
636.364	170.38
636.57	170.38
636.775	143.38
636.981	162.38
637.187	173.38
637.392	159.38
637.598	152.38
637.804	160.38
638.009	167.38
638.215	157.38
638.421	169.38
638.626	144.38
638.832	136.38
639.037	167.38
639.243	168.38
639.448	149.38
639.654	161.38
639.859	145.38
640.065	166.38
640.27	157.38
640.475	167.38
640.681	156.38
640.886	171.38
641.091	157.38
641.297	156.38
641.502	146.38
641.707	151.38
641.913	147.38
642.118	149.38
642.323	160.38
642.528	140.38
642.733	150.38
642.939	156.38
643.144	158.38
643.349	153.38
643.554	156.38
643.759	150.38
643.964	159.38
644.169	155.38
644.374	152.38
644.579	148.38
644.784	128.38
644.989	163.38
645.194	140.38
645.399	160.38
645.604	143.38
645.809	140.38
646.014	145.38
646.219	150.38
646.423	154.38
646.628	149.38
646.833	140.38
647.038	149.38
647.243	152.38
647.447	153.38
647.652	155.38
647.857	148.38
648.062	161.38
648.266	161.38
648.471	155.38
648.676	160.38
648.88	140.38
649.085	152.38
649.289	150.38
649.494	171.38
649.698	177.38
649.903	157.38
650.107	164.38
650.312	154.38
650.516	134.38
650.721	142.38
650.925	141.38
651.13	142.38
651.334	137.38
651.539	132.38
651.743	132.38
651.947	130.38
652.152	135.38
652.356	130.38
652.56	136.38
652.764	130.38
652.969	129.38
653.173	139.38
653.377	137.38
653.581	140.38
653.785	149.38
653.99	136.38
654.194	117.38
654.398	128.38
654.602	122.38
654.806	133.38
655.01	126.38
655.214	124.38
655.418	112.38
655.622	122.38
655.826	120.38
656.03	115.38
656.234	119.38
656.438	123.38
656.642	123.38
656.846	121.38
657.049	102.38
657.253	118.38
657.457	126.38
657.661	103.38
657.865	115.38
658.068	105.38
658.272	109.38
658.476	104.38
658.68	109.38
658.883	99.38
659.087	106.38
659.291	100.38
659.494	102.38
659.698	102.38
659.901	90.38
660.105	94.38
660.309	100.38
660.512	81.38
660.716	88.38
660.919	101.38
661.123	92.38
661.326	98.38
661.53	78.38
661.733	77.38
661.936	106.38
662.14	83.38
662.343	87.38
662.546	85.38
662.75	80.38
662.953	84.38
663.156	74.38
663.36	87.38
663.563	87.38
663.766	76.38
663.969	77.38
664.173	82.38
664.376	90.38
664.579	85.38
664.782	77.38
664.985	77.38
665.188	81.38
665.391	90.38
665.594	77.38
665.797	82.38
666	75.38
666.203	77.38
666.406	73.38
666.609	71.38
666.812	74.38
667.015	70.38
667.218	80.38
667.421	82.38
667.624	78.38
667.827	82.38
668.03	79.38
668.232	70.38
668.435	72.38
668.638	69.38
668.841	79.38
669.043	70.38
669.246	83.38
669.449	80.38
669.651	77.38
669.854	78.38
670.057	67.38
670.259	92.38
670.462	79.38
670.665	83.38
670.867	78.38
671.07	84.38
671.272	81.38
671.475	86.38
671.677	79.38
671.88	75.38
672.082	82.38
672.284	91.38
672.487	81.38
672.689	82.38
672.892	74.38
