Data from 1988.PennyLincolnUp.Lamp.En5.5.200Scan.071819.P2_HRD10591_17-19-26-971.txt Node
Date: Thu Jul 18 17:19:26 EDT 2019
User: cochatt
Spectrometer: HR+D1059
Trigger mode: 1
Integration Time (sec): 1.000000E-1
Scans to average: 1
Electric dark correction enabled: true
Nonlinearity correction enabled: false
Boxcar width: 0
XAxis mode: Wavelengths
Number of Pixels in Spectrum: 2048
>>>>>Begin Spectral Data<<<<<
223.165	-13.12
223.4	-13.12
223.635	-13.12
223.869	-24.12
224.104	-19.12
224.338	-2.12
224.573	-25.12
224.808	-11.12
225.042	-9.12
225.277	-5.12
225.511	7.88
225.746	-7.12
225.98	-1.12
226.215	22.88
226.449	11.88
226.683	18.88
226.918	30.88
227.152	24.88
227.387	26.88
227.621	28.88
227.856	51.88
228.09	33.88
228.324	48.88
228.559	41.88
228.793	58.88
229.027	90.88
229.262	103.88
229.496	123.88
229.73	117.88
229.964	136.88
230.199	119.88
230.433	112.88
230.667	107.88
230.901	108.88
231.136	117.88
231.37	107.88
231.604	103.88
231.838	95.88
232.072	115.88
232.306	110.88
232.541	121.88
232.775	107.88
233.009	101.88
233.243	117.88
233.477	112.88
233.711	118.88
233.945	118.88
234.179	116.88
234.413	104.88
234.647	103.88
234.881	111.88
235.115	126.88
235.349	124.88
235.583	125.88
235.817	122.88
236.051	117.88
236.285	127.88
236.519	140.88
236.753	134.88
236.987	155.88
237.221	191.88
237.455	223.88
237.689	180.88
237.922	148.88
238.156	123.88
238.39	120.88
238.624	121.88
238.858	124.88
239.091	120.88
239.325	119.88
239.559	125.88
239.793	127.88
240.027	137.88
240.26	148.88
240.494	157.88
240.728	150.88
240.961	151.88
241.195	141.88
241.429	139.88
241.662	138.88
241.896	128.88
242.13	124.88
242.363	133.88
242.597	137.88
242.83	142.88
243.064	134.88
243.298	134.88
243.531	120.88
243.765	136.88
243.998	131.88
244.232	136.88
244.465	148.88
244.699	147.88
244.932	131.88
245.166	133.88
245.399	152.88
245.633	146.88
245.866	140.88
246.099	156.88
246.333	130.88
246.566	150.88
246.8	162.88
247.033	155.88
247.266	166.88
247.5	152.88
247.733	164.88
247.966	171.88
248.2	169.88
248.433	154.88
248.666	170.88
248.899	179.88
249.133	191.88
249.366	213.88
249.599	181.88
249.832	192.88
250.066	162.88
250.299	184.88
250.532	178.88
250.765	182.88
250.998	198.88
251.231	218.88
251.465	207.88
251.698	196.88
251.931	202.88
252.164	180.88
252.397	190.88
252.63	201.88
252.863	183.88
253.096	215.88
253.329	222.88
253.562	214.88
253.795	224.88
254.028	215.88
254.261	213.88
254.494	217.88
254.727	243.88
254.96	270.88
255.193	270.88
255.426	247.88
255.659	217.88
255.892	222.88
256.124	223.88
256.357	217.88
256.59	218.88
256.823	209.88
257.056	210.88
257.289	214.88
257.521	219.88
257.754	217.88
257.987	216.88
258.22	199.88
258.452	199.88
258.685	223.88
258.918	211.88
259.151	212.88
259.383	202.88
259.616	201.88
259.849	229.88
260.081	230.88
260.314	246.88
260.547	261.88
260.779	239.88
261.012	228.88
261.244	223.88
261.477	227.88
261.71	209.88
261.942	241.88
262.175	254.88
262.407	239.88
262.64	226.88
262.872	221.88
263.105	206.88
263.337	205.88
263.57	211.88
263.802	207.88
264.035	230.88
264.267	219.88
264.499	212.88
264.732	218.88
264.964	229.88
265.197	218.88
265.429	207.88
265.661	209.88
265.894	228.88
266.126	209.88
266.358	211.88
266.591	230.88
266.823	232.88
267.055	222.88
267.287	229.88
267.52	219.88
267.752	206.88
267.984	242.88
268.216	219.88
268.448	220.88
268.681	229.88
268.913	248.88
269.145	265.88
269.377	262.88
269.609	273.88
269.841	265.88
270.073	258.88
270.306	275.88
270.538	311.88
270.77	306.88
271.002	305.88
271.234	306.88
271.466	286.88
271.698	310.88
271.93	297.88
272.162	306.88
272.394	311.88
272.626	306.88
272.858	304.88
273.09	278.88
273.322	268.88
273.553	264.88
273.785	257.88
274.017	276.88
274.249	275.88
274.481	257.88
274.713	271.88
274.945	272.88
275.176	262.88
275.408	247.88
275.64	267.88
275.872	273.88
276.104	248.88
276.335	277.88
276.567	267.88
276.799	279.88
277.031	283.88
277.262	290.88
277.494	333.88
277.726	316.88
277.957	267.88
278.189	291.88
278.421	282.88
278.652	265.88
278.884	255.88
279.115	276.88
279.347	255.88
279.579	267.88
279.81	271.88
280.042	277.88
280.273	273.88
280.505	258.88
280.736	268.88
280.968	287.88
281.199	273.88
281.431	268.88
281.662	266.88
281.894	286.88
282.125	265.88
282.356	306.88
282.588	306.88
282.819	298.88
283.051	280.88
283.282	263.88
283.513	284.88
283.745	270.88
283.976	299.88
284.207	289.88
284.439	287.88
284.67	295.88
284.901	282.88
285.132	291.88
285.364	289.88
285.595	270.88
285.826	286.88
286.057	294.88
286.288	280.88
286.52	292.88
286.751	270.88
286.982	283.88
287.213	277.88
287.444	315.88
287.675	280.88
287.906	299.88
288.138	290.88
288.369	318.88
288.6	319.88
288.831	319.88
289.062	284.88
289.293	294.88
289.524	286.88
289.755	284.88
289.986	303.88
290.217	283.88
290.448	291.88
290.679	286.88
290.91	297.88
291.141	297.88
291.371	297.88
291.602	287.88
291.833	292.88
292.064	269.88
292.295	298.88
292.526	296.88
292.757	291.88
292.987	295.88
293.218	293.88
293.449	294.88
293.68	294.88
293.91	299.88
294.141	287.88
294.372	306.88
294.603	295.88
294.833	310.88
295.064	311.88
295.295	315.88
295.525	296.88
295.756	304.88
295.987	321.88
296.217	319.88
296.448	340.88
296.679	335.88
296.909	302.88
297.14	312.88
297.37	307.88
297.601	307.88
297.831	311.88
298.062	294.88
298.292	280.88
298.523	296.88
298.753	314.88
298.984	316.88
299.214	316.88
299.445	311.88
299.675	309.88
299.905	326.88
300.136	334.88
300.366	328.88
300.597	324.88
300.827	321.88
301.057	328.88
301.288	343.88
301.518	346.88
301.748	341.88
301.979	340.88
302.209	330.88
302.439	346.88
302.669	329.88
302.9	335.88
303.13	336.88
303.36	353.88
303.59	326.88
303.82	341.88
304.051	334.88
304.281	329.88
304.511	314.88
304.741	329.88
304.971	354.88
305.201	330.88
305.431	331.88
305.661	325.88
305.891	334.88
306.121	337.88
306.352	345.88
306.582	359.88
306.812	318.88
307.042	347.88
307.272	337.88
307.502	344.88
307.731	353.88
307.961	350.88
308.191	346.88
308.421	347.88
308.651	359.88
308.881	350.88
309.111	349.88
309.341	350.88
309.571	358.88
309.8	370.88
310.03	364.88
310.26	382.88
310.49	388.88
310.72	402.88
310.949	399.88
311.179	419.88
311.409	393.88
311.639	401.88
311.868	381.88
312.098	392.88
312.328	387.88
312.557	403.88
312.787	397.88
313.017	430.88
313.246	399.88
313.476	395.88
313.706	400.88
313.935	394.88
314.165	396.88
314.394	411.88
314.624	420.88
314.853	405.88
315.083	381.88
315.312	397.88
315.542	389.88
315.771	388.88
316.001	380.88
316.23	384.88
316.46	385.88
316.689	384.88
316.919	397.88
317.148	406.88
317.377	401.88
317.607	421.88
317.836	391.88
318.065	418.88
318.295	394.88
318.524	394.88
318.753	372.88
318.983	403.88
319.212	402.88
319.441	395.88
319.67	400.88
319.9	401.88
320.129	388.88
320.358	409.88
320.587	384.88
320.816	396.88
321.046	442.88
321.275	424.88
321.504	417.88
321.733	414.88
321.962	432.88
322.191	454.88
322.42	464.88
322.649	489.88
322.878	463.88
323.108	478.88
323.337	498.88
323.566	538.88
323.795	574.88
324.024	606.88
324.253	737.88
324.482	1021.88
324.71	1637.88
324.939	2349.88
325.168	1987.88
325.397	1036.88
325.626	706.88
325.855	585.88
326.084	545.88
326.313	551.88
326.542	511.88
326.77	585.88
326.999	674.88
327.228	933.88
327.457	1421.88
327.686	1704.88
327.914	1145.88
328.143	730.88
328.372	657.88
328.6	601.88
328.829	597.88
329.058	607.88
329.287	613.88
329.515	576.88
329.744	517.88
329.972	510.88
330.201	531.88
330.43	539.88
330.658	564.88
330.887	634.88
331.115	608.88
331.344	519.88
331.572	498.88
331.801	540.88
332.03	517.88
332.258	510.88
332.486	473.88
332.715	475.88
332.943	470.88
333.172	478.88
333.4	468.88
333.629	469.88
333.857	486.88
334.085	468.88
334.314	475.88
334.542	470.88
334.771	473.88
334.999	501.88
335.227	470.88
335.455	462.88
335.684	472.88
335.912	442.88
336.14	443.88
336.369	463.88
336.597	473.88
336.825	475.88
337.053	469.88
337.281	465.88
337.51	438.88
337.738	442.88
337.966	470.88
338.194	463.88
338.422	495.88
338.65	468.88
338.878	463.88
339.106	440.88
339.334	448.88
339.562	437.88
339.79	451.88
340.018	445.88
340.246	443.88
340.474	458.88
340.702	458.88
340.93	456.88
341.158	447.88
341.386	443.88
341.614	454.88
341.842	446.88
342.07	456.88
342.298	441.88
342.526	440.88
342.754	440.88
342.981	430.88
343.209	418.88
343.437	432.88
343.665	425.88
343.893	444.88
344.12	459.88
344.348	459.88
344.576	457.88
344.804	463.88
345.031	458.88
345.259	481.88
345.487	449.88
345.714	468.88
345.942	452.88
346.17	439.88
346.397	448.88
346.625	451.88
346.853	435.88
347.08	436.88
347.308	438.88
347.535	442.88
347.763	452.88
347.99	443.88
348.218	431.88
348.445	446.88
348.673	448.88
348.9	428.88
349.128	426.88
349.355	422.88
349.583	414.88
349.81	447.88
350.037	430.88
350.265	418.88
350.492	444.88
350.72	418.88
350.947	440.88
351.174	437.88
351.402	463.88
351.629	444.88
351.856	440.88
352.083	422.88
352.311	449.88
352.538	464.88
352.765	464.88
352.992	436.88
353.22	446.88
353.447	446.88
353.674	426.88
353.901	403.88
354.128	402.88
354.355	426.88
354.583	402.88
354.81	408.88
355.037	410.88
355.264	411.88
355.491	415.88
355.718	380.88
355.945	388.88
356.172	414.88
356.399	392.88
356.626	402.88
356.853	416.88
357.08	378.88
357.307	400.88
357.534	392.88
357.761	408.88
357.988	405.88
358.215	428.88
358.441	414.88
358.668	414.88
358.895	422.88
359.122	408.88
359.349	419.88
359.576	443.88
359.802	445.88
360.029	487.88
360.256	496.88
360.483	465.88
360.709	461.88
360.936	448.88
361.163	450.88
361.39	423.88
361.616	443.88
361.843	446.88
362.07	420.88
362.296	456.88
362.523	455.88
362.749	444.88
362.976	426.88
363.203	427.88
363.429	414.88
363.656	425.88
363.882	420.88
364.109	421.88
364.335	421.88
364.562	410.88
364.788	437.88
365.015	416.88
365.241	409.88
365.468	410.88
365.694	422.88
365.92	451.88
366.147	423.88
366.373	410.88
366.599	430.88
366.826	426.88
367.052	436.88
367.278	432.88
367.505	419.88
367.731	401.88
367.957	419.88
368.184	403.88
368.41	408.88
368.636	434.88
368.862	437.88
369.089	427.88
369.315	438.88
369.541	439.88
369.767	409.88
369.993	431.88
370.219	430.88
370.445	408.88
370.672	422.88
370.898	412.88
371.124	440.88
371.35	419.88
371.576	397.88
371.802	407.88
372.028	415.88
372.254	404.88
372.48	410.88
372.706	406.88
372.932	425.88
373.158	416.88
373.384	427.88
373.61	439.88
373.835	425.88
374.061	410.88
374.287	413.88
374.513	419.88
374.739	437.88
374.965	432.88
375.191	416.88
375.416	440.88
375.642	412.88
375.868	418.88
376.094	408.88
376.319	424.88
376.545	417.88
376.771	410.88
376.997	424.88
377.222	416.88
377.448	415.88
377.674	393.88
377.899	386.88
378.125	396.88
378.35	403.88
378.576	426.88
378.802	398.88
379.027	417.88
379.253	406.88
379.478	418.88
379.704	407.88
379.929	394.88
380.155	422.88
380.38	420.88
380.606	427.88
380.831	423.88
381.057	419.88
381.282	420.88
381.507	423.88
381.733	422.88
381.958	407.88
382.184	419.88
382.409	433.88
382.634	431.88
382.86	442.88
383.085	441.88
383.31	416.88
383.535	415.88
383.761	444.88
383.986	433.88
384.211	434.88
384.436	429.88
384.662	423.88
384.887	463.88
385.112	449.88
385.337	459.88
385.562	440.88
385.787	460.88
386.013	456.88
386.238	475.88
386.463	462.88
386.688	432.88
386.913	450.88
387.138	443.88
387.363	458.88
387.588	461.88
387.813	454.88
388.038	450.88
388.263	463.88
388.488	432.88
388.713	453.88
388.938	478.88
389.163	463.88
389.387	453.88
389.612	459.88
389.837	465.88
390.062	469.88
390.287	456.88
390.512	471.88
390.736	449.88
390.961	447.88
391.186	450.88
391.411	483.88
391.636	474.88
391.86	471.88
392.085	489.88
392.31	468.88
392.534	449.88
392.759	470.88
392.984	457.88
393.208	452.88
393.433	468.88
393.658	483.88
393.882	471.88
394.107	465.88
394.331	478.88
394.556	482.88
394.78	464.88
395.005	470.88
395.229	466.88
395.454	476.88
395.678	483.88
395.903	504.88
396.127	500.88
396.352	520.88
396.576	514.88
396.801	480.88
397.025	483.88
397.249	453.88
397.474	495.88
397.698	503.88
397.922	520.88
398.147	532.88
398.371	509.88
398.595	542.88
398.82	518.88
399.044	527.88
399.268	542.88
399.492	571.88
399.717	627.88
399.941	643.88
400.165	644.88
400.389	653.88
400.613	586.88
400.837	580.88
401.062	549.88
401.286	506.88
401.51	543.88
401.734	522.88
401.958	524.88
402.182	527.88
402.406	546.88
402.63	562.88
402.854	560.88
403.078	543.88
403.302	560.88
403.526	554.88
403.75	542.88
403.974	557.88
404.198	531.88
404.422	524.88
404.645	551.88
404.869	547.88
405.093	561.88
405.317	589.88
405.541	578.88
405.765	577.88
405.988	573.88
406.212	580.88
406.436	588.88
406.66	638.88
406.883	604.88
407.107	626.88
407.331	666.88
407.555	720.88
407.778	706.88
408.002	683.88
408.226	603.88
408.449	603.88
408.673	615.88
408.896	648.88
409.12	672.88
409.344	643.88
409.567	588.88
409.791	603.88
410.014	549.88
410.238	564.88
410.461	538.88
410.685	561.88
410.908	561.88
411.132	598.88
411.355	639.88
411.578	607.88
411.802	566.88
412.025	539.88
412.249	534.88
412.472	558.88
412.695	569.88
412.919	542.88
413.142	542.88
413.365	552.88
413.589	544.88
413.812	517.88
414.035	516.88
414.258	516.88
414.482	513.88
414.705	517.88
414.928	504.88
415.151	500.88
415.374	516.88
415.597	530.88
415.821	499.88
416.044	520.88
416.267	521.88
416.49	507.88
416.713	521.88
416.936	524.88
417.159	520.88
417.382	488.88
417.605	526.88
417.828	530.88
418.051	536.88
418.274	524.88
418.497	533.88
418.72	518.88
418.943	534.88
419.166	508.88
419.389	570.88
419.611	551.88
419.834	542.88
420.057	527.88
420.28	519.88
420.503	519.88
420.726	528.88
420.948	579.88
421.171	600.88
421.394	623.88
421.617	575.88
421.839	531.88
422.062	518.88
422.285	560.88
422.507	607.88
422.73	693.88
422.953	667.88
423.175	592.88
423.398	572.88
423.621	577.88
423.843	578.88
424.066	606.88
424.288	555.88
424.511	592.88
424.733	658.88
424.956	718.88
425.178	693.88
425.401	719.88
425.623	748.88
425.846	652.88
426.068	599.88
426.291	578.88
426.513	566.88
426.735	577.88
426.958	617.88
427.18	727.88
427.402	898.88
427.625	946.88
427.847	806.88
428.069	672.88
428.292	623.88
428.514	567.88
428.736	545.88
428.958	525.88
429.181	536.88
429.403	561.88
429.625	536.88
429.847	587.88
430.069	658.88
430.292	665.88
430.514	582.88
430.736	548.88
430.958	522.88
431.18	528.88
431.402	513.88
431.624	506.88
431.846	524.88
432.068	508.88
432.29	491.88
432.512	520.88
432.734	522.88
432.956	510.88
433.178	512.88
433.4	545.88
433.622	538.88
433.844	503.88
434.066	503.88
434.287	521.88
434.509	520.88
434.731	524.88
434.953	535.88
435.175	557.88
435.397	592.88
435.618	561.88
435.84	622.88
436.062	735.88
436.284	796.88
436.505	664.88
436.727	632.88
436.949	573.88
437.17	548.88
437.392	548.88
437.614	569.88
437.835	601.88
438.057	676.88
438.278	805.88
438.5	816.88
438.721	858.88
438.943	842.88
439.165	683.88
439.386	608.88
439.608	591.88
439.829	586.88
440.05	614.88
440.272	647.88
440.493	630.88
440.715	586.88
440.936	558.88
441.158	549.88
441.379	551.88
441.6	564.88
441.822	544.88
442.043	635.88
442.264	717.88
442.486	744.88
442.707	642.88
442.928	608.88
443.149	606.88
443.371	653.88
443.592	683.88
443.813	795.88
444.034	829.88
444.255	696.88
444.476	633.88
444.698	607.88
444.919	592.88
445.14	699.88
445.361	652.88
445.582	647.88
445.803	702.88
446.024	779.88
446.245	823.88
446.466	759.88
446.687	648.88
446.908	607.88
447.129	564.88
447.35	538.88
447.571	556.88
447.792	549.88
448.013	550.88
448.234	550.88
448.455	639.88
448.675	730.88
448.896	812.88
449.117	689.88
449.338	699.88
449.559	802.88
449.779	918.88
450	717.88
450.221	604.88
450.442	536.88
450.662	543.88
450.883	533.88
451.104	552.88
451.324	533.88
451.545	539.88
451.766	502.88
451.986	488.88
452.207	494.88
452.428	474.88
452.648	469.88
452.869	471.88
453.089	489.88
453.31	495.88
453.53	481.88
453.751	466.88
453.971	489.88
454.192	503.88
454.412	487.88
454.633	490.88
454.853	469.88
455.073	479.88
455.294	497.88
455.514	581.88
455.734	570.88
455.955	476.88
456.175	472.88
456.395	461.88
456.616	452.88
456.836	459.88
457.056	456.88
457.276	452.88
457.497	456.88
457.717	465.88
457.937	462.88
458.157	463.88
458.377	488.88
458.598	506.88
458.818	545.88
459.038	677.88
459.258	640.88
459.478	566.88
459.698	536.88
459.918	520.88
460.138	532.88
460.358	532.88
460.578	517.88
460.798	548.88
461.018	541.88
461.238	516.88
461.458	532.88
461.678	514.88
461.898	517.88
462.118	507.88
462.338	524.88
462.558	561.88
462.777	546.88
462.997	573.88
463.217	578.88
463.437	581.88
463.657	554.88
463.876	546.88
464.096	565.88
464.316	563.88
464.536	580.88
464.755	580.88
464.975	554.88
465.195	592.88
465.414	657.88
465.634	612.88
465.854	555.88
466.073	531.88
466.293	503.88
466.512	492.88
466.732	496.88
466.951	485.88
467.171	482.88
467.391	517.88
467.61	536.88
467.829	517.88
468.049	498.88
468.268	522.88
468.488	497.88
468.707	482.88
468.927	476.88
469.146	487.88
469.365	479.88
469.585	491.88
469.804	512.88
470.023	528.88
470.243	498.88
470.462	501.88
470.681	544.88
470.901	520.88
471.12	510.88
471.339	519.88
471.558	516.88
471.777	512.88
471.997	481.88
472.216	504.88
472.435	512.88
472.654	522.88
472.873	495.88
473.092	496.88
473.311	512.88
473.53	483.88
473.749	516.88
473.968	553.88
474.187	678.88
474.406	683.88
474.625	569.88
474.844	524.88
475.063	513.88
475.282	527.88
475.501	535.88
475.72	535.88
475.939	511.88
476.158	523.88
476.377	510.88
476.596	518.88
476.814	542.88
477.033	536.88
477.252	526.88
477.471	545.88
477.69	550.88
477.908	577.88
478.127	571.88
478.346	564.88
478.564	548.88
478.783	563.88
479.002	579.88
479.22	588.88
479.439	595.88
479.658	604.88
479.876	621.88
480.095	609.88
480.313	641.88
480.532	642.88
480.751	607.88
480.969	609.88
481.188	630.88
481.406	633.88
481.624	609.88
481.843	586.88
482.061	577.88
482.28	599.88
482.498	586.88
482.717	571.88
482.935	598.88
483.153	592.88
483.372	578.88
483.59	603.88
483.808	597.88
484.027	602.88
484.245	602.88
484.463	582.88
484.681	616.88
484.9	603.88
485.118	606.88
485.336	615.88
485.554	614.88
485.772	595.88
485.99	616.88
486.209	610.88
486.427	632.88
486.645	626.88
486.863	654.88
487.081	653.88
487.299	635.88
487.517	635.88
487.735	628.88
487.953	640.88
488.171	621.88
488.389	632.88
488.607	644.88
488.825	620.88
489.043	622.88
489.261	650.88
489.479	620.88
489.696	656.88
489.914	644.88
490.132	655.88
490.35	670.88
490.568	653.88
490.786	681.88
491.003	674.88
491.221	688.88
491.439	689.88
491.657	712.88
491.874	716.88
492.092	714.88
492.31	703.88
492.527	706.88
492.745	730.88
492.963	716.88
493.18	744.88
493.398	723.88
493.615	748.88
493.833	711.88
494.05	733.88
494.268	735.88
494.485	728.88
494.703	737.88
494.92	717.88
495.138	743.88
495.355	739.88
495.573	754.88
495.79	738.88
496.008	757.88
496.225	762.88
496.442	745.88
496.66	747.88
496.877	747.88
497.094	753.88
497.312	786.88
497.529	779.88
497.746	770.88
497.963	811.88
498.181	840.88
498.398	836.88
498.615	837.88
498.832	875.88
499.049	891.88
499.267	915.88
499.484	933.88
499.701	943.88
499.918	976.88
500.135	1018.88
500.352	1092.88
500.569	1065.88
500.786	1079.88
501.003	1063.88
501.22	1036.88
501.437	983.88
501.654	1008.88
501.871	981.88
502.088	950.88
502.305	928.88
502.522	866.88
502.739	855.88
502.956	831.88
503.172	822.88
503.389	840.88
503.606	820.88
503.823	786.88
504.04	770.88
504.256	771.88
504.473	763.88
504.69	776.88
504.907	772.88
505.123	733.88
505.34	718.88
505.557	742.88
505.773	731.88
505.99	726.88
506.207	744.88
506.423	725.88
506.64	732.88
506.856	696.88
507.073	719.88
507.289	719.88
507.506	693.88
507.722	702.88
507.939	736.88
508.155	709.88
508.372	688.88
508.588	676.88
508.805	684.88
509.021	699.88
509.238	684.88
509.454	703.88
509.67	719.88
509.887	729.88
510.103	691.88
510.319	701.88
510.536	782.88
510.752	1333.88
510.968	1099.88
511.184	706.88
511.401	676.88
511.617	664.88
511.833	661.88
512.049	651.88
512.265	641.88
512.481	657.88
512.698	636.88
512.914	658.88
513.13	648.88
513.346	648.88
513.562	651.88
513.778	683.88
513.994	661.88
514.21	686.88
514.426	698.88
514.642	773.88
514.858	784.88
515.074	820.88
515.29	973.88
515.506	1415.88
515.721	1180.88
515.937	816.88
516.153	706.88
516.369	729.88
516.585	709.88
516.801	702.88
517.016	678.88
517.232	684.88
517.448	672.88
517.664	692.88
517.879	692.88
518.095	695.88
518.311	699.88
518.527	696.88
518.742	689.88
518.958	680.88
519.173	689.88
519.389	666.88
519.605	654.88
519.82	696.88
520.036	695.88
520.251	678.88
520.467	711.88
520.682	731.88
520.898	731.88
521.113	745.88
521.329	772.88
521.544	871.88
521.76	1110.88
521.975	1781.88
522.19	1818.88
522.406	998.88
522.621	760.88
522.836	694.88
523.052	665.88
523.267	632.88
523.482	624.88
523.698	611.88
523.913	622.88
524.128	611.88
524.343	605.88
524.559	596.88
524.774	552.88
524.989	578.88
525.204	593.88
525.419	611.88
525.634	571.88
525.849	567.88
526.064	576.88
526.28	560.88
526.495	548.88
526.71	547.88
526.925	534.88
527.14	538.88
527.355	542.88
527.57	539.88
527.785	528.88
527.999	534.88
528.214	550.88
528.429	544.88
528.644	561.88
528.859	530.88
529.074	566.88
529.289	561.88
529.503	653.88
529.718	618.88
529.933	579.88
530.148	552.88
530.363	560.88
530.577	540.88
530.792	529.88
531.007	535.88
531.221	536.88
531.436	546.88
531.651	532.88
531.865	546.88
532.08	514.88
532.295	523.88
532.509	514.88
532.724	531.88
532.938	538.88
533.153	500.88
533.367	515.88
533.582	529.88
533.796	493.88
534.011	519.88
534.225	488.88
534.44	519.88
534.654	502.88
534.868	510.88
535.083	515.88
535.297	509.88
535.511	496.88
535.726	522.88
535.94	510.88
536.154	483.88
536.369	512.88
536.583	506.88
536.797	516.88
537.011	500.88
537.225	482.88
537.44	507.88
537.654	492.88
537.868	502.88
538.082	464.88
538.296	503.88
538.51	474.88
538.724	487.88
538.938	476.88
539.153	493.88
539.367	516.88
539.581	489.88
539.795	499.88
540.009	483.88
540.222	512.88
540.436	494.88
540.65	486.88
540.864	471.88
541.078	500.88
541.292	492.88
541.506	496.88
541.72	503.88
541.934	480.88
542.147	478.88
542.361	484.88
542.575	484.88
542.789	489.88
543.002	460.88
543.216	471.88
543.43	489.88
543.644	487.88
543.857	479.88
544.071	505.88
544.285	496.88
544.498	481.88
544.712	472.88
544.925	464.88
545.139	476.88
545.352	487.88
545.566	472.88
545.779	472.88
545.993	466.88
546.206	498.88
546.42	491.88
546.633	466.88
546.847	474.88
547.06	460.88
547.274	463.88
547.487	465.88
547.7	466.88
547.914	482.88
548.127	463.88
548.34	458.88
548.554	463.88
548.767	466.88
548.98	456.88
549.193	461.88
549.407	480.88
549.62	472.88
549.833	452.88
550.046	450.88
550.259	456.88
550.473	462.88
550.686	482.88
550.899	479.88
551.112	493.88
551.325	444.88
551.538	454.88
551.751	456.88
551.964	482.88
552.177	465.88
552.39	478.88
552.603	494.88
552.816	467.88
553.029	477.88
553.242	460.88
553.455	474.88
553.667	478.88
553.88	505.88
554.093	482.88
554.306	466.88
554.519	455.88
554.732	473.88
554.944	436.88
555.157	455.88
555.37	460.88
555.583	463.88
555.795	459.88
556.008	441.88
556.221	439.88
556.433	441.88
556.646	433.88
556.859	433.88
557.071	417.88
557.284	438.88
557.496	418.88
557.709	432.88
557.921	420.88
558.134	413.88
558.346	433.88
558.559	417.88
558.771	434.88
558.984	413.88
559.196	433.88
559.409	414.88
559.621	414.88
559.833	416.88
560.046	402.88
560.258	411.88
560.47	412.88
560.683	405.88
560.895	394.88
561.107	419.88
561.32	402.88
561.532	418.88
561.744	415.88
561.956	414.88
562.168	401.88
562.381	404.88
562.593	408.88
562.805	430.88
563.017	421.88
563.229	444.88
563.441	421.88
563.653	407.88
563.865	424.88
564.077	434.88
564.289	418.88
564.501	442.88
564.713	435.88
564.925	427.88
565.137	455.88
565.349	456.88
565.561	434.88
565.773	462.88
565.985	457.88
566.197	458.88
566.408	487.88
566.62	472.88
566.832	504.88
567.044	508.88
567.255	486.88
567.467	513.88
567.679	501.88
567.891	524.88
568.102	521.88
568.314	511.88
568.526	507.88
568.737	489.88
568.949	462.88
569.161	453.88
569.372	454.88
569.584	447.88
569.795	446.88
570.007	435.88
570.218	483.88
570.43	473.88
570.641	438.88
570.853	410.88
571.064	406.88
571.276	410.88
571.487	387.88
571.698	396.88
571.91	391.88
572.121	380.88
572.333	368.88
572.544	364.88
572.755	347.88
572.966	371.88
573.178	372.88
573.389	359.88
573.6	367.88
573.811	357.88
574.023	371.88
574.234	352.88
574.445	361.88
574.656	358.88
574.867	372.88
575.078	390.88
575.289	348.88
575.501	356.88
575.712	345.88
575.923	355.88
576.134	358.88
576.345	351.88
576.556	342.88
576.767	338.88
576.978	352.88
577.188	332.88
577.399	355.88
577.61	349.88
577.821	357.88
578.032	358.88
578.243	389.88
578.454	640.88
578.665	468.88
578.875	355.88
579.086	349.88
579.297	352.88
579.508	330.88
579.718	336.88
579.929	338.88
580.14	308.88
580.35	330.88
580.561	331.88
580.772	335.88
580.982	302.88
581.193	305.88
581.403	320.88
581.614	323.88
581.825	326.88
582.035	317.88
582.246	313.88
582.456	330.88
582.667	327.88
582.877	318.88
583.087	304.88
583.298	303.88
583.508	337.88
583.719	332.88
583.929	325.88
584.139	325.88
584.35	312.88
584.56	316.88
584.77	319.88
584.981	317.88
585.191	322.88
585.401	304.88
585.611	315.88
585.821	323.88
586.032	302.88
586.242	306.88
586.452	318.88
586.662	310.88
586.872	294.88
587.082	316.88
587.292	293.88
587.502	310.88
587.713	305.88
587.923	318.88
588.133	317.88
588.343	300.88
588.553	310.88
588.762	331.88
588.972	315.88
589.182	324.88
589.392	315.88
589.602	311.88
589.812	303.88
590.022	306.88
590.232	307.88
590.441	314.88
590.651	311.88
590.861	320.88
591.071	313.88
591.281	298.88
591.49	321.88
591.7	297.88
591.91	326.88
592.119	319.88
592.329	332.88
592.539	327.88
592.748	327.88
592.958	315.88
593.167	330.88
593.377	328.88
593.587	355.88
593.796	353.88
594.006	344.88
594.215	318.88
594.424	310.88
594.634	340.88
594.843	320.88
595.053	309.88
595.262	299.88
595.472	312.88
595.681	304.88
595.89	293.88
596.1	302.88
596.309	291.88
596.518	277.88
596.727	312.88
596.937	293.88
597.146	278.88
597.355	294.88
597.564	280.88
597.774	288.88
597.983	277.88
598.192	298.88
598.401	295.88
598.61	285.88
598.819	284.88
599.028	290.88
599.237	274.88
599.446	280.88
599.655	281.88
599.864	268.88
600.073	259.88
600.282	283.88
600.491	266.88
600.7	289.88
600.909	274.88
601.118	279.88
601.327	279.88
601.536	252.88
601.745	249.88
601.953	280.88
602.162	262.88
602.371	280.88
602.58	248.88
602.789	265.88
602.997	260.88
603.206	256.88
603.415	266.88
603.623	251.88
603.832	270.88
604.041	258.88
604.249	266.88
604.458	252.88
604.666	262.88
604.875	251.88
605.084	249.88
605.292	240.88
605.501	258.88
605.709	250.88
605.918	259.88
606.126	240.88
606.334	273.88
606.543	259.88
606.751	258.88
606.96	247.88
607.168	262.88
607.376	253.88
607.585	269.88
607.793	236.88
608.001	242.88
608.21	254.88
608.418	247.88
608.626	255.88
608.834	250.88
609.043	240.88
609.251	254.88
609.459	250.88
609.667	236.88
609.875	238.88
610.083	246.88
610.291	245.88
610.499	254.88
610.707	244.88
610.916	256.88
611.124	270.88
611.332	246.88
611.54	249.88
611.748	254.88
611.955	251.88
612.163	220.88
612.371	240.88
612.579	254.88
612.787	249.88
612.995	244.88
613.203	256.88
613.411	255.88
613.618	220.88
613.826	228.88
614.034	258.88
614.242	234.88
614.449	227.88
614.657	247.88
614.865	238.88
615.072	245.88
615.28	229.88
615.488	243.88
615.695	246.88
615.903	231.88
616.111	248.88
616.318	242.88
616.526	230.88
616.733	244.88
616.941	246.88
617.148	243.88
617.356	258.88
617.563	224.88
617.771	238.88
617.978	222.88
618.185	241.88
618.393	223.88
618.6	250.88
618.807	228.88
619.015	255.88
619.222	245.88
619.429	231.88
619.637	232.88
619.844	228.88
620.051	237.88
620.258	236.88
620.466	218.88
620.673	220.88
620.88	204.88
621.087	231.88
621.294	238.88
621.501	228.88
621.708	230.88
621.915	232.88
622.122	223.88
622.329	238.88
622.536	232.88
622.743	229.88
622.95	217.88
623.157	224.88
623.364	215.88
623.571	221.88
623.778	223.88
623.985	229.88
624.192	219.88
624.399	227.88
624.606	220.88
624.812	208.88
625.019	206.88
625.226	212.88
625.433	204.88
625.639	221.88
625.846	212.88
626.053	214.88
626.259	213.88
626.466	211.88
626.673	211.88
626.879	204.88
627.086	212.88
627.293	209.88
627.499	212.88
627.706	229.88
627.912	209.88
628.119	206.88
628.325	204.88
628.532	206.88
628.738	204.88
628.945	207.88
629.151	204.88
629.357	203.88
629.564	199.88
629.77	210.88
629.976	194.88
630.183	202.88
630.389	191.88
630.595	208.88
630.802	192.88
631.008	207.88
631.214	203.88
631.42	211.88
631.627	197.88
631.833	188.88
632.039	180.88
632.245	176.88
632.451	193.88
632.657	194.88
632.863	181.88
633.069	184.88
633.275	178.88
633.481	194.88
633.688	188.88
633.893	194.88
634.099	190.88
634.305	193.88
634.511	184.88
634.717	197.88
634.923	186.88
635.129	191.88
635.335	190.88
635.541	185.88
635.747	185.88
635.952	177.88
636.158	181.88
636.364	192.88
636.57	184.88
636.775	168.88
636.981	186.88
637.187	184.88
637.392	179.88
637.598	191.88
637.804	180.88
638.009	171.88
638.215	191.88
638.421	186.88
638.626	183.88
638.832	185.88
639.037	182.88
639.243	184.88
639.448	174.88
639.654	193.88
639.859	187.88
640.065	178.88
640.27	183.88
640.475	164.88
640.681	196.88
640.886	184.88
641.091	194.88
641.297	165.88
641.502	174.88
641.707	190.88
641.913	177.88
642.118	171.88
642.323	169.88
642.528	191.88
642.733	179.88
642.939	168.88
643.144	166.88
643.349	173.88
643.554	163.88
643.759	168.88
643.964	178.88
644.169	158.88
644.374	161.88
644.579	165.88
644.784	162.88
644.989	170.88
645.194	184.88
645.399	174.88
645.604	176.88
645.809	167.88
646.014	182.88
646.219	181.88
646.423	160.88
646.628	165.88
646.833	161.88
647.038	174.88
647.243	166.88
647.447	160.88
647.652	172.88
647.857	169.88
648.062	170.88
648.266	150.88
648.471	166.88
648.676	175.88
648.88	164.88
649.085	184.88
649.289	179.88
649.494	174.88
649.698	199.88
649.903	168.88
650.107	188.88
650.312	174.88
650.516	163.88
650.721	166.88
650.925	167.88
651.13	161.88
651.334	164.88
651.539	149.88
651.743	166.88
651.947	161.88
652.152	155.88
652.356	152.88
652.56	136.88
652.764	141.88
652.969	146.88
653.173	127.88
653.377	134.88
653.581	140.88
653.785	149.88
653.99	134.88
654.194	148.88
654.398	139.88
654.602	133.88
654.806	136.88
655.01	146.88
655.214	134.88
655.418	140.88
655.622	104.88
655.826	131.88
656.03	135.88
656.234	140.88
656.438	145.88
656.642	138.88
656.846	123.88
657.049	132.88
657.253	123.88
657.457	110.88
657.661	126.88
657.865	120.88
658.068	112.88
658.272	89.88
658.476	115.88
658.68	109.88
658.883	106.88
659.087	120.88
659.291	121.88
659.494	111.88
659.698	104.88
659.901	94.88
660.105	99.88
660.309	98.88
660.512	92.88
660.716	95.88
660.919	99.88
661.123	96.88
661.326	81.88
661.53	102.88
661.733	92.88
661.936	91.88
662.14	76.88
662.343	88.88
662.546	84.88
662.75	77.88
662.953	79.88
663.156	79.88
663.36	89.88
663.563	83.88
663.766	85.88
663.969	90.88
664.173	71.88
664.376	84.88
664.579	82.88
664.782	90.88
664.985	86.88
665.188	78.88
665.391	86.88
665.594	65.88
665.797	88.88
666	73.88
666.203	83.88
666.406	74.88
666.609	90.88
666.812	81.88
667.015	80.88
667.218	82.88
667.421	79.88
667.624	84.88
667.827	82.88
668.03	74.88
668.232	73.88
668.435	80.88
668.638	92.88
668.841	84.88
669.043	88.88
669.246	87.88
669.449	73.88
669.651	84.88
669.854	91.88
670.057	79.88
670.259	84.88
670.462	88.88
670.665	81.88
670.867	89.88
671.07	84.88
671.272	78.88
671.475	82.88
671.677	79.88
671.88	76.88
672.082	89.88
672.284	70.88
672.487	84.88
672.689	75.88
672.892	88.88
