Data from 1988.PennyLincolnUp.Lamp.En5.5.200Scan.071819.P2_HRD10591_17-19-20-971.txt Node
Date: Thu Jul 18 17:19:20 EDT 2019
User: cochatt
Spectrometer: HR+D1059
Trigger mode: 1
Integration Time (sec): 1.000000E-1
Scans to average: 1
Electric dark correction enabled: true
Nonlinearity correction enabled: false
Boxcar width: 0
XAxis mode: Wavelengths
Number of Pixels in Spectrum: 2048
>>>>>Begin Spectral Data<<<<<
223.165	-20.06
223.4	-20.06
223.635	-20.06
223.869	-9.06
224.104	-17.06
224.338	-4.06
224.573	-7.06
224.808	-9.06
225.042	-5.06
225.277	-4.06
225.511	-4.06
225.746	-3.06
225.98	3.94
226.215	9.94
226.449	14.94
226.683	17.94
226.918	27.94
227.152	7.94
227.387	37.94
227.621	37.94
227.856	36.94
228.09	52.94
228.324	47.94
228.559	60.94
228.793	64.94
229.027	108.94
229.262	109.94
229.496	118.94
229.73	123.94
229.964	165.94
230.199	127.94
230.433	118.94
230.667	122.94
230.901	125.94
231.136	117.94
231.37	136.94
231.604	107.94
231.838	111.94
232.072	114.94
232.306	121.94
232.541	111.94
232.775	126.94
233.009	118.94
233.243	119.94
233.477	104.94
233.711	101.94
233.945	103.94
234.179	104.94
234.413	129.94
234.647	124.94
234.881	121.94
235.115	124.94
235.349	119.94
235.583	128.94
235.817	115.94
236.051	123.94
236.285	126.94
236.519	139.94
236.753	128.94
236.987	128.94
237.221	175.94
237.455	246.94
237.689	179.94
237.922	149.94
238.156	133.94
238.39	136.94
238.624	122.94
238.858	134.94
239.091	131.94
239.325	136.94
239.559	143.94
239.793	147.94
240.027	145.94
240.26	155.94
240.494	172.94
240.728	152.94
240.961	159.94
241.195	153.94
241.429	156.94
241.662	147.94
241.896	135.94
242.13	130.94
242.363	139.94
242.597	135.94
242.83	136.94
243.064	133.94
243.298	155.94
243.531	155.94
243.765	155.94
243.998	152.94
244.232	139.94
244.465	152.94
244.699	146.94
244.932	139.94
245.166	141.94
245.399	143.94
245.633	146.94
245.866	170.94
246.099	143.94
246.333	145.94
246.566	155.94
246.8	155.94
247.033	150.94
247.266	155.94
247.5	179.94
247.733	171.94
247.966	170.94
248.2	183.94
248.433	174.94
248.666	175.94
248.899	193.94
249.133	202.94
249.366	213.94
249.599	187.94
249.832	173.94
250.066	188.94
250.299	180.94
250.532	196.94
250.765	192.94
250.998	206.94
251.231	230.94
251.465	216.94
251.698	211.94
251.931	196.94
252.164	191.94
252.397	203.94
252.63	205.94
252.863	215.94
253.096	211.94
253.329	223.94
253.562	209.94
253.795	220.94
254.028	215.94
254.261	232.94
254.494	231.94
254.727	248.94
254.96	268.94
255.193	261.94
255.426	257.94
255.659	223.94
255.892	222.94
256.124	229.94
256.357	211.94
256.59	192.94
256.823	215.94
257.056	203.94
257.289	225.94
257.521	223.94
257.754	208.94
257.987	218.94
258.22	232.94
258.452	207.94
258.685	203.94
258.918	201.94
259.151	202.94
259.383	227.94
259.616	229.94
259.849	236.94
260.081	240.94
260.314	244.94
260.547	261.94
260.779	241.94
261.012	251.94
261.244	234.94
261.477	222.94
261.71	227.94
261.942	235.94
262.175	247.94
262.407	234.94
262.64	219.94
262.872	215.94
263.105	211.94
263.337	219.94
263.57	210.94
263.802	217.94
264.035	229.94
264.267	215.94
264.499	206.94
264.732	206.94
264.964	224.94
265.197	217.94
265.429	217.94
265.661	198.94
265.894	226.94
266.126	220.94
266.358	227.94
266.591	239.94
266.823	233.94
267.055	215.94
267.287	216.94
267.52	239.94
267.752	237.94
267.984	229.94
268.216	245.94
268.448	248.94
268.681	260.94
268.913	239.94
269.145	283.94
269.377	297.94
269.609	274.94
269.841	277.94
270.073	294.94
270.306	298.94
270.538	316.94
270.77	304.94
271.002	297.94
271.234	293.94
271.466	283.94
271.698	310.94
271.93	319.94
272.162	313.94
272.394	314.94
272.626	289.94
272.858	319.94
273.09	295.94
273.322	267.94
273.553	277.94
273.785	273.94
274.017	277.94
274.249	268.94
274.481	284.94
274.713	267.94
274.945	286.94
275.176	285.94
275.408	278.94
275.64	260.94
275.872	262.94
276.104	281.94
276.335	284.94
276.567	289.94
276.799	297.94
277.031	319.94
277.262	313.94
277.494	316.94
277.726	299.94
277.957	308.94
278.189	292.94
278.421	283.94
278.652	289.94
278.884	289.94
279.115	312.94
279.347	265.94
279.579	269.94
279.81	285.94
280.042	276.94
280.273	266.94
280.505	267.94
280.736	296.94
280.968	289.94
281.199	285.94
281.431	281.94
281.662	266.94
281.894	263.94
282.125	279.94
282.356	307.94
282.588	322.94
282.819	339.94
283.051	285.94
283.282	290.94
283.513	267.94
283.745	288.94
283.976	289.94
284.207	300.94
284.439	305.94
284.67	289.94
284.901	304.94
285.132	289.94
285.364	292.94
285.595	302.94
285.826	301.94
286.057	294.94
286.288	287.94
286.52	273.94
286.751	307.94
286.982	282.94
287.213	288.94
287.444	296.94
287.675	295.94
287.906	317.94
288.138	321.94
288.369	318.94
288.6	309.94
288.831	297.94
289.062	295.94
289.293	319.94
289.524	287.94
289.755	287.94
289.986	305.94
290.217	312.94
290.448	296.94
290.679	320.94
290.91	299.94
291.141	302.94
291.371	307.94
291.602	307.94
291.833	297.94
292.064	317.94
292.295	300.94
292.526	302.94
292.757	310.94
292.987	316.94
293.218	306.94
293.449	307.94
293.68	311.94
293.91	326.94
294.141	304.94
294.372	315.94
294.603	303.94
294.833	315.94
295.064	311.94
295.295	319.94
295.525	312.94
295.756	302.94
295.987	323.94
296.217	349.94
296.448	357.94
296.679	329.94
296.909	320.94
297.14	321.94
297.37	301.94
297.601	283.94
297.831	316.94
298.062	316.94
298.292	307.94
298.523	314.94
298.753	336.94
298.984	293.94
299.214	320.94
299.445	323.94
299.675	338.94
299.905	337.94
300.136	327.94
300.366	329.94
300.597	333.94
300.827	355.94
301.057	352.94
301.288	346.94
301.518	355.94
301.748	348.94
301.979	337.94
302.209	353.94
302.439	340.94
302.669	352.94
302.9	351.94
303.13	360.94
303.36	339.94
303.59	354.94
303.82	369.94
304.051	357.94
304.281	358.94
304.511	362.94
304.741	331.94
304.971	331.94
305.201	343.94
305.431	347.94
305.661	360.94
305.891	325.94
306.121	348.94
306.352	344.94
306.582	343.94
306.812	343.94
307.042	365.94
307.272	351.94
307.502	353.94
307.731	362.94
307.961	362.94
308.191	340.94
308.421	352.94
308.651	373.94
308.881	355.94
309.111	378.94
309.341	381.94
309.571	367.94
309.8	364.94
310.03	372.94
310.26	411.94
310.49	404.94
310.72	399.94
310.949	424.94
311.179	421.94
311.409	407.94
311.639	394.94
311.868	411.94
312.098	403.94
312.328	419.94
312.557	416.94
312.787	447.94
313.017	441.94
313.246	433.94
313.476	408.94
313.706	416.94
313.935	384.94
314.165	419.94
314.394	438.94
314.624	426.94
314.853	418.94
315.083	400.94
315.312	411.94
315.542	412.94
315.771	411.94
316.001	401.94
316.23	392.94
316.46	380.94
316.689	408.94
316.919	414.94
317.148	390.94
317.377	410.94
317.607	411.94
317.836	396.94
318.065	400.94
318.295	399.94
318.524	417.94
318.753	387.94
318.983	416.94
319.212	387.94
319.441	422.94
319.67	429.94
319.9	409.94
320.129	432.94
320.358	407.94
320.587	409.94
320.816	424.94
321.046	417.94
321.275	435.94
321.504	451.94
321.733	438.94
321.962	439.94
322.191	442.94
322.42	448.94
322.649	455.94
322.878	470.94
323.108	496.94
323.337	499.94
323.566	541.94
323.795	573.94
324.024	609.94
324.253	742.94
324.482	1029.94
324.71	1633.94
324.939	2311.94
325.168	2003.94
325.397	1053.94
325.626	721.94
325.855	595.94
326.084	575.94
326.313	546.94
326.542	537.94
326.77	588.94
326.999	697.94
327.228	925.94
327.457	1443.94
327.686	1738.94
327.914	1161.94
328.143	768.94
328.372	636.94
328.6	633.94
328.829	584.94
329.058	606.94
329.287	621.94
329.515	572.94
329.744	528.94
329.972	527.94
330.201	520.94
330.43	563.94
330.658	603.94
330.887	621.94
331.115	623.94
331.344	560.94
331.572	525.94
331.801	525.94
332.03	527.94
332.258	504.94
332.486	478.94
332.715	488.94
332.943	491.94
333.172	455.94
333.4	468.94
333.629	479.94
333.857	483.94
334.085	483.94
334.314	484.94
334.542	499.94
334.771	507.94
334.999	516.94
335.227	501.94
335.455	491.94
335.684	471.94
335.912	484.94
336.14	460.94
336.369	461.94
336.597	476.94
336.825	487.94
337.053	484.94
337.281	483.94
337.51	477.94
337.738	485.94
337.966	484.94
338.194	449.94
338.422	465.94
338.65	458.94
338.878	462.94
339.106	469.94
339.334	481.94
339.562	457.94
339.79	463.94
340.018	447.94
340.246	443.94
340.474	467.94
340.702	464.94
340.93	447.94
341.158	465.94
341.386	449.94
341.614	442.94
341.842	475.94
342.07	456.94
342.298	471.94
342.526	460.94
342.754	443.94
342.981	437.94
343.209	447.94
343.437	436.94
343.665	436.94
343.893	465.94
344.12	474.94
344.348	462.94
344.576	458.94
344.804	478.94
345.031	461.94
345.259	457.94
345.487	481.94
345.714	463.94
345.942	461.94
346.17	471.94
346.397	445.94
346.625	454.94
346.853	442.94
347.08	431.94
347.308	455.94
347.535	460.94
347.763	474.94
347.99	456.94
348.218	465.94
348.445	466.94
348.673	449.94
348.9	433.94
349.128	438.94
349.355	440.94
349.583	413.94
349.81	427.94
350.037	413.94
350.265	438.94
350.492	428.94
350.72	445.94
350.947	426.94
351.174	454.94
351.402	464.94
351.629	462.94
351.856	461.94
352.083	451.94
352.311	470.94
352.538	478.94
352.765	464.94
352.992	465.94
353.22	439.94
353.447	451.94
353.674	436.94
353.901	435.94
354.128	439.94
354.355	421.94
354.583	411.94
354.81	425.94
355.037	421.94
355.264	429.94
355.491	423.94
355.718	415.94
355.945	430.94
356.172	430.94
356.399	420.94
356.626	404.94
356.853	401.94
357.08	405.94
357.307	425.94
357.534	398.94
357.761	415.94
357.988	395.94
358.215	406.94
358.441	405.94
358.668	433.94
358.895	437.94
359.122	429.94
359.349	441.94
359.576	457.94
359.802	469.94
360.029	496.94
360.256	514.94
360.483	490.94
360.709	447.94
360.936	446.94
361.163	457.94
361.39	440.94
361.616	451.94
361.843	452.94
362.07	441.94
362.296	453.94
362.523	451.94
362.749	442.94
362.976	425.94
363.203	426.94
363.429	424.94
363.656	427.94
363.882	418.94
364.109	415.94
364.335	425.94
364.562	424.94
364.788	429.94
365.015	430.94
365.241	422.94
365.468	438.94
365.694	419.94
365.92	451.94
366.147	416.94
366.373	439.94
366.599	411.94
366.826	420.94
367.052	423.94
367.278	418.94
367.505	440.94
367.731	427.94
367.957	415.94
368.184	438.94
368.41	427.94
368.636	425.94
368.862	462.94
369.089	438.94
369.315	435.94
369.541	424.94
369.767	416.94
369.993	423.94
370.219	421.94
370.445	448.94
370.672	425.94
370.898	421.94
371.124	431.94
371.35	434.94
371.576	423.94
371.802	401.94
372.028	423.94
372.254	413.94
372.48	419.94
372.706	439.94
372.932	440.94
373.158	435.94
373.384	432.94
373.61	416.94
373.835	435.94
374.061	439.94
374.287	414.94
374.513	415.94
374.739	444.94
374.965	439.94
375.191	435.94
375.416	443.94
375.642	430.94
375.868	438.94
376.094	433.94
376.319	447.94
376.545	432.94
376.771	429.94
376.997	420.94
377.222	416.94
377.448	427.94
377.674	428.94
377.899	423.94
378.125	411.94
378.35	424.94
378.576	409.94
378.802	408.94
379.027	415.94
379.253	450.94
379.478	435.94
379.704	428.94
379.929	412.94
380.155	424.94
380.38	440.94
380.606	424.94
380.831	413.94
381.057	415.94
381.282	432.94
381.507	436.94
381.733	421.94
381.958	446.94
382.184	443.94
382.409	461.94
382.634	449.94
382.86	435.94
383.085	460.94
383.31	441.94
383.535	451.94
383.761	463.94
383.986	473.94
384.211	468.94
384.436	470.94
384.662	455.94
384.887	470.94
385.112	446.94
385.337	477.94
385.562	452.94
385.787	455.94
386.013	471.94
386.238	477.94
386.463	476.94
386.688	461.94
386.913	491.94
387.138	480.94
387.363	456.94
387.588	463.94
387.813	458.94
388.038	469.94
388.263	461.94
388.488	483.94
388.713	468.94
388.938	469.94
389.163	452.94
389.387	460.94
389.612	461.94
389.837	485.94
390.062	479.94
390.287	471.94
390.512	456.94
390.736	482.94
390.961	455.94
391.186	488.94
391.411	487.94
391.636	468.94
391.86	496.94
392.085	478.94
392.31	482.94
392.534	487.94
392.759	482.94
392.984	481.94
393.208	479.94
393.433	475.94
393.658	483.94
393.882	484.94
394.107	463.94
394.331	476.94
394.556	475.94
394.78	484.94
395.005	478.94
395.229	472.94
395.454	495.94
395.678	499.94
395.903	521.94
396.127	517.94
396.352	545.94
396.576	512.94
396.801	505.94
397.025	488.94
397.249	492.94
397.474	518.94
397.698	512.94
397.922	521.94
398.147	533.94
398.371	548.94
398.595	538.94
398.82	527.94
399.044	549.94
399.268	584.94
399.492	583.94
399.717	608.94
399.941	671.94
400.165	669.94
400.389	670.94
400.613	604.94
400.837	579.94
401.062	559.94
401.286	562.94
401.51	550.94
401.734	513.94
401.958	553.94
402.182	555.94
402.406	562.94
402.63	566.94
402.854	557.94
403.078	565.94
403.302	549.94
403.526	565.94
403.75	540.94
403.974	553.94
404.198	543.94
404.422	567.94
404.645	561.94
404.869	578.94
405.093	599.94
405.317	592.94
405.541	645.94
405.765	616.94
405.988	574.94
406.212	599.94
406.436	598.94
406.66	637.94
406.883	617.94
407.107	635.94
407.331	661.94
407.555	745.94
407.778	745.94
408.002	662.94
408.226	655.94
408.449	617.94
408.673	625.94
408.896	651.94
409.12	694.94
409.344	643.94
409.567	576.94
409.791	581.94
410.014	572.94
410.238	565.94
410.461	550.94
410.685	575.94
410.908	577.94
411.132	612.94
411.355	639.94
411.578	629.94
411.802	583.94
412.025	535.94
412.249	555.94
412.472	570.94
412.695	568.94
412.919	572.94
413.142	558.94
413.365	509.94
413.589	527.94
413.812	524.94
414.035	540.94
414.258	539.94
414.482	539.94
414.705	525.94
414.928	517.94
415.151	533.94
415.374	516.94
415.597	530.94
415.821	517.94
416.044	541.94
416.267	528.94
416.49	542.94
416.713	510.94
416.936	530.94
417.159	513.94
417.382	537.94
417.605	540.94
417.828	519.94
418.051	539.94
418.274	538.94
418.497	526.94
418.72	534.94
418.943	520.94
419.166	548.94
419.389	589.94
419.611	577.94
419.834	557.94
420.057	541.94
420.28	536.94
420.503	545.94
420.726	543.94
420.948	520.94
421.171	609.94
421.394	647.94
421.617	579.94
421.839	591.94
422.062	555.94
422.285	553.94
422.507	618.94
422.73	688.94
422.953	692.94
423.175	595.94
423.398	584.94
423.621	593.94
423.843	584.94
424.066	561.94
424.288	615.94
424.511	609.94
424.733	666.94
424.956	739.94
425.178	719.94
425.401	700.94
425.623	723.94
425.846	650.94
426.068	607.94
426.291	590.94
426.513	594.94
426.735	594.94
426.958	658.94
427.18	718.94
427.402	872.94
427.625	949.94
427.847	809.94
428.069	702.94
428.292	630.94
428.514	598.94
428.736	562.94
428.958	564.94
429.181	538.94
429.403	554.94
429.625	548.94
429.847	602.94
430.069	656.94
430.292	679.94
430.514	573.94
430.736	531.94
430.958	548.94
431.18	530.94
431.402	527.94
431.624	497.94
431.846	530.94
432.068	514.94
432.29	533.94
432.512	536.94
432.734	532.94
432.956	522.94
433.178	544.94
433.4	569.94
433.622	529.94
433.844	527.94
434.066	523.94
434.287	519.94
434.509	581.94
434.731	545.94
434.953	565.94
435.175	547.94
435.397	587.94
435.618	632.94
435.84	639.94
436.062	740.94
436.284	816.94
436.505	679.94
436.727	627.94
436.949	565.94
437.17	553.94
437.392	555.94
437.614	576.94
437.835	597.94
438.057	707.94
438.278	791.94
438.5	793.94
438.721	907.94
438.943	852.94
439.165	676.94
439.386	620.94
439.608	607.94
439.829	616.94
440.05	633.94
440.272	682.94
440.493	635.94
440.715	581.94
440.936	560.94
441.158	573.94
441.379	561.94
441.6	585.94
441.822	573.94
442.043	637.94
442.264	711.94
442.486	759.94
442.707	652.94
442.928	619.94
443.149	607.94
443.371	644.94
443.592	695.94
443.813	789.94
444.034	864.94
444.255	707.94
444.476	633.94
444.698	601.94
444.919	603.94
445.14	680.94
445.361	661.94
445.582	636.94
445.803	721.94
446.024	841.94
446.245	830.94
446.466	750.94
446.687	634.94
446.908	598.94
447.129	559.94
447.35	545.94
447.571	543.94
447.792	552.94
448.013	555.94
448.234	571.94
448.455	624.94
448.675	741.94
448.896	887.94
449.117	747.94
449.338	691.94
449.559	834.94
449.779	897.94
450	738.94
450.221	619.94
450.442	568.94
450.662	540.94
450.883	553.94
451.104	550.94
451.324	576.94
451.545	516.94
451.766	493.94
451.986	513.94
452.207	488.94
452.428	494.94
452.648	486.94
452.869	489.94
453.089	519.94
453.31	532.94
453.53	510.94
453.751	505.94
453.971	477.94
454.192	514.94
454.412	510.94
454.633	517.94
454.853	523.94
455.073	488.94
455.294	501.94
455.514	581.94
455.734	565.94
455.955	505.94
456.175	459.94
456.395	469.94
456.616	452.94
456.836	469.94
457.056	465.94
457.276	445.94
457.497	488.94
457.717	463.94
457.937	492.94
458.157	491.94
458.377	478.94
458.598	536.94
458.818	565.94
459.038	631.94
459.258	677.94
459.478	579.94
459.698	539.94
459.918	510.94
460.138	533.94
460.358	533.94
460.578	539.94
460.798	527.94
461.018	550.94
461.238	541.94
461.458	555.94
461.678	544.94
461.898	519.94
462.118	547.94
462.338	548.94
462.558	566.94
462.777	566.94
462.997	577.94
463.217	597.94
463.437	583.94
463.657	568.94
463.876	582.94
464.096	591.94
464.316	552.94
464.536	584.94
464.755	556.94
464.975	579.94
465.195	638.94
465.414	682.94
465.634	622.94
465.854	556.94
466.073	548.94
466.293	534.94
466.512	503.94
466.732	517.94
466.951	503.94
467.171	505.94
467.391	502.94
467.61	519.94
467.829	525.94
468.049	538.94
468.268	488.94
468.488	513.94
468.707	511.94
468.927	489.94
469.146	477.94
469.365	485.94
469.585	501.94
469.804	511.94
470.023	535.94
470.243	537.94
470.462	531.94
470.681	527.94
470.901	545.94
471.12	523.94
471.339	502.94
471.558	525.94
471.777	509.94
471.997	486.94
472.216	499.94
472.435	500.94
472.654	517.94
472.873	512.94
473.092	496.94
473.311	493.94
473.53	516.94
473.749	529.94
473.968	552.94
474.187	657.94
474.406	716.94
474.625	569.94
474.844	531.94
475.063	514.94
475.282	538.94
475.501	519.94
475.72	537.94
475.939	517.94
476.158	505.94
476.377	555.94
476.596	528.94
476.814	556.94
477.033	555.94
477.252	545.94
477.471	571.94
477.69	558.94
477.908	578.94
478.127	558.94
478.346	551.94
478.564	580.94
478.783	575.94
479.002	589.94
479.22	593.94
479.439	600.94
479.658	648.94
479.876	628.94
480.095	615.94
480.313	665.94
480.532	636.94
480.751	627.94
480.969	646.94
481.188	642.94
481.406	655.94
481.624	634.94
481.843	625.94
482.061	600.94
482.28	599.94
482.498	591.94
482.717	610.94
482.935	598.94
483.153	608.94
483.372	616.94
483.59	597.94
483.808	585.94
484.027	588.94
484.245	604.94
484.463	585.94
484.681	613.94
484.9	625.94
485.118	627.94
485.336	630.94
485.554	620.94
485.772	630.94
485.99	631.94
486.209	624.94
486.427	629.94
486.645	639.94
486.863	659.94
487.081	649.94
487.299	640.94
487.517	653.94
487.735	653.94
487.953	629.94
488.171	635.94
488.389	633.94
488.607	652.94
488.825	660.94
489.043	647.94
489.261	651.94
489.479	663.94
489.696	649.94
489.914	678.94
490.132	671.94
490.35	671.94
490.568	672.94
490.786	683.94
491.003	687.94
491.221	684.94
491.439	697.94
491.657	693.94
491.874	713.94
492.092	723.94
492.31	735.94
492.527	727.94
492.745	720.94
492.963	758.94
493.18	732.94
493.398	738.94
493.615	744.94
493.833	732.94
494.05	751.94
494.268	739.94
494.485	731.94
494.703	725.94
494.92	745.94
495.138	751.94
495.355	756.94
495.573	757.94
495.79	747.94
496.008	768.94
496.225	749.94
496.442	785.94
496.66	757.94
496.877	761.94
497.094	769.94
497.312	768.94
497.529	797.94
497.746	786.94
497.963	832.94
498.181	839.94
498.398	849.94
498.615	879.94
498.832	873.94
499.049	886.94
499.267	911.94
499.484	941.94
499.701	956.94
499.918	1013.94
500.135	1047.94
500.352	1080.94
500.569	1104.94
500.786	1094.94
501.003	1100.94
501.22	1058.94
501.437	1039.94
501.654	1021.94
501.871	983.94
502.088	976.94
502.305	922.94
502.522	892.94
502.739	859.94
502.956	857.94
503.172	849.94
503.389	809.94
503.606	826.94
503.823	809.94
504.04	803.94
504.256	783.94
504.473	793.94
504.69	777.94
504.907	773.94
505.123	743.94
505.34	753.94
505.557	745.94
505.773	739.94
505.99	762.94
506.207	767.94
506.423	748.94
506.64	719.94
506.856	728.94
507.073	707.94
507.289	726.94
507.506	715.94
507.722	698.94
507.939	771.94
508.155	724.94
508.372	702.94
508.588	709.94
508.805	699.94
509.021	680.94
509.238	714.94
509.454	725.94
509.67	688.94
509.887	705.94
510.103	687.94
510.319	720.94
510.536	817.94
510.752	1344.94
510.968	1059.94
511.184	732.94
511.401	691.94
511.617	677.94
511.833	686.94
512.049	645.94
512.265	685.94
512.481	648.94
512.698	664.94
512.914	655.94
513.13	645.94
513.346	655.94
513.562	663.94
513.778	696.94
513.994	680.94
514.21	695.94
514.426	729.94
514.642	761.94
514.858	792.94
515.074	803.94
515.29	947.94
515.506	1405.94
515.721	1185.94
515.937	813.94
516.153	743.94
516.369	715.94
516.585	728.94
516.801	691.94
517.016	703.94
517.232	697.94
517.448	697.94
517.664	708.94
517.879	701.94
518.095	698.94
518.311	687.94
518.527	681.94
518.742	674.94
518.958	685.94
519.173	665.94
519.389	673.94
519.605	688.94
519.82	660.94
520.036	677.94
520.251	704.94
520.467	731.94
520.682	736.94
520.898	712.94
521.113	732.94
521.329	811.94
521.544	888.94
521.76	1069.94
521.975	1753.94
522.19	1827.94
522.406	988.94
522.621	760.94
522.836	692.94
523.052	669.94
523.267	645.94
523.482	633.94
523.698	625.94
523.913	616.94
524.128	599.94
524.343	599.94
524.559	592.94
524.774	583.94
524.989	585.94
525.204	586.94
525.419	593.94
525.634	602.94
525.849	587.94
526.064	575.94
526.28	575.94
526.495	569.94
526.71	573.94
526.925	530.94
527.14	557.94
527.355	557.94
527.57	529.94
527.785	553.94
527.999	535.94
528.214	526.94
528.429	559.94
528.644	539.94
528.859	542.94
529.074	545.94
529.289	572.94
529.503	650.94
529.718	634.94
529.933	584.94
530.148	567.94
530.363	552.94
530.577	543.94
530.792	547.94
531.007	555.94
531.221	550.94
531.436	523.94
531.651	545.94
531.865	515.94
532.08	533.94
532.295	529.94
532.509	527.94
532.724	543.94
532.938	533.94
533.153	556.94
533.367	535.94
533.582	524.94
533.796	535.94
534.011	517.94
534.225	525.94
534.44	511.94
534.654	530.94
534.868	520.94
535.083	523.94
535.297	525.94
535.511	514.94
535.726	523.94
535.94	515.94
536.154	532.94
536.369	509.94
536.583	523.94
536.797	496.94
537.011	513.94
537.225	507.94
537.44	514.94
537.654	516.94
537.868	492.94
538.082	489.94
538.296	528.94
538.51	511.94
538.724	505.94
538.938	520.94
539.153	512.94
539.367	491.94
539.581	519.94
539.795	503.94
540.009	493.94
540.222	504.94
540.436	501.94
540.65	485.94
540.864	504.94
541.078	523.94
541.292	492.94
541.506	516.94
541.72	489.94
541.934	523.94
542.147	490.94
542.361	508.94
542.575	495.94
542.789	474.94
543.002	512.94
543.216	476.94
543.43	521.94
543.644	516.94
543.857	479.94
544.071	517.94
544.285	492.94
544.498	483.94
544.712	484.94
544.925	500.94
545.139	487.94
545.352	498.94
545.566	503.94
545.779	507.94
545.993	470.94
546.206	485.94
546.42	484.94
546.633	501.94
546.847	485.94
547.06	484.94
547.274	491.94
547.487	484.94
547.7	478.94
547.914	491.94
548.127	480.94
548.34	487.94
548.554	496.94
548.767	492.94
548.98	482.94
549.193	480.94
549.407	480.94
549.62	485.94
549.833	483.94
550.046	487.94
550.259	495.94
550.473	490.94
550.686	485.94
550.899	441.94
551.112	473.94
551.325	494.94
551.538	486.94
551.751	466.94
551.964	469.94
552.177	475.94
552.39	459.94
552.603	474.94
552.816	478.94
553.029	487.94
553.242	488.94
553.455	467.94
553.667	486.94
553.88	510.94
554.093	481.94
554.306	490.94
554.519	468.94
554.732	450.94
554.944	475.94
555.157	455.94
555.37	454.94
555.583	455.94
555.795	467.94
556.008	444.94
556.221	432.94
556.433	455.94
556.646	448.94
556.859	440.94
557.071	453.94
557.284	432.94
557.496	441.94
557.709	429.94
557.921	426.94
558.134	416.94
558.346	427.94
558.559	411.94
558.771	413.94
558.984	424.94
559.196	431.94
559.409	425.94
559.621	424.94
559.833	441.94
560.046	424.94
560.258	434.94
560.47	405.94
560.683	411.94
560.895	423.94
561.107	429.94
561.32	411.94
561.532	427.94
561.744	415.94
561.956	426.94
562.168	435.94
562.381	420.94
562.593	425.94
562.805	427.94
563.017	416.94
563.229	437.94
563.441	442.94
563.653	457.94
563.865	449.94
564.077	445.94
564.289	421.94
564.501	443.94
564.713	450.94
564.925	438.94
565.137	458.94
565.349	462.94
565.561	466.94
565.773	481.94
565.985	467.94
566.197	478.94
566.408	493.94
566.62	507.94
566.832	508.94
567.044	515.94
567.255	519.94
567.467	532.94
567.679	530.94
567.891	538.94
568.102	540.94
568.314	545.94
568.526	489.94
568.737	479.94
568.949	465.94
569.161	481.94
569.372	451.94
569.584	451.94
569.795	428.94
570.007	447.94
570.218	477.94
570.43	474.94
570.641	427.94
570.853	435.94
571.064	409.94
571.276	407.94
571.487	410.94
571.698	422.94
571.91	417.94
572.121	417.94
572.333	394.94
572.544	385.94
572.755	387.94
572.966	382.94
573.178	389.94
573.389	378.94
573.6	380.94
573.811	357.94
574.023	361.94
574.234	369.94
574.445	379.94
574.656	365.94
574.867	367.94
575.078	378.94
575.289	375.94
575.501	356.94
575.712	343.94
575.923	365.94
576.134	347.94
576.345	373.94
576.556	365.94
576.767	338.94
576.978	380.94
577.188	375.94
577.399	361.94
577.61	370.94
577.821	371.94
578.032	354.94
578.243	399.94
578.454	620.94
578.665	488.94
578.875	366.94
579.086	345.94
579.297	369.94
579.508	346.94
579.718	339.94
579.929	336.94
580.14	328.94
580.35	323.94
580.561	348.94
580.772	338.94
580.982	349.94
581.193	354.94
581.403	326.94
581.614	341.94
581.825	343.94
582.035	309.94
582.246	338.94
582.456	322.94
582.667	355.94
582.877	333.94
583.087	321.94
583.298	318.94
583.508	336.94
583.719	328.94
583.929	317.94
584.139	331.94
584.35	329.94
584.56	331.94
584.77	340.94
584.981	348.94
585.191	323.94
585.401	327.94
585.611	326.94
585.821	327.94
586.032	347.94
586.242	327.94
586.452	324.94
586.662	321.94
586.872	333.94
587.082	313.94
587.292	326.94
587.502	321.94
587.713	332.94
587.923	326.94
588.133	309.94
588.343	312.94
588.553	311.94
588.762	324.94
588.972	328.94
589.182	332.94
589.392	334.94
589.602	321.94
589.812	308.94
590.022	329.94
590.232	327.94
590.441	312.94
590.651	323.94
590.861	323.94
591.071	337.94
591.281	340.94
591.49	309.94
591.7	329.94
591.91	334.94
592.119	328.94
592.329	337.94
592.539	354.94
592.748	330.94
592.958	332.94
593.167	344.94
593.377	353.94
593.587	350.94
593.796	335.94
594.006	332.94
594.215	316.94
594.424	326.94
594.634	326.94
594.843	343.94
595.053	330.94
595.262	322.94
595.472	318.94
595.681	320.94
595.89	307.94
596.1	323.94
596.309	307.94
596.518	308.94
596.727	314.94
596.937	292.94
597.146	303.94
597.355	301.94
597.564	293.94
597.774	296.94
597.983	297.94
598.192	283.94
598.401	295.94
598.61	291.94
598.819	309.94
599.028	279.94
599.237	268.94
599.446	281.94
599.655	289.94
599.864	286.94
600.073	284.94
600.282	288.94
600.491	269.94
600.7	282.94
600.909	281.94
601.118	280.94
601.327	255.94
601.536	270.94
601.745	275.94
601.953	292.94
602.162	280.94
602.371	283.94
602.58	287.94
602.789	272.94
602.997	282.94
603.206	273.94
603.415	264.94
603.623	272.94
603.832	261.94
604.041	268.94
604.249	282.94
604.458	276.94
604.666	267.94
604.875	265.94
605.084	263.94
605.292	258.94
605.501	258.94
605.709	251.94
605.918	259.94
606.126	279.94
606.334	266.94
606.543	255.94
606.751	263.94
606.96	245.94
607.168	240.94
607.376	264.94
607.585	258.94
607.793	275.94
608.001	261.94
608.21	254.94
608.418	250.94
608.626	267.94
608.834	269.94
609.043	268.94
609.251	247.94
609.459	274.94
609.667	269.94
609.875	255.94
610.083	257.94
610.291	248.94
610.499	235.94
610.707	248.94
610.916	248.94
611.124	252.94
611.332	248.94
611.54	263.94
611.748	244.94
611.955	263.94
612.163	264.94
612.371	237.94
612.579	255.94
612.787	273.94
612.995	256.94
613.203	253.94
613.411	240.94
613.618	257.94
613.826	259.94
614.034	256.94
614.242	251.94
614.449	247.94
614.657	276.94
614.865	239.94
615.072	254.94
615.28	227.94
615.488	254.94
615.695	251.94
615.903	248.94
616.111	259.94
616.318	245.94
616.526	250.94
616.733	256.94
616.941	251.94
617.148	247.94
617.356	256.94
617.563	271.94
617.771	249.94
617.978	255.94
618.185	250.94
618.393	248.94
618.6	228.94
618.807	244.94
619.015	243.94
619.222	247.94
619.429	244.94
619.637	235.94
619.844	248.94
620.051	255.94
620.258	232.94
620.466	216.94
620.673	234.94
620.88	226.94
621.087	229.94
621.294	244.94
621.501	244.94
621.708	248.94
621.915	233.94
622.122	243.94
622.329	240.94
622.536	236.94
622.743	237.94
622.95	230.94
623.157	243.94
623.364	235.94
623.571	229.94
623.778	237.94
623.985	209.94
624.192	226.94
624.399	223.94
624.606	221.94
624.812	231.94
625.019	219.94
625.226	243.94
625.433	223.94
625.639	227.94
625.846	213.94
626.053	219.94
626.259	215.94
626.466	221.94
626.673	216.94
626.879	222.94
627.086	221.94
627.293	231.94
627.499	205.94
627.706	215.94
627.912	209.94
628.119	213.94
628.325	203.94
628.532	207.94
628.738	228.94
628.945	208.94
629.151	217.94
629.357	220.94
629.564	205.94
629.77	215.94
629.976	216.94
630.183	207.94
630.389	213.94
630.595	191.94
630.802	203.94
631.008	215.94
631.214	206.94
631.42	199.94
631.627	202.94
631.833	210.94
632.039	200.94
632.245	212.94
632.451	209.94
632.657	207.94
632.863	215.94
633.069	201.94
633.275	199.94
633.481	198.94
633.688	201.94
633.893	199.94
634.099	209.94
634.305	188.94
634.511	203.94
634.717	212.94
634.923	195.94
635.129	194.94
635.335	187.94
635.541	189.94
635.747	190.94
635.952	197.94
636.158	191.94
636.364	196.94
636.57	205.94
636.775	205.94
636.981	182.94
637.187	186.94
637.392	194.94
637.598	191.94
637.804	189.94
638.009	167.94
638.215	192.94
638.421	183.94
638.626	197.94
638.832	178.94
639.037	170.94
639.243	177.94
639.448	197.94
639.654	171.94
639.859	192.94
640.065	175.94
640.27	189.94
640.475	175.94
640.681	193.94
640.886	171.94
641.091	189.94
641.297	169.94
641.502	188.94
641.707	155.94
641.913	185.94
642.118	167.94
642.323	179.94
642.528	186.94
642.733	168.94
642.939	182.94
643.144	173.94
643.349	178.94
643.554	191.94
643.759	166.94
643.964	171.94
644.169	178.94
644.374	169.94
644.579	168.94
644.784	173.94
644.989	179.94
645.194	170.94
645.399	181.94
645.604	171.94
645.809	177.94
646.014	179.94
646.219	194.94
646.423	193.94
646.628	175.94
646.833	165.94
647.038	177.94
647.243	176.94
647.447	165.94
647.652	192.94
647.857	176.94
648.062	173.94
648.266	183.94
648.471	163.94
648.676	177.94
648.88	169.94
649.085	192.94
649.289	187.94
649.494	179.94
649.698	194.94
649.903	193.94
650.107	177.94
650.312	180.94
650.516	164.94
650.721	167.94
650.925	163.94
651.13	156.94
651.334	166.94
651.539	150.94
651.743	158.94
651.947	161.94
652.152	151.94
652.356	155.94
652.56	145.94
652.764	162.94
652.969	135.94
653.173	151.94
653.377	142.94
653.581	139.94
653.785	157.94
653.99	139.94
654.194	159.94
654.398	133.94
654.602	153.94
654.806	139.94
655.01	150.94
655.214	170.94
655.418	136.94
655.622	135.94
655.826	131.94
656.03	156.94
656.234	163.94
656.438	150.94
656.642	149.94
656.846	127.94
657.049	136.94
657.253	127.94
657.457	115.94
657.661	141.94
657.865	137.94
658.068	135.94
658.272	109.94
658.476	112.94
658.68	120.94
658.883	105.94
659.087	115.94
659.291	104.94
659.494	105.94
659.698	99.94
659.901	102.94
660.105	109.94
660.309	103.94
660.512	95.94
660.716	93.94
660.919	119.94
661.123	94.94
661.326	87.94
661.53	105.94
661.733	104.94
661.936	92.94
662.14	100.94
662.343	102.94
662.546	76.94
662.75	89.94
662.953	77.94
663.156	82.94
663.36	85.94
663.563	104.94
663.766	88.94
663.969	89.94
664.173	88.94
664.376	100.94
664.579	88.94
664.782	80.94
664.985	80.94
665.188	89.94
665.391	73.94
665.594	88.94
665.797	91.94
666	84.94
666.203	86.94
666.406	83.94
666.609	83.94
666.812	90.94
667.015	72.94
667.218	79.94
667.421	84.94
667.624	85.94
667.827	77.94
668.03	95.94
668.232	73.94
668.435	94.94
668.638	83.94
668.841	87.94
669.043	110.94
669.246	80.94
669.449	85.94
669.651	100.94
669.854	88.94
670.057	85.94
670.259	89.94
670.462	92.94
670.665	87.94
670.867	83.94
671.07	90.94
671.272	80.94
671.475	88.94
671.677	87.94
671.88	82.94
672.082	91.94
672.284	87.94
672.487	78.94
672.689	92.94
672.892	94.94
