Data from 1988.PennyLincolnUp.Lamp.En5.5.200Scan.071819.P2_HRD10591_17-18-42-971.txt Node
Date: Thu Jul 18 17:18:42 EDT 2019
User: cochatt
Spectrometer: HR+D1059
Trigger mode: 1
Integration Time (sec): 1.000000E-1
Scans to average: 1
Electric dark correction enabled: true
Nonlinearity correction enabled: false
Boxcar width: 0
XAxis mode: Wavelengths
Number of Pixels in Spectrum: 2048
>>>>>Begin Spectral Data<<<<<
223.165	-6.19
223.4	-6.19
223.635	-6.19
223.869	2.81
224.104	-13.19
224.338	-24.19
224.573	-25.19
224.808	-20.19
225.042	-20.19
225.277	-5.19
225.511	-18.19
225.746	-6.19
225.98	14.81
226.215	14.81
226.449	31.81
226.683	26.81
226.918	16.81
227.152	30.81
227.387	43.81
227.621	38.81
227.856	55.81
228.09	41.81
228.324	58.81
228.559	53.81
228.793	72.81
229.027	103.81
229.262	88.81
229.496	122.81
229.73	119.81
229.964	157.81
230.199	123.81
230.433	118.81
230.667	122.81
230.901	110.81
231.136	113.81
231.37	109.81
231.604	118.81
231.838	124.81
232.072	112.81
232.306	119.81
232.541	119.81
232.775	126.81
233.009	109.81
233.243	118.81
233.477	134.81
233.711	110.81
233.945	112.81
234.179	116.81
234.413	104.81
234.647	123.81
234.881	102.81
235.115	121.81
235.349	120.81
235.583	108.81
235.817	121.81
236.051	120.81
236.285	126.81
236.519	107.81
236.753	131.81
236.987	150.81
237.221	165.81
237.455	215.81
237.689	176.81
237.922	130.81
238.156	126.81
238.39	125.81
238.624	127.81
238.858	124.81
239.091	126.81
239.325	113.81
239.559	122.81
239.793	110.81
240.027	132.81
240.26	136.81
240.494	159.81
240.728	132.81
240.961	132.81
241.195	136.81
241.429	135.81
241.662	135.81
241.896	141.81
242.13	142.81
242.363	119.81
242.597	126.81
242.83	138.81
243.064	133.81
243.298	126.81
243.531	139.81
243.765	136.81
243.998	132.81
244.232	141.81
244.465	135.81
244.699	141.81
244.932	134.81
245.166	150.81
245.399	142.81
245.633	127.81
245.866	140.81
246.099	148.81
246.333	144.81
246.566	152.81
246.8	149.81
247.033	149.81
247.266	143.81
247.5	154.81
247.733	158.81
247.966	147.81
248.2	151.81
248.433	150.81
248.666	172.81
248.899	178.81
249.133	207.81
249.366	188.81
249.599	175.81
249.832	160.81
250.066	164.81
250.299	194.81
250.532	183.81
250.765	197.81
250.998	212.81
251.231	196.81
251.465	186.81
251.698	183.81
251.931	205.81
252.164	191.81
252.397	184.81
252.63	190.81
252.863	187.81
253.096	199.81
253.329	208.81
253.562	207.81
253.795	203.81
254.028	208.81
254.261	206.81
254.494	206.81
254.727	234.81
254.96	248.81
255.193	248.81
255.426	227.81
255.659	220.81
255.892	206.81
256.124	208.81
256.357	214.81
256.59	212.81
256.823	196.81
257.056	194.81
257.289	200.81
257.521	203.81
257.754	200.81
257.987	191.81
258.22	206.81
258.452	189.81
258.685	209.81
258.918	200.81
259.151	181.81
259.383	209.81
259.616	197.81
259.849	221.81
260.081	208.81
260.314	233.81
260.547	237.81
260.779	242.81
261.012	219.81
261.244	215.81
261.477	210.81
261.71	216.81
261.942	230.81
262.175	231.81
262.407	219.81
262.64	220.81
262.872	204.81
263.105	196.81
263.337	205.81
263.57	219.81
263.802	226.81
264.035	207.81
264.267	190.81
264.499	207.81
264.732	207.81
264.964	194.81
265.197	207.81
265.429	200.81
265.661	220.81
265.894	208.81
266.126	196.81
266.358	217.81
266.591	206.81
266.823	207.81
267.055	210.81
267.287	197.81
267.52	214.81
267.752	208.81
267.984	229.81
268.216	223.81
268.448	213.81
268.681	222.81
268.913	231.81
269.145	247.81
269.377	261.81
269.609	263.81
269.841	246.81
270.073	267.81
270.306	290.81
270.538	286.81
270.77	285.81
271.002	273.81
271.234	280.81
271.466	281.81
271.698	268.81
271.93	293.81
272.162	303.81
272.394	284.81
272.626	278.81
272.858	267.81
273.09	264.81
273.322	253.81
273.553	261.81
273.785	263.81
274.017	256.81
274.249	275.81
274.481	276.81
274.713	246.81
274.945	269.81
275.176	267.81
275.408	265.81
275.64	251.81
275.872	249.81
276.104	261.81
276.335	253.81
276.567	281.81
276.799	276.81
277.031	286.81
277.262	279.81
277.494	308.81
277.726	296.81
277.957	286.81
278.189	274.81
278.421	262.81
278.652	274.81
278.884	257.81
279.115	267.81
279.347	272.81
279.579	269.81
279.81	247.81
280.042	262.81
280.273	257.81
280.505	258.81
280.736	258.81
280.968	282.81
281.199	283.81
281.431	270.81
281.662	258.81
281.894	271.81
282.125	268.81
282.356	249.81
282.588	303.81
282.819	304.81
283.051	274.81
283.282	279.81
283.513	293.81
283.745	277.81
283.976	260.81
284.207	274.81
284.439	277.81
284.67	285.81
284.901	282.81
285.132	277.81
285.364	286.81
285.595	269.81
285.826	250.81
286.057	261.81
286.288	262.81
286.52	282.81
286.751	279.81
286.982	267.81
287.213	264.81
287.444	286.81
287.675	277.81
287.906	279.81
288.138	297.81
288.369	283.81
288.6	314.81
288.831	309.81
289.062	305.81
289.293	294.81
289.524	278.81
289.755	297.81
289.986	290.81
290.217	276.81
290.448	275.81
290.679	276.81
290.91	285.81
291.141	282.81
291.371	293.81
291.602	292.81
291.833	272.81
292.064	301.81
292.295	272.81
292.526	269.81
292.757	294.81
292.987	289.81
293.218	272.81
293.449	292.81
293.68	288.81
293.91	292.81
294.141	293.81
294.372	280.81
294.603	286.81
294.833	308.81
295.064	298.81
295.295	284.81
295.525	281.81
295.756	297.81
295.987	308.81
296.217	316.81
296.448	320.81
296.679	312.81
296.909	301.81
297.14	293.81
297.37	292.81
297.601	291.81
297.831	311.81
298.062	315.81
298.292	299.81
298.523	311.81
298.753	307.81
298.984	312.81
299.214	300.81
299.445	298.81
299.675	309.81
299.905	305.81
300.136	319.81
300.366	306.81
300.597	314.81
300.827	325.81
301.057	327.81
301.288	340.81
301.518	336.81
301.748	330.81
301.979	321.81
302.209	322.81
302.439	339.81
302.669	336.81
302.9	318.81
303.13	326.81
303.36	316.81
303.59	327.81
303.82	314.81
304.051	315.81
304.281	324.81
304.511	332.81
304.741	329.81
304.971	326.81
305.201	328.81
305.431	333.81
305.661	318.81
305.891	322.81
306.121	343.81
306.352	329.81
306.582	346.81
306.812	341.81
307.042	330.81
307.272	333.81
307.502	335.81
307.731	363.81
307.961	346.81
308.191	330.81
308.421	335.81
308.651	336.81
308.881	327.81
309.111	349.81
309.341	349.81
309.571	348.81
309.8	343.81
310.03	352.81
310.26	362.81
310.49	368.81
310.72	363.81
310.949	399.81
311.179	390.81
311.409	364.81
311.639	366.81
311.868	365.81
312.098	365.81
312.328	389.81
312.557	406.81
312.787	395.81
313.017	415.81
313.246	393.81
313.476	367.81
313.706	381.81
313.935	402.81
314.165	392.81
314.394	394.81
314.624	390.81
314.853	371.81
315.083	368.81
315.312	378.81
315.542	392.81
315.771	371.81
316.001	369.81
316.23	358.81
316.46	380.81
316.689	394.81
316.919	374.81
317.148	401.81
317.377	379.81
317.607	395.81
317.836	384.81
318.065	385.81
318.295	386.81
318.524	364.81
318.753	372.81
318.983	373.81
319.212	376.81
319.441	380.81
319.67	385.81
319.9	384.81
320.129	396.81
320.358	382.81
320.587	388.81
320.816	409.81
321.046	392.81
321.275	408.81
321.504	412.81
321.733	395.81
321.962	408.81
322.191	420.81
322.42	434.81
322.649	441.81
322.878	452.81
323.108	458.81
323.337	469.81
323.566	466.81
323.795	503.81
324.024	543.81
324.253	616.81
324.482	897.81
324.71	1348.81
324.939	1954.81
325.168	1704.81
325.397	878.81
325.626	623.81
325.855	523.81
326.084	517.81
326.313	500.81
326.542	478.81
326.77	523.81
326.999	611.81
327.228	813.81
327.457	1199.81
327.686	1454.81
327.914	968.81
328.143	676.81
328.372	555.81
328.6	550.81
328.829	534.81
329.058	551.81
329.287	533.81
329.515	491.81
329.744	485.81
329.972	492.81
330.201	500.81
330.43	515.81
330.658	522.81
330.887	573.81
331.115	537.81
331.344	491.81
331.572	486.81
331.801	502.81
332.03	462.81
332.258	452.81
332.486	436.81
332.715	441.81
332.943	462.81
333.172	461.81
333.4	465.81
333.629	462.81
333.857	458.81
334.085	472.81
334.314	451.81
334.542	456.81
334.771	466.81
334.999	476.81
335.227	442.81
335.455	459.81
335.684	448.81
335.912	450.81
336.14	443.81
336.369	454.81
336.597	453.81
336.825	442.81
337.053	431.81
337.281	439.81
337.51	429.81
337.738	436.81
337.966	440.81
338.194	440.81
338.422	448.81
338.65	442.81
338.878	453.81
339.106	440.81
339.334	456.81
339.562	411.81
339.79	422.81
340.018	440.81
340.246	425.81
340.474	427.81
340.702	447.81
340.93	427.81
341.158	426.81
341.386	426.81
341.614	445.81
341.842	434.81
342.07	436.81
342.298	425.81
342.526	419.81
342.754	416.81
342.981	408.81
343.209	423.81
343.437	424.81
343.665	434.81
343.893	451.81
344.12	436.81
344.348	456.81
344.576	452.81
344.804	444.81
345.031	420.81
345.259	447.81
345.487	467.81
345.714	439.81
345.942	415.81
346.17	432.81
346.397	458.81
346.625	416.81
346.853	414.81
347.08	405.81
347.308	424.81
347.535	426.81
347.763	431.81
347.99	426.81
348.218	444.81
348.445	422.81
348.673	422.81
348.9	414.81
349.128	423.81
349.355	386.81
349.583	408.81
349.81	424.81
350.037	421.81
350.265	382.81
350.492	409.81
350.72	388.81
350.947	405.81
351.174	426.81
351.402	420.81
351.629	421.81
351.856	404.81
352.083	457.81
352.311	434.81
352.538	423.81
352.765	438.81
352.992	414.81
353.22	418.81
353.447	426.81
353.674	436.81
353.901	410.81
354.128	412.81
354.355	384.81
354.583	396.81
354.81	407.81
355.037	417.81
355.264	400.81
355.491	404.81
355.718	392.81
355.945	398.81
356.172	390.81
356.399	401.81
356.626	404.81
356.853	380.81
357.08	403.81
357.307	394.81
357.534	401.81
357.761	394.81
357.988	388.81
358.215	412.81
358.441	392.81
358.668	384.81
358.895	417.81
359.122	390.81
359.349	414.81
359.576	410.81
359.802	431.81
360.029	432.81
360.256	441.81
360.483	447.81
360.709	417.81
360.936	392.81
361.163	427.81
361.39	418.81
361.616	414.81
361.843	413.81
362.07	395.81
362.296	414.81
362.523	419.81
362.749	412.81
362.976	417.81
363.203	414.81
363.429	412.81
363.656	388.81
363.882	409.81
364.109	418.81
364.335	427.81
364.562	405.81
364.788	413.81
365.015	407.81
365.241	411.81
365.468	408.81
365.694	411.81
365.92	408.81
366.147	387.81
366.373	405.81
366.599	385.81
366.826	410.81
367.052	367.81
367.278	400.81
367.505	390.81
367.731	418.81
367.957	416.81
368.184	396.81
368.41	391.81
368.636	422.81
368.862	427.81
369.089	391.81
369.315	405.81
369.541	413.81
369.767	405.81
369.993	398.81
370.219	416.81
370.445	395.81
370.672	425.81
370.898	403.81
371.124	406.81
371.35	404.81
371.576	398.81
371.802	404.81
372.028	422.81
372.254	419.81
372.48	414.81
372.706	384.81
372.932	409.81
373.158	412.81
373.384	408.81
373.61	422.81
373.835	416.81
374.061	396.81
374.287	410.81
374.513	410.81
374.739	419.81
374.965	420.81
375.191	411.81
375.416	424.81
375.642	419.81
375.868	419.81
376.094	404.81
376.319	412.81
376.545	395.81
376.771	405.81
376.997	392.81
377.222	405.81
377.448	416.81
377.674	394.81
377.899	410.81
378.125	404.81
378.35	408.81
378.576	408.81
378.802	396.81
379.027	384.81
379.253	411.81
379.478	398.81
379.704	406.81
379.929	394.81
380.155	412.81
380.38	431.81
380.606	406.81
380.831	420.81
381.057	399.81
381.282	400.81
381.507	393.81
381.733	407.81
381.958	407.81
382.184	416.81
382.409	414.81
382.634	430.81
382.86	406.81
383.085	440.81
383.31	434.81
383.535	438.81
383.761	428.81
383.986	440.81
384.211	434.81
384.436	435.81
384.662	427.81
384.887	424.81
385.112	428.81
385.337	411.81
385.562	445.81
385.787	423.81
386.013	473.81
386.238	477.81
386.463	472.81
386.688	458.81
386.913	455.81
387.138	469.81
387.363	434.81
387.588	448.81
387.813	444.81
388.038	460.81
388.263	427.81
388.488	444.81
388.713	455.81
388.938	449.81
389.163	462.81
389.387	452.81
389.612	478.81
389.837	450.81
390.062	439.81
390.287	432.81
390.512	438.81
390.736	446.81
390.961	445.81
391.186	423.81
391.411	461.81
391.636	454.81
391.86	435.81
392.085	475.81
392.31	478.81
392.534	454.81
392.759	463.81
392.984	456.81
393.208	455.81
393.433	471.81
393.658	472.81
393.882	449.81
394.107	450.81
394.331	460.81
394.556	456.81
394.78	452.81
395.005	462.81
395.229	455.81
395.454	478.81
395.678	474.81
395.903	476.81
396.127	472.81
396.352	489.81
396.576	473.81
396.801	475.81
397.025	456.81
397.249	466.81
397.474	471.81
397.698	447.81
397.922	507.81
398.147	515.81
398.371	518.81
398.595	512.81
398.82	515.81
399.044	524.81
399.268	557.81
399.492	583.81
399.717	574.81
399.941	634.81
400.165	630.81
400.389	637.81
400.613	585.81
400.837	548.81
401.062	535.81
401.286	529.81
401.51	515.81
401.734	522.81
401.958	513.81
402.182	517.81
402.406	527.81
402.63	521.81
402.854	503.81
403.078	544.81
403.302	546.81
403.526	538.81
403.75	522.81
403.974	552.81
404.198	530.81
404.422	548.81
404.645	538.81
404.869	541.81
405.093	563.81
405.317	578.81
405.541	589.81
405.765	553.81
405.988	543.81
406.212	568.81
406.436	589.81
406.66	579.81
406.883	594.81
407.107	580.81
407.331	635.81
407.555	689.81
407.778	705.81
408.002	649.81
408.226	612.81
408.449	599.81
408.673	595.81
408.896	626.81
409.12	655.81
409.344	616.81
409.567	563.81
409.791	546.81
410.014	545.81
410.238	541.81
410.461	544.81
410.685	547.81
410.908	539.81
411.132	567.81
411.355	588.81
411.578	587.81
411.802	554.81
412.025	548.81
412.249	536.81
412.472	521.81
412.695	525.81
412.919	535.81
413.142	532.81
413.365	512.81
413.589	502.81
413.812	502.81
414.035	512.81
414.258	509.81
414.482	517.81
414.705	518.81
414.928	512.81
415.151	516.81
415.374	492.81
415.597	503.81
415.821	504.81
416.044	486.81
416.267	522.81
416.49	512.81
416.713	509.81
416.936	483.81
417.159	496.81
417.382	501.81
417.605	514.81
417.828	518.81
418.051	535.81
418.274	521.81
418.497	490.81
418.72	509.81
418.943	494.81
419.166	541.81
419.389	554.81
419.611	537.81
419.834	549.81
420.057	529.81
420.28	519.81
420.503	533.81
420.726	494.81
420.948	524.81
421.171	568.81
421.394	574.81
421.617	534.81
421.839	536.81
422.062	512.81
422.285	554.81
422.507	582.81
422.73	644.81
422.953	667.81
423.175	564.81
423.398	554.81
423.621	560.81
423.843	556.81
424.066	557.81
424.288	543.81
424.511	588.81
424.733	656.81
424.956	716.81
425.178	675.81
425.401	678.81
425.623	701.81
425.846	589.81
426.068	580.81
426.291	550.81
426.513	554.81
426.735	566.81
426.958	630.81
427.18	686.81
427.402	811.81
427.625	880.81
427.847	760.81
428.069	649.81
428.292	594.81
428.514	543.81
428.736	546.81
428.958	552.81
429.181	482.81
429.403	532.81
429.625	538.81
429.847	537.81
430.069	612.81
430.292	610.81
430.514	535.81
430.736	514.81
430.958	506.81
431.18	519.81
431.402	499.81
431.624	482.81
431.846	487.81
432.068	461.81
432.29	481.81
432.512	504.81
432.734	514.81
432.956	507.81
433.178	524.81
433.4	499.81
433.622	502.81
433.844	484.81
434.066	488.81
434.287	497.81
434.509	503.81
434.731	514.81
434.953	531.81
435.175	556.81
435.397	542.81
435.618	552.81
435.84	575.81
436.062	677.81
436.284	737.81
436.505	622.81
436.727	546.81
436.949	521.81
437.17	528.81
437.392	535.81
437.614	528.81
437.835	548.81
438.057	619.81
438.278	750.81
438.5	724.81
438.721	815.81
438.943	781.81
439.165	622.81
439.386	554.81
439.608	561.81
439.829	571.81
440.05	609.81
440.272	638.81
440.493	610.81
440.715	549.81
440.936	531.81
441.158	536.81
441.379	518.81
441.6	536.81
441.822	588.81
442.043	605.81
442.264	673.81
442.486	714.81
442.707	624.81
442.928	573.81
443.149	559.81
443.371	607.81
443.592	630.81
443.813	737.81
444.034	792.81
444.255	652.81
444.476	588.81
444.698	566.81
444.919	570.81
445.14	645.81
445.361	633.81
445.582	604.81
445.803	647.81
446.024	754.81
446.245	764.81
446.466	684.81
446.687	603.81
446.908	558.81
447.129	548.81
447.35	526.81
447.571	531.81
447.792	515.81
448.013	527.81
448.234	530.81
448.455	579.81
448.675	690.81
448.896	816.81
449.117	695.81
449.338	640.81
449.559	758.81
449.779	882.81
450	693.81
450.221	594.81
450.442	531.81
450.662	512.81
450.883	543.81
451.104	511.81
451.324	511.81
451.545	504.81
451.766	490.81
451.986	453.81
452.207	461.81
452.428	469.81
452.648	465.81
452.869	468.81
453.089	475.81
453.31	481.81
453.53	475.81
453.751	468.81
453.971	493.81
454.192	460.81
454.412	490.81
454.633	469.81
454.853	452.81
455.073	452.81
455.294	488.81
455.514	551.81
455.734	523.81
455.955	468.81
456.175	426.81
456.395	438.81
456.616	451.81
456.836	457.81
457.056	430.81
457.276	438.81
457.497	439.81
457.717	443.81
457.937	434.81
458.157	459.81
458.377	458.81
458.598	470.81
458.818	514.81
459.038	595.81
459.258	612.81
459.478	547.81
459.698	499.81
459.918	518.81
460.138	510.81
460.358	509.81
460.578	503.81
460.798	490.81
461.018	509.81
461.238	526.81
461.458	525.81
461.678	520.81
461.898	490.81
462.118	494.81
462.338	531.81
462.558	525.81
462.777	539.81
462.997	548.81
463.217	566.81
463.437	562.81
463.657	546.81
463.876	554.81
464.096	550.81
464.316	557.81
464.536	554.81
464.755	539.81
464.975	544.81
465.195	570.81
465.414	616.81
465.634	570.81
465.854	539.81
466.073	507.81
466.293	519.81
466.512	474.81
466.732	485.81
466.951	476.81
467.171	489.81
467.391	467.81
467.61	512.81
467.829	505.81
468.049	480.81
468.268	472.81
468.488	457.81
468.707	462.81
468.927	478.81
469.146	449.81
469.365	485.81
469.585	493.81
469.804	487.81
470.023	495.81
470.243	478.81
470.462	470.81
470.681	503.81
470.901	512.81
471.12	525.81
471.339	495.81
471.558	475.81
471.777	488.81
471.997	464.81
472.216	482.81
472.435	482.81
472.654	482.81
472.873	476.81
473.092	462.81
473.311	489.81
473.53	494.81
473.749	487.81
473.968	526.81
474.187	611.81
474.406	622.81
474.625	531.81
474.844	525.81
475.063	489.81
475.282	483.81
475.501	493.81
475.72	510.81
475.939	504.81
476.158	525.81
476.377	512.81
476.596	502.81
476.814	518.81
477.033	522.81
477.252	514.81
477.471	529.81
477.69	548.81
477.908	542.81
478.127	530.81
478.346	547.81
478.564	530.81
478.783	564.81
479.002	562.81
479.22	568.81
479.439	597.81
479.658	598.81
479.876	585.81
480.095	602.81
480.313	607.81
480.532	609.81
480.751	598.81
480.969	590.81
481.188	608.81
481.406	600.81
481.624	576.81
481.843	582.81
482.061	570.81
482.28	589.81
482.498	574.81
482.717	582.81
482.935	551.81
483.153	591.81
483.372	571.81
483.59	607.81
483.808	571.81
484.027	559.81
484.245	584.81
484.463	595.81
484.681	606.81
484.9	595.81
485.118	576.81
485.336	601.81
485.554	571.81
485.772	621.81
485.99	588.81
486.209	592.81
486.427	581.81
486.645	578.81
486.863	614.81
487.081	602.81
487.299	591.81
487.517	604.81
487.735	614.81
487.953	606.81
488.171	608.81
488.389	601.81
488.607	603.81
488.825	630.81
489.043	623.81
489.261	626.81
489.479	619.81
489.696	623.81
489.914	626.81
490.132	621.81
490.35	660.81
490.568	653.81
490.786	655.81
491.003	646.81
491.221	650.81
491.439	668.81
491.657	676.81
491.874	677.81
492.092	659.81
492.31	677.81
492.527	676.81
492.745	706.81
492.963	669.81
493.18	702.81
493.398	697.81
493.615	714.81
493.833	704.81
494.05	693.81
494.268	695.81
494.485	709.81
494.703	699.81
494.92	727.81
495.138	701.81
495.355	703.81
495.573	710.81
495.79	744.81
496.008	724.81
496.225	735.81
496.442	735.81
496.66	728.81
496.877	738.81
497.094	739.81
497.312	761.81
497.529	740.81
497.746	772.81
497.963	768.81
498.181	789.81
498.398	797.81
498.615	812.81
498.832	820.81
499.049	851.81
499.267	879.81
499.484	894.81
499.701	910.81
499.918	958.81
500.135	975.81
500.352	1048.81
500.569	1047.81
500.786	1052.81
501.003	1029.81
501.22	997.81
501.437	950.81
501.654	932.81
501.871	941.81
502.088	886.81
502.305	886.81
502.522	840.81
502.739	834.81
502.956	810.81
503.172	775.81
503.389	774.81
503.606	772.81
503.823	759.81
504.04	756.81
504.256	737.81
504.473	766.81
504.69	747.81
504.907	781.81
505.123	730.81
505.34	718.81
505.557	725.81
505.773	721.81
505.99	687.81
506.207	677.81
506.423	713.81
506.64	685.81
506.856	671.81
507.073	683.81
507.289	662.81
507.506	672.81
507.722	679.81
507.939	680.81
508.155	674.81
508.372	660.81
508.588	646.81
508.805	671.81
509.021	647.81
509.238	673.81
509.454	672.81
509.67	661.81
509.887	641.81
510.103	635.81
510.319	648.81
510.536	718.81
510.752	1122.81
510.968	979.81
511.184	680.81
511.401	638.81
511.617	659.81
511.833	628.81
512.049	616.81
512.265	602.81
512.481	615.81
512.698	599.81
512.914	633.81
513.13	628.81
513.346	602.81
513.562	612.81
513.778	610.81
513.994	636.81
514.21	650.81
514.426	650.81
514.642	696.81
514.858	716.81
515.074	764.81
515.29	820.81
515.506	1154.81
515.721	972.81
515.937	722.81
516.153	673.81
516.369	674.81
516.585	662.81
516.801	662.81
517.016	645.81
517.232	641.81
517.448	672.81
517.664	654.81
517.879	667.81
518.095	662.81
518.311	635.81
518.527	642.81
518.742	652.81
518.958	653.81
519.173	634.81
519.389	620.81
519.605	637.81
519.82	612.81
520.036	646.81
520.251	625.81
520.467	668.81
520.682	656.81
520.898	657.81
521.113	683.81
521.329	724.81
521.544	795.81
521.76	909.81
521.975	1424.81
522.19	1471.81
522.406	860.81
522.621	693.81
522.836	644.81
523.052	611.81
523.267	570.81
523.482	570.81
523.698	567.81
523.913	567.81
524.128	586.81
524.343	570.81
524.559	549.81
524.774	558.81
524.989	541.81
525.204	551.81
525.419	557.81
525.634	541.81
525.849	531.81
526.064	547.81
526.28	532.81
526.495	550.81
526.71	531.81
526.925	508.81
527.14	529.81
527.355	507.81
527.57	518.81
527.785	546.81
527.999	509.81
528.214	516.81
528.429	531.81
528.644	519.81
528.859	526.81
529.074	529.81
529.289	518.81
529.503	582.81
529.718	564.81
529.933	543.81
530.148	516.81
530.363	533.81
530.577	502.81
530.792	511.81
531.007	501.81
531.221	494.81
531.436	505.81
531.651	515.81
531.865	514.81
532.08	491.81
532.295	510.81
532.509	514.81
532.724	495.81
532.938	502.81
533.153	488.81
533.367	485.81
533.582	500.81
533.796	481.81
534.011	488.81
534.225	478.81
534.44	487.81
534.654	485.81
534.868	491.81
535.083	488.81
535.297	522.81
535.511	486.81
535.726	503.81
535.94	492.81
536.154	506.81
536.369	482.81
536.583	491.81
536.797	474.81
537.011	499.81
537.225	471.81
537.44	479.81
537.654	468.81
537.868	474.81
538.082	472.81
538.296	463.81
538.51	492.81
538.724	468.81
538.938	485.81
539.153	477.81
539.367	466.81
539.581	468.81
539.795	469.81
540.009	480.81
540.222	478.81
540.436	468.81
540.65	479.81
540.864	493.81
541.078	499.81
541.292	497.81
541.506	486.81
541.72	464.81
541.934	472.81
542.147	458.81
542.361	461.81
542.575	483.81
542.789	475.81
543.002	469.81
543.216	479.81
543.43	482.81
543.644	454.81
543.857	464.81
544.071	471.81
544.285	494.81
544.498	478.81
544.712	472.81
544.925	469.81
545.139	439.81
545.352	460.81
545.566	447.81
545.779	462.81
545.993	468.81
546.206	500.81
546.42	485.81
546.633	470.81
546.847	455.81
547.06	478.81
547.274	437.81
547.487	457.81
547.7	478.81
547.914	476.81
548.127	450.81
548.34	449.81
548.554	460.81
548.767	453.81
548.98	453.81
549.193	441.81
549.407	459.81
549.62	462.81
549.833	458.81
550.046	478.81
550.259	447.81
550.473	464.81
550.686	466.81
550.899	462.81
551.112	463.81
551.325	448.81
551.538	473.81
551.751	448.81
551.964	446.81
552.177	439.81
552.39	460.81
552.603	467.81
552.816	438.81
553.029	459.81
553.242	434.81
553.455	470.81
553.667	478.81
553.88	467.81
554.093	442.81
554.306	476.81
554.519	451.81
554.732	467.81
554.944	451.81
555.157	430.81
555.37	436.81
555.583	448.81
555.795	432.81
556.008	422.81
556.221	439.81
556.433	423.81
556.646	417.81
556.859	415.81
557.071	420.81
557.284	423.81
557.496	412.81
557.709	418.81
557.921	408.81
558.134	414.81
558.346	419.81
558.559	404.81
558.771	391.81
558.984	387.81
559.196	421.81
559.409	399.81
559.621	405.81
559.833	421.81
560.046	403.81
560.258	411.81
560.47	398.81
560.683	398.81
560.895	424.81
561.107	396.81
561.32	418.81
561.532	400.81
561.744	385.81
561.956	414.81
562.168	400.81
562.381	404.81
562.593	406.81
562.805	403.81
563.017	406.81
563.229	409.81
563.441	418.81
563.653	421.81
563.865	404.81
564.077	410.81
564.289	428.81
564.501	420.81
564.713	435.81
564.925	424.81
565.137	440.81
565.349	450.81
565.561	411.81
565.773	458.81
565.985	442.81
566.197	470.81
566.408	472.81
566.62	480.81
566.832	512.81
567.044	499.81
567.255	522.81
567.467	490.81
567.679	525.81
567.891	525.81
568.102	514.81
568.314	487.81
568.526	498.81
568.737	484.81
568.949	474.81
569.161	443.81
569.372	444.81
569.584	442.81
569.795	436.81
570.007	399.81
570.218	428.81
570.43	447.81
570.641	416.81
570.853	428.81
571.064	395.81
571.276	408.81
571.487	387.81
571.698	397.81
571.91	400.81
572.121	370.81
572.333	368.81
572.544	370.81
572.755	362.81
572.966	382.81
573.178	362.81
573.389	348.81
573.6	367.81
573.811	348.81
574.023	370.81
574.234	377.81
574.445	368.81
574.656	364.81
574.867	359.81
575.078	362.81
575.289	347.81
575.501	349.81
575.712	346.81
575.923	352.81
576.134	345.81
576.345	357.81
576.556	343.81
576.767	360.81
576.978	348.81
577.188	340.81
577.399	357.81
577.61	336.81
577.821	347.81
578.032	347.81
578.243	371.81
578.454	546.81
578.665	429.81
578.875	343.81
579.086	365.81
579.297	335.81
579.508	328.81
579.718	342.81
579.929	323.81
580.14	320.81
580.35	330.81
580.561	327.81
580.772	319.81
580.982	312.81
581.193	314.81
581.403	336.81
581.614	347.81
581.825	324.81
582.035	319.81
582.246	341.81
582.456	309.81
582.667	326.81
582.877	322.81
583.087	311.81
583.298	314.81
583.508	322.81
583.719	319.81
583.929	335.81
584.139	301.81
584.35	306.81
584.56	306.81
584.77	313.81
584.981	328.81
585.191	322.81
585.401	325.81
585.611	320.81
585.821	310.81
586.032	305.81
586.242	328.81
586.452	318.81
586.662	310.81
586.872	300.81
587.082	312.81
587.292	318.81
587.502	323.81
587.713	317.81
587.923	303.81
588.133	312.81
588.343	308.81
588.553	306.81
588.762	308.81
588.972	310.81
589.182	339.81
589.392	326.81
589.602	304.81
589.812	308.81
590.022	329.81
590.232	323.81
590.441	308.81
590.651	324.81
590.861	307.81
591.071	320.81
591.281	309.81
591.49	331.81
591.7	299.81
591.91	328.81
592.119	328.81
592.329	311.81
592.539	341.81
592.748	327.81
592.958	314.81
593.167	320.81
593.377	325.81
593.587	310.81
593.796	330.81
594.006	327.81
594.215	328.81
594.424	323.81
594.634	325.81
594.843	326.81
595.053	300.81
595.262	320.81
595.472	324.81
595.681	301.81
595.89	314.81
596.1	298.81
596.309	292.81
596.518	297.81
596.727	291.81
596.937	271.81
597.146	295.81
597.355	298.81
597.564	299.81
597.774	272.81
597.983	284.81
598.192	277.81
598.401	272.81
598.61	280.81
598.819	258.81
599.028	262.81
599.237	271.81
599.446	284.81
599.655	276.81
599.864	279.81
600.073	264.81
600.282	275.81
600.491	272.81
600.7	285.81
600.909	272.81
601.118	293.81
601.327	262.81
601.536	263.81
601.745	264.81
601.953	263.81
602.162	275.81
602.371	267.81
602.58	259.81
602.789	264.81
602.997	251.81
603.206	262.81
603.415	276.81
603.623	272.81
603.832	267.81
604.041	274.81
604.249	264.81
604.458	258.81
604.666	264.81
604.875	250.81
605.084	265.81
605.292	272.81
605.501	266.81
605.709	279.81
605.918	262.81
606.126	267.81
606.334	264.81
606.543	255.81
606.751	241.81
606.96	248.81
607.168	246.81
607.376	263.81
607.585	242.81
607.793	260.81
608.001	254.81
608.21	238.81
608.418	252.81
608.626	235.81
608.834	253.81
609.043	245.81
609.251	260.81
609.459	260.81
609.667	263.81
609.875	259.81
610.083	243.81
610.291	243.81
610.499	254.81
610.707	249.81
610.916	243.81
611.124	268.81
611.332	236.81
611.54	251.81
611.748	262.81
611.955	257.81
612.163	267.81
612.371	263.81
612.579	243.81
612.787	248.81
612.995	231.81
613.203	239.81
613.411	259.81
613.618	246.81
613.826	230.81
614.034	251.81
614.242	236.81
614.449	229.81
614.657	251.81
614.865	239.81
615.072	239.81
615.28	237.81
615.488	240.81
615.695	248.81
615.903	234.81
616.111	250.81
616.318	242.81
616.526	247.81
616.733	254.81
616.941	254.81
617.148	236.81
617.356	236.81
617.563	233.81
617.771	248.81
617.978	231.81
618.185	219.81
618.393	240.81
618.6	246.81
618.807	231.81
619.015	227.81
619.222	223.81
619.429	239.81
619.637	235.81
619.844	238.81
620.051	223.81
620.258	225.81
620.466	214.81
620.673	217.81
620.88	204.81
621.087	211.81
621.294	229.81
621.501	211.81
621.708	232.81
621.915	233.81
622.122	228.81
622.329	229.81
622.536	235.81
622.743	216.81
622.95	208.81
623.157	231.81
623.364	232.81
623.571	230.81
623.778	248.81
623.985	232.81
624.192	210.81
624.399	219.81
624.606	222.81
624.812	218.81
625.019	219.81
625.226	225.81
625.433	224.81
625.639	208.81
625.846	215.81
626.053	204.81
626.259	210.81
626.466	206.81
626.673	206.81
626.879	220.81
627.086	216.81
627.293	219.81
627.499	193.81
627.706	221.81
627.912	207.81
628.119	221.81
628.325	207.81
628.532	202.81
628.738	205.81
628.945	195.81
629.151	208.81
629.357	213.81
629.564	214.81
629.77	204.81
629.976	204.81
630.183	192.81
630.389	214.81
630.595	212.81
630.802	210.81
631.008	187.81
631.214	192.81
631.42	200.81
631.627	214.81
631.833	196.81
632.039	212.81
632.245	210.81
632.451	208.81
632.657	216.81
632.863	200.81
633.069	205.81
633.275	173.81
633.481	171.81
633.688	192.81
633.893	189.81
634.099	194.81
634.305	192.81
634.511	175.81
634.717	203.81
634.923	199.81
635.129	191.81
635.335	175.81
635.541	204.81
635.747	183.81
635.952	195.81
636.158	178.81
636.364	199.81
636.57	184.81
636.775	186.81
636.981	204.81
637.187	196.81
637.392	197.81
637.598	179.81
637.804	184.81
638.009	196.81
638.215	186.81
638.421	190.81
638.626	173.81
638.832	182.81
639.037	191.81
639.243	188.81
639.448	163.81
639.654	175.81
639.859	186.81
640.065	163.81
640.27	164.81
640.475	190.81
640.681	178.81
640.886	182.81
641.091	199.81
641.297	188.81
641.502	182.81
641.707	190.81
641.913	179.81
642.118	167.81
642.323	182.81
642.528	179.81
642.733	191.81
642.939	173.81
643.144	173.81
643.349	175.81
643.554	189.81
643.759	159.81
643.964	182.81
644.169	172.81
644.374	162.81
644.579	175.81
644.784	182.81
644.989	171.81
645.194	163.81
645.399	178.81
645.604	179.81
645.809	155.81
646.014	156.81
646.219	175.81
646.423	170.81
646.628	183.81
646.833	169.81
647.038	166.81
647.243	167.81
647.447	191.81
647.652	172.81
647.857	159.81
648.062	176.81
648.266	191.81
648.471	191.81
648.676	175.81
648.88	187.81
649.085	164.81
649.289	168.81
649.494	168.81
649.698	179.81
649.903	152.81
650.107	184.81
650.312	162.81
650.516	165.81
650.721	184.81
650.925	161.81
651.13	162.81
651.334	153.81
651.539	170.81
651.743	160.81
651.947	150.81
652.152	148.81
652.356	146.81
652.56	160.81
652.764	143.81
652.969	146.81
653.173	156.81
653.377	141.81
653.581	130.81
653.785	134.81
653.99	147.81
654.194	144.81
654.398	146.81
654.602	142.81
654.806	135.81
655.01	146.81
655.214	143.81
655.418	158.81
655.622	131.81
655.826	128.81
656.03	143.81
656.234	150.81
656.438	150.81
656.642	124.81
656.846	141.81
657.049	156.81
657.253	139.81
657.457	130.81
657.661	132.81
657.865	133.81
658.068	119.81
658.272	119.81
658.476	118.81
658.68	105.81
658.883	110.81
659.087	104.81
659.291	101.81
659.494	99.81
659.698	120.81
659.901	103.81
660.105	95.81
660.309	101.81
660.512	101.81
660.716	99.81
660.919	108.81
661.123	99.81
661.326	101.81
661.53	94.81
661.733	80.81
661.936	91.81
662.14	82.81
662.343	99.81
662.546	77.81
662.75	93.81
662.953	84.81
663.156	85.81
663.36	71.81
663.563	77.81
663.766	86.81
663.969	79.81
664.173	88.81
664.376	84.81
664.579	86.81
664.782	89.81
664.985	91.81
665.188	83.81
665.391	84.81
665.594	96.81
665.797	84.81
666	83.81
666.203	80.81
666.406	75.81
666.609	93.81
666.812	85.81
667.015	94.81
667.218	92.81
667.421	82.81
667.624	75.81
667.827	87.81
668.03	87.81
668.232	83.81
668.435	74.81
668.638	76.81
668.841	84.81
669.043	87.81
669.246	92.81
669.449	78.81
669.651	88.81
669.854	81.81
670.057	79.81
670.259	82.81
670.462	92.81
670.665	82.81
670.867	72.81
671.07	83.81
671.272	80.81
671.475	92.81
671.677	71.81
671.88	79.81
672.082	83.81
672.284	78.81
672.487	74.81
672.689	70.81
672.892	93.81
