Data from 1988.PennyLincolnUp.Lamp.En5.5.200Scan.071819.P2_HRD10591_17-20-11-972.txt Node
Date: Thu Jul 18 17:20:11 EDT 2019
User: cochatt
Spectrometer: HR+D1059
Trigger mode: 1
Integration Time (sec): 1.000000E-1
Scans to average: 1
Electric dark correction enabled: true
Nonlinearity correction enabled: false
Boxcar width: 0
XAxis mode: Wavelengths
Number of Pixels in Spectrum: 2048
>>>>>Begin Spectral Data<<<<<
223.165	-19.12
223.4	-19.12
223.635	-19.12
223.869	1.88
224.104	-12.12
224.338	-20.12
224.573	-10.12
224.808	-18.12
225.042	-4.12
225.277	3.88
225.511	-14.12
225.746	7.88
225.98	4.88
226.215	10.88
226.449	12.88
226.683	2.88
226.918	21.88
227.152	30.88
227.387	30.88
227.621	30.88
227.856	39.88
228.09	27.88
228.324	43.88
228.559	41.88
228.793	69.88
229.027	101.88
229.262	121.88
229.496	115.88
229.73	133.88
229.964	162.88
230.199	133.88
230.433	120.88
230.667	129.88
230.901	104.88
231.136	109.88
231.37	113.88
231.604	107.88
231.838	119.88
232.072	109.88
232.306	100.88
232.541	115.88
232.775	113.88
233.009	119.88
233.243	106.88
233.477	117.88
233.711	109.88
233.945	118.88
234.179	100.88
234.413	127.88
234.647	115.88
234.881	121.88
235.115	110.88
235.349	125.88
235.583	113.88
235.817	121.88
236.051	132.88
236.285	124.88
236.519	123.88
236.753	129.88
236.987	156.88
237.221	192.88
237.455	259.88
237.689	201.88
237.922	161.88
238.156	135.88
238.39	141.88
238.624	129.88
238.858	123.88
239.091	111.88
239.325	124.88
239.559	136.88
239.793	128.88
240.027	139.88
240.26	155.88
240.494	162.88
240.728	176.88
240.961	149.88
241.195	171.88
241.429	151.88
241.662	143.88
241.896	127.88
242.13	148.88
242.363	139.88
242.597	147.88
242.83	145.88
243.064	138.88
243.298	159.88
243.531	144.88
243.765	142.88
243.998	154.88
244.232	159.88
244.465	155.88
244.699	152.88
244.932	159.88
245.166	147.88
245.399	148.88
245.633	153.88
245.866	145.88
246.099	156.88
246.333	155.88
246.566	155.88
246.8	169.88
247.033	147.88
247.266	160.88
247.5	178.88
247.733	172.88
247.966	164.88
248.2	161.88
248.433	189.88
248.666	179.88
248.899	195.88
249.133	203.88
249.366	214.88
249.599	230.88
249.832	193.88
250.066	202.88
250.299	183.88
250.532	214.88
250.765	227.88
250.998	232.88
251.231	232.88
251.465	210.88
251.698	209.88
251.931	207.88
252.164	208.88
252.397	187.88
252.63	198.88
252.863	194.88
253.096	210.88
253.329	211.88
253.562	230.88
253.795	218.88
254.028	229.88
254.261	221.88
254.494	234.88
254.727	263.88
254.96	303.88
255.193	295.88
255.426	257.88
255.659	242.88
255.892	239.88
256.124	234.88
256.357	213.88
256.59	213.88
256.823	205.88
257.056	211.88
257.289	220.88
257.521	216.88
257.754	223.88
257.987	205.88
258.22	227.88
258.452	210.88
258.685	211.88
258.918	237.88
259.151	239.88
259.383	239.88
259.616	223.88
259.849	225.88
260.081	248.88
260.314	277.88
260.547	272.88
260.779	276.88
261.012	251.88
261.244	232.88
261.477	225.88
261.71	251.88
261.942	251.88
262.175	256.88
262.407	239.88
262.64	221.88
262.872	236.88
263.105	218.88
263.337	233.88
263.57	233.88
263.802	215.88
264.035	235.88
264.267	228.88
264.499	224.88
264.732	228.88
264.964	221.88
265.197	262.88
265.429	239.88
265.661	219.88
265.894	219.88
266.126	219.88
266.358	222.88
266.591	236.88
266.823	226.88
267.055	242.88
267.287	249.88
267.52	259.88
267.752	250.88
267.984	251.88
268.216	262.88
268.448	251.88
268.681	256.88
268.913	255.88
269.145	249.88
269.377	315.88
269.609	274.88
269.841	285.88
270.073	303.88
270.306	323.88
270.538	328.88
270.77	340.88
271.002	303.88
271.234	297.88
271.466	305.88
271.698	318.88
271.93	334.88
272.162	337.88
272.394	324.88
272.626	314.88
272.858	324.88
273.09	299.88
273.322	280.88
273.553	287.88
273.785	290.88
274.017	280.88
274.249	271.88
274.481	283.88
274.713	266.88
274.945	284.88
275.176	263.88
275.408	279.88
275.64	277.88
275.872	269.88
276.104	290.88
276.335	283.88
276.567	280.88
276.799	299.88
277.031	316.88
277.262	321.88
277.494	334.88
277.726	328.88
277.957	297.88
278.189	287.88
278.421	303.88
278.652	281.88
278.884	290.88
279.115	264.88
279.347	297.88
279.579	288.88
279.81	279.88
280.042	253.88
280.273	274.88
280.505	284.88
280.736	284.88
280.968	294.88
281.199	273.88
281.431	271.88
281.662	269.88
281.894	275.88
282.125	301.88
282.356	298.88
282.588	321.88
282.819	319.88
283.051	304.88
283.282	294.88
283.513	286.88
283.745	291.88
283.976	310.88
284.207	289.88
284.439	298.88
284.67	297.88
284.901	303.88
285.132	292.88
285.364	277.88
285.595	298.88
285.826	288.88
286.057	310.88
286.288	300.88
286.52	294.88
286.751	306.88
286.982	291.88
287.213	312.88
287.444	311.88
287.675	305.88
287.906	299.88
288.138	307.88
288.369	307.88
288.6	335.88
288.831	322.88
289.062	306.88
289.293	319.88
289.524	299.88
289.755	312.88
289.986	328.88
290.217	307.88
290.448	300.88
290.679	307.88
290.91	293.88
291.141	307.88
291.371	299.88
291.602	327.88
291.833	307.88
292.064	302.88
292.295	317.88
292.526	311.88
292.757	301.88
292.987	301.88
293.218	310.88
293.449	306.88
293.68	310.88
293.91	310.88
294.141	342.88
294.372	307.88
294.603	323.88
294.833	317.88
295.064	310.88
295.295	329.88
295.525	323.88
295.756	319.88
295.987	327.88
296.217	351.88
296.448	353.88
296.679	345.88
296.909	312.88
297.14	337.88
297.37	327.88
297.601	319.88
297.831	328.88
298.062	325.88
298.292	320.88
298.523	340.88
298.753	324.88
298.984	327.88
299.214	335.88
299.445	326.88
299.675	342.88
299.905	321.88
300.136	348.88
300.366	344.88
300.597	345.88
300.827	348.88
301.057	327.88
301.288	367.88
301.518	341.88
301.748	342.88
301.979	347.88
302.209	351.88
302.439	341.88
302.669	345.88
302.9	353.88
303.13	346.88
303.36	357.88
303.59	360.88
303.82	376.88
304.051	381.88
304.281	337.88
304.511	369.88
304.741	342.88
304.971	355.88
305.201	362.88
305.431	367.88
305.661	368.88
305.891	340.88
306.121	344.88
306.352	361.88
306.582	378.88
306.812	338.88
307.042	356.88
307.272	354.88
307.502	358.88
307.731	352.88
307.961	353.88
308.191	355.88
308.421	355.88
308.651	360.88
308.881	367.88
309.111	364.88
309.341	365.88
309.571	387.88
309.8	394.88
310.03	404.88
310.26	422.88
310.49	407.88
310.72	390.88
310.949	444.88
311.179	441.88
311.409	416.88
311.639	415.88
311.868	423.88
312.098	416.88
312.328	394.88
312.557	424.88
312.787	449.88
313.017	464.88
313.246	426.88
313.476	397.88
313.706	409.88
313.935	415.88
314.165	422.88
314.394	428.88
314.624	435.88
314.853	413.88
315.083	403.88
315.312	398.88
315.542	414.88
315.771	363.88
316.001	401.88
316.23	416.88
316.46	401.88
316.689	418.88
316.919	448.88
317.148	417.88
317.377	445.88
317.607	420.88
317.836	415.88
318.065	418.88
318.295	408.88
318.524	388.88
318.753	402.88
318.983	398.88
319.212	440.88
319.441	413.88
319.67	431.88
319.9	423.88
320.129	402.88
320.358	410.88
320.587	454.88
320.816	434.88
321.046	443.88
321.275	440.88
321.504	435.88
321.733	467.88
321.962	480.88
322.191	467.88
322.42	467.88
322.649	500.88
322.878	497.88
323.108	502.88
323.337	531.88
323.566	546.88
323.795	584.88
324.024	643.88
324.253	751.88
324.482	1074.88
324.71	1694.88
324.939	2477.88
325.168	2128.88
325.397	1071.88
325.626	756.88
325.855	624.88
326.084	587.88
326.313	555.88
326.542	561.88
326.77	617.88
326.999	703.88
327.228	1007.88
327.457	1504.88
327.686	1827.88
327.914	1245.88
328.143	805.88
328.372	681.88
328.6	660.88
328.829	628.88
329.058	646.88
329.287	648.88
329.515	617.88
329.744	572.88
329.972	563.88
330.201	557.88
330.43	583.88
330.658	598.88
330.887	676.88
331.115	663.88
331.344	565.88
331.572	562.88
331.801	538.88
332.03	534.88
332.258	511.88
332.486	473.88
332.715	468.88
332.943	488.88
333.172	490.88
333.4	488.88
333.629	515.88
333.857	521.88
334.085	520.88
334.314	513.88
334.542	495.88
334.771	539.88
334.999	541.88
335.227	509.88
335.455	528.88
335.684	496.88
335.912	496.88
336.14	485.88
336.369	499.88
336.597	479.88
336.825	502.88
337.053	497.88
337.281	479.88
337.51	497.88
337.738	491.88
337.966	503.88
338.194	515.88
338.422	473.88
338.65	499.88
338.878	488.88
339.106	477.88
339.334	466.88
339.562	471.88
339.79	459.88
340.018	476.88
340.246	481.88
340.474	494.88
340.702	474.88
340.93	479.88
341.158	473.88
341.386	478.88
341.614	482.88
341.842	490.88
342.07	483.88
342.298	470.88
342.526	472.88
342.754	470.88
342.981	474.88
343.209	460.88
343.437	466.88
343.665	474.88
343.893	480.88
344.12	482.88
344.348	504.88
344.576	501.88
344.804	495.88
345.031	489.88
345.259	511.88
345.487	489.88
345.714	463.88
345.942	472.88
346.17	474.88
346.397	473.88
346.625	458.88
346.853	472.88
347.08	452.88
347.308	463.88
347.535	477.88
347.763	488.88
347.99	483.88
348.218	473.88
348.445	480.88
348.673	480.88
348.9	503.88
349.128	483.88
349.355	447.88
349.583	472.88
349.81	451.88
350.037	459.88
350.265	454.88
350.492	467.88
350.72	458.88
350.947	439.88
351.174	458.88
351.402	482.88
351.629	459.88
351.856	465.88
352.083	491.88
352.311	476.88
352.538	459.88
352.765	482.88
352.992	474.88
353.22	481.88
353.447	479.88
353.674	452.88
353.901	449.88
354.128	453.88
354.355	445.88
354.583	427.88
354.81	448.88
355.037	441.88
355.264	447.88
355.491	427.88
355.718	434.88
355.945	447.88
356.172	439.88
356.399	455.88
356.626	425.88
356.853	439.88
357.08	419.88
357.307	435.88
357.534	436.88
357.761	460.88
357.988	445.88
358.215	456.88
358.441	411.88
358.668	436.88
358.895	471.88
359.122	463.88
359.349	472.88
359.576	483.88
359.802	499.88
360.029	504.88
360.256	552.88
360.483	481.88
360.709	484.88
360.936	482.88
361.163	501.88
361.39	500.88
361.616	485.88
361.843	456.88
362.07	473.88
362.296	473.88
362.523	481.88
362.749	468.88
362.976	449.88
363.203	453.88
363.429	447.88
363.656	463.88
363.882	440.88
364.109	461.88
364.335	458.88
364.562	451.88
364.788	471.88
365.015	473.88
365.241	469.88
365.468	436.88
365.694	468.88
365.92	474.88
366.147	441.88
366.373	456.88
366.599	445.88
366.826	458.88
367.052	448.88
367.278	455.88
367.505	453.88
367.731	456.88
367.957	463.88
368.184	457.88
368.41	471.88
368.636	466.88
368.862	475.88
369.089	449.88
369.315	442.88
369.541	454.88
369.767	432.88
369.993	443.88
370.219	451.88
370.445	457.88
370.672	464.88
370.898	447.88
371.124	466.88
371.35	456.88
371.576	456.88
371.802	459.88
372.028	444.88
372.254	456.88
372.48	436.88
372.706	456.88
372.932	449.88
373.158	464.88
373.384	452.88
373.61	451.88
373.835	456.88
374.061	455.88
374.287	478.88
374.513	457.88
374.739	439.88
374.965	461.88
375.191	470.88
375.416	475.88
375.642	447.88
375.868	455.88
376.094	463.88
376.319	443.88
376.545	445.88
376.771	449.88
376.997	438.88
377.222	448.88
377.448	459.88
377.674	441.88
377.899	443.88
378.125	423.88
378.35	453.88
378.576	442.88
378.802	453.88
379.027	443.88
379.253	434.88
379.478	442.88
379.704	443.88
379.929	451.88
380.155	469.88
380.38	470.88
380.606	458.88
380.831	457.88
381.057	465.88
381.282	455.88
381.507	461.88
381.733	473.88
381.958	467.88
382.184	451.88
382.409	459.88
382.634	469.88
382.86	469.88
383.085	475.88
383.31	459.88
383.535	470.88
383.761	467.88
383.986	480.88
384.211	468.88
384.436	493.88
384.662	491.88
384.887	480.88
385.112	495.88
385.337	487.88
385.562	490.88
385.787	489.88
386.013	515.88
386.238	514.88
386.463	478.88
386.688	487.88
386.913	491.88
387.138	510.88
387.363	501.88
387.588	489.88
387.813	477.88
388.038	510.88
388.263	499.88
388.488	501.88
388.713	499.88
388.938	495.88
389.163	502.88
389.387	516.88
389.612	494.88
389.837	508.88
390.062	509.88
390.287	504.88
390.512	501.88
390.736	503.88
390.961	513.88
391.186	516.88
391.411	522.88
391.636	521.88
391.86	539.88
392.085	503.88
392.31	527.88
392.534	544.88
392.759	501.88
392.984	515.88
393.208	501.88
393.433	519.88
393.658	523.88
393.882	501.88
394.107	500.88
394.331	497.88
394.556	503.88
394.78	511.88
395.005	529.88
395.229	522.88
395.454	530.88
395.678	520.88
395.903	569.88
396.127	573.88
396.352	587.88
396.576	545.88
396.801	535.88
397.025	540.88
397.249	518.88
397.474	533.88
397.698	528.88
397.922	559.88
398.147	583.88
398.371	573.88
398.595	575.88
398.82	557.88
399.044	606.88
399.268	586.88
399.492	638.88
399.717	693.88
399.941	715.88
400.165	723.88
400.389	737.88
400.613	655.88
400.837	609.88
401.062	621.88
401.286	610.88
401.51	581.88
401.734	583.88
401.958	584.88
402.182	571.88
402.406	600.88
402.63	593.88
402.854	605.88
403.078	600.88
403.302	623.88
403.526	603.88
403.75	610.88
403.974	605.88
404.198	594.88
404.422	609.88
404.645	625.88
404.869	605.88
405.093	630.88
405.317	664.88
405.541	691.88
405.765	637.88
405.988	634.88
406.212	624.88
406.436	657.88
406.66	682.88
406.883	671.88
407.107	699.88
407.331	758.88
407.555	813.88
407.778	808.88
408.002	730.88
408.226	690.88
408.449	681.88
408.673	654.88
408.896	693.88
409.12	769.88
409.344	711.88
409.567	651.88
409.791	629.88
410.014	639.88
410.238	633.88
410.461	624.88
410.685	639.88
410.908	633.88
411.132	657.88
411.355	736.88
411.578	677.88
411.802	635.88
412.025	595.88
412.249	584.88
412.472	623.88
412.695	627.88
412.919	640.88
413.142	595.88
413.365	568.88
413.589	582.88
413.812	579.88
414.035	585.88
414.258	567.88
414.482	587.88
414.705	570.88
414.928	598.88
415.151	565.88
415.374	591.88
415.597	545.88
415.821	561.88
416.044	559.88
416.267	570.88
416.49	566.88
416.713	553.88
416.936	581.88
417.159	569.88
417.382	582.88
417.605	577.88
417.828	587.88
418.051	626.88
418.274	613.88
418.497	582.88
418.72	560.88
418.943	563.88
419.166	594.88
419.389	637.88
419.611	612.88
419.834	591.88
420.057	589.88
420.28	606.88
420.503	571.88
420.726	566.88
420.948	609.88
421.171	647.88
421.394	687.88
421.617	625.88
421.839	607.88
422.062	579.88
422.285	611.88
422.507	684.88
422.73	767.88
422.953	759.88
423.175	658.88
423.398	645.88
423.621	645.88
423.843	649.88
424.066	661.88
424.288	643.88
424.511	653.88
424.733	726.88
424.956	821.88
425.178	817.88
425.401	795.88
425.623	825.88
425.846	691.88
426.068	677.88
426.291	651.88
426.513	662.88
426.735	669.88
426.958	720.88
427.18	808.88
427.402	938.88
427.625	1051.88
427.847	918.88
428.069	782.88
428.292	701.88
428.514	657.88
428.736	631.88
428.958	635.88
429.181	618.88
429.403	587.88
429.625	609.88
429.847	665.88
430.069	707.88
430.292	725.88
430.514	627.88
430.736	606.88
430.958	601.88
431.18	584.88
431.402	561.88
431.624	567.88
431.846	576.88
432.068	587.88
432.29	561.88
432.512	576.88
432.734	590.88
432.956	591.88
433.178	568.88
433.4	610.88
433.622	551.88
433.844	559.88
434.066	566.88
434.287	574.88
434.509	588.88
434.731	594.88
434.953	575.88
435.175	613.88
435.397	654.88
435.618	665.88
435.84	726.88
436.062	839.88
436.284	892.88
436.505	746.88
436.727	656.88
436.949	632.88
437.17	601.88
437.392	603.88
437.614	610.88
437.835	650.88
438.057	767.88
438.278	906.88
438.5	895.88
438.721	973.88
438.943	938.88
439.165	728.88
439.386	720.88
439.608	671.88
439.829	645.88
440.05	674.88
440.272	763.88
440.493	703.88
440.715	673.88
440.936	611.88
441.158	601.88
441.379	614.88
441.6	618.88
441.822	659.88
442.043	700.88
442.264	833.88
442.486	879.88
442.707	721.88
442.928	674.88
443.149	684.88
443.371	685.88
443.592	745.88
443.813	849.88
444.034	941.88
444.255	781.88
444.476	703.88
444.698	691.88
444.919	650.88
445.14	784.88
445.361	725.88
445.582	711.88
445.803	769.88
446.024	907.88
446.245	915.88
446.466	837.88
446.687	689.88
446.908	647.88
447.129	629.88
447.35	611.88
447.571	620.88
447.792	590.88
448.013	619.88
448.234	610.88
448.455	670.88
448.675	837.88
448.896	958.88
449.117	832.88
449.338	746.88
449.559	895.88
449.779	993.88
450	822.88
450.221	651.88
450.442	608.88
450.662	603.88
450.883	605.88
451.104	623.88
451.324	598.88
451.545	567.88
451.766	557.88
451.986	541.88
452.207	539.88
452.428	549.88
452.648	543.88
452.869	544.88
453.089	544.88
453.31	571.88
453.53	551.88
453.751	538.88
453.971	539.88
454.192	546.88
454.412	555.88
454.633	547.88
454.853	529.88
455.073	543.88
455.294	564.88
455.514	627.88
455.734	611.88
455.955	539.88
456.175	521.88
456.395	514.88
456.616	503.88
456.836	516.88
457.056	513.88
457.276	486.88
457.497	505.88
457.717	518.88
457.937	517.88
458.157	525.88
458.377	523.88
458.598	553.88
458.818	620.88
459.038	708.88
459.258	710.88
459.478	611.88
459.698	579.88
459.918	561.88
460.138	577.88
460.358	580.88
460.578	580.88
460.798	596.88
461.018	606.88
461.238	598.88
461.458	597.88
461.678	568.88
461.898	588.88
462.118	597.88
462.338	600.88
462.558	611.88
462.777	597.88
462.997	622.88
463.217	632.88
463.437	653.88
463.657	611.88
463.876	628.88
464.096	617.88
464.316	624.88
464.536	605.88
464.755	613.88
464.975	632.88
465.195	673.88
465.414	741.88
465.634	663.88
465.854	637.88
466.073	608.88
466.293	569.88
466.512	578.88
466.732	557.88
466.951	569.88
467.171	543.88
467.391	548.88
467.61	573.88
467.829	569.88
468.049	570.88
468.268	540.88
468.488	560.88
468.707	551.88
468.927	544.88
469.146	536.88
469.365	527.88
469.585	544.88
469.804	518.88
470.023	571.88
470.243	564.88
470.462	593.88
470.681	603.88
470.901	599.88
471.12	575.88
471.339	548.88
471.558	557.88
471.777	572.88
471.997	566.88
472.216	555.88
472.435	549.88
472.654	556.88
472.873	537.88
473.092	534.88
473.311	547.88
473.53	552.88
473.749	570.88
473.968	612.88
474.187	736.88
474.406	755.88
474.625	647.88
474.844	579.88
475.063	565.88
475.282	560.88
475.501	559.88
475.72	570.88
475.939	575.88
476.158	579.88
476.377	585.88
476.596	571.88
476.814	589.88
477.033	580.88
477.252	591.88
477.471	597.88
477.69	608.88
477.908	604.88
478.127	598.88
478.346	621.88
478.564	601.88
478.783	627.88
479.002	629.88
479.22	660.88
479.439	669.88
479.658	688.88
479.876	661.88
480.095	676.88
480.313	714.88
480.532	703.88
480.751	659.88
480.969	677.88
481.188	694.88
481.406	700.88
481.624	676.88
481.843	660.88
482.061	660.88
482.28	659.88
482.498	657.88
482.717	623.88
482.935	663.88
483.153	634.88
483.372	641.88
483.59	660.88
483.808	660.88
484.027	674.88
484.245	657.88
484.463	657.88
484.681	692.88
484.9	655.88
485.118	671.88
485.336	682.88
485.554	672.88
485.772	668.88
485.99	666.88
486.209	700.88
486.427	697.88
486.645	719.88
486.863	713.88
487.081	717.88
487.299	709.88
487.517	712.88
487.735	697.88
487.953	689.88
488.171	715.88
488.389	708.88
488.607	732.88
488.825	707.88
489.043	721.88
489.261	724.88
489.479	705.88
489.696	716.88
489.914	720.88
490.132	744.88
490.35	737.88
490.568	723.88
490.786	746.88
491.003	762.88
491.221	796.88
491.439	792.88
491.657	795.88
491.874	784.88
492.092	801.88
492.31	794.88
492.527	818.88
492.745	822.88
492.963	813.88
493.18	825.88
493.398	827.88
493.615	812.88
493.833	849.88
494.05	833.88
494.268	843.88
494.485	837.88
494.703	820.88
494.92	843.88
495.138	827.88
495.355	855.88
495.573	851.88
495.79	824.88
496.008	844.88
496.225	868.88
496.442	853.88
496.66	837.88
496.877	837.88
497.094	863.88
497.312	869.88
497.529	892.88
497.746	876.88
497.963	876.88
498.181	911.88
498.398	927.88
498.615	962.88
498.832	980.88
499.049	998.88
499.267	1008.88
499.484	1046.88
499.701	1105.88
499.918	1094.88
500.135	1166.88
500.352	1194.88
500.569	1236.88
500.786	1243.88
501.003	1241.88
501.22	1165.88
501.437	1141.88
501.654	1139.88
501.871	1084.88
502.088	1042.88
502.305	1019.88
502.522	991.88
502.739	984.88
502.956	971.88
503.172	914.88
503.389	892.88
503.606	909.88
503.823	895.88
504.04	885.88
504.256	894.88
504.473	871.88
504.69	861.88
504.907	841.88
505.123	850.88
505.34	847.88
505.557	839.88
505.773	823.88
505.99	815.88
506.207	817.88
506.423	801.88
506.64	794.88
506.856	785.88
507.073	821.88
507.289	807.88
507.506	807.88
507.722	792.88
507.939	844.88
508.155	819.88
508.372	792.88
508.588	765.88
508.805	774.88
509.021	774.88
509.238	797.88
509.454	819.88
509.67	803.88
509.887	755.88
510.103	756.88
510.319	780.88
510.536	860.88
510.752	1396.88
510.968	1193.88
511.184	821.88
511.401	745.88
511.617	744.88
511.833	739.88
512.049	728.88
512.265	740.88
512.481	704.88
512.698	738.88
512.914	693.88
513.13	734.88
513.346	725.88
513.562	725.88
513.778	720.88
513.994	747.88
514.21	771.88
514.426	752.88
514.642	822.88
514.858	854.88
515.074	909.88
515.29	1038.88
515.506	1491.88
515.721	1260.88
515.937	883.88
516.153	829.88
516.369	804.88
516.585	807.88
516.801	756.88
517.016	753.88
517.232	775.88
517.448	785.88
517.664	773.88
517.879	779.88
518.095	768.88
518.311	775.88
518.527	761.88
518.742	733.88
518.958	769.88
519.173	755.88
519.389	756.88
519.605	744.88
519.82	755.88
520.036	739.88
520.251	783.88
520.467	825.88
520.682	801.88
520.898	825.88
521.113	833.88
521.329	866.88
521.544	991.88
521.76	1209.88
521.975	1877.88
522.19	1928.88
522.406	1107.88
522.621	842.88
522.836	781.88
523.052	722.88
523.267	709.88
523.482	680.88
523.698	661.88
523.913	685.88
524.128	672.88
524.343	661.88
524.559	627.88
524.774	633.88
524.989	627.88
525.204	636.88
525.419	627.88
525.634	640.88
525.849	627.88
526.064	636.88
526.28	631.88
526.495	624.88
526.71	600.88
526.925	627.88
527.14	609.88
527.355	603.88
527.57	604.88
527.785	587.88
527.999	571.88
528.214	617.88
528.429	601.88
528.644	584.88
528.859	623.88
529.074	594.88
529.289	620.88
529.503	715.88
529.718	705.88
529.933	690.88
530.148	626.88
530.363	626.88
530.577	605.88
530.792	593.88
531.007	594.88
531.221	609.88
531.436	578.88
531.651	586.88
531.865	577.88
532.08	578.88
532.295	588.88
532.509	588.88
532.724	591.88
532.938	564.88
533.153	599.88
533.367	567.88
533.582	587.88
533.796	579.88
534.011	563.88
534.225	563.88
534.44	576.88
534.654	557.88
534.868	570.88
535.083	565.88
535.297	554.88
535.511	563.88
535.726	569.88
535.94	577.88
536.154	578.88
536.369	560.88
536.583	575.88
536.797	560.88
537.011	572.88
537.225	559.88
537.44	545.88
537.654	537.88
537.868	546.88
538.082	576.88
538.296	545.88
538.51	543.88
538.724	547.88
538.938	548.88
539.153	571.88
539.367	589.88
539.581	548.88
539.795	526.88
540.009	549.88
540.222	538.88
540.436	543.88
540.65	558.88
540.864	549.88
541.078	543.88
541.292	550.88
541.506	563.88
541.72	543.88
541.934	545.88
542.147	544.88
542.361	523.88
542.575	547.88
542.789	547.88
543.002	545.88
543.216	570.88
543.43	552.88
543.644	547.88
543.857	533.88
544.071	543.88
544.285	558.88
544.498	541.88
544.712	541.88
544.925	522.88
545.139	549.88
545.352	531.88
545.566	543.88
545.779	543.88
545.993	515.88
546.206	544.88
546.42	529.88
546.633	538.88
546.847	515.88
547.06	506.88
547.274	525.88
547.487	528.88
547.7	501.88
547.914	528.88
548.127	523.88
548.34	505.88
548.554	512.88
548.767	522.88
548.98	524.88
549.193	531.88
549.407	532.88
549.62	525.88
549.833	519.88
550.046	533.88
550.259	504.88
550.473	510.88
550.686	503.88
550.899	507.88
551.112	515.88
551.325	493.88
551.538	537.88
551.751	515.88
551.964	503.88
552.177	509.88
552.39	512.88
552.603	533.88
552.816	511.88
553.029	518.88
553.242	532.88
553.455	533.88
553.667	531.88
553.88	526.88
554.093	550.88
554.306	553.88
554.519	531.88
554.732	532.88
554.944	503.88
555.157	484.88
555.37	493.88
555.583	489.88
555.795	490.88
556.008	480.88
556.221	481.88
556.433	479.88
556.646	470.88
556.859	471.88
557.071	479.88
557.284	487.88
557.496	453.88
557.709	463.88
557.921	492.88
558.134	479.88
558.346	464.88
558.559	456.88
558.771	458.88
558.984	461.88
559.196	473.88
559.409	439.88
559.621	454.88
559.833	475.88
560.046	474.88
560.258	442.88
560.47	447.88
560.683	452.88
560.895	460.88
561.107	433.88
561.32	443.88
561.532	449.88
561.744	453.88
561.956	447.88
562.168	453.88
562.381	463.88
562.593	447.88
562.805	462.88
563.017	459.88
563.229	458.88
563.441	465.88
563.653	464.88
563.865	483.88
564.077	468.88
564.289	454.88
564.501	481.88
564.713	474.88
564.925	510.88
565.137	517.88
565.349	476.88
565.561	485.88
565.773	516.88
565.985	508.88
566.197	515.88
566.408	524.88
566.62	593.88
566.832	584.88
567.044	572.88
567.255	581.88
567.467	596.88
567.679	593.88
567.891	597.88
568.102	580.88
568.314	590.88
568.526	553.88
568.737	566.88
568.949	535.88
569.161	513.88
569.372	476.88
569.584	499.88
569.795	469.88
570.007	486.88
570.218	519.88
570.43	510.88
570.641	443.88
570.853	464.88
571.064	450.88
571.276	465.88
571.487	433.88
571.698	451.88
571.91	457.88
572.121	445.88
572.333	431.88
572.544	441.88
572.755	416.88
572.966	394.88
573.178	416.88
573.389	416.88
573.6	409.88
573.811	412.88
574.023	402.88
574.234	403.88
574.445	394.88
574.656	397.88
574.867	401.88
575.078	401.88
575.289	381.88
575.501	410.88
575.712	376.88
575.923	388.88
576.134	388.88
576.345	384.88
576.556	390.88
576.767	384.88
576.978	381.88
577.188	386.88
577.399	384.88
577.61	382.88
577.821	377.88
578.032	397.88
578.243	436.88
578.454	642.88
578.665	500.88
578.875	389.88
579.086	372.88
579.297	390.88
579.508	373.88
579.718	366.88
579.929	370.88
580.14	356.88
580.35	373.88
580.561	379.88
580.772	368.88
580.982	363.88
581.193	358.88
581.403	362.88
581.614	363.88
581.825	362.88
582.035	368.88
582.246	371.88
582.456	355.88
582.667	362.88
582.877	371.88
583.087	351.88
583.298	358.88
583.508	373.88
583.719	349.88
583.929	339.88
584.139	351.88
584.35	337.88
584.56	349.88
584.77	353.88
584.981	353.88
585.191	356.88
585.401	354.88
585.611	352.88
585.821	364.88
586.032	367.88
586.242	335.88
586.452	342.88
586.662	332.88
586.872	347.88
587.082	349.88
587.292	336.88
587.502	351.88
587.713	340.88
587.923	344.88
588.133	338.88
588.343	352.88
588.553	340.88
588.762	323.88
588.972	347.88
589.182	359.88
589.392	354.88
589.602	356.88
589.812	356.88
590.022	347.88
590.232	353.88
590.441	354.88
590.651	354.88
590.861	328.88
591.071	345.88
591.281	357.88
591.49	343.88
591.7	345.88
591.91	364.88
592.119	328.88
592.329	364.88
592.539	349.88
592.748	359.88
592.958	351.88
593.167	369.88
593.377	360.88
593.587	387.88
593.796	371.88
594.006	367.88
594.215	356.88
594.424	344.88
594.634	355.88
594.843	358.88
595.053	359.88
595.262	347.88
595.472	332.88
595.681	344.88
595.89	341.88
596.1	324.88
596.309	334.88
596.518	328.88
596.727	327.88
596.937	315.88
597.146	312.88
597.355	307.88
597.564	323.88
597.774	333.88
597.983	300.88
598.192	311.88
598.401	303.88
598.61	285.88
598.819	307.88
599.028	300.88
599.237	309.88
599.446	314.88
599.655	307.88
599.864	298.88
600.073	300.88
600.282	300.88
600.491	315.88
600.7	298.88
600.909	293.88
601.118	281.88
601.327	301.88
601.536	289.88
601.745	296.88
601.953	287.88
602.162	292.88
602.371	282.88
602.58	289.88
602.789	300.88
602.997	290.88
603.206	284.88
603.415	298.88
603.623	298.88
603.832	293.88
604.041	295.88
604.249	296.88
604.458	289.88
604.666	249.88
604.875	288.88
605.084	281.88
605.292	287.88
605.501	286.88
605.709	276.88
605.918	276.88
606.126	282.88
606.334	284.88
606.543	275.88
606.751	273.88
606.96	277.88
607.168	262.88
607.376	265.88
607.585	293.88
607.793	280.88
608.001	291.88
608.21	285.88
608.418	288.88
608.626	267.88
608.834	295.88
609.043	272.88
609.251	268.88
609.459	267.88
609.667	285.88
609.875	273.88
610.083	257.88
610.291	267.88
610.499	263.88
610.707	281.88
610.916	284.88
611.124	282.88
611.332	280.88
611.54	301.88
611.748	277.88
611.955	267.88
612.163	276.88
612.371	293.88
612.579	279.88
612.787	259.88
612.995	267.88
613.203	244.88
613.411	272.88
613.618	276.88
613.826	272.88
614.034	256.88
614.242	279.88
614.449	288.88
614.657	267.88
614.865	261.88
615.072	284.88
615.28	250.88
615.488	252.88
615.695	253.88
615.903	269.88
616.111	269.88
616.318	264.88
616.526	268.88
616.733	272.88
616.941	266.88
617.148	265.88
617.356	252.88
617.563	287.88
617.771	263.88
617.978	264.88
618.185	267.88
618.393	267.88
618.6	281.88
618.807	247.88
619.015	264.88
619.222	251.88
619.429	244.88
619.637	256.88
619.844	245.88
620.051	257.88
620.258	249.88
620.466	261.88
620.673	248.88
620.88	241.88
621.087	255.88
621.294	258.88
621.501	256.88
621.708	248.88
621.915	273.88
622.122	268.88
622.329	243.88
622.536	253.88
622.743	251.88
622.95	236.88
623.157	232.88
623.364	253.88
623.571	230.88
623.778	226.88
623.985	245.88
624.192	236.88
624.399	261.88
624.606	254.88
624.812	250.88
625.019	248.88
625.226	223.88
625.433	245.88
625.639	225.88
625.846	232.88
626.053	249.88
626.259	242.88
626.466	251.88
626.673	246.88
626.879	231.88
627.086	229.88
627.293	216.88
627.499	241.88
627.706	230.88
627.912	236.88
628.119	226.88
628.325	233.88
628.532	211.88
628.738	235.88
628.945	232.88
629.151	224.88
629.357	227.88
629.564	202.88
629.77	221.88
629.976	204.88
630.183	234.88
630.389	240.88
630.595	217.88
630.802	228.88
631.008	225.88
631.214	223.88
631.42	231.88
631.627	229.88
631.833	218.88
632.039	205.88
632.245	224.88
632.451	204.88
632.657	206.88
632.863	205.88
633.069	207.88
633.275	208.88
633.481	211.88
633.688	213.88
633.893	224.88
634.099	210.88
634.305	187.88
634.511	208.88
634.717	214.88
634.923	201.88
635.129	194.88
635.335	207.88
635.541	209.88
635.747	194.88
635.952	196.88
636.158	191.88
636.364	211.88
636.57	200.88
636.775	186.88
636.981	195.88
637.187	219.88
637.392	219.88
637.598	197.88
637.804	202.88
638.009	192.88
638.215	193.88
638.421	206.88
638.626	206.88
638.832	191.88
639.037	192.88
639.243	201.88
639.448	200.88
639.654	189.88
639.859	180.88
640.065	180.88
640.27	205.88
640.475	200.88
640.681	186.88
640.886	183.88
641.091	191.88
641.297	211.88
641.502	191.88
641.707	197.88
641.913	201.88
642.118	178.88
642.323	200.88
642.528	185.88
642.733	167.88
642.939	195.88
643.144	179.88
643.349	184.88
643.554	181.88
643.759	164.88
643.964	167.88
644.169	186.88
644.374	186.88
644.579	186.88
644.784	189.88
644.989	179.88
645.194	183.88
645.399	168.88
645.604	173.88
645.809	165.88
646.014	182.88
646.219	181.88
646.423	189.88
646.628	179.88
646.833	190.88
647.038	179.88
647.243	163.88
647.447	169.88
647.652	177.88
647.857	173.88
648.062	194.88
648.266	181.88
648.471	183.88
648.676	187.88
648.88	195.88
649.085	179.88
649.289	171.88
649.494	195.88
649.698	192.88
649.903	207.88
650.107	185.88
650.312	171.88
650.516	180.88
650.721	179.88
650.925	173.88
651.13	170.88
651.334	170.88
651.539	174.88
651.743	159.88
651.947	172.88
652.152	151.88
652.356	182.88
652.56	160.88
652.764	149.88
652.969	157.88
653.173	131.88
653.377	151.88
653.581	138.88
653.785	156.88
653.99	155.88
654.194	156.88
654.398	149.88
654.602	155.88
654.806	145.88
655.01	152.88
655.214	134.88
655.418	153.88
655.622	151.88
655.826	143.88
656.03	145.88
656.234	150.88
656.438	149.88
656.642	139.88
656.846	124.88
657.049	132.88
657.253	123.88
657.457	131.88
657.661	121.88
657.865	125.88
658.068	118.88
658.272	115.88
658.476	118.88
658.68	114.88
658.883	118.88
659.087	117.88
659.291	108.88
659.494	97.88
659.698	104.88
659.901	92.88
660.105	104.88
660.309	101.88
660.512	84.88
660.716	92.88
660.919	84.88
661.123	85.88
661.326	96.88
661.53	100.88
661.733	97.88
661.936	85.88
662.14	99.88
662.343	88.88
662.546	83.88
662.75	91.88
662.953	80.88
663.156	95.88
663.36	77.88
663.563	95.88
663.766	85.88
663.969	85.88
664.173	81.88
664.376	86.88
664.579	79.88
664.782	80.88
664.985	77.88
665.188	76.88
665.391	81.88
665.594	66.88
665.797	77.88
666	91.88
666.203	86.88
666.406	89.88
666.609	79.88
666.812	82.88
667.015	80.88
667.218	76.88
667.421	80.88
667.624	76.88
667.827	89.88
668.03	87.88
668.232	83.88
668.435	87.88
668.638	92.88
668.841	84.88
669.043	93.88
669.246	102.88
669.449	91.88
669.651	81.88
669.854	70.88
670.057	74.88
670.259	77.88
670.462	90.88
670.665	82.88
670.867	85.88
671.07	83.88
671.272	93.88
671.475	75.88
671.677	68.88
671.88	80.88
672.082	66.88
672.284	86.88
672.487	85.88
672.689	92.88
672.892	74.88
