Data from 1988.PennyLincolnUp.Lamp.En5.5.200Scan.071819.P2_HRD10591_17-21-21-972.txt Node
Date: Thu Jul 18 17:21:21 EDT 2019
User: cochatt
Spectrometer: HR+D1059
Trigger mode: 1
Integration Time (sec): 1.000000E-1
Scans to average: 1
Electric dark correction enabled: true
Nonlinearity correction enabled: false
Boxcar width: 0
XAxis mode: Wavelengths
Number of Pixels in Spectrum: 2048
>>>>>Begin Spectral Data<<<<<
223.165	-15.12
223.4	-15.12
223.635	-15.12
223.869	-21.12
224.104	-12.12
224.338	-16.12
224.573	-25.12
224.808	-23.12
225.042	-5.12
225.277	-5.12
225.511	-9.12
225.746	-3.12
225.98	18.88
226.215	18.88
226.449	19.88
226.683	21.88
226.918	20.88
227.152	34.88
227.387	22.88
227.621	32.88
227.856	47.88
228.09	49.88
228.324	48.88
228.559	61.88
228.793	57.88
229.027	105.88
229.262	105.88
229.496	133.88
229.73	134.88
229.964	159.88
230.199	136.88
230.433	124.88
230.667	127.88
230.901	110.88
231.136	109.88
231.37	109.88
231.604	125.88
231.838	124.88
232.072	112.88
232.306	117.88
232.541	137.88
232.775	125.88
233.009	116.88
233.243	118.88
233.477	116.88
233.711	114.88
233.945	123.88
234.179	122.88
234.413	126.88
234.647	132.88
234.881	141.88
235.115	122.88
235.349	123.88
235.583	109.88
235.817	115.88
236.051	119.88
236.285	138.88
236.519	133.88
236.753	150.88
236.987	145.88
237.221	202.88
237.455	262.88
237.689	206.88
237.922	153.88
238.156	145.88
238.39	135.88
238.624	144.88
238.858	119.88
239.091	127.88
239.325	137.88
239.559	124.88
239.793	142.88
240.027	142.88
240.26	157.88
240.494	171.88
240.728	167.88
240.961	166.88
241.195	156.88
241.429	149.88
241.662	147.88
241.896	143.88
242.13	160.88
242.363	141.88
242.597	140.88
242.83	149.88
243.064	139.88
243.298	128.88
243.531	147.88
243.765	153.88
243.998	134.88
244.232	153.88
244.465	148.88
244.699	158.88
244.932	153.88
245.166	157.88
245.399	141.88
245.633	151.88
245.866	162.88
246.099	151.88
246.333	138.88
246.566	163.88
246.8	157.88
247.033	159.88
247.266	154.88
247.5	172.88
247.733	166.88
247.966	170.88
248.2	165.88
248.433	178.88
248.666	185.88
248.899	195.88
249.133	230.88
249.366	216.88
249.599	212.88
249.832	194.88
250.066	195.88
250.299	204.88
250.532	194.88
250.765	214.88
250.998	244.88
251.231	245.88
251.465	235.88
251.698	233.88
251.931	199.88
252.164	208.88
252.397	204.88
252.63	211.88
252.863	213.88
253.096	230.88
253.329	241.88
253.562	241.88
253.795	243.88
254.028	245.88
254.261	235.88
254.494	241.88
254.727	273.88
254.96	305.88
255.193	302.88
255.426	262.88
255.659	226.88
255.892	244.88
256.124	228.88
256.357	268.88
256.59	230.88
256.823	221.88
257.056	234.88
257.289	239.88
257.521	214.88
257.754	219.88
257.987	217.88
258.22	227.88
258.452	216.88
258.685	237.88
258.918	235.88
259.151	233.88
259.383	235.88
259.616	239.88
259.849	235.88
260.081	271.88
260.314	263.88
260.547	282.88
260.779	256.88
261.012	270.88
261.244	231.88
261.477	229.88
261.71	241.88
261.942	262.88
262.175	275.88
262.407	245.88
262.64	238.88
262.872	237.88
263.105	233.88
263.337	227.88
263.57	231.88
263.802	247.88
264.035	230.88
264.267	231.88
264.499	204.88
264.732	220.88
264.964	222.88
265.197	229.88
265.429	233.88
265.661	241.88
265.894	235.88
266.126	239.88
266.358	254.88
266.591	240.88
266.823	234.88
267.055	238.88
267.287	245.88
267.52	227.88
267.752	247.88
267.984	234.88
268.216	255.88
268.448	234.88
268.681	250.88
268.913	255.88
269.145	249.88
269.377	305.88
269.609	293.88
269.841	291.88
270.073	309.88
270.306	307.88
270.538	339.88
270.77	338.88
271.002	342.88
271.234	286.88
271.466	339.88
271.698	334.88
271.93	329.88
272.162	334.88
272.394	342.88
272.626	318.88
272.858	298.88
273.09	299.88
273.322	291.88
273.553	281.88
273.785	274.88
274.017	294.88
274.249	300.88
274.481	282.88
274.713	277.88
274.945	282.88
275.176	287.88
275.408	277.88
275.64	295.88
275.872	293.88
276.104	294.88
276.335	300.88
276.567	294.88
276.799	309.88
277.031	318.88
277.262	337.88
277.494	323.88
277.726	334.88
277.957	317.88
278.189	292.88
278.421	308.88
278.652	285.88
278.884	288.88
279.115	277.88
279.347	283.88
279.579	285.88
279.81	285.88
280.042	265.88
280.273	296.88
280.505	293.88
280.736	281.88
280.968	294.88
281.199	289.88
281.431	271.88
281.662	296.88
281.894	285.88
282.125	287.88
282.356	293.88
282.588	330.88
282.819	361.88
283.051	325.88
283.282	303.88
283.513	316.88
283.745	302.88
283.976	309.88
284.207	315.88
284.439	320.88
284.67	300.88
284.901	305.88
285.132	289.88
285.364	316.88
285.595	286.88
285.826	289.88
286.057	317.88
286.288	297.88
286.52	301.88
286.751	294.88
286.982	299.88
287.213	304.88
287.444	317.88
287.675	302.88
287.906	319.88
288.138	303.88
288.369	330.88
288.6	335.88
288.831	313.88
289.062	309.88
289.293	307.88
289.524	312.88
289.755	337.88
289.986	318.88
290.217	318.88
290.448	319.88
290.679	311.88
290.91	328.88
291.141	315.88
291.371	338.88
291.602	304.88
291.833	311.88
292.064	307.88
292.295	309.88
292.526	330.88
292.757	299.88
292.987	319.88
293.218	324.88
293.449	308.88
293.68	319.88
293.91	328.88
294.141	296.88
294.372	319.88
294.603	312.88
294.833	313.88
295.064	308.88
295.295	310.88
295.525	322.88
295.756	334.88
295.987	322.88
296.217	360.88
296.448	374.88
296.679	343.88
296.909	327.88
297.14	324.88
297.37	323.88
297.601	327.88
297.831	333.88
298.062	326.88
298.292	339.88
298.523	334.88
298.753	335.88
298.984	330.88
299.214	339.88
299.445	346.88
299.675	355.88
299.905	332.88
300.136	341.88
300.366	345.88
300.597	343.88
300.827	334.88
301.057	340.88
301.288	355.88
301.518	353.88
301.748	354.88
301.979	332.88
302.209	354.88
302.439	359.88
302.669	375.88
302.9	353.88
303.13	355.88
303.36	354.88
303.59	367.88
303.82	371.88
304.051	364.88
304.281	359.88
304.511	347.88
304.741	353.88
304.971	364.88
305.201	359.88
305.431	358.88
305.661	355.88
305.891	358.88
306.121	349.88
306.352	357.88
306.582	349.88
306.812	383.88
307.042	371.88
307.272	371.88
307.502	355.88
307.731	389.88
307.961	371.88
308.191	374.88
308.421	373.88
308.651	360.88
308.881	389.88
309.111	385.88
309.341	388.88
309.571	407.88
309.8	388.88
310.03	402.88
310.26	423.88
310.49	399.88
310.72	433.88
310.949	421.88
311.179	439.88
311.409	427.88
311.639	421.88
311.868	410.88
312.098	427.88
312.328	425.88
312.557	453.88
312.787	450.88
313.017	453.88
313.246	434.88
313.476	389.88
313.706	414.88
313.935	412.88
314.165	452.88
314.394	439.88
314.624	456.88
314.853	417.88
315.083	413.88
315.312	426.88
315.542	425.88
315.771	412.88
316.001	403.88
316.23	385.88
316.46	414.88
316.689	413.88
316.919	427.88
317.148	421.88
317.377	452.88
317.607	437.88
317.836	436.88
318.065	429.88
318.295	415.88
318.524	414.88
318.753	421.88
318.983	417.88
319.212	420.88
319.441	425.88
319.67	439.88
319.9	421.88
320.129	392.88
320.358	452.88
320.587	425.88
320.816	436.88
321.046	447.88
321.275	445.88
321.504	445.88
321.733	450.88
321.962	444.88
322.191	464.88
322.42	455.88
322.649	472.88
322.878	506.88
323.108	531.88
323.337	554.88
323.566	542.88
323.795	601.88
324.024	652.88
324.253	789.88
324.482	1130.88
324.71	1787.88
324.939	2661.88
325.168	2267.88
325.397	1128.88
325.626	750.88
325.855	649.88
326.084	586.88
326.313	571.88
326.542	575.88
326.77	633.88
326.999	737.88
327.228	1036.88
327.457	1606.88
327.686	2027.88
327.914	1301.88
328.143	823.88
328.372	714.88
328.6	643.88
328.829	630.88
329.058	664.88
329.287	658.88
329.515	630.88
329.744	573.88
329.972	557.88
330.201	566.88
330.43	618.88
330.658	608.88
330.887	677.88
331.115	647.88
331.344	579.88
331.572	539.88
331.801	550.88
332.03	554.88
332.258	527.88
332.486	515.88
332.715	494.88
332.943	523.88
333.172	483.88
333.4	513.88
333.629	508.88
333.857	524.88
334.085	509.88
334.314	506.88
334.542	558.88
334.771	553.88
334.999	563.88
335.227	526.88
335.455	511.88
335.684	499.88
335.912	512.88
336.14	481.88
336.369	481.88
336.597	506.88
336.825	513.88
337.053	492.88
337.281	500.88
337.51	476.88
337.738	512.88
337.966	516.88
338.194	497.88
338.422	500.88
338.65	487.88
338.878	494.88
339.106	484.88
339.334	473.88
339.562	478.88
339.79	471.88
340.018	484.88
340.246	480.88
340.474	512.88
340.702	491.88
340.93	497.88
341.158	470.88
341.386	483.88
341.614	502.88
341.842	480.88
342.07	478.88
342.298	466.88
342.526	471.88
342.754	476.88
342.981	458.88
343.209	468.88
343.437	463.88
343.665	489.88
343.893	493.88
344.12	503.88
344.348	499.88
344.576	483.88
344.804	492.88
345.031	477.88
345.259	511.88
345.487	522.88
345.714	504.88
345.942	479.88
346.17	464.88
346.397	452.88
346.625	469.88
346.853	471.88
347.08	458.88
347.308	469.88
347.535	472.88
347.763	497.88
347.99	507.88
348.218	492.88
348.445	463.88
348.673	486.88
348.9	457.88
349.128	475.88
349.355	452.88
349.583	455.88
349.81	452.88
350.037	450.88
350.265	444.88
350.492	456.88
350.72	457.88
350.947	467.88
351.174	472.88
351.402	461.88
351.629	478.88
351.856	471.88
352.083	484.88
352.311	459.88
352.538	491.88
352.765	483.88
352.992	475.88
353.22	484.88
353.447	483.88
353.674	473.88
353.901	449.88
354.128	463.88
354.355	449.88
354.583	455.88
354.81	438.88
355.037	474.88
355.264	435.88
355.491	454.88
355.718	438.88
355.945	447.88
356.172	436.88
356.399	444.88
356.626	445.88
356.853	434.88
357.08	442.88
357.307	459.88
357.534	442.88
357.761	457.88
357.988	445.88
358.215	464.88
358.441	469.88
358.668	461.88
358.895	455.88
359.122	448.88
359.349	455.88
359.576	473.88
359.802	485.88
360.029	541.88
360.256	559.88
360.483	533.88
360.709	482.88
360.936	501.88
361.163	477.88
361.39	480.88
361.616	482.88
361.843	470.88
362.07	461.88
362.296	479.88
362.523	494.88
362.749	461.88
362.976	463.88
363.203	473.88
363.429	467.88
363.656	464.88
363.882	470.88
364.109	471.88
364.335	441.88
364.562	454.88
364.788	442.88
365.015	449.88
365.241	463.88
365.468	451.88
365.694	448.88
365.92	466.88
366.147	451.88
366.373	456.88
366.599	469.88
366.826	462.88
367.052	452.88
367.278	456.88
367.505	495.88
367.731	460.88
367.957	457.88
368.184	447.88
368.41	461.88
368.636	484.88
368.862	475.88
369.089	469.88
369.315	475.88
369.541	456.88
369.767	471.88
369.993	460.88
370.219	455.88
370.445	474.88
370.672	462.88
370.898	447.88
371.124	453.88
371.35	472.88
371.576	449.88
371.802	451.88
372.028	442.88
372.254	447.88
372.48	426.88
372.706	452.88
372.932	468.88
373.158	433.88
373.384	453.88
373.61	466.88
373.835	457.88
374.061	462.88
374.287	445.88
374.513	457.88
374.739	436.88
374.965	466.88
375.191	469.88
375.416	482.88
375.642	469.88
375.868	467.88
376.094	474.88
376.319	446.88
376.545	469.88
376.771	447.88
376.997	452.88
377.222	450.88
377.448	433.88
377.674	440.88
377.899	471.88
378.125	442.88
378.35	452.88
378.576	445.88
378.802	449.88
379.027	452.88
379.253	452.88
379.478	450.88
379.704	458.88
379.929	454.88
380.155	462.88
380.38	443.88
380.606	445.88
380.831	463.88
381.057	466.88
381.282	469.88
381.507	444.88
381.733	458.88
381.958	478.88
382.184	468.88
382.409	469.88
382.634	471.88
382.86	500.88
383.085	461.88
383.31	484.88
383.535	465.88
383.761	484.88
383.986	491.88
384.211	497.88
384.436	485.88
384.662	491.88
384.887	495.88
385.112	484.88
385.337	503.88
385.562	497.88
385.787	499.88
386.013	499.88
386.238	489.88
386.463	516.88
386.688	537.88
386.913	503.88
387.138	530.88
387.363	517.88
387.588	499.88
387.813	490.88
388.038	509.88
388.263	524.88
388.488	502.88
388.713	521.88
388.938	517.88
389.163	504.88
389.387	507.88
389.612	497.88
389.837	505.88
390.062	494.88
390.287	491.88
390.512	512.88
390.736	481.88
390.961	530.88
391.186	522.88
391.411	520.88
391.636	492.88
391.86	529.88
392.085	530.88
392.31	516.88
392.534	521.88
392.759	522.88
392.984	518.88
393.208	526.88
393.433	511.88
393.658	517.88
393.882	514.88
394.107	517.88
394.331	523.88
394.556	527.88
394.78	519.88
395.005	505.88
395.229	532.88
395.454	523.88
395.678	536.88
395.903	549.88
396.127	559.88
396.352	575.88
396.576	543.88
396.801	504.88
397.025	530.88
397.249	506.88
397.474	554.88
397.698	542.88
397.922	581.88
398.147	581.88
398.371	583.88
398.595	574.88
398.82	569.88
399.044	596.88
399.268	599.88
399.492	655.88
399.717	675.88
399.941	690.88
400.165	709.88
400.389	731.88
400.613	672.88
400.837	629.88
401.062	619.88
401.286	593.88
401.51	609.88
401.734	587.88
401.958	604.88
402.182	593.88
402.406	612.88
402.63	610.88
402.854	626.88
403.078	585.88
403.302	581.88
403.526	623.88
403.75	595.88
403.974	595.88
404.198	590.88
404.422	627.88
404.645	627.88
404.869	601.88
405.093	659.88
405.317	699.88
405.541	717.88
405.765	643.88
405.988	629.88
406.212	641.88
406.436	661.88
406.66	688.88
406.883	672.88
407.107	708.88
407.331	742.88
407.555	823.88
407.778	833.88
408.002	737.88
408.226	704.88
408.449	689.88
408.673	692.88
408.896	705.88
409.12	759.88
409.344	714.88
409.567	663.88
409.791	628.88
410.014	626.88
410.238	634.88
410.461	617.88
410.685	618.88
410.908	633.88
411.132	680.88
411.355	701.88
411.578	686.88
411.802	633.88
412.025	615.88
412.249	634.88
412.472	651.88
412.695	670.88
412.919	659.88
413.142	617.88
413.365	593.88
413.589	605.88
413.812	562.88
414.035	573.88
414.258	595.88
414.482	598.88
414.705	573.88
414.928	589.88
415.151	571.88
415.374	582.88
415.597	556.88
415.821	573.88
416.044	587.88
416.267	592.88
416.49	572.88
416.713	584.88
416.936	604.88
417.159	567.88
417.382	572.88
417.605	569.88
417.828	595.88
418.051	615.88
418.274	599.88
418.497	578.88
418.72	590.88
418.943	586.88
419.166	629.88
419.389	636.88
419.611	602.88
419.834	611.88
420.057	610.88
420.28	606.88
420.503	609.88
420.726	607.88
420.948	629.88
421.171	663.88
421.394	694.88
421.617	643.88
421.839	585.88
422.062	614.88
422.285	641.88
422.507	701.88
422.73	789.88
422.953	752.88
423.175	681.88
423.398	653.88
423.621	622.88
423.843	656.88
424.066	670.88
424.288	644.88
424.511	654.88
424.733	743.88
424.956	854.88
425.178	779.88
425.401	813.88
425.623	813.88
425.846	720.88
426.068	659.88
426.291	695.88
426.513	655.88
426.735	661.88
426.958	722.88
427.18	803.88
427.402	988.88
427.625	1089.88
427.847	937.88
428.069	822.88
428.292	697.88
428.514	654.88
428.736	635.88
428.958	634.88
429.181	593.88
429.403	613.88
429.625	627.88
429.847	674.88
430.069	739.88
430.292	729.88
430.514	629.88
430.736	601.88
430.958	595.88
431.18	568.88
431.402	592.88
431.624	571.88
431.846	555.88
432.068	557.88
432.29	576.88
432.512	577.88
432.734	591.88
432.956	601.88
433.178	618.88
433.4	628.88
433.622	591.88
433.844	592.88
434.066	582.88
434.287	585.88
434.509	586.88
434.731	606.88
434.953	570.88
435.175	621.88
435.397	675.88
435.618	671.88
435.84	695.88
436.062	849.88
436.284	939.88
436.505	753.88
436.727	693.88
436.949	637.88
437.17	634.88
437.392	596.88
437.614	612.88
437.835	648.88
438.057	795.88
438.278	896.88
438.5	933.88
438.721	1001.88
438.943	950.88
439.165	759.88
439.386	701.88
439.608	677.88
439.829	659.88
440.05	678.88
440.272	782.88
440.493	699.88
440.715	655.88
440.936	635.88
441.158	636.88
441.379	616.88
441.6	617.88
441.822	662.88
442.043	692.88
442.264	799.88
442.486	877.88
442.707	725.88
442.928	679.88
443.149	684.88
443.371	720.88
443.592	746.88
443.813	897.88
444.034	963.88
444.255	797.88
444.476	713.88
444.698	679.88
444.919	657.88
445.14	760.88
445.361	717.88
445.582	737.88
445.803	819.88
446.024	930.88
446.245	965.88
446.466	844.88
446.687	725.88
446.908	675.88
447.129	639.88
447.35	629.88
447.571	597.88
447.792	606.88
448.013	629.88
448.234	620.88
448.455	684.88
448.675	844.88
448.896	971.88
449.117	827.88
449.338	771.88
449.559	895.88
449.779	1045.88
450	827.88
450.221	696.88
450.442	634.88
450.662	623.88
450.883	600.88
451.104	626.88
451.324	632.88
451.545	595.88
451.766	568.88
451.986	546.88
452.207	537.88
452.428	554.88
452.648	550.88
452.869	564.88
453.089	564.88
453.31	554.88
453.53	573.88
453.751	555.88
453.971	533.88
454.192	573.88
454.412	572.88
454.633	547.88
454.853	548.88
455.073	555.88
455.294	586.88
455.514	638.88
455.734	641.88
455.955	541.88
456.175	523.88
456.395	504.88
456.616	515.88
456.836	517.88
457.056	495.88
457.276	519.88
457.497	517.88
457.717	515.88
457.937	523.88
458.157	550.88
458.377	528.88
458.598	561.88
458.818	643.88
459.038	706.88
459.258	755.88
459.478	654.88
459.698	590.88
459.918	589.88
460.138	572.88
460.358	564.88
460.578	585.88
460.798	573.88
461.018	595.88
461.238	588.88
461.458	584.88
461.678	568.88
461.898	576.88
462.118	589.88
462.338	611.88
462.558	619.88
462.777	614.88
462.997	609.88
463.217	654.88
463.437	653.88
463.657	659.88
463.876	641.88
464.096	651.88
464.316	619.88
464.536	641.88
464.755	654.88
464.975	639.88
465.195	696.88
465.414	762.88
465.634	675.88
465.854	650.88
466.073	602.88
466.293	593.88
466.512	572.88
466.732	575.88
466.951	565.88
467.171	565.88
467.391	537.88
467.61	565.88
467.829	589.88
468.049	567.88
468.268	562.88
468.488	558.88
468.707	538.88
468.927	549.88
469.146	542.88
469.365	550.88
469.585	579.88
469.804	572.88
470.023	554.88
470.243	574.88
470.462	570.88
470.681	577.88
470.901	601.88
471.12	577.88
471.339	583.88
471.558	589.88
471.777	555.88
471.997	565.88
472.216	564.88
472.435	564.88
472.654	569.88
472.873	577.88
473.092	574.88
473.311	546.88
473.53	555.88
473.749	555.88
473.968	633.88
474.187	729.88
474.406	789.88
474.625	642.88
474.844	591.88
475.063	571.88
475.282	584.88
475.501	585.88
475.72	568.88
475.939	601.88
476.158	594.88
476.377	586.88
476.596	584.88
476.814	598.88
477.033	598.88
477.252	601.88
477.471	622.88
477.69	613.88
477.908	607.88
478.127	598.88
478.346	614.88
478.564	637.88
478.783	632.88
479.002	631.88
479.22	629.88
479.439	658.88
479.658	684.88
479.876	696.88
480.095	673.88
480.313	739.88
480.532	722.88
480.751	701.88
480.969	700.88
481.188	738.88
481.406	748.88
481.624	693.88
481.843	684.88
482.061	680.88
482.28	670.88
482.498	652.88
482.717	657.88
482.935	681.88
483.153	654.88
483.372	666.88
483.59	671.88
483.808	662.88
484.027	643.88
484.245	664.88
484.463	649.88
484.681	670.88
484.9	663.88
485.118	711.88
485.336	708.88
485.554	715.88
485.772	708.88
485.99	697.88
486.209	717.88
486.427	709.88
486.645	712.88
486.863	733.88
487.081	738.88
487.299	718.88
487.517	710.88
487.735	732.88
487.953	734.88
488.171	717.88
488.389	723.88
488.607	702.88
488.825	737.88
489.043	715.88
489.261	741.88
489.479	727.88
489.696	734.88
489.914	726.88
490.132	750.88
490.35	755.88
490.568	761.88
490.786	760.88
491.003	775.88
491.221	765.88
491.439	815.88
491.657	833.88
491.874	784.88
492.092	815.88
492.31	831.88
492.527	821.88
492.745	807.88
492.963	831.88
493.18	820.88
493.398	831.88
493.615	825.88
493.833	851.88
494.05	855.88
494.268	828.88
494.485	844.88
494.703	850.88
494.92	850.88
495.138	824.88
495.355	873.88
495.573	859.88
495.79	849.88
496.008	861.88
496.225	855.88
496.442	840.88
496.66	876.88
496.877	875.88
497.094	891.88
497.312	893.88
497.529	897.88
497.746	904.88
497.963	903.88
498.181	935.88
498.398	957.88
498.615	966.88
498.832	994.88
499.049	1010.88
499.267	1011.88
499.484	1031.88
499.701	1092.88
499.918	1102.88
500.135	1186.88
500.352	1209.88
500.569	1239.88
500.786	1217.88
501.003	1214.88
501.22	1164.88
501.437	1176.88
501.654	1159.88
501.871	1096.88
502.088	1075.88
502.305	1005.88
502.522	1004.88
502.739	945.88
502.956	945.88
503.172	940.88
503.389	899.88
503.606	935.88
503.823	915.88
504.04	907.88
504.256	875.88
504.473	859.88
504.69	873.88
504.907	878.88
505.123	871.88
505.34	839.88
505.557	840.88
505.773	830.88
505.99	853.88
506.207	852.88
506.423	812.88
506.64	821.88
506.856	791.88
507.073	795.88
507.289	795.88
507.506	811.88
507.722	835.88
507.939	827.88
508.155	824.88
508.372	815.88
508.588	803.88
508.805	770.88
509.021	795.88
509.238	821.88
509.454	823.88
509.67	770.88
509.887	769.88
510.103	771.88
510.319	771.88
510.536	902.88
510.752	1402.88
510.968	1234.88
511.184	829.88
511.401	743.88
511.617	769.88
511.833	753.88
512.049	736.88
512.265	719.88
512.481	741.88
512.698	724.88
512.914	717.88
513.13	750.88
513.346	707.88
513.562	726.88
513.778	758.88
513.994	761.88
514.21	765.88
514.426	801.88
514.642	849.88
514.858	869.88
515.074	893.88
515.29	1064.88
515.506	1508.88
515.721	1249.88
515.937	890.88
516.153	829.88
516.369	809.88
516.585	795.88
516.801	782.88
517.016	790.88
517.232	786.88
517.448	769.88
517.664	771.88
517.879	795.88
518.095	790.88
518.311	781.88
518.527	755.88
518.742	791.88
518.958	773.88
519.173	766.88
519.389	765.88
519.605	736.88
519.82	737.88
520.036	752.88
520.251	801.88
520.467	812.88
520.682	829.88
520.898	795.88
521.113	831.88
521.329	854.88
521.544	976.88
521.76	1232.88
521.975	1917.88
522.19	1911.88
522.406	1080.88
522.621	865.88
522.836	791.88
523.052	723.88
523.267	716.88
523.482	701.88
523.698	693.88
523.913	696.88
524.128	685.88
524.343	659.88
524.559	654.88
524.774	645.88
524.989	659.88
525.204	663.88
525.419	642.88
525.634	642.88
525.849	634.88
526.064	623.88
526.28	611.88
526.495	635.88
526.71	616.88
526.925	626.88
527.14	625.88
527.355	627.88
527.57	621.88
527.785	620.88
527.999	611.88
528.214	617.88
528.429	615.88
528.644	629.88
528.859	591.88
529.074	617.88
529.289	642.88
529.503	733.88
529.718	711.88
529.933	645.88
530.148	617.88
530.363	629.88
530.577	623.88
530.792	614.88
531.007	599.88
531.221	609.88
531.436	598.88
531.651	593.88
531.865	577.88
532.08	594.88
532.295	600.88
532.509	582.88
532.724	606.88
532.938	573.88
533.153	571.88
533.367	569.88
533.582	597.88
533.796	578.88
534.011	584.88
534.225	557.88
534.44	543.88
534.654	571.88
534.868	557.88
535.083	582.88
535.297	573.88
535.511	582.88
535.726	598.88
535.94	573.88
536.154	593.88
536.369	561.88
536.583	553.88
536.797	565.88
537.011	541.88
537.225	551.88
537.44	555.88
537.654	568.88
537.868	553.88
538.082	559.88
538.296	553.88
538.51	535.88
538.724	564.88
538.938	570.88
539.153	553.88
539.367	541.88
539.581	548.88
539.795	559.88
540.009	531.88
540.222	536.88
540.436	553.88
540.65	564.88
540.864	565.88
541.078	578.88
541.292	551.88
541.506	556.88
541.72	562.88
541.934	557.88
542.147	549.88
542.361	547.88
542.575	558.88
542.789	547.88
543.002	541.88
543.216	545.88
543.43	548.88
543.644	555.88
543.857	557.88
544.071	557.88
544.285	543.88
544.498	545.88
544.712	537.88
544.925	536.88
545.139	540.88
545.352	522.88
545.566	535.88
545.779	545.88
545.993	524.88
546.206	552.88
546.42	543.88
546.633	523.88
546.847	515.88
547.06	495.88
547.274	519.88
547.487	529.88
547.7	536.88
547.914	522.88
548.127	520.88
548.34	520.88
548.554	522.88
548.767	518.88
548.98	530.88
549.193	516.88
549.407	527.88
549.62	525.88
549.833	545.88
550.046	523.88
550.259	502.88
550.473	487.88
550.686	521.88
550.899	533.88
551.112	518.88
551.325	495.88
551.538	506.88
551.751	508.88
551.964	516.88
552.177	514.88
552.39	509.88
552.603	501.88
552.816	513.88
553.029	529.88
553.242	525.88
553.455	534.88
553.667	545.88
553.88	542.88
554.093	547.88
554.306	535.88
554.519	523.88
554.732	537.88
554.944	529.88
555.157	517.88
555.37	500.88
555.583	503.88
555.795	507.88
556.008	492.88
556.221	496.88
556.433	477.88
556.646	463.88
556.859	474.88
557.071	499.88
557.284	492.88
557.496	468.88
557.709	471.88
557.921	489.88
558.134	469.88
558.346	459.88
558.559	445.88
558.771	457.88
558.984	458.88
559.196	451.88
559.409	458.88
559.621	480.88
559.833	471.88
560.046	462.88
560.258	471.88
560.47	466.88
560.683	456.88
560.895	468.88
561.107	451.88
561.32	469.88
561.532	467.88
561.744	469.88
561.956	445.88
562.168	467.88
562.381	481.88
562.593	458.88
562.805	455.88
563.017	467.88
563.229	472.88
563.441	479.88
563.653	497.88
563.865	477.88
564.077	481.88
564.289	475.88
564.501	463.88
564.713	485.88
564.925	490.88
565.137	499.88
565.349	493.88
565.561	510.88
565.773	510.88
565.985	518.88
566.197	546.88
566.408	551.88
566.62	559.88
566.832	569.88
567.044	569.88
567.255	578.88
567.467	586.88
567.679	598.88
567.891	610.88
568.102	588.88
568.314	584.88
568.526	563.88
568.737	561.88
568.949	536.88
569.161	513.88
569.372	492.88
569.584	467.88
569.795	503.88
570.007	486.88
570.218	508.88
570.43	509.88
570.641	485.88
570.853	437.88
571.064	453.88
571.276	450.88
571.487	449.88
571.698	442.88
571.91	427.88
572.121	440.88
572.333	427.88
572.544	420.88
572.755	437.88
572.966	414.88
573.178	407.88
573.389	407.88
573.6	398.88
573.811	406.88
574.023	407.88
574.234	396.88
574.445	421.88
574.656	404.88
574.867	416.88
575.078	400.88
575.289	409.88
575.501	405.88
575.712	395.88
575.923	403.88
576.134	393.88
576.345	383.88
576.556	396.88
576.767	388.88
576.978	378.88
577.188	393.88
577.399	388.88
577.61	393.88
577.821	383.88
578.032	395.88
578.243	442.88
578.454	641.88
578.665	506.88
578.875	395.88
579.086	393.88
579.297	386.88
579.508	387.88
579.718	385.88
579.929	375.88
580.14	361.88
580.35	357.88
580.561	380.88
580.772	383.88
580.982	356.88
581.193	378.88
581.403	367.88
581.614	383.88
581.825	379.88
582.035	367.88
582.246	361.88
582.456	365.88
582.667	362.88
582.877	369.88
583.087	370.88
583.298	352.88
583.508	376.88
583.719	364.88
583.929	349.88
584.139	356.88
584.35	365.88
584.56	348.88
584.77	356.88
584.981	350.88
585.191	348.88
585.401	342.88
585.611	355.88
585.821	365.88
586.032	355.88
586.242	350.88
586.452	351.88
586.662	345.88
586.872	364.88
587.082	358.88
587.292	366.88
587.502	366.88
587.713	351.88
587.923	353.88
588.133	348.88
588.343	345.88
588.553	347.88
588.762	333.88
588.972	331.88
589.182	350.88
589.392	333.88
589.602	336.88
589.812	344.88
590.022	330.88
590.232	352.88
590.441	351.88
590.651	349.88
590.861	332.88
591.071	340.88
591.281	344.88
591.49	334.88
591.7	339.88
591.91	334.88
592.119	346.88
592.329	360.88
592.539	355.88
592.748	361.88
592.958	362.88
593.167	358.88
593.377	377.88
593.587	391.88
593.796	376.88
594.006	377.88
594.215	366.88
594.424	361.88
594.634	374.88
594.843	363.88
595.053	349.88
595.262	361.88
595.472	357.88
595.681	357.88
595.89	350.88
596.1	343.88
596.309	328.88
596.518	330.88
596.727	341.88
596.937	313.88
597.146	335.88
597.355	316.88
597.564	312.88
597.774	329.88
597.983	336.88
598.192	315.88
598.401	307.88
598.61	322.88
598.819	319.88
599.028	314.88
599.237	305.88
599.446	328.88
599.655	315.88
599.864	327.88
600.073	317.88
600.282	321.88
600.491	294.88
600.7	334.88
600.909	301.88
601.118	308.88
601.327	303.88
601.536	294.88
601.745	283.88
601.953	299.88
602.162	288.88
602.371	314.88
602.58	281.88
602.789	287.88
602.997	294.88
603.206	305.88
603.415	280.88
603.623	293.88
603.832	284.88
604.041	308.88
604.249	298.88
604.458	277.88
604.666	278.88
604.875	282.88
605.084	278.88
605.292	299.88
605.501	296.88
605.709	299.88
605.918	263.88
606.126	287.88
606.334	274.88
606.543	271.88
606.751	280.88
606.96	276.88
607.168	276.88
607.376	282.88
607.585	294.88
607.793	281.88
608.001	294.88
608.21	281.88
608.418	289.88
608.626	271.88
608.834	270.88
609.043	306.88
609.251	276.88
609.459	277.88
609.667	289.88
609.875	291.88
610.083	294.88
610.291	289.88
610.499	259.88
610.707	286.88
610.916	286.88
611.124	287.88
611.332	282.88
611.54	272.88
611.748	281.88
611.955	269.88
612.163	270.88
612.371	251.88
612.579	264.88
612.787	263.88
612.995	272.88
613.203	269.88
613.411	257.88
613.618	262.88
613.826	276.88
614.034	268.88
614.242	270.88
614.449	274.88
614.657	258.88
614.865	274.88
615.072	273.88
615.28	255.88
615.488	247.88
615.695	258.88
615.903	255.88
616.111	285.88
616.318	274.88
616.526	281.88
616.733	271.88
616.941	257.88
617.148	283.88
617.356	269.88
617.563	261.88
617.771	266.88
617.978	260.88
618.185	279.88
618.393	250.88
618.6	269.88
618.807	271.88
619.015	262.88
619.222	254.88
619.429	259.88
619.637	263.88
619.844	269.88
620.051	263.88
620.258	246.88
620.466	251.88
620.673	231.88
620.88	246.88
621.087	236.88
621.294	233.88
621.501	239.88
621.708	244.88
621.915	241.88
622.122	242.88
622.329	249.88
622.536	249.88
622.743	255.88
622.95	249.88
623.157	247.88
623.364	243.88
623.571	242.88
623.778	257.88
623.985	228.88
624.192	238.88
624.399	260.88
624.606	253.88
624.812	229.88
625.019	228.88
625.226	243.88
625.433	228.88
625.639	221.88
625.846	228.88
626.053	225.88
626.259	237.88
626.466	229.88
626.673	217.88
626.879	232.88
627.086	244.88
627.293	222.88
627.499	220.88
627.706	236.88
627.912	228.88
628.119	235.88
628.325	234.88
628.532	218.88
628.738	228.88
628.945	230.88
629.151	210.88
629.357	220.88
629.564	224.88
629.77	217.88
629.976	233.88
630.183	219.88
630.389	214.88
630.595	227.88
630.802	231.88
631.008	211.88
631.214	203.88
631.42	222.88
631.627	224.88
631.833	213.88
632.039	209.88
632.245	194.88
632.451	228.88
632.657	214.88
632.863	220.88
633.069	211.88
633.275	201.88
633.481	198.88
633.688	209.88
633.893	197.88
634.099	194.88
634.305	209.88
634.511	203.88
634.717	216.88
634.923	179.88
635.129	200.88
635.335	202.88
635.541	216.88
635.747	207.88
635.952	202.88
636.158	201.88
636.364	221.88
636.57	202.88
636.775	197.88
636.981	197.88
637.187	192.88
637.392	182.88
637.598	187.88
637.804	198.88
638.009	202.88
638.215	186.88
638.421	180.88
638.626	212.88
638.832	193.88
639.037	190.88
639.243	191.88
639.448	202.88
639.654	206.88
639.859	195.88
640.065	186.88
640.27	200.88
640.475	195.88
640.681	217.88
640.886	192.88
641.091	188.88
641.297	201.88
641.502	196.88
641.707	189.88
641.913	184.88
642.118	190.88
642.323	191.88
642.528	198.88
642.733	191.88
642.939	187.88
643.144	175.88
643.349	189.88
643.554	185.88
643.759	182.88
643.964	198.88
644.169	173.88
644.374	177.88
644.579	183.88
644.784	198.88
644.989	191.88
645.194	192.88
645.399	183.88
645.604	178.88
645.809	178.88
646.014	183.88
646.219	193.88
646.423	181.88
646.628	199.88
646.833	178.88
647.038	196.88
647.243	190.88
647.447	180.88
647.652	179.88
647.857	194.88
648.062	183.88
648.266	196.88
648.471	186.88
648.676	181.88
648.88	185.88
649.085	190.88
649.289	179.88
649.494	194.88
649.698	208.88
649.903	190.88
650.107	185.88
650.312	197.88
650.516	177.88
650.721	173.88
650.925	168.88
651.13	165.88
651.334	161.88
651.539	155.88
651.743	164.88
651.947	162.88
652.152	144.88
652.356	161.88
652.56	167.88
652.764	135.88
652.969	166.88
653.173	151.88
653.377	147.88
653.581	159.88
653.785	151.88
653.99	133.88
654.194	145.88
654.398	151.88
654.602	144.88
654.806	137.88
655.01	159.88
655.214	151.88
655.418	154.88
655.622	145.88
655.826	144.88
656.03	151.88
656.234	135.88
656.438	129.88
656.642	128.88
656.846	139.88
657.049	139.88
657.253	138.88
657.457	138.88
657.661	118.88
657.865	122.88
658.068	122.88
658.272	111.88
658.476	113.88
658.68	101.88
658.883	103.88
659.087	106.88
659.291	93.88
659.494	97.88
659.698	91.88
659.901	108.88
660.105	109.88
660.309	90.88
660.512	104.88
660.716	91.88
660.919	94.88
661.123	116.88
661.326	97.88
661.53	91.88
661.733	86.88
661.936	87.88
662.14	84.88
662.343	86.88
662.546	99.88
662.75	90.88
662.953	88.88
663.156	86.88
663.36	85.88
663.563	93.88
663.766	77.88
663.969	78.88
664.173	80.88
664.376	78.88
664.579	85.88
664.782	98.88
664.985	76.88
665.188	76.88
665.391	83.88
665.594	81.88
665.797	78.88
666	86.88
666.203	71.88
666.406	95.88
666.609	82.88
666.812	90.88
667.015	89.88
667.218	70.88
667.421	88.88
667.624	87.88
667.827	80.88
668.03	83.88
668.232	77.88
668.435	76.88
668.638	78.88
668.841	82.88
669.043	80.88
669.246	81.88
669.449	77.88
669.651	109.88
669.854	83.88
670.057	101.88
670.259	71.88
670.462	75.88
670.665	73.88
670.867	85.88
671.07	75.88
671.272	88.88
671.475	97.88
671.677	79.88
671.88	60.88
672.082	79.88
672.284	83.88
672.487	76.88
672.689	83.88
672.892	63.88
