Data from 1988.PennyLincolnUp.Lamp.En5.5.200Scan.071819.P2_HRD10591_17-21-05-972.txt Node
Date: Thu Jul 18 17:21:05 EDT 2019
User: cochatt
Spectrometer: HR+D1059
Trigger mode: 1
Integration Time (sec): 1.000000E-1
Scans to average: 1
Electric dark correction enabled: true
Nonlinearity correction enabled: false
Boxcar width: 0
XAxis mode: Wavelengths
Number of Pixels in Spectrum: 2048
>>>>>Begin Spectral Data<<<<<
223.165	-19.19
223.4	-19.19
223.635	-19.19
223.869	-13.19
224.104	-18.19
224.338	-1.19
224.573	-23.19
224.808	-17.19
225.042	3.81
225.277	-17.19
225.511	-8.19
225.746	4.81
225.98	4.81
226.215	17.81
226.449	13.81
226.683	21.81
226.918	36.81
227.152	13.81
227.387	24.81
227.621	37.81
227.856	42.81
228.09	45.81
228.324	53.81
228.559	55.81
228.793	82.81
229.027	106.81
229.262	109.81
229.496	115.81
229.73	146.81
229.964	170.81
230.199	137.81
230.433	109.81
230.667	128.81
230.901	114.81
231.136	116.81
231.37	117.81
231.604	97.81
231.838	108.81
232.072	119.81
232.306	134.81
232.541	116.81
232.775	128.81
233.009	135.81
233.243	125.81
233.477	107.81
233.711	130.81
233.945	138.81
234.179	119.81
234.413	132.81
234.647	128.81
234.881	133.81
235.115	116.81
235.349	110.81
235.583	126.81
235.817	128.81
236.051	134.81
236.285	147.81
236.519	127.81
236.753	147.81
236.987	152.81
237.221	206.81
237.455	263.81
237.689	200.81
237.922	137.81
238.156	137.81
238.39	143.81
238.624	123.81
238.858	137.81
239.091	139.81
239.325	119.81
239.559	131.81
239.793	130.81
240.027	164.81
240.26	164.81
240.494	182.81
240.728	169.81
240.961	172.81
241.195	145.81
241.429	154.81
241.662	128.81
241.896	131.81
242.13	143.81
242.363	147.81
242.597	132.81
242.83	157.81
243.064	152.81
243.298	141.81
243.531	148.81
243.765	154.81
243.998	153.81
244.232	152.81
244.465	163.81
244.699	158.81
244.932	158.81
245.166	158.81
245.399	153.81
245.633	158.81
245.866	141.81
246.099	163.81
246.333	170.81
246.566	155.81
246.8	162.81
247.033	161.81
247.266	158.81
247.5	168.81
247.733	188.81
247.966	189.81
248.2	169.81
248.433	178.81
248.666	182.81
248.899	195.81
249.133	227.81
249.366	230.81
249.599	225.81
249.832	203.81
250.066	178.81
250.299	201.81
250.532	188.81
250.765	225.81
250.998	242.81
251.231	236.81
251.465	222.81
251.698	217.81
251.931	213.81
252.164	202.81
252.397	226.81
252.63	225.81
252.863	210.81
253.096	214.81
253.329	242.81
253.562	242.81
253.795	242.81
254.028	225.81
254.261	218.81
254.494	238.81
254.727	272.81
254.96	293.81
255.193	289.81
255.426	284.81
255.659	227.81
255.892	242.81
256.124	247.81
256.357	234.81
256.59	224.81
256.823	233.81
257.056	218.81
257.289	232.81
257.521	222.81
257.754	233.81
257.987	213.81
258.22	213.81
258.452	213.81
258.685	221.81
258.918	210.81
259.151	224.81
259.383	220.81
259.616	236.81
259.849	251.81
260.081	234.81
260.314	276.81
260.547	294.81
260.779	265.81
261.012	267.81
261.244	236.81
261.477	250.81
261.71	232.81
261.942	246.81
262.175	238.81
262.407	243.81
262.64	241.81
262.872	246.81
263.105	243.81
263.337	230.81
263.57	222.81
263.802	258.81
264.035	232.81
264.267	226.81
264.499	232.81
264.732	227.81
264.964	219.81
265.197	231.81
265.429	246.81
265.661	230.81
265.894	233.81
266.126	234.81
266.358	236.81
266.591	222.81
266.823	230.81
267.055	245.81
267.287	248.81
267.52	246.81
267.752	250.81
267.984	251.81
268.216	258.81
268.448	246.81
268.681	244.81
268.913	270.81
269.145	290.81
269.377	299.81
269.609	301.81
269.841	281.81
270.073	298.81
270.306	315.81
270.538	329.81
270.77	339.81
271.002	308.81
271.234	317.81
271.466	318.81
271.698	333.81
271.93	364.81
272.162	329.81
272.394	333.81
272.626	309.81
272.858	316.81
273.09	295.81
273.322	295.81
273.553	299.81
273.785	288.81
274.017	300.81
274.249	291.81
274.481	286.81
274.713	286.81
274.945	307.81
275.176	293.81
275.408	296.81
275.64	293.81
275.872	276.81
276.104	295.81
276.335	296.81
276.567	305.81
276.799	312.81
277.031	327.81
277.262	333.81
277.494	331.81
277.726	327.81
277.957	323.81
278.189	302.81
278.421	279.81
278.652	306.81
278.884	285.81
279.115	277.81
279.347	305.81
279.579	285.81
279.81	287.81
280.042	278.81
280.273	287.81
280.505	288.81
280.736	278.81
280.968	291.81
281.199	284.81
281.431	274.81
281.662	294.81
281.894	308.81
282.125	290.81
282.356	297.81
282.588	338.81
282.819	334.81
283.051	331.81
283.282	304.81
283.513	312.81
283.745	301.81
283.976	294.81
284.207	308.81
284.439	316.81
284.67	308.81
284.901	289.81
285.132	300.81
285.364	310.81
285.595	312.81
285.826	307.81
286.057	309.81
286.288	300.81
286.52	310.81
286.751	308.81
286.982	304.81
287.213	298.81
287.444	316.81
287.675	322.81
287.906	327.81
288.138	331.81
288.369	356.81
288.6	342.81
288.831	315.81
289.062	325.81
289.293	326.81
289.524	311.81
289.755	306.81
289.986	300.81
290.217	315.81
290.448	299.81
290.679	309.81
290.91	309.81
291.141	321.81
291.371	320.81
291.602	307.81
291.833	335.81
292.064	338.81
292.295	317.81
292.526	328.81
292.757	326.81
292.987	326.81
293.218	330.81
293.449	332.81
293.68	312.81
293.91	327.81
294.141	321.81
294.372	332.81
294.603	342.81
294.833	318.81
295.064	314.81
295.295	332.81
295.525	320.81
295.756	330.81
295.987	324.81
296.217	353.81
296.448	372.81
296.679	338.81
296.909	336.81
297.14	342.81
297.37	328.81
297.601	345.81
297.831	330.81
298.062	338.81
298.292	324.81
298.523	329.81
298.753	327.81
298.984	330.81
299.214	334.81
299.445	342.81
299.675	352.81
299.905	356.81
300.136	347.81
300.366	352.81
300.597	346.81
300.827	353.81
301.057	366.81
301.288	376.81
301.518	348.81
301.748	338.81
301.979	340.81
302.209	372.81
302.439	365.81
302.669	368.81
302.9	362.81
303.13	363.81
303.36	372.81
303.59	364.81
303.82	376.81
304.051	381.81
304.281	366.81
304.511	361.81
304.741	349.81
304.971	348.81
305.201	364.81
305.431	362.81
305.661	373.81
305.891	356.81
306.121	364.81
306.352	366.81
306.582	380.81
306.812	374.81
307.042	369.81
307.272	365.81
307.502	376.81
307.731	384.81
307.961	362.81
308.191	379.81
308.421	365.81
308.651	365.81
308.881	396.81
309.111	368.81
309.341	375.81
309.571	378.81
309.8	389.81
310.03	410.81
310.26	424.81
310.49	408.81
310.72	414.81
310.949	436.81
311.179	460.81
311.409	444.81
311.639	422.81
311.868	444.81
312.098	420.81
312.328	433.81
312.557	448.81
312.787	466.81
313.017	441.81
313.246	433.81
313.476	426.81
313.706	430.81
313.935	423.81
314.165	427.81
314.394	454.81
314.624	444.81
314.853	436.81
315.083	442.81
315.312	402.81
315.542	418.81
315.771	407.81
316.001	407.81
316.23	416.81
316.46	391.81
316.689	420.81
316.919	416.81
317.148	435.81
317.377	454.81
317.607	436.81
317.836	450.81
318.065	413.81
318.295	436.81
318.524	430.81
318.753	418.81
318.983	448.81
319.212	433.81
319.441	443.81
319.67	424.81
319.9	432.81
320.129	418.81
320.358	432.81
320.587	422.81
320.816	435.81
321.046	451.81
321.275	446.81
321.504	454.81
321.733	463.81
321.962	480.81
322.191	471.81
322.42	499.81
322.649	510.81
322.878	500.81
323.108	499.81
323.337	565.81
323.566	590.81
323.795	618.81
324.024	662.81
324.253	800.81
324.482	1168.81
324.71	1845.81
324.939	2674.81
325.168	2360.81
325.397	1165.81
325.626	787.81
325.855	631.81
326.084	613.81
326.313	606.81
326.542	599.81
326.77	669.81
326.999	754.81
327.228	1028.81
327.457	1625.81
327.686	2018.81
327.914	1322.81
328.143	813.81
328.372	708.81
328.6	662.81
328.829	641.81
329.058	670.81
329.287	657.81
329.515	608.81
329.744	592.81
329.972	583.81
330.201	576.81
330.43	629.81
330.658	619.81
330.887	692.81
331.115	695.81
331.344	626.81
331.572	539.81
331.801	565.81
332.03	568.81
332.258	531.81
332.486	521.81
332.715	485.81
332.943	511.81
333.172	518.81
333.4	517.81
333.629	536.81
333.857	538.81
334.085	535.81
334.314	523.81
334.542	548.81
334.771	555.81
334.999	530.81
335.227	519.81
335.455	542.81
335.684	518.81
335.912	493.81
336.14	506.81
336.369	498.81
336.597	517.81
336.825	518.81
337.053	492.81
337.281	490.81
337.51	516.81
337.738	486.81
337.966	496.81
338.194	500.81
338.422	502.81
338.65	488.81
338.878	468.81
339.106	477.81
339.334	474.81
339.562	499.81
339.79	491.81
340.018	494.81
340.246	485.81
340.474	485.81
340.702	507.81
340.93	498.81
341.158	466.81
341.386	472.81
341.614	493.81
341.842	483.81
342.07	488.81
342.298	482.81
342.526	482.81
342.754	473.81
342.981	482.81
343.209	468.81
343.437	498.81
343.665	505.81
343.893	485.81
344.12	512.81
344.348	490.81
344.576	500.81
344.804	521.81
345.031	525.81
345.259	527.81
345.487	506.81
345.714	517.81
345.942	480.81
346.17	464.81
346.397	480.81
346.625	488.81
346.853	452.81
347.08	461.81
347.308	474.81
347.535	485.81
347.763	489.81
347.99	476.81
348.218	484.81
348.445	479.81
348.673	500.81
348.9	470.81
349.128	463.81
349.355	445.81
349.583	479.81
349.81	445.81
350.037	482.81
350.265	455.81
350.492	469.81
350.72	488.81
350.947	491.81
351.174	486.81
351.402	491.81
351.629	501.81
351.856	477.81
352.083	484.81
352.311	520.81
352.538	469.81
352.765	491.81
352.992	492.81
353.22	498.81
353.447	473.81
353.674	481.81
353.901	472.81
354.128	441.81
354.355	453.81
354.583	443.81
354.81	451.81
355.037	434.81
355.264	443.81
355.491	421.81
355.718	443.81
355.945	434.81
356.172	434.81
356.399	457.81
356.626	438.81
356.853	455.81
357.08	427.81
357.307	441.81
357.534	435.81
357.761	422.81
357.988	463.81
358.215	451.81
358.441	449.81
358.668	460.81
358.895	468.81
359.122	458.81
359.349	477.81
359.576	480.81
359.802	488.81
360.029	530.81
360.256	554.81
360.483	523.81
360.709	497.81
360.936	493.81
361.163	461.81
361.39	480.81
361.616	493.81
361.843	486.81
362.07	481.81
362.296	475.81
362.523	481.81
362.749	469.81
362.976	474.81
363.203	487.81
363.429	473.81
363.656	456.81
363.882	456.81
364.109	452.81
364.335	451.81
364.562	456.81
364.788	466.81
365.015	448.81
365.241	455.81
365.468	473.81
365.694	482.81
365.92	454.81
366.147	452.81
366.373	475.81
366.599	440.81
366.826	468.81
367.052	456.81
367.278	463.81
367.505	433.81
367.731	461.81
367.957	473.81
368.184	439.81
368.41	461.81
368.636	482.81
368.862	475.81
369.089	490.81
369.315	451.81
369.541	473.81
369.767	451.81
369.993	463.81
370.219	436.81
370.445	436.81
370.672	434.81
370.898	464.81
371.124	472.81
371.35	460.81
371.576	471.81
371.802	457.81
372.028	458.81
372.254	461.81
372.48	456.81
372.706	460.81
372.932	481.81
373.158	443.81
373.384	456.81
373.61	469.81
373.835	485.81
374.061	468.81
374.287	454.81
374.513	454.81
374.739	456.81
374.965	471.81
375.191	470.81
375.416	472.81
375.642	467.81
375.868	489.81
376.094	473.81
376.319	470.81
376.545	477.81
376.771	454.81
376.997	461.81
377.222	447.81
377.448	461.81
377.674	464.81
377.899	432.81
378.125	457.81
378.35	452.81
378.576	457.81
378.802	461.81
379.027	460.81
379.253	466.81
379.478	474.81
379.704	468.81
379.929	472.81
380.155	457.81
380.38	466.81
380.606	466.81
380.831	465.81
381.057	457.81
381.282	474.81
381.507	454.81
381.733	460.81
381.958	472.81
382.184	468.81
382.409	491.81
382.634	503.81
382.86	478.81
383.085	476.81
383.31	478.81
383.535	471.81
383.761	461.81
383.986	497.81
384.211	508.81
384.436	476.81
384.662	503.81
384.887	501.81
385.112	491.81
385.337	499.81
385.562	505.81
385.787	513.81
386.013	527.81
386.238	538.81
386.463	523.81
386.688	499.81
386.913	491.81
387.138	512.81
387.363	518.81
387.588	488.81
387.813	491.81
388.038	511.81
388.263	513.81
388.488	538.81
388.713	518.81
388.938	504.81
389.163	540.81
389.387	497.81
389.612	493.81
389.837	522.81
390.062	540.81
390.287	518.81
390.512	525.81
390.736	491.81
390.961	501.81
391.186	516.81
391.411	524.81
391.636	515.81
391.86	525.81
392.085	554.81
392.31	533.81
392.534	531.81
392.759	526.81
392.984	518.81
393.208	536.81
393.433	527.81
393.658	540.81
393.882	505.81
394.107	534.81
394.331	544.81
394.556	514.81
394.78	521.81
395.005	518.81
395.229	538.81
395.454	534.81
395.678	553.81
395.903	528.81
396.127	568.81
396.352	574.81
396.576	562.81
396.801	538.81
397.025	553.81
397.249	542.81
397.474	559.81
397.698	533.81
397.922	576.81
398.147	591.81
398.371	609.81
398.595	569.81
398.82	580.81
399.044	609.81
399.268	635.81
399.492	667.81
399.717	686.81
399.941	726.81
400.165	766.81
400.389	753.81
400.613	692.81
400.837	658.81
401.062	589.81
401.286	598.81
401.51	594.81
401.734	597.81
401.958	600.81
402.182	613.81
402.406	605.81
402.63	633.81
402.854	610.81
403.078	623.81
403.302	612.81
403.526	618.81
403.75	624.81
403.974	617.81
404.198	617.81
404.422	612.81
404.645	611.81
404.869	624.81
405.093	684.81
405.317	688.81
405.541	732.81
405.765	681.81
405.988	650.81
406.212	660.81
406.436	693.81
406.66	718.81
406.883	682.81
407.107	715.81
407.331	729.81
407.555	838.81
407.778	812.81
408.002	767.81
408.226	717.81
408.449	682.81
408.673	696.81
408.896	734.81
409.12	792.81
409.344	753.81
409.567	660.81
409.791	668.81
410.014	645.81
410.238	625.81
410.461	625.81
410.685	635.81
410.908	637.81
411.132	694.81
411.355	740.81
411.578	678.81
411.802	664.81
412.025	650.81
412.249	612.81
412.472	634.81
412.695	666.81
412.919	662.81
413.142	626.81
413.365	603.81
413.589	598.81
413.812	601.81
414.035	606.81
414.258	608.81
414.482	615.81
414.705	583.81
414.928	579.81
415.151	575.81
415.374	591.81
415.597	590.81
415.821	594.81
416.044	590.81
416.267	613.81
416.49	589.81
416.713	585.81
416.936	596.81
417.159	603.81
417.382	613.81
417.605	601.81
417.828	592.81
418.051	619.81
418.274	616.81
418.497	598.81
418.72	606.81
418.943	579.81
419.166	595.81
419.389	643.81
419.611	616.81
419.834	626.81
420.057	617.81
420.28	625.81
420.503	609.81
420.726	610.81
420.948	622.81
421.171	685.81
421.394	701.81
421.617	621.81
421.839	622.81
422.062	609.81
422.285	635.81
422.507	697.81
422.73	799.81
422.953	761.81
423.175	658.81
423.398	636.81
423.621	651.81
423.843	674.81
424.066	674.81
424.288	692.81
424.511	698.81
424.733	757.81
424.956	854.81
425.178	830.81
425.401	810.81
425.623	848.81
425.846	726.81
426.068	678.81
426.291	665.81
426.513	677.81
426.735	681.81
426.958	716.81
427.18	834.81
427.402	988.81
427.625	1111.81
427.847	949.81
428.069	808.81
428.292	736.81
428.514	676.81
428.736	637.81
428.958	626.81
429.181	604.81
429.403	639.81
429.625	614.81
429.847	667.81
430.069	730.81
430.292	748.81
430.514	638.81
430.736	605.81
430.958	633.81
431.18	594.81
431.402	615.81
431.624	582.81
431.846	557.81
432.068	557.81
432.29	586.81
432.512	580.81
432.734	612.81
432.956	587.81
433.178	593.81
433.4	584.81
433.622	604.81
433.844	580.81
434.066	582.81
434.287	593.81
434.509	582.81
434.731	594.81
434.953	604.81
435.175	620.81
435.397	665.81
435.618	669.81
435.84	716.81
436.062	856.81
436.284	924.81
436.505	749.81
436.727	682.81
436.949	645.81
437.17	618.81
437.392	613.81
437.614	636.81
437.835	688.81
438.057	804.81
438.278	907.81
438.5	911.81
438.721	995.81
438.943	965.81
439.165	757.81
439.386	692.81
439.608	668.81
439.829	662.81
440.05	717.81
440.272	794.81
440.493	704.81
440.715	674.81
440.936	628.81
441.158	634.81
441.379	629.81
441.6	635.81
441.822	660.81
442.043	702.81
442.264	811.81
442.486	878.81
442.707	739.81
442.928	707.81
443.149	716.81
443.371	727.81
443.592	764.81
443.813	876.81
444.034	945.81
444.255	804.81
444.476	703.81
444.698	692.81
444.919	660.81
445.14	790.81
445.361	763.81
445.582	726.81
445.803	818.81
446.024	917.81
446.245	918.81
446.466	844.81
446.687	737.81
446.908	690.81
447.129	638.81
447.35	632.81
447.571	629.81
447.792	596.81
448.013	619.81
448.234	658.81
448.455	712.81
448.675	852.81
448.896	989.81
449.117	812.81
449.338	780.81
449.559	916.81
449.779	1042.81
450	838.81
450.221	677.81
450.442	629.81
450.662	623.81
450.883	612.81
451.104	610.81
451.324	632.81
451.545	597.81
451.766	574.81
451.986	550.81
452.207	529.81
452.428	544.81
452.648	554.81
452.869	562.81
453.089	561.81
453.31	585.81
453.53	548.81
453.751	561.81
453.971	572.81
454.192	570.81
454.412	569.81
454.633	562.81
454.853	561.81
455.073	576.81
455.294	586.81
455.514	653.81
455.734	651.81
455.955	584.81
456.175	530.81
456.395	538.81
456.616	541.81
456.836	524.81
457.056	502.81
457.276	521.81
457.497	545.81
457.717	542.81
457.937	522.81
458.157	519.81
458.377	564.81
458.598	580.81
458.818	653.81
459.038	714.81
459.258	766.81
459.478	648.81
459.698	621.81
459.918	605.81
460.138	590.81
460.358	580.81
460.578	589.81
460.798	596.81
461.018	594.81
461.238	600.81
461.458	608.81
461.678	598.81
461.898	603.81
462.118	600.81
462.338	598.81
462.558	601.81
462.777	623.81
462.997	614.81
463.217	666.81
463.437	670.81
463.657	640.81
463.876	632.81
464.096	635.81
464.316	619.81
464.536	646.81
464.755	650.81
464.975	675.81
465.195	680.81
465.414	770.81
465.634	688.81
465.854	640.81
466.073	596.81
466.293	582.81
466.512	573.81
466.732	572.81
466.951	600.81
467.171	562.81
467.391	560.81
467.61	587.81
467.829	601.81
468.049	558.81
468.268	537.81
468.488	566.81
468.707	550.81
468.927	550.81
469.146	559.81
469.365	569.81
469.585	552.81
469.804	581.81
470.023	538.81
470.243	564.81
470.462	582.81
470.681	606.81
470.901	598.81
471.12	601.81
471.339	580.81
471.558	594.81
471.777	582.81
471.997	577.81
472.216	570.81
472.435	584.81
472.654	584.81
472.873	568.81
473.092	567.81
473.311	575.81
473.53	576.81
473.749	572.81
473.968	630.81
474.187	763.81
474.406	739.81
474.625	635.81
474.844	603.81
475.063	598.81
475.282	601.81
475.501	588.81
475.72	602.81
475.939	588.81
476.158	603.81
476.377	611.81
476.596	577.81
476.814	615.81
477.033	613.81
477.252	630.81
477.471	611.81
477.69	630.81
477.908	622.81
478.127	641.81
478.346	613.81
478.564	636.81
478.783	642.81
479.002	635.81
479.22	696.81
479.439	658.81
479.658	678.81
479.876	684.81
480.095	715.81
480.313	752.81
480.532	718.81
480.751	696.81
480.969	719.81
481.188	717.81
481.406	748.81
481.624	706.81
481.843	683.81
482.061	692.81
482.28	672.81
482.498	674.81
482.717	673.81
482.935	682.81
483.153	680.81
483.372	640.81
483.59	672.81
483.808	669.81
484.027	702.81
484.245	660.81
484.463	677.81
484.681	676.81
484.9	681.81
485.118	706.81
485.336	692.81
485.554	724.81
485.772	715.81
485.99	718.81
486.209	701.81
486.427	721.81
486.645	700.81
486.863	726.81
487.081	746.81
487.299	724.81
487.517	728.81
487.735	715.81
487.953	728.81
488.171	734.81
488.389	741.81
488.607	722.81
488.825	731.81
489.043	723.81
489.261	729.81
489.479	753.81
489.696	744.81
489.914	732.81
490.132	766.81
490.35	752.81
490.568	756.81
490.786	780.81
491.003	778.81
491.221	782.81
491.439	826.81
491.657	829.81
491.874	808.81
492.092	828.81
492.31	848.81
492.527	848.81
492.745	835.81
492.963	836.81
493.18	853.81
493.398	856.81
493.615	864.81
493.833	843.81
494.05	825.81
494.268	844.81
494.485	858.81
494.703	850.81
494.92	864.81
495.138	850.81
495.355	875.81
495.573	888.81
495.79	864.81
496.008	829.81
496.225	859.81
496.442	840.81
496.66	903.81
496.877	871.81
497.094	894.81
497.312	874.81
497.529	894.81
497.746	915.81
497.963	918.81
498.181	961.81
498.398	936.81
498.615	974.81
498.832	987.81
499.049	1006.81
499.267	1054.81
499.484	1052.81
499.701	1076.81
499.918	1155.81
500.135	1189.81
500.352	1208.81
500.569	1240.81
500.786	1234.81
501.003	1234.81
501.22	1180.81
501.437	1171.81
501.654	1124.81
501.871	1132.81
502.088	1109.81
502.305	1048.81
502.522	990.81
502.739	999.81
502.956	947.81
503.172	920.81
503.389	928.81
503.606	921.81
503.823	911.81
504.04	900.81
504.256	902.81
504.473	877.81
504.69	914.81
504.907	896.81
505.123	861.81
505.34	890.81
505.557	860.81
505.773	865.81
505.99	838.81
506.207	857.81
506.423	847.81
506.64	829.81
506.856	810.81
507.073	797.81
507.289	826.81
507.506	810.81
507.722	810.81
507.939	835.81
508.155	828.81
508.372	785.81
508.588	786.81
508.805	801.81
509.021	778.81
509.238	805.81
509.454	830.81
509.67	827.81
509.887	797.81
510.103	786.81
510.319	799.81
510.536	909.81
510.752	1429.81
510.968	1196.81
511.184	831.81
511.401	762.81
511.617	787.81
511.833	758.81
512.049	736.81
512.265	738.81
512.481	741.81
512.698	745.81
512.914	742.81
513.13	728.81
513.346	738.81
513.562	729.81
513.778	723.81
513.994	770.81
514.21	756.81
514.426	804.81
514.642	849.81
514.858	877.81
515.074	910.81
515.29	1082.81
515.506	1536.81
515.721	1295.81
515.937	924.81
516.153	862.81
516.369	827.81
516.585	801.81
516.801	788.81
517.016	796.81
517.232	802.81
517.448	780.81
517.664	776.81
517.879	781.81
518.095	792.81
518.311	780.81
518.527	752.81
518.742	748.81
518.958	774.81
519.173	741.81
519.389	768.81
519.605	775.81
519.82	754.81
520.036	774.81
520.251	788.81
520.467	836.81
520.682	825.81
520.898	792.81
521.113	832.81
521.329	892.81
521.544	968.81
521.76	1265.81
521.975	1983.81
522.19	1975.81
522.406	1121.81
522.621	861.81
522.836	772.81
523.052	744.81
523.267	732.81
523.482	721.81
523.698	706.81
523.913	688.81
524.128	696.81
524.343	696.81
524.559	674.81
524.774	661.81
524.989	628.81
525.204	673.81
525.419	670.81
525.634	632.81
525.849	635.81
526.064	651.81
526.28	625.81
526.495	616.81
526.71	644.81
526.925	634.81
527.14	625.81
527.355	611.81
527.57	621.81
527.785	607.81
527.999	611.81
528.214	617.81
528.429	618.81
528.644	606.81
528.859	626.81
529.074	628.81
529.289	652.81
529.503	725.81
529.718	703.81
529.933	666.81
530.148	625.81
530.363	647.81
530.577	606.81
530.792	635.81
531.007	589.81
531.221	620.81
531.436	596.81
531.651	602.81
531.865	578.81
532.08	584.81
532.295	574.81
532.509	598.81
532.724	587.81
532.938	585.81
533.153	566.81
533.367	585.81
533.582	585.81
533.796	613.81
534.011	598.81
534.225	581.81
534.44	586.81
534.654	585.81
534.868	590.81
535.083	588.81
535.297	571.81
535.511	585.81
535.726	588.81
535.94	591.81
536.154	604.81
536.369	584.81
536.583	581.81
536.797	574.81
537.011	585.81
537.225	562.81
537.44	565.81
537.654	537.81
537.868	555.81
538.082	549.81
538.296	554.81
538.51	561.81
538.724	564.81
538.938	562.81
539.153	569.81
539.367	573.81
539.581	584.81
539.795	548.81
540.009	563.81
540.222	569.81
540.436	554.81
540.65	565.81
540.864	546.81
541.078	569.81
541.292	568.81
541.506	576.81
541.72	570.81
541.934	544.81
542.147	568.81
542.361	566.81
542.575	563.81
542.789	552.81
543.002	554.81
543.216	558.81
543.43	560.81
543.644	550.81
543.857	532.81
544.071	563.81
544.285	549.81
544.498	557.81
544.712	562.81
544.925	556.81
545.139	545.81
545.352	547.81
545.566	539.81
545.779	534.81
545.993	533.81
546.206	539.81
546.42	548.81
546.633	520.81
546.847	518.81
547.06	526.81
547.274	539.81
547.487	548.81
547.7	514.81
547.914	531.81
548.127	527.81
548.34	535.81
548.554	553.81
548.767	530.81
548.98	549.81
549.193	526.81
549.407	548.81
549.62	523.81
549.833	544.81
550.046	510.81
550.259	524.81
550.473	519.81
550.686	542.81
550.899	530.81
551.112	516.81
551.325	526.81
551.538	526.81
551.751	528.81
551.964	518.81
552.177	514.81
552.39	516.81
552.603	518.81
552.816	538.81
553.029	494.81
553.242	552.81
553.455	533.81
553.667	552.81
553.88	567.81
554.093	536.81
554.306	534.81
554.519	530.81
554.732	525.81
554.944	508.81
555.157	519.81
555.37	503.81
555.583	499.81
555.795	499.81
556.008	489.81
556.221	501.81
556.433	488.81
556.646	492.81
556.859	468.81
557.071	469.81
557.284	477.81
557.496	490.81
557.709	493.81
557.921	454.81
558.134	457.81
558.346	479.81
558.559	487.81
558.771	469.81
558.984	472.81
559.196	444.81
559.409	470.81
559.621	477.81
559.833	477.81
560.046	458.81
560.258	468.81
560.47	470.81
560.683	458.81
560.895	482.81
561.107	479.81
561.32	494.81
561.532	456.81
561.744	481.81
561.956	456.81
562.168	460.81
562.381	466.81
562.593	474.81
562.805	476.81
563.017	466.81
563.229	476.81
563.441	466.81
563.653	464.81
563.865	488.81
564.077	470.81
564.289	482.81
564.501	512.81
564.713	487.81
564.925	509.81
565.137	500.81
565.349	501.81
565.561	508.81
565.773	514.81
565.985	505.81
566.197	546.81
566.408	551.81
566.62	572.81
566.832	593.81
567.044	576.81
567.255	578.81
567.467	613.81
567.679	584.81
567.891	611.81
568.102	609.81
568.314	592.81
568.526	588.81
568.737	559.81
568.949	520.81
569.161	529.81
569.372	488.81
569.584	474.81
569.795	486.81
570.007	473.81
570.218	525.81
570.43	526.81
570.641	490.81
570.853	460.81
571.064	462.81
571.276	465.81
571.487	452.81
571.698	429.81
571.91	426.81
572.121	443.81
572.333	421.81
572.544	421.81
572.755	432.81
572.966	428.81
573.178	429.81
573.389	418.81
573.6	422.81
573.811	408.81
574.023	405.81
574.234	418.81
574.445	408.81
574.656	401.81
574.867	414.81
575.078	399.81
575.289	414.81
575.501	396.81
575.712	399.81
575.923	391.81
576.134	391.81
576.345	394.81
576.556	414.81
576.767	407.81
576.978	380.81
577.188	375.81
577.399	396.81
577.61	399.81
577.821	384.81
578.032	373.81
578.243	436.81
578.454	692.81
578.665	533.81
578.875	404.81
579.086	369.81
579.297	381.81
579.508	392.81
579.718	370.81
579.929	361.81
580.14	370.81
580.35	382.81
580.561	371.81
580.772	370.81
580.982	357.81
581.193	370.81
581.403	372.81
581.614	371.81
581.825	368.81
582.035	357.81
582.246	360.81
582.456	352.81
582.667	356.81
582.877	349.81
583.087	381.81
583.298	353.81
583.508	340.81
583.719	363.81
583.929	361.81
584.139	346.81
584.35	362.81
584.56	347.81
584.77	372.81
584.981	364.81
585.191	348.81
585.401	356.81
585.611	364.81
585.821	365.81
586.032	361.81
586.242	373.81
586.452	363.81
586.662	342.81
586.872	331.81
587.082	348.81
587.292	349.81
587.502	357.81
587.713	347.81
587.923	370.81
588.133	375.81
588.343	342.81
588.553	352.81
588.762	339.81
588.972	351.81
589.182	336.81
589.392	349.81
589.602	353.81
589.812	359.81
590.022	348.81
590.232	335.81
590.441	342.81
590.651	354.81
590.861	321.81
591.071	358.81
591.281	363.81
591.49	358.81
591.7	349.81
591.91	351.81
592.119	356.81
592.329	364.81
592.539	367.81
592.748	367.81
592.958	390.81
593.167	384.81
593.377	369.81
593.587	378.81
593.796	364.81
594.006	374.81
594.215	360.81
594.424	359.81
594.634	352.81
594.843	351.81
595.053	350.81
595.262	356.81
595.472	339.81
595.681	355.81
595.89	342.81
596.1	329.81
596.309	333.81
596.518	334.81
596.727	327.81
596.937	329.81
597.146	313.81
597.355	339.81
597.564	326.81
597.774	326.81
597.983	323.81
598.192	320.81
598.401	326.81
598.61	315.81
598.819	315.81
599.028	308.81
599.237	313.81
599.446	304.81
599.655	310.81
599.864	297.81
600.073	298.81
600.282	313.81
600.491	310.81
600.7	310.81
600.909	301.81
601.118	306.81
601.327	316.81
601.536	309.81
601.745	319.81
601.953	313.81
602.162	298.81
602.371	305.81
602.58	301.81
602.789	291.81
602.997	281.81
603.206	317.81
603.415	308.81
603.623	304.81
603.832	293.81
604.041	294.81
604.249	291.81
604.458	300.81
604.666	284.81
604.875	285.81
605.084	275.81
605.292	276.81
605.501	279.81
605.709	277.81
605.918	292.81
606.126	304.81
606.334	286.81
606.543	276.81
606.751	285.81
606.96	267.81
607.168	307.81
607.376	299.81
607.585	277.81
607.793	272.81
608.001	290.81
608.21	286.81
608.418	285.81
608.626	263.81
608.834	286.81
609.043	281.81
609.251	276.81
609.459	274.81
609.667	276.81
609.875	272.81
610.083	273.81
610.291	279.81
610.499	288.81
610.707	284.81
610.916	290.81
611.124	288.81
611.332	298.81
611.54	261.81
611.748	288.81
611.955	276.81
612.163	270.81
612.371	276.81
612.579	263.81
612.787	269.81
612.995	267.81
613.203	264.81
613.411	282.81
613.618	271.81
613.826	282.81
614.034	268.81
614.242	259.81
614.449	266.81
614.657	265.81
614.865	259.81
615.072	281.81
615.28	270.81
615.488	278.81
615.695	265.81
615.903	263.81
616.111	282.81
616.318	253.81
616.526	269.81
616.733	252.81
616.941	270.81
617.148	278.81
617.356	259.81
617.563	261.81
617.771	286.81
617.978	268.81
618.185	264.81
618.393	261.81
618.6	258.81
618.807	256.81
619.015	258.81
619.222	282.81
619.429	270.81
619.637	268.81
619.844	273.81
620.051	276.81
620.258	277.81
620.466	259.81
620.673	252.81
620.88	243.81
621.087	241.81
621.294	259.81
621.501	245.81
621.708	262.81
621.915	257.81
622.122	266.81
622.329	248.81
622.536	249.81
622.743	246.81
622.95	248.81
623.157	235.81
623.364	230.81
623.571	248.81
623.778	248.81
623.985	262.81
624.192	233.81
624.399	256.81
624.606	235.81
624.812	249.81
625.019	240.81
625.226	244.81
625.433	233.81
625.639	233.81
625.846	232.81
626.053	237.81
626.259	227.81
626.466	230.81
626.673	223.81
626.879	224.81
627.086	232.81
627.293	225.81
627.499	229.81
627.706	233.81
627.912	235.81
628.119	233.81
628.325	233.81
628.532	220.81
628.738	244.81
628.945	223.81
629.151	219.81
629.357	220.81
629.564	235.81
629.77	229.81
629.976	214.81
630.183	218.81
630.389	221.81
630.595	217.81
630.802	231.81
631.008	221.81
631.214	204.81
631.42	211.81
631.627	209.81
631.833	202.81
632.039	210.81
632.245	216.81
632.451	217.81
632.657	202.81
632.863	203.81
633.069	197.81
633.275	215.81
633.481	210.81
633.688	197.81
633.893	210.81
634.099	216.81
634.305	214.81
634.511	204.81
634.717	210.81
634.923	192.81
635.129	212.81
635.335	209.81
635.541	203.81
635.747	204.81
635.952	197.81
636.158	202.81
636.364	206.81
636.57	220.81
636.775	186.81
636.981	212.81
637.187	203.81
637.392	197.81
637.598	206.81
637.804	196.81
638.009	219.81
638.215	217.81
638.421	190.81
638.626	198.81
638.832	174.81
639.037	202.81
639.243	200.81
639.448	206.81
639.654	196.81
639.859	185.81
640.065	197.81
640.27	191.81
640.475	177.81
640.681	202.81
640.886	210.81
641.091	210.81
641.297	195.81
641.502	201.81
641.707	188.81
641.913	187.81
642.118	184.81
642.323	182.81
642.528	193.81
642.733	167.81
642.939	190.81
643.144	189.81
643.349	183.81
643.554	198.81
643.759	205.81
643.964	181.81
644.169	191.81
644.374	190.81
644.579	184.81
644.784	188.81
644.989	166.81
645.194	186.81
645.399	176.81
645.604	186.81
645.809	197.81
646.014	179.81
646.219	185.81
646.423	188.81
646.628	180.81
646.833	183.81
647.038	210.81
647.243	193.81
647.447	200.81
647.652	195.81
647.857	193.81
648.062	159.81
648.266	180.81
648.471	191.81
648.676	198.81
648.88	192.81
649.085	178.81
649.289	186.81
649.494	193.81
649.698	212.81
649.903	214.81
650.107	191.81
650.312	179.81
650.516	178.81
650.721	179.81
650.925	179.81
651.13	171.81
651.334	172.81
651.539	181.81
651.743	172.81
651.947	166.81
652.152	164.81
652.356	153.81
652.56	151.81
652.764	168.81
652.969	164.81
653.173	150.81
653.377	139.81
653.581	140.81
653.785	141.81
653.99	160.81
654.194	148.81
654.398	156.81
654.602	151.81
654.806	152.81
655.01	147.81
655.214	148.81
655.418	145.81
655.622	133.81
655.826	145.81
656.03	125.81
656.234	150.81
656.438	142.81
656.642	147.81
656.846	135.81
657.049	146.81
657.253	140.81
657.457	133.81
657.661	134.81
657.865	118.81
658.068	131.81
658.272	104.81
658.476	107.81
658.68	116.81
658.883	107.81
659.087	107.81
659.291	116.81
659.494	89.81
659.698	97.81
659.901	105.81
660.105	93.81
660.309	97.81
660.512	99.81
660.716	97.81
660.919	89.81
661.123	103.81
661.326	95.81
661.53	80.81
661.733	84.81
661.936	92.81
662.14	94.81
662.343	93.81
662.546	89.81
662.75	72.81
662.953	97.81
663.156	91.81
663.36	83.81
663.563	93.81
663.766	85.81
663.969	101.81
664.173	76.81
664.376	90.81
664.579	85.81
664.782	82.81
664.985	80.81
665.188	103.81
665.391	82.81
665.594	76.81
665.797	82.81
666	97.81
666.203	72.81
666.406	83.81
666.609	76.81
666.812	104.81
667.015	89.81
667.218	93.81
667.421	95.81
667.624	95.81
667.827	92.81
668.03	94.81
668.232	83.81
668.435	90.81
668.638	93.81
668.841	84.81
669.043	88.81
669.246	81.81
669.449	87.81
669.651	91.81
669.854	82.81
670.057	79.81
670.259	85.81
670.462	88.81
670.665	86.81
670.867	81.81
671.07	67.81
671.272	82.81
671.475	74.81
671.677	86.81
671.88	76.81
672.082	87.81
672.284	62.81
672.487	78.81
672.689	91.81
672.892	96.81
