Data from 1988.PennyLincolnUp.Lamp.En5.5.200Scan.071819.P2_HRD10591_17-20-25-974.txt Node
Date: Thu Jul 18 17:20:25 EDT 2019
User: cochatt
Spectrometer: HR+D1059
Trigger mode: 1
Integration Time (sec): 1.000000E-1
Scans to average: 1
Electric dark correction enabled: true
Nonlinearity correction enabled: false
Boxcar width: 0
XAxis mode: Wavelengths
Number of Pixels in Spectrum: 2048
>>>>>Begin Spectral Data<<<<<
223.165	-25.62
223.4	-25.62
223.635	-25.62
223.869	-16.62
224.104	-23.62
224.338	-15.62
224.573	-7.62
224.808	-11.62
225.042	9.38
225.277	-8.62
225.511	-9.62
225.746	2.38
225.98	13.38
226.215	9.38
226.449	11.38
226.683	20.38
226.918	26.38
227.152	26.38
227.387	30.38
227.621	34.38
227.856	38.38
228.09	39.38
228.324	35.38
228.559	51.38
228.793	71.38
229.027	93.38
229.262	100.38
229.496	104.38
229.73	141.38
229.964	169.38
230.199	131.38
230.433	117.38
230.667	102.38
230.901	114.38
231.136	115.38
231.37	108.38
231.604	111.38
231.838	109.38
232.072	119.38
232.306	126.38
232.541	116.38
232.775	101.38
233.009	123.38
233.243	116.38
233.477	112.38
233.711	131.38
233.945	109.38
234.179	121.38
234.413	122.38
234.647	122.38
234.881	116.38
235.115	122.38
235.349	127.38
235.583	125.38
235.817	140.38
236.051	126.38
236.285	123.38
236.519	140.38
236.753	129.38
236.987	142.38
237.221	204.38
237.455	271.38
237.689	196.38
237.922	136.38
238.156	145.38
238.39	138.38
238.624	135.38
238.858	137.38
239.091	123.38
239.325	134.38
239.559	137.38
239.793	135.38
240.027	140.38
240.26	161.38
240.494	182.38
240.728	152.38
240.961	159.38
241.195	137.38
241.429	150.38
241.662	153.38
241.896	133.38
242.13	141.38
242.363	135.38
242.597	141.38
242.83	134.38
243.064	145.38
243.298	142.38
243.531	128.38
243.765	137.38
243.998	148.38
244.232	147.38
244.465	147.38
244.699	145.38
244.932	149.38
245.166	145.38
245.399	142.38
245.633	141.38
245.866	145.38
246.099	158.38
246.333	149.38
246.566	146.38
246.8	151.38
247.033	156.38
247.266	160.38
247.5	164.38
247.733	164.38
247.966	179.38
248.2	187.38
248.433	178.38
248.666	195.38
248.899	172.38
249.133	205.38
249.366	204.38
249.599	215.38
249.832	196.38
250.066	187.38
250.299	191.38
250.532	183.38
250.765	205.38
250.998	219.38
251.231	231.38
251.465	239.38
251.698	209.38
251.931	194.38
252.164	210.38
252.397	199.38
252.63	196.38
252.863	203.38
253.096	228.38
253.329	228.38
253.562	235.38
253.795	225.38
254.028	223.38
254.261	231.38
254.494	240.38
254.727	270.38
254.96	295.38
255.193	280.38
255.426	242.38
255.659	232.38
255.892	231.38
256.124	235.38
256.357	244.38
256.59	220.38
256.823	204.38
257.056	213.38
257.289	209.38
257.521	216.38
257.754	212.38
257.987	218.38
258.22	213.38
258.452	212.38
258.685	208.38
258.918	205.38
259.151	230.38
259.383	229.38
259.616	225.38
259.849	230.38
260.081	249.38
260.314	260.38
260.547	255.38
260.779	230.38
261.012	251.38
261.244	241.38
261.477	233.38
261.71	228.38
261.942	240.38
262.175	241.38
262.407	237.38
262.64	223.38
262.872	216.38
263.105	229.38
263.337	225.38
263.57	231.38
263.802	218.38
264.035	239.38
264.267	243.38
264.499	231.38
264.732	225.38
264.964	223.38
265.197	206.38
265.429	235.38
265.661	227.38
265.894	227.38
266.126	219.38
266.358	221.38
266.591	225.38
266.823	244.38
267.055	232.38
267.287	239.38
267.52	231.38
267.752	255.38
267.984	234.38
268.216	243.38
268.448	233.38
268.681	256.38
268.913	257.38
269.145	286.38
269.377	296.38
269.609	283.38
269.841	288.38
270.073	287.38
270.306	317.38
270.538	342.38
270.77	329.38
271.002	320.38
271.234	310.38
271.466	319.38
271.698	314.38
271.93	323.38
272.162	333.38
272.394	325.38
272.626	310.38
272.858	313.38
273.09	290.38
273.322	277.38
273.553	278.38
273.785	281.38
274.017	276.38
274.249	254.38
274.481	269.38
274.713	295.38
274.945	293.38
275.176	287.38
275.408	291.38
275.64	264.38
275.872	264.38
276.104	269.38
276.335	278.38
276.567	282.38
276.799	313.38
277.031	320.38
277.262	325.38
277.494	332.38
277.726	325.38
277.957	300.38
278.189	287.38
278.421	290.38
278.652	284.38
278.884	272.38
279.115	293.38
279.347	298.38
279.579	280.38
279.81	285.38
280.042	285.38
280.273	282.38
280.505	287.38
280.736	276.38
280.968	289.38
281.199	303.38
281.431	273.38
281.662	287.38
281.894	298.38
282.125	286.38
282.356	303.38
282.588	324.38
282.819	334.38
283.051	296.38
283.282	298.38
283.513	291.38
283.745	286.38
283.976	300.38
284.207	297.38
284.439	302.38
284.67	300.38
284.901	300.38
285.132	300.38
285.364	289.38
285.595	305.38
285.826	289.38
286.057	305.38
286.288	308.38
286.52	313.38
286.751	307.38
286.982	298.38
287.213	293.38
287.444	303.38
287.675	301.38
287.906	306.38
288.138	308.38
288.369	334.38
288.6	305.38
288.831	315.38
289.062	308.38
289.293	318.38
289.524	316.38
289.755	305.38
289.986	303.38
290.217	296.38
290.448	309.38
290.679	299.38
290.91	319.38
291.141	303.38
291.371	311.38
291.602	307.38
291.833	318.38
292.064	296.38
292.295	298.38
292.526	323.38
292.757	315.38
292.987	301.38
293.218	317.38
293.449	317.38
293.68	326.38
293.91	313.38
294.141	305.38
294.372	320.38
294.603	308.38
294.833	315.38
295.064	299.38
295.295	321.38
295.525	314.38
295.756	331.38
295.987	320.38
296.217	355.38
296.448	372.38
296.679	351.38
296.909	324.38
297.14	323.38
297.37	309.38
297.601	331.38
297.831	339.38
298.062	325.38
298.292	327.38
298.523	332.38
298.753	335.38
298.984	348.38
299.214	330.38
299.445	331.38
299.675	329.38
299.905	338.38
300.136	348.38
300.366	324.38
300.597	337.38
300.827	367.38
301.057	338.38
301.288	371.38
301.518	350.38
301.748	359.38
301.979	371.38
302.209	344.38
302.439	356.38
302.669	344.38
302.9	346.38
303.13	349.38
303.36	348.38
303.59	355.38
303.82	368.38
304.051	354.38
304.281	372.38
304.511	360.38
304.741	367.38
304.971	361.38
305.201	351.38
305.431	352.38
305.661	349.38
305.891	351.38
306.121	356.38
306.352	361.38
306.582	375.38
306.812	345.38
307.042	342.38
307.272	339.38
307.502	351.38
307.731	349.38
307.961	354.38
308.191	371.38
308.421	376.38
308.651	359.38
308.881	370.38
309.111	367.38
309.341	381.38
309.571	385.38
309.8	383.38
310.03	394.38
310.26	413.38
310.49	419.38
310.72	417.38
310.949	433.38
311.179	419.38
311.409	419.38
311.639	398.38
311.868	408.38
312.098	417.38
312.328	418.38
312.557	431.38
312.787	450.38
313.017	444.38
313.246	409.38
313.476	429.38
313.706	414.38
313.935	415.38
314.165	417.38
314.394	447.38
314.624	436.38
314.853	401.38
315.083	435.38
315.312	391.38
315.542	412.38
315.771	391.38
316.001	407.38
316.23	413.38
316.46	405.38
316.689	408.38
316.919	400.38
317.148	425.38
317.377	445.38
317.607	424.38
317.836	403.38
318.065	387.38
318.295	432.38
318.524	417.38
318.753	415.38
318.983	443.38
319.212	429.38
319.441	436.38
319.67	397.38
319.9	416.38
320.129	437.38
320.358	412.38
320.587	412.38
320.816	447.38
321.046	431.38
321.275	444.38
321.504	432.38
321.733	446.38
321.962	437.38
322.191	451.38
322.42	476.38
322.649	488.38
322.878	478.38
323.108	514.38
323.337	526.38
323.566	527.38
323.795	604.38
324.024	620.38
324.253	760.38
324.482	1092.38
324.71	1722.38
324.939	2489.38
325.168	2152.38
325.397	1115.38
325.626	741.38
325.855	599.38
326.084	564.38
326.313	565.38
326.542	555.38
326.77	634.38
326.999	727.38
327.228	996.38
327.457	1503.38
327.686	1887.38
327.914	1217.38
328.143	806.38
328.372	670.38
328.6	661.38
328.829	617.38
329.058	631.38
329.287	630.38
329.515	621.38
329.744	577.38
329.972	538.38
330.201	531.38
330.43	563.38
330.658	613.38
330.887	655.38
331.115	634.38
331.344	561.38
331.572	533.38
331.801	564.38
332.03	561.38
332.258	508.38
332.486	515.38
332.715	479.38
332.943	496.38
333.172	492.38
333.4	521.38
333.629	515.38
333.857	525.38
334.085	509.38
334.314	524.38
334.542	538.38
334.771	521.38
334.999	507.38
335.227	504.38
335.455	507.38
335.684	495.38
335.912	498.38
336.14	497.38
336.369	510.38
336.597	521.38
336.825	505.38
337.053	519.38
337.281	492.38
337.51	515.38
337.738	494.38
337.966	489.38
338.194	473.38
338.422	488.38
338.65	493.38
338.878	478.38
339.106	488.38
339.334	480.38
339.562	482.38
339.79	483.38
340.018	458.38
340.246	451.38
340.474	483.38
340.702	473.38
340.93	481.38
341.158	501.38
341.386	483.38
341.614	479.38
341.842	475.38
342.07	472.38
342.298	475.38
342.526	466.38
342.754	459.38
342.981	447.38
343.209	474.38
343.437	495.38
343.665	483.38
343.893	495.38
344.12	517.38
344.348	497.38
344.576	496.38
344.804	488.38
345.031	492.38
345.259	501.38
345.487	501.38
345.714	475.38
345.942	461.38
346.17	476.38
346.397	490.38
346.625	476.38
346.853	466.38
347.08	469.38
347.308	475.38
347.535	482.38
347.763	466.38
347.99	479.38
348.218	474.38
348.445	457.38
348.673	476.38
348.9	447.38
349.128	453.38
349.355	458.38
349.583	438.38
349.81	434.38
350.037	459.38
350.265	440.38
350.492	431.38
350.72	455.38
350.947	459.38
351.174	470.38
351.402	459.38
351.629	488.38
351.856	469.38
352.083	470.38
352.311	498.38
352.538	491.38
352.765	458.38
352.992	489.38
353.22	469.38
353.447	448.38
353.674	448.38
353.901	443.38
354.128	462.38
354.355	424.38
354.583	425.38
354.81	428.38
355.037	462.38
355.264	431.38
355.491	445.38
355.718	447.38
355.945	416.38
356.172	431.38
356.399	419.38
356.626	439.38
356.853	438.38
357.08	442.38
357.307	417.38
357.534	437.38
357.761	427.38
357.988	442.38
358.215	437.38
358.441	443.38
358.668	442.38
358.895	454.38
359.122	450.38
359.349	454.38
359.576	472.38
359.802	505.38
360.029	527.38
360.256	550.38
360.483	502.38
360.709	467.38
360.936	457.38
361.163	469.38
361.39	480.38
361.616	467.38
361.843	464.38
362.07	460.38
362.296	460.38
362.523	450.38
362.749	472.38
362.976	463.38
363.203	460.38
363.429	447.38
363.656	454.38
363.882	447.38
364.109	443.38
364.335	455.38
364.562	444.38
364.788	465.38
365.015	453.38
365.241	448.38
365.468	460.38
365.694	449.38
365.92	467.38
366.147	455.38
366.373	457.38
366.599	465.38
366.826	468.38
367.052	458.38
367.278	448.38
367.505	444.38
367.731	452.38
367.957	457.38
368.184	439.38
368.41	451.38
368.636	472.38
368.862	495.38
369.089	459.38
369.315	453.38
369.541	455.38
369.767	457.38
369.993	457.38
370.219	444.38
370.445	452.38
370.672	455.38
370.898	471.38
371.124	444.38
371.35	473.38
371.576	449.38
371.802	457.38
372.028	436.38
372.254	451.38
372.48	468.38
372.706	444.38
372.932	444.38
373.158	457.38
373.384	462.38
373.61	447.38
373.835	447.38
374.061	453.38
374.287	457.38
374.513	446.38
374.739	456.38
374.965	476.38
375.191	470.38
375.416	468.38
375.642	433.38
375.868	461.38
376.094	469.38
376.319	457.38
376.545	451.38
376.771	429.38
376.997	456.38
377.222	472.38
377.448	475.38
377.674	428.38
377.899	443.38
378.125	444.38
378.35	445.38
378.576	437.38
378.802	448.38
379.027	459.38
379.253	457.38
379.478	467.38
379.704	450.38
379.929	443.38
380.155	467.38
380.38	453.38
380.606	467.38
380.831	453.38
381.057	461.38
381.282	449.38
381.507	451.38
381.733	461.38
381.958	461.38
382.184	444.38
382.409	463.38
382.634	472.38
382.86	492.38
383.085	470.38
383.31	477.38
383.535	507.38
383.761	476.38
383.986	472.38
384.211	466.38
384.436	488.38
384.662	463.38
384.887	488.38
385.112	467.38
385.337	493.38
385.562	480.38
385.787	473.38
386.013	503.38
386.238	515.38
386.463	524.38
386.688	521.38
386.913	519.38
387.138	506.38
387.363	514.38
387.588	508.38
387.813	501.38
388.038	505.38
388.263	512.38
388.488	503.38
388.713	525.38
388.938	495.38
389.163	511.38
389.387	528.38
389.612	485.38
389.837	505.38
390.062	509.38
390.287	522.38
390.512	485.38
390.736	496.38
390.961	511.38
391.186	487.38
391.411	497.38
391.636	516.38
391.86	525.38
392.085	530.38
392.31	519.38
392.534	527.38
392.759	508.38
392.984	520.38
393.208	505.38
393.433	509.38
393.658	506.38
393.882	498.38
394.107	493.38
394.331	523.38
394.556	524.38
394.78	501.38
395.005	506.38
395.229	509.38
395.454	516.38
395.678	518.38
395.903	564.38
396.127	569.38
396.352	579.38
396.576	546.38
396.801	535.38
397.025	541.38
397.249	553.38
397.474	535.38
397.698	547.38
397.922	567.38
398.147	578.38
398.371	591.38
398.595	576.38
398.82	581.38
399.044	586.38
399.268	618.38
399.492	660.38
399.717	688.38
399.941	698.38
400.165	708.38
400.389	728.38
400.613	660.38
400.837	624.38
401.062	637.38
401.286	600.38
401.51	601.38
401.734	585.38
401.958	593.38
402.182	583.38
402.406	565.38
402.63	579.38
402.854	598.38
403.078	602.38
403.302	589.38
403.526	608.38
403.75	614.38
403.974	607.38
404.198	579.38
404.422	617.38
404.645	624.38
404.869	617.38
405.093	641.38
405.317	653.38
405.541	681.38
405.765	652.38
405.988	646.38
406.212	642.38
406.436	652.38
406.66	704.38
406.883	663.38
407.107	690.38
407.331	730.38
407.555	808.38
407.778	792.38
408.002	746.38
408.226	714.38
408.449	676.38
408.673	665.38
408.896	707.38
409.12	771.38
409.344	710.38
409.567	649.38
409.791	624.38
410.014	615.38
410.238	614.38
410.461	598.38
410.685	630.38
410.908	640.38
411.132	691.38
411.355	738.38
411.578	694.38
411.802	632.38
412.025	592.38
412.249	616.38
412.472	623.38
412.695	630.38
412.919	625.38
413.142	609.38
413.365	594.38
413.589	599.38
413.812	590.38
414.035	587.38
414.258	578.38
414.482	577.38
414.705	593.38
414.928	557.38
415.151	583.38
415.374	572.38
415.597	579.38
415.821	569.38
416.044	581.38
416.267	590.38
416.49	585.38
416.713	541.38
416.936	573.38
417.159	564.38
417.382	578.38
417.605	574.38
417.828	592.38
418.051	609.38
418.274	578.38
418.497	572.38
418.72	563.38
418.943	579.38
419.166	575.38
419.389	627.38
419.611	617.38
419.834	603.38
420.057	609.38
420.28	601.38
420.503	593.38
420.726	586.38
420.948	598.38
421.171	665.38
421.394	709.38
421.617	637.38
421.839	602.38
422.062	616.38
422.285	639.38
422.507	682.38
422.73	760.38
422.953	757.38
423.175	640.38
423.398	617.38
423.621	615.38
423.843	657.38
424.066	647.38
424.288	651.38
424.511	678.38
424.733	731.38
424.956	820.38
425.178	792.38
425.401	773.38
425.623	808.38
425.846	703.38
426.068	653.38
426.291	644.38
426.513	656.38
426.735	659.38
426.958	689.38
427.18	795.38
427.402	978.38
427.625	1096.38
427.847	922.38
428.069	761.38
428.292	689.38
428.514	646.38
428.736	639.38
428.958	626.38
429.181	590.38
429.403	603.38
429.625	607.38
429.847	645.38
430.069	745.38
430.292	736.38
430.514	633.38
430.736	611.38
430.958	601.38
431.18	571.38
431.402	569.38
431.624	546.38
431.846	549.38
432.068	562.38
432.29	599.38
432.512	574.38
432.734	595.38
432.956	605.38
433.178	565.38
433.4	592.38
433.622	578.38
433.844	563.38
434.066	578.38
434.287	566.38
434.509	585.38
434.731	600.38
434.953	587.38
435.175	602.38
435.397	638.38
435.618	636.38
435.84	697.38
436.062	822.38
436.284	906.38
436.505	761.38
436.727	654.38
436.949	618.38
437.17	615.38
437.392	595.38
437.614	615.38
437.835	659.38
438.057	779.38
438.278	885.38
438.5	895.38
438.721	964.38
438.943	927.38
439.165	756.38
439.386	675.38
439.608	642.38
439.829	673.38
440.05	703.38
440.272	754.38
440.493	711.38
440.715	674.38
440.936	625.38
441.158	628.38
441.379	618.38
441.6	627.38
441.822	647.38
442.043	681.38
442.264	793.38
442.486	841.38
442.707	744.38
442.928	672.38
443.149	683.38
443.371	703.38
443.592	761.38
443.813	857.38
444.034	921.38
444.255	786.38
444.476	679.38
444.698	682.38
444.919	660.38
445.14	799.38
445.361	730.38
445.582	707.38
445.803	775.38
446.024	909.38
446.245	931.38
446.466	832.38
446.687	708.38
446.908	676.38
447.129	620.38
447.35	605.38
447.571	616.38
447.792	611.38
448.013	592.38
448.234	636.38
448.455	667.38
448.675	837.38
448.896	949.38
449.117	829.38
449.338	745.38
449.559	874.38
449.779	1025.38
450	781.38
450.221	669.38
450.442	599.38
450.662	587.38
450.883	580.38
451.104	605.38
451.324	602.38
451.545	571.38
451.766	549.38
451.986	555.38
452.207	531.38
452.428	543.38
452.648	520.38
452.869	522.38
453.089	536.38
453.31	536.38
453.53	540.38
453.751	537.38
453.971	546.38
454.192	573.38
454.412	563.38
454.633	545.38
454.853	536.38
455.073	529.38
455.294	585.38
455.514	657.38
455.734	616.38
455.955	535.38
456.175	489.38
456.395	535.38
456.616	500.38
456.836	517.38
457.056	491.38
457.276	499.38
457.497	513.38
457.717	509.38
457.937	529.38
458.157	536.38
458.377	544.38
458.598	561.38
458.818	616.38
459.038	710.38
459.258	709.38
459.478	639.38
459.698	579.38
459.918	555.38
460.138	576.38
460.358	590.38
460.578	570.38
460.798	592.38
461.018	602.38
461.238	603.38
461.458	594.38
461.678	604.38
461.898	613.38
462.118	564.38
462.338	595.38
462.558	608.38
462.777	626.38
462.997	627.38
463.217	656.38
463.437	630.38
463.657	635.38
463.876	631.38
464.096	640.38
464.316	614.38
464.536	615.38
464.755	617.38
464.975	641.38
465.195	659.38
465.414	745.38
465.634	669.38
465.854	620.38
466.073	593.38
466.293	571.38
466.512	591.38
466.732	569.38
466.951	570.38
467.171	560.38
467.391	565.38
467.61	587.38
467.829	584.38
468.049	563.38
468.268	549.38
468.488	533.38
468.707	531.38
468.927	550.38
469.146	532.38
469.365	535.38
469.585	543.38
469.804	561.38
470.023	603.38
470.243	582.38
470.462	565.38
470.681	588.38
470.901	578.38
471.12	552.38
471.339	565.38
471.558	577.38
471.777	557.38
471.997	546.38
472.216	579.38
472.435	577.38
472.654	559.38
472.873	558.38
473.092	537.38
473.311	521.38
473.53	577.38
473.749	580.38
473.968	642.38
474.187	732.38
474.406	782.38
474.625	649.38
474.844	584.38
475.063	573.38
475.282	571.38
475.501	561.38
475.72	564.38
475.939	578.38
476.158	580.38
476.377	555.38
476.596	574.38
476.814	582.38
477.033	589.38
477.252	614.38
477.471	610.38
477.69	599.38
477.908	620.38
478.127	599.38
478.346	629.38
478.564	629.38
478.783	626.38
479.002	639.38
479.22	636.38
479.439	669.38
479.658	669.38
479.876	683.38
480.095	682.38
480.313	704.38
480.532	690.38
480.751	692.38
480.969	681.38
481.188	687.38
481.406	705.38
481.624	693.38
481.843	669.38
482.061	668.38
482.28	688.38
482.498	658.38
482.717	677.38
482.935	663.38
483.153	647.38
483.372	661.38
483.59	648.38
483.808	663.38
484.027	679.38
484.245	653.38
484.463	647.38
484.681	648.38
484.9	675.38
485.118	673.38
485.336	673.38
485.554	680.38
485.772	679.38
485.99	685.38
486.209	682.38
486.427	684.38
486.645	698.38
486.863	719.38
487.081	703.38
487.299	709.38
487.517	698.38
487.735	721.38
487.953	707.38
488.171	705.38
488.389	733.38
488.607	715.38
488.825	737.38
489.043	720.38
489.261	715.38
489.479	722.38
489.696	714.38
489.914	726.38
490.132	717.38
490.35	767.38
490.568	746.38
490.786	742.38
491.003	769.38
491.221	775.38
491.439	794.38
491.657	813.38
491.874	800.38
492.092	793.38
492.31	775.38
492.527	829.38
492.745	802.38
492.963	803.38
493.18	833.38
493.398	791.38
493.615	826.38
493.833	829.38
494.05	830.38
494.268	817.38
494.485	831.38
494.703	849.38
494.92	812.38
495.138	828.38
495.355	825.38
495.573	845.38
495.79	810.38
496.008	826.38
496.225	840.38
496.442	859.38
496.66	861.38
496.877	856.38
497.094	876.38
497.312	859.38
497.529	864.38
497.746	889.38
497.963	890.38
498.181	934.38
498.398	945.38
498.615	960.38
498.832	960.38
499.049	962.38
499.267	1035.38
499.484	1056.38
499.701	1085.38
499.918	1125.38
500.135	1179.38
500.352	1215.38
500.569	1228.38
500.786	1223.38
501.003	1216.38
501.22	1170.38
501.437	1126.38
501.654	1125.38
501.871	1119.38
502.088	1054.38
502.305	1027.38
502.522	968.38
502.739	952.38
502.956	948.38
503.172	911.38
503.389	921.38
503.606	889.38
503.823	885.38
504.04	903.38
504.256	888.38
504.473	871.38
504.69	863.38
504.907	865.38
505.123	837.38
505.34	825.38
505.557	823.38
505.773	831.38
505.99	801.38
506.207	822.38
506.423	821.38
506.64	804.38
506.856	795.38
507.073	780.38
507.289	803.38
507.506	775.38
507.722	813.38
507.939	828.38
508.155	788.38
508.372	782.38
508.588	757.38
508.805	761.38
509.021	780.38
509.238	797.38
509.454	771.38
509.67	774.38
509.887	772.38
510.103	779.38
510.319	782.38
510.536	891.38
510.752	1396.38
510.968	1193.38
511.184	794.38
511.401	763.38
511.617	752.38
511.833	740.38
512.049	718.38
512.265	724.38
512.481	720.38
512.698	725.38
512.914	725.38
513.13	731.38
513.346	702.38
513.562	721.38
513.778	734.38
513.994	741.38
514.21	771.38
514.426	749.38
514.642	841.38
514.858	837.38
515.074	883.38
515.29	1020.38
515.506	1489.38
515.721	1250.38
515.937	873.38
516.153	827.38
516.369	791.38
516.585	793.38
516.801	765.38
517.016	779.38
517.232	778.38
517.448	770.38
517.664	781.38
517.879	787.38
518.095	763.38
518.311	775.38
518.527	746.38
518.742	742.38
518.958	753.38
519.173	754.38
519.389	742.38
519.605	742.38
519.82	708.38
520.036	752.38
520.251	777.38
520.467	800.38
520.682	795.38
520.898	805.38
521.113	799.38
521.329	872.38
521.544	965.38
521.76	1197.38
521.975	1886.38
522.19	1895.38
522.406	1113.38
522.621	836.38
522.836	792.38
523.052	736.38
523.267	720.38
523.482	703.38
523.698	697.38
523.913	663.38
524.128	692.38
524.343	659.38
524.559	643.38
524.774	632.38
524.989	647.38
525.204	660.38
525.419	649.38
525.634	604.38
525.849	629.38
526.064	620.38
526.28	617.38
526.495	632.38
526.71	612.38
526.925	618.38
527.14	605.38
527.355	615.38
527.57	586.38
527.785	611.38
527.999	610.38
528.214	584.38
528.429	600.38
528.644	625.38
528.859	613.38
529.074	611.38
529.289	621.38
529.503	725.38
529.718	704.38
529.933	667.38
530.148	626.38
530.363	585.38
530.577	610.38
530.792	602.38
531.007	579.38
531.221	588.38
531.436	601.38
531.651	583.38
531.865	595.38
532.08	575.38
532.295	565.38
532.509	568.38
532.724	569.38
532.938	581.38
533.153	568.38
533.367	583.38
533.582	590.38
533.796	588.38
534.011	587.38
534.225	564.38
534.44	559.38
534.654	564.38
534.868	546.38
535.083	566.38
535.297	565.38
535.511	570.38
535.726	580.38
535.94	591.38
536.154	594.38
536.369	558.38
536.583	563.38
536.797	545.38
537.011	556.38
537.225	539.38
537.44	570.38
537.654	551.38
537.868	555.38
538.082	560.38
538.296	542.38
538.51	540.38
538.724	552.38
538.938	557.38
539.153	573.38
539.367	580.38
539.581	553.38
539.795	542.38
540.009	557.38
540.222	545.38
540.436	549.38
540.65	547.38
540.864	548.38
541.078	563.38
541.292	565.38
541.506	564.38
541.72	554.38
541.934	556.38
542.147	538.38
542.361	517.38
542.575	535.38
542.789	543.38
543.002	539.38
543.216	543.38
543.43	562.38
543.644	574.38
543.857	566.38
544.071	552.38
544.285	531.38
544.498	543.38
544.712	538.38
544.925	562.38
545.139	538.38
545.352	546.38
545.566	551.38
545.779	520.38
545.993	529.38
546.206	575.38
546.42	538.38
546.633	530.38
546.847	533.38
547.06	516.38
547.274	529.38
547.487	507.38
547.7	542.38
547.914	519.38
548.127	547.38
548.34	513.38
548.554	513.38
548.767	518.38
548.98	523.38
549.193	516.38
549.407	513.38
549.62	517.38
549.833	506.38
550.046	529.38
550.259	509.38
550.473	522.38
550.686	497.38
550.899	531.38
551.112	519.38
551.325	531.38
551.538	489.38
551.751	509.38
551.964	524.38
552.177	517.38
552.39	531.38
552.603	517.38
552.816	500.38
553.029	518.38
553.242	515.38
553.455	545.38
553.667	534.38
553.88	540.38
554.093	529.38
554.306	533.38
554.519	530.38
554.732	512.38
554.944	522.38
555.157	520.38
555.37	551.38
555.583	488.38
555.795	488.38
556.008	472.38
556.221	482.38
556.433	476.38
556.646	465.38
556.859	478.38
557.071	473.38
557.284	478.38
557.496	470.38
557.709	465.38
557.921	462.38
558.134	472.38
558.346	475.38
558.559	457.38
558.771	469.38
558.984	460.38
559.196	471.38
559.409	459.38
559.621	451.38
559.833	456.38
560.046	451.38
560.258	454.38
560.47	484.38
560.683	462.38
560.895	449.38
561.107	457.38
561.32	454.38
561.532	470.38
561.744	456.38
561.956	462.38
562.168	448.38
562.381	483.38
562.593	462.38
562.805	473.38
563.017	470.38
563.229	442.38
563.441	481.38
563.653	487.38
563.865	471.38
564.077	474.38
564.289	483.38
564.501	490.38
564.713	519.38
564.925	511.38
565.137	510.38
565.349	506.38
565.561	500.38
565.773	503.38
565.985	533.38
566.197	526.38
566.408	534.38
566.62	524.38
566.832	552.38
567.044	567.38
567.255	599.38
567.467	572.38
567.679	585.38
567.891	584.38
568.102	563.38
568.314	559.38
568.526	557.38
568.737	544.38
568.949	529.38
569.161	499.38
569.372	489.38
569.584	482.38
569.795	479.38
570.007	471.38
570.218	522.38
570.43	504.38
570.641	456.38
570.853	428.38
571.064	450.38
571.276	437.38
571.487	455.38
571.698	444.38
571.91	433.38
572.121	429.38
572.333	409.38
572.544	431.38
572.755	416.38
572.966	421.38
573.178	421.38
573.389	417.38
573.6	409.38
573.811	392.38
574.023	410.38
574.234	398.38
574.445	377.38
574.656	391.38
574.867	390.38
575.078	401.38
575.289	415.38
575.501	411.38
575.712	409.38
575.923	366.38
576.134	379.38
576.345	369.38
576.556	396.38
576.767	379.38
576.978	379.38
577.188	386.38
577.399	363.38
577.61	375.38
577.821	383.38
578.032	393.38
578.243	430.38
578.454	663.38
578.665	473.38
578.875	395.38
579.086	389.38
579.297	399.38
579.508	383.38
579.718	378.38
579.929	368.38
580.14	361.38
580.35	372.38
580.561	360.38
580.772	371.38
580.982	360.38
581.193	346.38
581.403	368.38
581.614	350.38
581.825	358.38
582.035	356.38
582.246	355.38
582.456	354.38
582.667	367.38
582.877	353.38
583.087	361.38
583.298	359.38
583.508	346.38
583.719	366.38
583.929	353.38
584.139	341.38
584.35	349.38
584.56	349.38
584.77	328.38
584.981	379.38
585.191	343.38
585.401	343.38
585.611	341.38
585.821	352.38
586.032	347.38
586.242	355.38
586.452	364.38
586.662	353.38
586.872	347.38
587.082	340.38
587.292	342.38
587.502	346.38
587.713	335.38
587.923	350.38
588.133	333.38
588.343	355.38
588.553	340.38
588.762	359.38
588.972	327.38
589.182	349.38
589.392	345.38
589.602	359.38
589.812	340.38
590.022	346.38
590.232	336.38
590.441	339.38
590.651	368.38
590.861	354.38
591.071	323.38
591.281	364.38
591.49	347.38
591.7	337.38
591.91	344.38
592.119	328.38
592.329	358.38
592.539	359.38
592.748	364.38
592.958	368.38
593.167	352.38
593.377	371.38
593.587	361.38
593.796	349.38
594.006	354.38
594.215	369.38
594.424	367.38
594.634	348.38
594.843	363.38
595.053	341.38
595.262	347.38
595.472	332.38
595.681	340.38
595.89	347.38
596.1	344.38
596.309	345.38
596.518	337.38
596.727	336.38
596.937	333.38
597.146	323.38
597.355	330.38
597.564	311.38
597.774	328.38
597.983	297.38
598.192	297.38
598.401	310.38
598.61	313.38
598.819	298.38
599.028	305.38
599.237	309.38
599.446	298.38
599.655	311.38
599.864	315.38
600.073	291.38
600.282	295.38
600.491	317.38
600.7	289.38
600.909	291.38
601.118	294.38
601.327	301.38
601.536	303.38
601.745	285.38
601.953	306.38
602.162	275.38
602.371	278.38
602.58	309.38
602.789	287.38
602.997	292.38
603.206	295.38
603.415	284.38
603.623	306.38
603.832	275.38
604.041	296.38
604.249	275.38
604.458	281.38
604.666	288.38
604.875	293.38
605.084	275.38
605.292	274.38
605.501	271.38
605.709	296.38
605.918	285.38
606.126	291.38
606.334	297.38
606.543	284.38
606.751	282.38
606.96	294.38
607.168	273.38
607.376	277.38
607.585	262.38
607.793	257.38
608.001	280.38
608.21	270.38
608.418	262.38
608.626	263.38
608.834	285.38
609.043	280.38
609.251	280.38
609.459	275.38
609.667	283.38
609.875	278.38
610.083	267.38
610.291	266.38
610.499	288.38
610.707	259.38
610.916	283.38
611.124	282.38
611.332	275.38
611.54	286.38
611.748	257.38
611.955	267.38
612.163	276.38
612.371	277.38
612.579	277.38
612.787	273.38
612.995	278.38
613.203	267.38
613.411	285.38
613.618	268.38
613.826	255.38
614.034	256.38
614.242	265.38
614.449	269.38
614.657	266.38
614.865	270.38
615.072	258.38
615.28	263.38
615.488	255.38
615.695	262.38
615.903	281.38
616.111	246.38
616.318	252.38
616.526	278.38
616.733	278.38
616.941	273.38
617.148	279.38
617.356	269.38
617.563	255.38
617.771	258.38
617.978	262.38
618.185	255.38
618.393	267.38
618.6	265.38
618.807	261.38
619.015	261.38
619.222	266.38
619.429	252.38
619.637	260.38
619.844	271.38
620.051	247.38
620.258	262.38
620.466	263.38
620.673	253.38
620.88	249.38
621.087	255.38
621.294	268.38
621.501	249.38
621.708	245.38
621.915	279.38
622.122	262.38
622.329	253.38
622.536	244.38
622.743	241.38
622.95	248.38
623.157	236.38
623.364	229.38
623.571	260.38
623.778	239.38
623.985	264.38
624.192	243.38
624.399	243.38
624.606	235.38
624.812	233.38
625.019	232.38
625.226	231.38
625.433	243.38
625.639	247.38
625.846	227.38
626.053	226.38
626.259	229.38
626.466	244.38
626.673	221.38
626.879	250.38
627.086	221.38
627.293	227.38
627.499	219.38
627.706	233.38
627.912	228.38
628.119	231.38
628.325	216.38
628.532	232.38
628.738	230.38
628.945	234.38
629.151	240.38
629.357	224.38
629.564	219.38
629.77	217.38
629.976	216.38
630.183	232.38
630.389	192.38
630.595	204.38
630.802	202.38
631.008	193.38
631.214	225.38
631.42	216.38
631.627	221.38
631.833	216.38
632.039	212.38
632.245	210.38
632.451	217.38
632.657	199.38
632.863	202.38
633.069	218.38
633.275	206.38
633.481	189.38
633.688	213.38
633.893	203.38
634.099	211.38
634.305	197.38
634.511	198.38
634.717	213.38
634.923	216.38
635.129	200.38
635.335	195.38
635.541	200.38
635.747	181.38
635.952	204.38
636.158	189.38
636.364	202.38
636.57	211.38
636.775	202.38
636.981	201.38
637.187	192.38
637.392	173.38
637.598	201.38
637.804	196.38
638.009	188.38
638.215	196.38
638.421	186.38
638.626	196.38
638.832	189.38
639.037	172.38
639.243	195.38
639.448	193.38
639.654	185.38
639.859	193.38
640.065	193.38
640.27	203.38
640.475	165.38
640.681	166.38
640.886	183.38
641.091	196.38
641.297	200.38
641.502	192.38
641.707	183.38
641.913	199.38
642.118	180.38
642.323	186.38
642.528	177.38
642.733	189.38
642.939	204.38
643.144	180.38
643.349	173.38
643.554	185.38
643.759	165.38
643.964	165.38
644.169	179.38
644.374	173.38
644.579	193.38
644.784	183.38
644.989	179.38
645.194	185.38
645.399	171.38
645.604	191.38
645.809	180.38
646.014	172.38
646.219	186.38
646.423	178.38
646.628	177.38
646.833	193.38
647.038	181.38
647.243	181.38
647.447	192.38
647.652	182.38
647.857	193.38
648.062	181.38
648.266	178.38
648.471	191.38
648.676	195.38
648.88	183.38
649.085	178.38
649.289	183.38
649.494	192.38
649.698	195.38
649.903	208.38
650.107	196.38
650.312	175.38
650.516	181.38
650.721	151.38
650.925	170.38
651.13	187.38
651.334	170.38
651.539	155.38
651.743	155.38
651.947	144.38
652.152	160.38
652.356	156.38
652.56	161.38
652.764	155.38
652.969	155.38
653.173	159.38
653.377	161.38
653.581	159.38
653.785	164.38
653.99	142.38
654.194	147.38
654.398	141.38
654.602	147.38
654.806	133.38
655.01	142.38
655.214	143.38
655.418	156.38
655.622	143.38
655.826	151.38
656.03	146.38
656.234	145.38
656.438	147.38
656.642	140.38
656.846	149.38
657.049	150.38
657.253	122.38
657.457	128.38
657.661	122.38
657.865	117.38
658.068	124.38
658.272	103.38
658.476	107.38
658.68	97.38
658.883	102.38
659.087	96.38
659.291	107.38
659.494	105.38
659.698	101.38
659.901	101.38
660.105	105.38
660.309	92.38
660.512	99.38
660.716	99.38
660.919	84.38
661.123	89.38
661.326	89.38
661.53	84.38
661.733	96.38
661.936	93.38
662.14	86.38
662.343	75.38
662.546	67.38
662.75	85.38
662.953	105.38
663.156	91.38
663.36	90.38
663.563	89.38
663.766	89.38
663.969	93.38
664.173	84.38
664.376	78.38
664.579	87.38
664.782	88.38
664.985	87.38
665.188	83.38
665.391	78.38
665.594	74.38
665.797	63.38
666	90.38
666.203	83.38
666.406	57.38
666.609	70.38
666.812	89.38
667.015	81.38
667.218	92.38
667.421	79.38
667.624	84.38
667.827	85.38
668.03	80.38
668.232	74.38
668.435	79.38
668.638	72.38
668.841	86.38
669.043	72.38
669.246	78.38
669.449	85.38
669.651	92.38
669.854	76.38
670.057	86.38
670.259	80.38
670.462	91.38
670.665	83.38
670.867	79.38
671.07	87.38
671.272	84.38
671.475	89.38
671.677	81.38
671.88	75.38
672.082	76.38
672.284	83.38
672.487	75.38
672.689	79.38
672.892	73.38
