Data from 1988.PennyLincolnUp.Lamp.En5.5.200Scan.071819.P2_HRD10591_17-19-50-972.txt Node
Date: Thu Jul 18 17:19:50 EDT 2019
User: cochatt
Spectrometer: HR+D1059
Trigger mode: 1
Integration Time (sec): 1.000000E-1
Scans to average: 1
Electric dark correction enabled: true
Nonlinearity correction enabled: false
Boxcar width: 0
XAxis mode: Wavelengths
Number of Pixels in Spectrum: 2048
>>>>>Begin Spectral Data<<<<<
223.165	-18.25
223.4	-18.25
223.635	-18.25
223.869	-19.25
224.104	-30.25
224.338	-27.25
224.573	-13.25
224.808	-7.25
225.042	-5.25
225.277	-5.25
225.511	9.75
225.746	9.75
225.98	7.75
226.215	5.75
226.449	10.75
226.683	33.75
226.918	14.75
227.152	33.75
227.387	28.75
227.621	41.75
227.856	37.75
228.09	44.75
228.324	50.75
228.559	47.75
228.793	59.75
229.027	108.75
229.262	107.75
229.496	110.75
229.73	134.75
229.964	158.75
230.199	125.75
230.433	119.75
230.667	105.75
230.901	114.75
231.136	116.75
231.37	110.75
231.604	119.75
231.838	116.75
232.072	113.75
232.306	119.75
232.541	115.75
232.775	99.75
233.009	116.75
233.243	112.75
233.477	95.75
233.711	121.75
233.945	116.75
234.179	101.75
234.413	122.75
234.647	114.75
234.881	112.75
235.115	118.75
235.349	108.75
235.583	122.75
235.817	110.75
236.051	135.75
236.285	126.75
236.519	131.75
236.753	133.75
236.987	156.75
237.221	202.75
237.455	253.75
237.689	199.75
237.922	153.75
238.156	122.75
238.39	118.75
238.624	115.75
238.858	112.75
239.091	127.75
239.325	120.75
239.559	135.75
239.793	129.75
240.027	131.75
240.26	144.75
240.494	158.75
240.728	161.75
240.961	149.75
241.195	143.75
241.429	138.75
241.662	139.75
241.896	154.75
242.13	150.75
242.363	140.75
242.597	146.75
242.83	152.75
243.064	146.75
243.298	157.75
243.531	144.75
243.765	131.75
243.998	132.75
244.232	137.75
244.465	141.75
244.699	144.75
244.932	146.75
245.166	165.75
245.399	142.75
245.633	153.75
245.866	177.75
246.099	138.75
246.333	158.75
246.566	168.75
246.8	156.75
247.033	152.75
247.266	159.75
247.5	170.75
247.733	177.75
247.966	176.75
248.2	177.75
248.433	173.75
248.666	174.75
248.899	182.75
249.133	218.75
249.366	195.75
249.599	200.75
249.832	196.75
250.066	191.75
250.299	177.75
250.532	184.75
250.765	197.75
250.998	222.75
251.231	228.75
251.465	220.75
251.698	219.75
251.931	217.75
252.164	188.75
252.397	199.75
252.63	199.75
252.863	209.75
253.096	221.75
253.329	230.75
253.562	231.75
253.795	230.75
254.028	225.75
254.261	227.75
254.494	243.75
254.727	259.75
254.96	277.75
255.193	273.75
255.426	241.75
255.659	246.75
255.892	236.75
256.124	228.75
256.357	216.75
256.59	225.75
256.823	221.75
257.056	212.75
257.289	215.75
257.521	220.75
257.754	210.75
257.987	220.75
258.22	204.75
258.452	207.75
258.685	199.75
258.918	209.75
259.151	220.75
259.383	224.75
259.616	223.75
259.849	230.75
260.081	244.75
260.314	276.75
260.547	262.75
260.779	257.75
261.012	237.75
261.244	241.75
261.477	228.75
261.71	221.75
261.942	233.75
262.175	261.75
262.407	249.75
262.64	223.75
262.872	219.75
263.105	240.75
263.337	216.75
263.57	207.75
263.802	225.75
264.035	229.75
264.267	215.75
264.499	218.75
264.732	220.75
264.964	233.75
265.197	225.75
265.429	229.75
265.661	217.75
265.894	226.75
266.126	247.75
266.358	224.75
266.591	230.75
266.823	232.75
267.055	242.75
267.287	248.75
267.52	224.75
267.752	240.75
267.984	236.75
268.216	241.75
268.448	244.75
268.681	229.75
268.913	245.75
269.145	274.75
269.377	308.75
269.609	306.75
269.841	285.75
270.073	285.75
270.306	312.75
270.538	306.75
270.77	337.75
271.002	309.75
271.234	297.75
271.466	312.75
271.698	322.75
271.93	326.75
272.162	342.75
272.394	349.75
272.626	325.75
272.858	325.75
273.09	294.75
273.322	276.75
273.553	270.75
273.785	274.75
274.017	284.75
274.249	284.75
274.481	280.75
274.713	282.75
274.945	271.75
275.176	281.75
275.408	274.75
275.64	285.75
275.872	285.75
276.104	278.75
276.335	297.75
276.567	300.75
276.799	280.75
277.031	320.75
277.262	334.75
277.494	320.75
277.726	321.75
277.957	316.75
278.189	292.75
278.421	286.75
278.652	267.75
278.884	270.75
279.115	291.75
279.347	279.75
279.579	272.75
279.81	280.75
280.042	272.75
280.273	279.75
280.505	292.75
280.736	272.75
280.968	273.75
281.199	294.75
281.431	254.75
281.662	272.75
281.894	282.75
282.125	300.75
282.356	305.75
282.588	316.75
282.819	326.75
283.051	311.75
283.282	263.75
283.513	280.75
283.745	302.75
283.976	286.75
284.207	279.75
284.439	300.75
284.67	304.75
284.901	306.75
285.132	288.75
285.364	297.75
285.595	310.75
285.826	320.75
286.057	306.75
286.288	297.75
286.52	302.75
286.751	287.75
286.982	303.75
287.213	320.75
287.444	316.75
287.675	308.75
287.906	326.75
288.138	307.75
288.369	306.75
288.6	325.75
288.831	319.75
289.062	316.75
289.293	320.75
289.524	303.75
289.755	309.75
289.986	290.75
290.217	324.75
290.448	293.75
290.679	284.75
290.91	309.75
291.141	311.75
291.371	313.75
291.602	310.75
291.833	312.75
292.064	314.75
292.295	318.75
292.526	323.75
292.757	297.75
292.987	321.75
293.218	323.75
293.449	312.75
293.68	326.75
293.91	336.75
294.141	320.75
294.372	326.75
294.603	322.75
294.833	295.75
295.064	314.75
295.295	321.75
295.525	313.75
295.756	323.75
295.987	320.75
296.217	330.75
296.448	351.75
296.679	342.75
296.909	306.75
297.14	317.75
297.37	322.75
297.601	338.75
297.831	335.75
298.062	325.75
298.292	351.75
298.523	316.75
298.753	329.75
298.984	343.75
299.214	345.75
299.445	320.75
299.675	296.75
299.905	339.75
300.136	330.75
300.366	336.75
300.597	344.75
300.827	313.75
301.057	356.75
301.288	358.75
301.518	359.75
301.748	334.75
301.979	366.75
302.209	353.75
302.439	360.75
302.669	353.75
302.9	350.75
303.13	348.75
303.36	335.75
303.59	341.75
303.82	352.75
304.051	345.75
304.281	346.75
304.511	356.75
304.741	368.75
304.971	357.75
305.201	353.75
305.431	368.75
305.661	354.75
305.891	368.75
306.121	368.75
306.352	374.75
306.582	368.75
306.812	374.75
307.042	360.75
307.272	365.75
307.502	360.75
307.731	359.75
307.961	347.75
308.191	355.75
308.421	353.75
308.651	351.75
308.881	342.75
309.111	386.75
309.341	378.75
309.571	389.75
309.8	391.75
310.03	394.75
310.26	398.75
310.49	408.75
310.72	409.75
310.949	429.75
311.179	435.75
311.409	417.75
311.639	396.75
311.868	388.75
312.098	402.75
312.328	407.75
312.557	425.75
312.787	448.75
313.017	443.75
313.246	432.75
313.476	388.75
313.706	408.75
313.935	404.75
314.165	431.75
314.394	467.75
314.624	449.75
314.853	418.75
315.083	439.75
315.312	414.75
315.542	428.75
315.771	410.75
316.001	402.75
316.23	416.75
316.46	416.75
316.689	396.75
316.919	413.75
317.148	433.75
317.377	394.75
317.607	433.75
317.836	401.75
318.065	404.75
318.295	422.75
318.524	408.75
318.753	419.75
318.983	403.75
319.212	392.75
319.441	412.75
319.67	429.75
319.9	414.75
320.129	404.75
320.358	414.75
320.587	408.75
320.816	435.75
321.046	439.75
321.275	436.75
321.504	449.75
321.733	450.75
321.962	430.75
322.191	473.75
322.42	461.75
322.649	496.75
322.878	510.75
323.108	509.75
323.337	526.75
323.566	560.75
323.795	578.75
324.024	631.75
324.253	788.75
324.482	1088.75
324.71	1660.75
324.939	2485.75
325.168	2124.75
325.397	1090.75
325.626	750.75
325.855	624.75
326.084	576.75
326.313	569.75
326.542	565.75
326.77	597.75
326.999	709.75
327.228	962.75
327.457	1474.75
327.686	1852.75
327.914	1231.75
328.143	784.75
328.372	687.75
328.6	654.75
328.829	617.75
329.058	607.75
329.287	629.75
329.515	565.75
329.744	553.75
329.972	535.75
330.201	527.75
330.43	561.75
330.658	606.75
330.887	648.75
331.115	622.75
331.344	573.75
331.572	521.75
331.801	537.75
332.03	553.75
332.258	512.75
332.486	499.75
332.715	478.75
332.943	495.75
333.172	495.75
333.4	529.75
333.629	501.75
333.857	520.75
334.085	504.75
334.314	510.75
334.542	516.75
334.771	520.75
334.999	519.75
335.227	520.75
335.455	515.75
335.684	496.75
335.912	498.75
336.14	485.75
336.369	491.75
336.597	514.75
336.825	494.75
337.053	485.75
337.281	496.75
337.51	476.75
337.738	478.75
337.966	485.75
338.194	475.75
338.422	498.75
338.65	482.75
338.878	499.75
339.106	483.75
339.334	471.75
339.562	472.75
339.79	467.75
340.018	480.75
340.246	473.75
340.474	478.75
340.702	478.75
340.93	485.75
341.158	484.75
341.386	475.75
341.614	495.75
341.842	485.75
342.07	460.75
342.298	475.75
342.526	461.75
342.754	459.75
342.981	465.75
343.209	477.75
343.437	478.75
343.665	481.75
343.893	488.75
344.12	508.75
344.348	519.75
344.576	483.75
344.804	494.75
345.031	500.75
345.259	496.75
345.487	502.75
345.714	503.75
345.942	486.75
346.17	466.75
346.397	456.75
346.625	474.75
346.853	455.75
347.08	472.75
347.308	483.75
347.535	472.75
347.763	464.75
347.99	482.75
348.218	473.75
348.445	493.75
348.673	472.75
348.9	467.75
349.128	449.75
349.355	456.75
349.583	448.75
349.81	452.75
350.037	455.75
350.265	457.75
350.492	447.75
350.72	447.75
350.947	453.75
351.174	479.75
351.402	470.75
351.629	489.75
351.856	466.75
352.083	486.75
352.311	482.75
352.538	478.75
352.765	482.75
352.992	485.75
353.22	479.75
353.447	461.75
353.674	454.75
353.901	469.75
354.128	424.75
354.355	450.75
354.583	441.75
354.81	429.75
355.037	441.75
355.264	444.75
355.491	442.75
355.718	430.75
355.945	425.75
356.172	445.75
356.399	446.75
356.626	431.75
356.853	446.75
357.08	435.75
357.307	450.75
357.534	428.75
357.761	421.75
357.988	416.75
358.215	449.75
358.441	440.75
358.668	431.75
358.895	445.75
359.122	456.75
359.349	448.75
359.576	473.75
359.802	492.75
360.029	508.75
360.256	542.75
360.483	495.75
360.709	455.75
360.936	454.75
361.163	462.75
361.39	462.75
361.616	485.75
361.843	478.75
362.07	449.75
362.296	482.75
362.523	462.75
362.749	449.75
362.976	465.75
363.203	453.75
363.429	453.75
363.656	451.75
363.882	454.75
364.109	469.75
364.335	431.75
364.562	444.75
364.788	438.75
365.015	455.75
365.241	460.75
365.468	460.75
365.694	452.75
365.92	462.75
366.147	453.75
366.373	462.75
366.599	455.75
366.826	447.75
367.052	425.75
367.278	461.75
367.505	444.75
367.731	454.75
367.957	454.75
368.184	457.75
368.41	451.75
368.636	460.75
368.862	456.75
369.089	456.75
369.315	442.75
369.541	449.75
369.767	457.75
369.993	462.75
370.219	453.75
370.445	463.75
370.672	457.75
370.898	449.75
371.124	455.75
371.35	442.75
371.576	448.75
371.802	450.75
372.028	469.75
372.254	464.75
372.48	449.75
372.706	449.75
372.932	466.75
373.158	448.75
373.384	455.75
373.61	460.75
373.835	460.75
374.061	438.75
374.287	458.75
374.513	457.75
374.739	458.75
374.965	475.75
375.191	458.75
375.416	466.75
375.642	457.75
375.868	468.75
376.094	458.75
376.319	440.75
376.545	445.75
376.771	456.75
376.997	448.75
377.222	454.75
377.448	449.75
377.674	444.75
377.899	444.75
378.125	437.75
378.35	455.75
378.576	457.75
378.802	450.75
379.027	434.75
379.253	459.75
379.478	444.75
379.704	440.75
379.929	443.75
380.155	449.75
380.38	442.75
380.606	447.75
380.831	444.75
381.057	469.75
381.282	468.75
381.507	451.75
381.733	454.75
381.958	482.75
382.184	461.75
382.409	469.75
382.634	450.75
382.86	476.75
383.085	474.75
383.31	466.75
383.535	481.75
383.761	461.75
383.986	461.75
384.211	495.75
384.436	468.75
384.662	488.75
384.887	484.75
385.112	474.75
385.337	489.75
385.562	501.75
385.787	505.75
386.013	504.75
386.238	493.75
386.463	510.75
386.688	494.75
386.913	494.75
387.138	517.75
387.363	518.75
387.588	506.75
387.813	502.75
388.038	512.75
388.263	514.75
388.488	521.75
388.713	517.75
388.938	500.75
389.163	502.75
389.387	511.75
389.612	489.75
389.837	544.75
390.062	489.75
390.287	514.75
390.512	518.75
390.736	494.75
390.961	508.75
391.186	490.75
391.411	521.75
391.636	535.75
391.86	521.75
392.085	493.75
392.31	537.75
392.534	525.75
392.759	519.75
392.984	497.75
393.208	545.75
393.433	556.75
393.658	532.75
393.882	529.75
394.107	512.75
394.331	532.75
394.556	505.75
394.78	501.75
395.005	537.75
395.229	517.75
395.454	532.75
395.678	560.75
395.903	534.75
396.127	570.75
396.352	554.75
396.576	566.75
396.801	546.75
397.025	547.75
397.249	546.75
397.474	561.75
397.698	560.75
397.922	552.75
398.147	588.75
398.371	583.75
398.595	572.75
398.82	604.75
399.044	596.75
399.268	598.75
399.492	641.75
399.717	696.75
399.941	714.75
400.165	715.75
400.389	732.75
400.613	680.75
400.837	643.75
401.062	596.75
401.286	590.75
401.51	586.75
401.734	587.75
401.958	597.75
402.182	619.75
402.406	631.75
402.63	610.75
402.854	585.75
403.078	612.75
403.302	622.75
403.526	620.75
403.75	596.75
403.974	593.75
404.198	603.75
404.422	585.75
404.645	609.75
404.869	612.75
405.093	644.75
405.317	661.75
405.541	705.75
405.765	660.75
405.988	666.75
406.212	663.75
406.436	664.75
406.66	688.75
406.883	647.75
407.107	679.75
407.331	754.75
407.555	817.75
407.778	838.75
408.002	751.75
408.226	709.75
408.449	699.75
408.673	677.75
408.896	710.75
409.12	756.75
409.344	704.75
409.567	657.75
409.791	620.75
410.014	617.75
410.238	620.75
410.461	613.75
410.685	633.75
410.908	665.75
411.132	697.75
411.355	709.75
411.578	691.75
411.802	652.75
412.025	627.75
412.249	612.75
412.472	609.75
412.695	638.75
412.919	598.75
413.142	586.75
413.365	613.75
413.589	605.75
413.812	584.75
414.035	578.75
414.258	576.75
414.482	577.75
414.705	581.75
414.928	593.75
415.151	569.75
415.374	588.75
415.597	591.75
415.821	577.75
416.044	574.75
416.267	580.75
416.49	574.75
416.713	562.75
416.936	558.75
417.159	560.75
417.382	575.75
417.605	592.75
417.828	582.75
418.051	597.75
418.274	609.75
418.497	568.75
418.72	586.75
418.943	593.75
419.166	599.75
419.389	604.75
419.611	628.75
419.834	614.75
420.057	590.75
420.28	591.75
420.503	576.75
420.726	590.75
420.948	614.75
421.171	675.75
421.394	697.75
421.617	634.75
421.839	608.75
422.062	591.75
422.285	633.75
422.507	682.75
422.73	769.75
422.953	744.75
423.175	650.75
423.398	653.75
423.621	620.75
423.843	658.75
424.066	657.75
424.288	661.75
424.511	676.75
424.733	775.75
424.956	804.75
425.178	795.75
425.401	800.75
425.623	816.75
425.846	695.75
426.068	677.75
426.291	659.75
426.513	650.75
426.735	671.75
426.958	702.75
427.18	788.75
427.402	969.75
427.625	1074.75
427.847	901.75
428.069	766.75
428.292	692.75
428.514	654.75
428.736	630.75
428.958	605.75
429.181	620.75
429.403	627.75
429.625	600.75
429.847	649.75
430.069	723.75
430.292	737.75
430.514	632.75
430.736	605.75
430.958	574.75
431.18	566.75
431.402	577.75
431.624	572.75
431.846	572.75
432.068	564.75
432.29	574.75
432.512	559.75
432.734	562.75
432.956	584.75
433.178	592.75
433.4	599.75
433.622	586.75
433.844	582.75
434.066	599.75
434.287	584.75
434.509	572.75
434.731	599.75
434.953	604.75
435.175	612.75
435.397	646.75
435.618	638.75
435.84	732.75
436.062	816.75
436.284	907.75
436.505	748.75
436.727	658.75
436.949	632.75
437.17	628.75
437.392	602.75
437.614	602.75
437.835	665.75
438.057	760.75
438.278	885.75
438.5	879.75
438.721	982.75
438.943	953.75
439.165	712.75
439.386	685.75
439.608	664.75
439.829	663.75
440.05	698.75
440.272	724.75
440.493	709.75
440.715	687.75
440.936	617.75
441.158	628.75
441.379	616.75
441.6	617.75
441.822	642.75
442.043	702.75
442.264	792.75
442.486	866.75
442.707	730.75
442.928	667.75
443.149	664.75
443.371	704.75
443.592	741.75
443.813	870.75
444.034	938.75
444.255	754.75
444.476	698.75
444.698	669.75
444.919	671.75
445.14	741.75
445.361	693.75
445.582	693.75
445.803	780.75
446.024	904.75
446.245	928.75
446.466	835.75
446.687	688.75
446.908	680.75
447.129	634.75
447.35	620.75
447.571	608.75
447.792	596.75
448.013	625.75
448.234	631.75
448.455	684.75
448.675	820.75
448.896	976.75
449.117	780.75
449.338	728.75
449.559	882.75
449.779	999.75
450	804.75
450.221	666.75
450.442	610.75
450.662	606.75
450.883	605.75
451.104	609.75
451.324	625.75
451.545	578.75
451.766	562.75
451.986	556.75
452.207	560.75
452.428	533.75
452.648	544.75
452.869	532.75
453.089	558.75
453.31	562.75
453.53	525.75
453.751	509.75
453.971	540.75
454.192	544.75
454.412	564.75
454.633	528.75
454.853	551.75
455.073	520.75
455.294	579.75
455.514	655.75
455.734	646.75
455.955	541.75
456.175	530.75
456.395	506.75
456.616	489.75
456.836	525.75
457.056	523.75
457.276	507.75
457.497	516.75
457.717	520.75
457.937	521.75
458.157	520.75
458.377	546.75
458.598	574.75
458.818	622.75
459.038	704.75
459.258	733.75
459.478	615.75
459.698	585.75
459.918	586.75
460.138	594.75
460.358	585.75
460.578	571.75
460.798	592.75
461.018	621.75
461.238	600.75
461.458	585.75
461.678	593.75
461.898	566.75
462.118	594.75
462.338	600.75
462.558	608.75
462.777	606.75
462.997	659.75
463.217	638.75
463.437	670.75
463.657	641.75
463.876	636.75
464.096	630.75
464.316	605.75
464.536	638.75
464.755	649.75
464.975	620.75
465.195	680.75
465.414	740.75
465.634	671.75
465.854	637.75
466.073	628.75
466.293	602.75
466.512	560.75
466.732	598.75
466.951	565.75
467.171	566.75
467.391	578.75
467.61	559.75
467.829	584.75
468.049	540.75
468.268	548.75
468.488	545.75
468.707	549.75
468.927	534.75
469.146	554.75
469.365	545.75
469.585	541.75
469.804	552.75
470.023	585.75
470.243	574.75
470.462	575.75
470.681	576.75
470.901	602.75
471.12	565.75
471.339	575.75
471.558	552.75
471.777	568.75
471.997	559.75
472.216	563.75
472.435	565.75
472.654	558.75
472.873	554.75
473.092	545.75
473.311	560.75
473.53	591.75
473.749	565.75
473.968	617.75
474.187	750.75
474.406	747.75
474.625	635.75
474.844	588.75
475.063	591.75
475.282	583.75
475.501	581.75
475.72	570.75
475.939	570.75
476.158	594.75
476.377	580.75
476.596	589.75
476.814	564.75
477.033	593.75
477.252	587.75
477.471	611.75
477.69	632.75
477.908	640.75
478.127	632.75
478.346	628.75
478.564	627.75
478.783	615.75
479.002	644.75
479.22	638.75
479.439	664.75
479.658	651.75
479.876	703.75
480.095	705.75
480.313	709.75
480.532	700.75
480.751	694.75
480.969	711.75
481.188	714.75
481.406	706.75
481.624	688.75
481.843	663.75
482.061	647.75
482.28	672.75
482.498	656.75
482.717	656.75
482.935	647.75
483.153	640.75
483.372	670.75
483.59	657.75
483.808	659.75
484.027	678.75
484.245	674.75
484.463	672.75
484.681	687.75
484.9	680.75
485.118	687.75
485.336	677.75
485.554	697.75
485.772	689.75
485.99	705.75
486.209	706.75
486.427	686.75
486.645	709.75
486.863	708.75
487.081	722.75
487.299	729.75
487.517	731.75
487.735	725.75
487.953	718.75
488.171	718.75
488.389	708.75
488.607	725.75
488.825	704.75
489.043	726.75
489.261	758.75
489.479	720.75
489.696	745.75
489.914	720.75
490.132	748.75
490.35	723.75
490.568	754.75
490.786	777.75
491.003	743.75
491.221	760.75
491.439	800.75
491.657	817.75
491.874	838.75
492.092	817.75
492.31	826.75
492.527	829.75
492.745	816.75
492.963	822.75
493.18	809.75
493.398	824.75
493.615	841.75
493.833	818.75
494.05	840.75
494.268	846.75
494.485	840.75
494.703	846.75
494.92	856.75
495.138	840.75
495.355	848.75
495.573	866.75
495.79	859.75
496.008	854.75
496.225	860.75
496.442	834.75
496.66	876.75
496.877	844.75
497.094	858.75
497.312	888.75
497.529	862.75
497.746	925.75
497.963	920.75
498.181	946.75
498.398	936.75
498.615	969.75
498.832	983.75
499.049	993.75
499.267	1042.75
499.484	1051.75
499.701	1113.75
499.918	1141.75
500.135	1129.75
500.352	1243.75
500.569	1263.75
500.786	1247.75
501.003	1233.75
501.22	1196.75
501.437	1122.75
501.654	1108.75
501.871	1096.75
502.088	1066.75
502.305	1022.75
502.522	1001.75
502.739	980.75
502.956	952.75
503.172	956.75
503.389	885.75
503.606	917.75
503.823	885.75
504.04	928.75
504.256	886.75
504.473	871.75
504.69	898.75
504.907	886.75
505.123	841.75
505.34	832.75
505.557	850.75
505.773	820.75
505.99	827.75
506.207	821.75
506.423	831.75
506.64	829.75
506.856	789.75
507.073	805.75
507.289	806.75
507.506	789.75
507.722	818.75
507.939	806.75
508.155	786.75
508.372	815.75
508.588	764.75
508.805	754.75
509.021	778.75
509.238	789.75
509.454	801.75
509.67	788.75
509.887	809.75
510.103	776.75
510.319	753.75
510.536	862.75
510.752	1372.75
510.968	1171.75
511.184	833.75
511.401	772.75
511.617	772.75
511.833	740.75
512.049	712.75
512.265	728.75
512.481	694.75
512.698	716.75
512.914	745.75
513.13	725.75
513.346	727.75
513.562	741.75
513.778	750.75
513.994	748.75
514.21	768.75
514.426	784.75
514.642	820.75
514.858	855.75
515.074	875.75
515.29	1024.75
515.506	1488.75
515.721	1288.75
515.937	916.75
516.153	813.75
516.369	790.75
516.585	808.75
516.801	800.75
517.016	754.75
517.232	780.75
517.448	791.75
517.664	756.75
517.879	778.75
518.095	782.75
518.311	782.75
518.527	767.75
518.742	783.75
518.958	768.75
519.173	748.75
519.389	731.75
519.605	727.75
519.82	744.75
520.036	765.75
520.251	778.75
520.467	781.75
520.682	776.75
520.898	793.75
521.113	826.75
521.329	885.75
521.544	988.75
521.76	1144.75
521.975	1872.75
522.19	1893.75
522.406	1075.75
522.621	865.75
522.836	796.75
523.052	721.75
523.267	694.75
523.482	720.75
523.698	674.75
523.913	688.75
524.128	658.75
524.343	646.75
524.559	649.75
524.774	661.75
524.989	649.75
525.204	650.75
525.419	666.75
525.634	634.75
525.849	631.75
526.064	628.75
526.28	640.75
526.495	617.75
526.71	599.75
526.925	598.75
527.14	617.75
527.355	592.75
527.57	594.75
527.785	620.75
527.999	611.75
528.214	620.75
528.429	613.75
528.644	602.75
528.859	606.75
529.074	600.75
529.289	654.75
529.503	703.75
529.718	728.75
529.933	665.75
530.148	608.75
530.363	614.75
530.577	628.75
530.792	608.75
531.007	614.75
531.221	591.75
531.436	602.75
531.651	578.75
531.865	586.75
532.08	584.75
532.295	586.75
532.509	588.75
532.724	583.75
532.938	579.75
533.153	573.75
533.367	551.75
533.582	598.75
533.796	608.75
534.011	571.75
534.225	574.75
534.44	574.75
534.654	579.75
534.868	578.75
535.083	574.75
535.297	566.75
535.511	551.75
535.726	591.75
535.94	573.75
536.154	599.75
536.369	567.75
536.583	554.75
536.797	558.75
537.011	544.75
537.225	578.75
537.44	542.75
537.654	568.75
537.868	560.75
538.082	544.75
538.296	556.75
538.51	562.75
538.724	551.75
538.938	560.75
539.153	548.75
539.367	551.75
539.581	547.75
539.795	570.75
540.009	545.75
540.222	551.75
540.436	547.75
540.65	549.75
540.864	555.75
541.078	542.75
541.292	564.75
541.506	549.75
541.72	546.75
541.934	552.75
542.147	554.75
542.361	545.75
542.575	552.75
542.789	527.75
543.002	530.75
543.216	556.75
543.43	544.75
543.644	549.75
543.857	529.75
544.071	556.75
544.285	554.75
544.498	560.75
544.712	524.75
544.925	528.75
545.139	530.75
545.352	545.75
545.566	523.75
545.779	528.75
545.993	545.75
546.206	541.75
546.42	556.75
546.633	523.75
546.847	524.75
547.06	550.75
547.274	521.75
547.487	529.75
547.7	549.75
547.914	516.75
548.127	540.75
548.34	520.75
548.554	532.75
548.767	504.75
548.98	544.75
549.193	519.75
549.407	526.75
549.62	512.75
549.833	528.75
550.046	530.75
550.259	530.75
550.473	527.75
550.686	510.75
550.899	528.75
551.112	524.75
551.325	543.75
551.538	516.75
551.751	518.75
551.964	508.75
552.177	512.75
552.39	531.75
552.603	520.75
552.816	523.75
553.029	520.75
553.242	528.75
553.455	546.75
553.667	545.75
553.88	539.75
554.093	551.75
554.306	530.75
554.519	519.75
554.732	526.75
554.944	493.75
555.157	496.75
555.37	515.75
555.583	504.75
555.795	517.75
556.008	501.75
556.221	474.75
556.433	498.75
556.646	495.75
556.859	480.75
557.071	480.75
557.284	461.75
557.496	472.75
557.709	473.75
557.921	480.75
558.134	484.75
558.346	452.75
558.559	456.75
558.771	472.75
558.984	468.75
559.196	470.75
559.409	490.75
559.621	460.75
559.833	465.75
560.046	454.75
560.258	448.75
560.47	463.75
560.683	451.75
560.895	452.75
561.107	466.75
561.32	438.75
561.532	465.75
561.744	469.75
561.956	458.75
562.168	472.75
562.381	470.75
562.593	460.75
562.805	460.75
563.017	462.75
563.229	482.75
563.441	462.75
563.653	464.75
563.865	466.75
564.077	479.75
564.289	481.75
564.501	470.75
564.713	500.75
564.925	516.75
565.137	530.75
565.349	493.75
565.561	522.75
565.773	522.75
565.985	525.75
566.197	504.75
566.408	554.75
566.62	548.75
566.832	566.75
567.044	570.75
567.255	561.75
567.467	550.75
567.679	583.75
567.891	590.75
568.102	584.75
568.314	572.75
568.526	574.75
568.737	561.75
568.949	528.75
569.161	528.75
569.372	500.75
569.584	488.75
569.795	494.75
570.007	477.75
570.218	514.75
570.43	526.75
570.641	479.75
570.853	449.75
571.064	485.75
571.276	452.75
571.487	442.75
571.698	423.75
571.91	425.75
572.121	446.75
572.333	429.75
572.544	423.75
572.755	408.75
572.966	413.75
573.178	401.75
573.389	426.75
573.6	426.75
573.811	420.75
574.023	401.75
574.234	414.75
574.445	401.75
574.656	390.75
574.867	408.75
575.078	395.75
575.289	399.75
575.501	388.75
575.712	378.75
575.923	404.75
576.134	399.75
576.345	390.75
576.556	392.75
576.767	393.75
576.978	397.75
577.188	406.75
577.399	390.75
577.61	386.75
577.821	403.75
578.032	400.75
578.243	417.75
578.454	694.75
578.665	524.75
578.875	400.75
579.086	399.75
579.297	344.75
579.508	361.75
579.718	376.75
579.929	384.75
580.14	368.75
580.35	362.75
580.561	370.75
580.772	370.75
580.982	333.75
581.193	351.75
581.403	362.75
581.614	366.75
581.825	357.75
582.035	361.75
582.246	377.75
582.456	366.75
582.667	359.75
582.877	354.75
583.087	380.75
583.298	361.75
583.508	344.75
583.719	359.75
583.929	368.75
584.139	359.75
584.35	349.75
584.56	376.75
584.77	375.75
584.981	358.75
585.191	339.75
585.401	349.75
585.611	335.75
585.821	360.75
586.032	352.75
586.242	354.75
586.452	359.75
586.662	351.75
586.872	352.75
587.082	355.75
587.292	335.75
587.502	327.75
587.713	363.75
587.923	355.75
588.133	356.75
588.343	355.75
588.553	337.75
588.762	352.75
588.972	344.75
589.182	350.75
589.392	352.75
589.602	352.75
589.812	344.75
590.022	344.75
590.232	335.75
590.441	346.75
590.651	349.75
590.861	355.75
591.071	339.75
591.281	333.75
591.49	324.75
591.7	350.75
591.91	355.75
592.119	349.75
592.329	382.75
592.539	359.75
592.748	354.75
592.958	369.75
593.167	360.75
593.377	358.75
593.587	393.75
593.796	358.75
594.006	357.75
594.215	356.75
594.424	349.75
594.634	374.75
594.843	354.75
595.053	367.75
595.262	342.75
595.472	346.75
595.681	350.75
595.89	343.75
596.1	346.75
596.309	340.75
596.518	346.75
596.727	328.75
596.937	319.75
597.146	342.75
597.355	312.75
597.564	337.75
597.774	313.75
597.983	320.75
598.192	308.75
598.401	306.75
598.61	320.75
598.819	319.75
599.028	325.75
599.237	280.75
599.446	316.75
599.655	309.75
599.864	288.75
600.073	295.75
600.282	287.75
600.491	302.75
600.7	314.75
600.909	294.75
601.118	292.75
601.327	312.75
601.536	300.75
601.745	295.75
601.953	292.75
602.162	310.75
602.371	300.75
602.58	310.75
602.789	305.75
602.997	306.75
603.206	307.75
603.415	277.75
603.623	288.75
603.832	279.75
604.041	282.75
604.249	282.75
604.458	280.75
604.666	278.75
604.875	279.75
605.084	286.75
605.292	287.75
605.501	280.75
605.709	265.75
605.918	272.75
606.126	276.75
606.334	288.75
606.543	276.75
606.751	303.75
606.96	271.75
607.168	279.75
607.376	300.75
607.585	279.75
607.793	287.75
608.001	260.75
608.21	260.75
608.418	274.75
608.626	256.75
608.834	266.75
609.043	287.75
609.251	295.75
609.459	281.75
609.667	276.75
609.875	266.75
610.083	254.75
610.291	263.75
610.499	270.75
610.707	272.75
610.916	276.75
611.124	282.75
611.332	303.75
611.54	280.75
611.748	252.75
611.955	262.75
612.163	270.75
612.371	275.75
612.579	275.75
612.787	269.75
612.995	271.75
613.203	279.75
613.411	272.75
613.618	261.75
613.826	255.75
614.034	268.75
614.242	252.75
614.449	272.75
614.657	256.75
614.865	278.75
615.072	274.75
615.28	280.75
615.488	272.75
615.695	274.75
615.903	254.75
616.111	270.75
616.318	272.75
616.526	263.75
616.733	282.75
616.941	258.75
617.148	267.75
617.356	259.75
617.563	261.75
617.771	258.75
617.978	258.75
618.185	264.75
618.393	269.75
618.6	262.75
618.807	269.75
619.015	266.75
619.222	270.75
619.429	278.75
619.637	240.75
619.844	242.75
620.051	268.75
620.258	274.75
620.466	242.75
620.673	238.75
620.88	232.75
621.087	246.75
621.294	257.75
621.501	249.75
621.708	253.75
621.915	255.75
622.122	245.75
622.329	269.75
622.536	254.75
622.743	254.75
622.95	257.75
623.157	236.75
623.364	240.75
623.571	244.75
623.778	244.75
623.985	257.75
624.192	233.75
624.399	237.75
624.606	232.75
624.812	232.75
625.019	226.75
625.226	244.75
625.433	230.75
625.639	240.75
625.846	227.75
626.053	234.75
626.259	241.75
626.466	246.75
626.673	229.75
626.879	233.75
627.086	253.75
627.293	246.75
627.499	233.75
627.706	229.75
627.912	229.75
628.119	250.75
628.325	230.75
628.532	228.75
628.738	226.75
628.945	224.75
629.151	228.75
629.357	219.75
629.564	223.75
629.77	215.75
629.976	216.75
630.183	215.75
630.389	218.75
630.595	224.75
630.802	210.75
631.008	207.75
631.214	212.75
631.42	212.75
631.627	230.75
631.833	241.75
632.039	204.75
632.245	208.75
632.451	208.75
632.657	200.75
632.863	208.75
633.069	217.75
633.275	200.75
633.481	198.75
633.688	204.75
633.893	201.75
634.099	200.75
634.305	202.75
634.511	214.75
634.717	189.75
634.923	201.75
635.129	196.75
635.335	205.75
635.541	201.75
635.747	193.75
635.952	214.75
636.158	202.75
636.364	197.75
636.57	194.75
636.775	174.75
636.981	194.75
637.187	196.75
637.392	194.75
637.598	193.75
637.804	217.75
638.009	187.75
638.215	197.75
638.421	180.75
638.626	185.75
638.832	198.75
639.037	205.75
639.243	192.75
639.448	212.75
639.654	202.75
639.859	181.75
640.065	193.75
640.27	183.75
640.475	189.75
640.681	176.75
640.886	184.75
641.091	186.75
641.297	186.75
641.502	182.75
641.707	200.75
641.913	190.75
642.118	180.75
642.323	181.75
642.528	196.75
642.733	172.75
642.939	178.75
643.144	186.75
643.349	190.75
643.554	177.75
643.759	190.75
643.964	177.75
644.169	179.75
644.374	174.75
644.579	185.75
644.784	188.75
644.989	192.75
645.194	191.75
645.399	169.75
645.604	183.75
645.809	177.75
646.014	192.75
646.219	174.75
646.423	182.75
646.628	185.75
646.833	176.75
647.038	180.75
647.243	189.75
647.447	179.75
647.652	168.75
647.857	180.75
648.062	180.75
648.266	192.75
648.471	186.75
648.676	172.75
648.88	193.75
649.085	191.75
649.289	169.75
649.494	190.75
649.698	190.75
649.903	204.75
650.107	208.75
650.312	173.75
650.516	169.75
650.721	185.75
650.925	172.75
651.13	164.75
651.334	156.75
651.539	151.75
651.743	165.75
651.947	165.75
652.152	156.75
652.356	158.75
652.56	154.75
652.764	146.75
652.969	146.75
653.173	164.75
653.377	151.75
653.581	142.75
653.785	141.75
653.99	149.75
654.194	145.75
654.398	140.75
654.602	142.75
654.806	142.75
655.01	151.75
655.214	144.75
655.418	146.75
655.622	136.75
655.826	138.75
656.03	124.75
656.234	133.75
656.438	148.75
656.642	150.75
656.846	131.75
657.049	129.75
657.253	129.75
657.457	129.75
657.661	117.75
657.865	114.75
658.068	123.75
658.272	97.75
658.476	128.75
658.68	110.75
658.883	103.75
659.087	96.75
659.291	93.75
659.494	119.75
659.698	81.75
659.901	92.75
660.105	104.75
660.309	77.75
660.512	92.75
660.716	90.75
660.919	87.75
661.123	87.75
661.326	88.75
661.53	89.75
661.733	78.75
661.936	88.75
662.14	82.75
662.343	86.75
662.546	74.75
662.75	83.75
662.953	86.75
663.156	87.75
663.36	86.75
663.563	81.75
663.766	70.75
663.969	74.75
664.173	75.75
664.376	73.75
664.579	71.75
664.782	82.75
664.985	70.75
665.188	81.75
665.391	78.75
665.594	77.75
665.797	85.75
666	87.75
666.203	84.75
666.406	63.75
666.609	87.75
666.812	77.75
667.015	85.75
667.218	80.75
667.421	70.75
667.624	84.75
667.827	84.75
668.03	73.75
668.232	78.75
668.435	77.75
668.638	70.75
668.841	81.75
669.043	69.75
669.246	73.75
669.449	77.75
669.651	73.75
669.854	83.75
670.057	82.75
670.259	86.75
670.462	71.75
670.665	82.75
670.867	73.75
671.07	67.75
671.272	89.75
671.475	84.75
671.677	72.75
671.88	76.75
672.082	70.75
672.284	78.75
672.487	81.75
672.689	85.75
672.892	77.75
