Data from 1988.PennyLincolnUp.Lamp.En5.5.200Scan.071819.P2_HRD10591_17-18-39-971.txt Node
Date: Thu Jul 18 17:18:39 EDT 2019
User: cochatt
Spectrometer: HR+D1059
Trigger mode: 1
Integration Time (sec): 1.000000E-1
Scans to average: 1
Electric dark correction enabled: true
Nonlinearity correction enabled: false
Boxcar width: 0
XAxis mode: Wavelengths
Number of Pixels in Spectrum: 2048
>>>>>Begin Spectral Data<<<<<
223.165	-14.25
223.4	-14.25
223.635	-14.25
223.869	-24.25
224.104	-20.25
224.338	-10.25
224.573	-24.25
224.808	-24.25
225.042	-11.25
225.277	2.75
225.511	-5.25
225.746	15.75
225.98	16.75
226.215	11.75
226.449	19.75
226.683	28.75
226.918	17.75
227.152	20.75
227.387	36.75
227.621	26.75
227.856	50.75
228.09	47.75
228.324	40.75
228.559	59.75
228.793	66.75
229.027	92.75
229.262	97.75
229.496	116.75
229.73	126.75
229.964	136.75
230.199	126.75
230.433	104.75
230.667	106.75
230.901	123.75
231.136	94.75
231.37	108.75
231.604	116.75
231.838	115.75
232.072	105.75
232.306	112.75
232.541	98.75
232.775	114.75
233.009	111.75
233.243	104.75
233.477	106.75
233.711	117.75
233.945	106.75
234.179	113.75
234.413	112.75
234.647	97.75
234.881	94.75
235.115	118.75
235.349	100.75
235.583	104.75
235.817	106.75
236.051	122.75
236.285	120.75
236.519	105.75
236.753	117.75
236.987	145.75
237.221	164.75
237.455	194.75
237.689	159.75
237.922	136.75
238.156	141.75
238.39	126.75
238.624	126.75
238.858	118.75
239.091	118.75
239.325	137.75
239.559	122.75
239.793	113.75
240.027	127.75
240.26	143.75
240.494	134.75
240.728	135.75
240.961	140.75
241.195	127.75
241.429	125.75
241.662	121.75
241.896	119.75
242.13	122.75
242.363	118.75
242.597	116.75
242.83	124.75
243.064	131.75
243.298	126.75
243.531	118.75
243.765	123.75
243.998	129.75
244.232	132.75
244.465	133.75
244.699	136.75
244.932	138.75
245.166	143.75
245.399	134.75
245.633	135.75
245.866	144.75
246.099	137.75
246.333	153.75
246.566	134.75
246.8	137.75
247.033	132.75
247.266	161.75
247.5	140.75
247.733	148.75
247.966	162.75
248.2	159.75
248.433	163.75
248.666	149.75
248.899	178.75
249.133	193.75
249.366	190.75
249.599	180.75
249.832	168.75
250.066	168.75
250.299	168.75
250.532	168.75
250.765	191.75
250.998	206.75
251.231	192.75
251.465	200.75
251.698	187.75
251.931	176.75
252.164	202.75
252.397	184.75
252.63	186.75
252.863	202.75
253.096	194.75
253.329	201.75
253.562	206.75
253.795	195.75
254.028	193.75
254.261	197.75
254.494	225.75
254.727	243.75
254.96	246.75
255.193	237.75
255.426	226.75
255.659	212.75
255.892	201.75
256.124	180.75
256.357	222.75
256.59	204.75
256.823	185.75
257.056	187.75
257.289	204.75
257.521	184.75
257.754	195.75
257.987	204.75
258.22	186.75
258.452	188.75
258.685	205.75
258.918	197.75
259.151	206.75
259.383	197.75
259.616	202.75
259.849	194.75
260.081	215.75
260.314	215.75
260.547	230.75
260.779	220.75
261.012	227.75
261.244	214.75
261.477	197.75
261.71	210.75
261.942	214.75
262.175	216.75
262.407	196.75
262.64	197.75
262.872	191.75
263.105	194.75
263.337	208.75
263.57	203.75
263.802	190.75
264.035	204.75
264.267	192.75
264.499	219.75
264.732	187.75
264.964	197.75
265.197	182.75
265.429	201.75
265.661	209.75
265.894	191.75
266.126	214.75
266.358	216.75
266.591	220.75
266.823	216.75
267.055	206.75
267.287	226.75
267.52	197.75
267.752	194.75
267.984	198.75
268.216	204.75
268.448	211.75
268.681	223.75
268.913	246.75
269.145	234.75
269.377	257.75
269.609	256.75
269.841	258.75
270.073	267.75
270.306	271.75
270.538	290.75
270.77	269.75
271.002	259.75
271.234	260.75
271.466	293.75
271.698	283.75
271.93	299.75
272.162	296.75
272.394	280.75
272.626	267.75
272.858	265.75
273.09	249.75
273.322	253.75
273.553	229.75
273.785	223.75
274.017	243.75
274.249	224.75
274.481	260.75
274.713	259.75
274.945	254.75
275.176	243.75
275.408	268.75
275.64	241.75
275.872	248.75
276.104	236.75
276.335	244.75
276.567	254.75
276.799	248.75
277.031	263.75
277.262	277.75
277.494	296.75
277.726	288.75
277.957	264.75
278.189	260.75
278.421	254.75
278.652	261.75
278.884	239.75
279.115	263.75
279.347	263.75
279.579	256.75
279.81	255.75
280.042	269.75
280.273	250.75
280.505	247.75
280.736	267.75
280.968	240.75
281.199	267.75
281.431	256.75
281.662	247.75
281.894	258.75
282.125	262.75
282.356	263.75
282.588	264.75
282.819	283.75
283.051	263.75
283.282	266.75
283.513	263.75
283.745	248.75
283.976	271.75
284.207	266.75
284.439	258.75
284.67	263.75
284.901	267.75
285.132	267.75
285.364	276.75
285.595	263.75
285.826	269.75
286.057	278.75
286.288	280.75
286.52	264.75
286.751	245.75
286.982	283.75
287.213	271.75
287.444	288.75
287.675	272.75
287.906	279.75
288.138	282.75
288.369	263.75
288.6	292.75
288.831	298.75
289.062	274.75
289.293	302.75
289.524	275.75
289.755	278.75
289.986	288.75
290.217	284.75
290.448	269.75
290.679	283.75
290.91	308.75
291.141	288.75
291.371	279.75
291.602	278.75
291.833	288.75
292.064	283.75
292.295	278.75
292.526	271.75
292.757	302.75
292.987	273.75
293.218	256.75
293.449	284.75
293.68	294.75
293.91	274.75
294.141	278.75
294.372	270.75
294.603	291.75
294.833	274.75
295.064	280.75
295.295	282.75
295.525	279.75
295.756	278.75
295.987	284.75
296.217	295.75
296.448	318.75
296.679	310.75
296.909	308.75
297.14	280.75
297.37	317.75
297.601	297.75
297.831	300.75
298.062	286.75
298.292	298.75
298.523	297.75
298.753	292.75
298.984	284.75
299.214	307.75
299.445	286.75
299.675	296.75
299.905	308.75
300.136	289.75
300.366	300.75
300.597	293.75
300.827	302.75
301.057	293.75
301.288	314.75
301.518	335.75
301.748	295.75
301.979	316.75
302.209	311.75
302.439	315.75
302.669	321.75
302.9	298.75
303.13	329.75
303.36	318.75
303.59	322.75
303.82	338.75
304.051	322.75
304.281	320.75
304.511	337.75
304.741	310.75
304.971	332.75
305.201	313.75
305.431	316.75
305.661	310.75
305.891	318.75
306.121	329.75
306.352	326.75
306.582	327.75
306.812	323.75
307.042	320.75
307.272	331.75
307.502	330.75
307.731	323.75
307.961	344.75
308.191	304.75
308.421	332.75
308.651	339.75
308.881	334.75
309.111	340.75
309.341	324.75
309.571	354.75
309.8	343.75
310.03	339.75
310.26	347.75
310.49	356.75
310.72	360.75
310.949	355.75
311.179	385.75
311.409	375.75
311.639	364.75
311.868	358.75
312.098	345.75
312.328	378.75
312.557	395.75
312.787	370.75
313.017	380.75
313.246	387.75
313.476	363.75
313.706	362.75
313.935	357.75
314.165	361.75
314.394	371.75
314.624	378.75
314.853	396.75
315.083	363.75
315.312	360.75
315.542	375.75
315.771	363.75
316.001	357.75
316.23	361.75
316.46	362.75
316.689	348.75
316.919	352.75
317.148	386.75
317.377	386.75
317.607	380.75
317.836	363.75
318.065	354.75
318.295	370.75
318.524	360.75
318.753	376.75
318.983	379.75
319.212	355.75
319.441	382.75
319.67	377.75
319.9	379.75
320.129	364.75
320.358	372.75
320.587	365.75
320.816	390.75
321.046	397.75
321.275	397.75
321.504	401.75
321.733	407.75
321.962	393.75
322.191	411.75
322.42	393.75
322.649	431.75
322.878	430.75
323.108	426.75
323.337	463.75
323.566	470.75
323.795	506.75
324.024	528.75
324.253	640.75
324.482	887.75
324.71	1350.75
324.939	1973.75
325.168	1686.75
325.397	871.75
325.626	619.75
325.855	524.75
326.084	471.75
326.313	478.75
326.542	473.75
326.77	521.75
326.999	621.75
327.228	802.75
327.457	1220.75
327.686	1451.75
327.914	959.75
328.143	649.75
328.372	554.75
328.6	503.75
328.829	508.75
329.058	511.75
329.287	537.75
329.515	512.75
329.744	468.75
329.972	482.75
330.201	453.75
330.43	475.75
330.658	500.75
330.887	549.75
331.115	536.75
331.344	476.75
331.572	455.75
331.801	453.75
332.03	469.75
332.258	448.75
332.486	438.75
332.715	435.75
332.943	447.75
333.172	463.75
333.4	451.75
333.629	455.75
333.857	456.75
334.085	438.75
334.314	440.75
334.542	463.75
334.771	446.75
334.999	433.75
335.227	416.75
335.455	452.75
335.684	443.75
335.912	442.75
336.14	436.75
336.369	438.75
336.597	434.75
336.825	439.75
337.053	434.75
337.281	431.75
337.51	424.75
337.738	422.75
337.966	422.75
338.194	438.75
338.422	427.75
338.65	420.75
338.878	436.75
339.106	442.75
339.334	430.75
339.562	416.75
339.79	411.75
340.018	406.75
340.246	410.75
340.474	407.75
340.702	430.75
340.93	428.75
341.158	432.75
341.386	402.75
341.614	407.75
341.842	406.75
342.07	411.75
342.298	423.75
342.526	421.75
342.754	409.75
342.981	396.75
343.209	395.75
343.437	404.75
343.665	433.75
343.893	425.75
344.12	431.75
344.348	446.75
344.576	447.75
344.804	438.75
345.031	458.75
345.259	445.75
345.487	439.75
345.714	422.75
345.942	422.75
346.17	423.75
346.397	427.75
346.625	411.75
346.853	394.75
347.08	412.75
347.308	420.75
347.535	406.75
347.763	424.75
347.99	423.75
348.218	427.75
348.445	406.75
348.673	416.75
348.9	421.75
349.128	392.75
349.355	388.75
349.583	391.75
349.81	409.75
350.037	399.75
350.265	376.75
350.492	400.75
350.72	401.75
350.947	385.75
351.174	408.75
351.402	426.75
351.629	415.75
351.856	404.75
352.083	417.75
352.311	417.75
352.538	430.75
352.765	409.75
352.992	410.75
353.22	419.75
353.447	396.75
353.674	399.75
353.901	400.75
354.128	391.75
354.355	380.75
354.583	394.75
354.81	351.75
355.037	410.75
355.264	398.75
355.491	402.75
355.718	378.75
355.945	374.75
356.172	387.75
356.399	369.75
356.626	390.75
356.853	376.75
357.08	394.75
357.307	377.75
357.534	387.75
357.761	381.75
357.988	397.75
358.215	381.75
358.441	385.75
358.668	385.75
358.895	385.75
359.122	391.75
359.349	402.75
359.576	413.75
359.802	430.75
360.029	438.75
360.256	446.75
360.483	435.75
360.709	427.75
360.936	419.75
361.163	423.75
361.39	406.75
361.616	392.75
361.843	392.75
362.07	390.75
362.296	415.75
362.523	412.75
362.749	397.75
362.976	380.75
363.203	415.75
363.429	397.75
363.656	401.75
363.882	399.75
364.109	388.75
364.335	392.75
364.562	395.75
364.788	392.75
365.015	391.75
365.241	372.75
365.468	396.75
365.694	390.75
365.92	406.75
366.147	399.75
366.373	393.75
366.599	379.75
366.826	396.75
367.052	390.75
367.278	413.75
367.505	415.75
367.731	386.75
367.957	392.75
368.184	375.75
368.41	397.75
368.636	394.75
368.862	404.75
369.089	394.75
369.315	398.75
369.541	392.75
369.767	391.75
369.993	397.75
370.219	388.75
370.445	402.75
370.672	402.75
370.898	399.75
371.124	404.75
371.35	411.75
371.576	384.75
371.802	411.75
372.028	392.75
372.254	371.75
372.48	405.75
372.706	397.75
372.932	391.75
373.158	381.75
373.384	414.75
373.61	412.75
373.835	383.75
374.061	420.75
374.287	413.75
374.513	422.75
374.739	399.75
374.965	391.75
375.191	406.75
375.416	400.75
375.642	399.75
375.868	391.75
376.094	390.75
376.319	395.75
376.545	401.75
376.771	394.75
376.997	394.75
377.222	398.75
377.448	397.75
377.674	407.75
377.899	382.75
378.125	380.75
378.35	388.75
378.576	394.75
378.802	410.75
379.027	399.75
379.253	387.75
379.478	386.75
379.704	398.75
379.929	396.75
380.155	415.75
380.38	396.75
380.606	378.75
380.831	383.75
381.057	390.75
381.282	390.75
381.507	394.75
381.733	388.75
381.958	391.75
382.184	397.75
382.409	419.75
382.634	413.75
382.86	402.75
383.085	403.75
383.31	409.75
383.535	411.75
383.761	422.75
383.986	411.75
384.211	397.75
384.436	416.75
384.662	422.75
384.887	423.75
385.112	437.75
385.337	437.75
385.562	416.75
385.787	425.75
386.013	458.75
386.238	461.75
386.463	447.75
386.688	454.75
386.913	431.75
387.138	438.75
387.363	418.75
387.588	428.75
387.813	443.75
388.038	437.75
388.263	438.75
388.488	450.75
388.713	442.75
388.938	457.75
389.163	448.75
389.387	436.75
389.612	441.75
389.837	427.75
390.062	419.75
390.287	436.75
390.512	437.75
390.736	430.75
390.961	438.75
391.186	435.75
391.411	445.75
391.636	422.75
391.86	461.75
392.085	447.75
392.31	451.75
392.534	455.75
392.759	446.75
392.984	448.75
393.208	458.75
393.433	464.75
393.658	464.75
393.882	449.75
394.107	441.75
394.331	445.75
394.556	448.75
394.78	439.75
395.005	430.75
395.229	452.75
395.454	455.75
395.678	457.75
395.903	456.75
396.127	462.75
396.352	506.75
396.576	471.75
396.801	460.75
397.025	462.75
397.249	458.75
397.474	469.75
397.698	478.75
397.922	503.75
398.147	470.75
398.371	498.75
398.595	511.75
398.82	473.75
399.044	504.75
399.268	514.75
399.492	566.75
399.717	584.75
399.941	593.75
400.165	626.75
400.389	629.75
400.613	543.75
400.837	514.75
401.062	501.75
401.286	510.75
401.51	514.75
401.734	526.75
401.958	532.75
402.182	521.75
402.406	525.75
402.63	537.75
402.854	507.75
403.078	527.75
403.302	523.75
403.526	523.75
403.75	533.75
403.974	523.75
404.198	512.75
404.422	528.75
404.645	529.75
404.869	501.75
405.093	549.75
405.317	573.75
405.541	572.75
405.765	554.75
405.988	536.75
406.212	565.75
406.436	567.75
406.66	583.75
406.883	571.75
407.107	600.75
407.331	616.75
407.555	692.75
407.778	692.75
408.002	628.75
408.226	577.75
408.449	585.75
408.673	573.75
408.896	610.75
409.12	607.75
409.344	609.75
409.567	562.75
409.791	544.75
410.014	524.75
410.238	523.75
410.461	507.75
410.685	525.75
410.908	557.75
411.132	573.75
411.355	598.75
411.578	551.75
411.802	542.75
412.025	517.75
412.249	520.75
412.472	513.75
412.695	515.75
412.919	537.75
413.142	503.75
413.365	529.75
413.589	490.75
413.812	498.75
414.035	478.75
414.258	484.75
414.482	497.75
414.705	488.75
414.928	499.75
415.151	482.75
415.374	513.75
415.597	497.75
415.821	505.75
416.044	524.75
416.267	494.75
416.49	519.75
416.713	499.75
416.936	496.75
417.159	487.75
417.382	475.75
417.605	475.75
417.828	502.75
418.051	506.75
418.274	494.75
418.497	502.75
418.72	493.75
418.943	476.75
419.166	535.75
419.389	521.75
419.611	531.75
419.834	525.75
420.057	503.75
420.28	481.75
420.503	515.75
420.726	512.75
420.948	514.75
421.171	549.75
421.394	580.75
421.617	561.75
421.839	505.75
422.062	526.75
422.285	548.75
422.507	570.75
422.73	633.75
422.953	633.75
423.175	562.75
423.398	548.75
423.621	521.75
423.843	540.75
424.066	552.75
424.288	567.75
424.511	563.75
424.733	637.75
424.956	691.75
425.178	644.75
425.401	618.75
425.623	709.75
425.846	583.75
426.068	568.75
426.291	528.75
426.513	542.75
426.735	552.75
426.958	593.75
427.18	671.75
427.402	769.75
427.625	884.75
427.847	739.75
428.069	627.75
428.292	580.75
428.514	512.75
428.736	519.75
428.958	515.75
429.181	524.75
429.403	526.75
429.625	516.75
429.847	532.75
430.069	599.75
430.292	601.75
430.514	535.75
430.736	509.75
430.958	498.75
431.18	487.75
431.402	475.75
431.624	497.75
431.846	478.75
432.068	456.75
432.29	480.75
432.512	479.75
432.734	504.75
432.956	464.75
433.178	499.75
433.4	500.75
433.622	497.75
433.844	468.75
434.066	512.75
434.287	486.75
434.509	498.75
434.731	515.75
434.953	522.75
435.175	513.75
435.397	542.75
435.618	537.75
435.84	596.75
436.062	677.75
436.284	751.75
436.505	594.75
436.727	556.75
436.949	522.75
437.17	508.75
437.392	518.75
437.614	516.75
437.835	545.75
438.057	628.75
438.278	721.75
438.5	732.75
438.721	822.75
438.943	794.75
439.165	636.75
439.386	564.75
439.608	564.75
439.829	538.75
440.05	578.75
440.272	602.75
440.493	575.75
440.715	554.75
440.936	532.75
441.158	518.75
441.379	521.75
441.6	521.75
441.822	542.75
442.043	593.75
442.264	651.75
442.486	692.75
442.707	595.75
442.928	555.75
443.149	585.75
443.371	573.75
443.592	633.75
443.813	728.75
444.034	782.75
444.255	628.75
444.476	555.75
444.698	568.75
444.919	552.75
445.14	639.75
445.361	618.75
445.582	616.75
445.803	633.75
446.024	750.75
446.245	766.75
446.466	684.75
446.687	598.75
446.908	547.75
447.129	536.75
447.35	504.75
447.571	509.75
447.792	506.75
448.013	488.75
448.234	534.75
448.455	573.75
448.675	686.75
448.896	794.75
449.117	687.75
449.338	646.75
449.559	739.75
449.779	822.75
450	681.75
450.221	571.75
450.442	521.75
450.662	488.75
450.883	488.75
451.104	500.75
451.324	483.75
451.545	464.75
451.766	475.75
451.986	457.75
452.207	466.75
452.428	443.75
452.648	457.75
452.869	452.75
453.089	473.75
453.31	463.75
453.53	450.75
453.751	455.75
453.971	442.75
454.192	464.75
454.412	465.75
454.633	460.75
454.853	446.75
455.073	466.75
455.294	482.75
455.514	560.75
455.734	535.75
455.955	446.75
456.175	448.75
456.395	447.75
456.616	403.75
456.836	443.75
457.056	459.75
457.276	439.75
457.497	451.75
457.717	440.75
457.937	440.75
458.157	445.75
458.377	446.75
458.598	496.75
458.818	518.75
459.038	609.75
459.258	624.75
459.478	529.75
459.698	475.75
459.918	483.75
460.138	478.75
460.358	496.75
460.578	486.75
460.798	510.75
461.018	487.75
461.238	494.75
461.458	504.75
461.678	507.75
461.898	504.75
462.118	506.75
462.338	491.75
462.558	503.75
462.777	524.75
462.997	523.75
463.217	560.75
463.437	566.75
463.657	536.75
463.876	539.75
464.096	547.75
464.316	538.75
464.536	553.75
464.755	522.75
464.975	537.75
465.195	554.75
465.414	630.75
465.634	568.75
465.854	530.75
466.073	522.75
466.293	482.75
466.512	485.75
466.732	452.75
466.951	462.75
467.171	484.75
467.391	476.75
467.61	476.75
467.829	502.75
468.049	482.75
468.268	483.75
468.488	468.75
468.707	449.75
468.927	473.75
469.146	438.75
469.365	478.75
469.585	475.75
469.804	473.75
470.023	471.75
470.243	494.75
470.462	498.75
470.681	508.75
470.901	514.75
471.12	471.75
471.339	470.75
471.558	454.75
471.777	487.75
471.997	480.75
472.216	479.75
472.435	470.75
472.654	450.75
472.873	460.75
473.092	470.75
473.311	486.75
473.53	482.75
473.749	468.75
473.968	513.75
474.187	610.75
474.406	627.75
474.625	547.75
474.844	496.75
475.063	474.75
475.282	489.75
475.501	483.75
475.72	500.75
475.939	497.75
476.158	501.75
476.377	493.75
476.596	490.75
476.814	490.75
477.033	500.75
477.252	524.75
477.471	519.75
477.69	503.75
477.908	507.75
478.127	520.75
478.346	533.75
478.564	535.75
478.783	554.75
479.002	544.75
479.22	562.75
479.439	570.75
479.658	574.75
479.876	562.75
480.095	587.75
480.313	588.75
480.532	597.75
480.751	584.75
480.969	596.75
481.188	574.75
481.406	583.75
481.624	575.75
481.843	563.75
482.061	556.75
482.28	557.75
482.498	572.75
482.717	565.75
482.935	572.75
483.153	555.75
483.372	574.75
483.59	548.75
483.808	564.75
484.027	566.75
484.245	555.75
484.463	555.75
484.681	582.75
484.9	583.75
485.118	580.75
485.336	586.75
485.554	594.75
485.772	578.75
485.99	585.75
486.209	591.75
486.427	584.75
486.645	588.75
486.863	614.75
487.081	602.75
487.299	606.75
487.517	603.75
487.735	590.75
487.953	585.75
488.171	584.75
488.389	606.75
488.607	639.75
488.825	602.75
489.043	607.75
489.261	599.75
489.479	621.75
489.696	598.75
489.914	620.75
490.132	617.75
490.35	624.75
490.568	662.75
490.786	629.75
491.003	639.75
491.221	649.75
491.439	640.75
491.657	689.75
491.874	667.75
492.092	667.75
492.31	659.75
492.527	658.75
492.745	667.75
492.963	658.75
493.18	681.75
493.398	696.75
493.615	695.75
493.833	688.75
494.05	674.75
494.268	683.75
494.485	677.75
494.703	700.75
494.92	698.75
495.138	681.75
495.355	688.75
495.573	706.75
495.79	691.75
496.008	721.75
496.225	731.75
496.442	714.75
496.66	701.75
496.877	716.75
497.094	710.75
497.312	714.75
497.529	724.75
497.746	736.75
497.963	741.75
498.181	792.75
498.398	794.75
498.615	804.75
498.832	826.75
499.049	832.75
499.267	872.75
499.484	888.75
499.701	898.75
499.918	928.75
500.135	982.75
500.352	1008.75
500.569	1006.75
500.786	1041.75
501.003	1032.75
501.22	980.75
501.437	964.75
501.654	904.75
501.871	929.75
502.088	892.75
502.305	859.75
502.522	796.75
502.739	800.75
502.956	783.75
503.172	743.75
503.389	746.75
503.606	755.75
503.823	766.75
504.04	727.75
504.256	736.75
504.473	729.75
504.69	697.75
504.907	729.75
505.123	733.75
505.34	697.75
505.557	688.75
505.773	670.75
505.99	664.75
506.207	683.75
506.423	675.75
506.64	675.75
506.856	695.75
507.073	680.75
507.289	675.75
507.506	681.75
507.722	665.75
507.939	669.75
508.155	640.75
508.372	647.75
508.588	640.75
508.805	630.75
509.021	642.75
509.238	642.75
509.454	664.75
509.67	644.75
509.887	637.75
510.103	643.75
510.319	656.75
510.536	709.75
510.752	1105.75
510.968	931.75
511.184	650.75
511.401	619.75
511.617	619.75
511.833	613.75
512.049	600.75
512.265	606.75
512.481	590.75
512.698	599.75
512.914	612.75
513.13	602.75
513.346	611.75
513.562	628.75
513.778	616.75
513.994	616.75
514.21	616.75
514.426	639.75
514.642	688.75
514.858	695.75
515.074	719.75
515.29	821.75
515.506	1141.75
515.721	978.75
515.937	725.75
516.153	676.75
516.369	628.75
516.585	634.75
516.801	629.75
517.016	677.75
517.232	641.75
517.448	647.75
517.664	649.75
517.879	626.75
518.095	642.75
518.311	657.75
518.527	638.75
518.742	646.75
518.958	622.75
519.173	618.75
519.389	613.75
519.605	597.75
519.82	614.75
520.036	623.75
520.251	627.75
520.467	660.75
520.682	653.75
520.898	666.75
521.113	662.75
521.329	701.75
521.544	780.75
521.76	909.75
521.975	1440.75
522.19	1458.75
522.406	867.75
522.621	675.75
522.836	603.75
523.052	585.75
523.267	605.75
523.482	583.75
523.698	565.75
523.913	554.75
524.128	566.75
524.343	550.75
524.559	548.75
524.774	542.75
524.989	527.75
525.204	534.75
525.419	545.75
525.634	536.75
525.849	547.75
526.064	534.75
526.28	514.75
526.495	519.75
526.71	522.75
526.925	525.75
527.14	539.75
527.355	506.75
527.57	508.75
527.785	504.75
527.999	503.75
528.214	528.75
528.429	506.75
528.644	501.75
528.859	498.75
529.074	514.75
529.289	529.75
529.503	592.75
529.718	577.75
529.933	529.75
530.148	520.75
530.363	530.75
530.577	497.75
530.792	521.75
531.007	527.75
531.221	489.75
531.436	502.75
531.651	522.75
531.865	499.75
532.08	498.75
532.295	487.75
532.509	508.75
532.724	478.75
532.938	487.75
533.153	503.75
533.367	504.75
533.582	494.75
533.796	499.75
534.011	477.75
534.225	480.75
534.44	472.75
534.654	486.75
534.868	498.75
535.083	467.75
535.297	471.75
535.511	485.75
535.726	504.75
535.94	490.75
536.154	459.75
536.369	466.75
536.583	483.75
536.797	472.75
537.011	462.75
537.225	467.75
537.44	470.75
537.654	481.75
537.868	466.75
538.082	473.75
538.296	484.75
538.51	483.75
538.724	481.75
538.938	454.75
539.153	486.75
539.367	470.75
539.581	470.75
539.795	461.75
540.009	471.75
540.222	459.75
540.436	460.75
540.65	460.75
540.864	470.75
541.078	468.75
541.292	473.75
541.506	483.75
541.72	476.75
541.934	474.75
542.147	468.75
542.361	442.75
542.575	460.75
542.789	467.75
543.002	472.75
543.216	472.75
543.43	449.75
543.644	476.75
543.857	454.75
544.071	448.75
544.285	473.75
544.498	446.75
544.712	442.75
544.925	458.75
545.139	455.75
545.352	459.75
545.566	464.75
545.779	442.75
545.993	448.75
546.206	460.75
546.42	448.75
546.633	456.75
546.847	464.75
547.06	450.75
547.274	447.75
547.487	472.75
547.7	461.75
547.914	437.75
548.127	450.75
548.34	438.75
548.554	438.75
548.767	459.75
548.98	464.75
549.193	442.75
549.407	451.75
549.62	440.75
549.833	450.75
550.046	455.75
550.259	454.75
550.473	457.75
550.686	457.75
550.899	435.75
551.112	447.75
551.325	444.75
551.538	458.75
551.751	431.75
551.964	442.75
552.177	430.75
552.39	452.75
552.603	453.75
552.816	452.75
553.029	451.75
553.242	440.75
553.455	474.75
553.667	439.75
553.88	475.75
554.093	431.75
554.306	453.75
554.519	441.75
554.732	454.75
554.944	443.75
555.157	427.75
555.37	420.75
555.583	417.75
555.795	401.75
556.008	433.75
556.221	420.75
556.433	409.75
556.646	407.75
556.859	397.75
557.071	411.75
557.284	399.75
557.496	418.75
557.709	427.75
557.921	413.75
558.134	391.75
558.346	402.75
558.559	419.75
558.771	397.75
558.984	414.75
559.196	402.75
559.409	391.75
559.621	417.75
559.833	408.75
560.046	385.75
560.258	411.75
560.47	396.75
560.683	412.75
560.895	396.75
561.107	404.75
561.32	382.75
561.532	404.75
561.744	400.75
561.956	376.75
562.168	390.75
562.381	386.75
562.593	434.75
562.805	400.75
563.017	409.75
563.229	392.75
563.441	415.75
563.653	405.75
563.865	412.75
564.077	411.75
564.289	401.75
564.501	401.75
564.713	423.75
564.925	423.75
565.137	434.75
565.349	438.75
565.561	428.75
565.773	442.75
565.985	458.75
566.197	452.75
566.408	482.75
566.62	458.75
566.832	483.75
567.044	490.75
567.255	483.75
567.467	496.75
567.679	507.75
567.891	512.75
568.102	508.75
568.314	494.75
568.526	499.75
568.737	484.75
568.949	478.75
569.161	464.75
569.372	414.75
569.584	417.75
569.795	419.75
570.007	415.75
570.218	464.75
570.43	429.75
570.641	414.75
570.853	381.75
571.064	386.75
571.276	400.75
571.487	376.75
571.698	382.75
571.91	380.75
572.121	378.75
572.333	359.75
572.544	367.75
572.755	371.75
572.966	367.75
573.178	367.75
573.389	359.75
573.6	348.75
573.811	376.75
574.023	370.75
574.234	347.75
574.445	348.75
574.656	350.75
574.867	354.75
575.078	343.75
575.289	345.75
575.501	341.75
575.712	337.75
575.923	354.75
576.134	348.75
576.345	338.75
576.556	333.75
576.767	313.75
576.978	330.75
577.188	315.75
577.399	321.75
577.61	328.75
577.821	328.75
578.032	333.75
578.243	370.75
578.454	514.75
578.665	413.75
578.875	337.75
579.086	308.75
579.297	312.75
579.508	329.75
579.718	327.75
579.929	329.75
580.14	335.75
580.35	312.75
580.561	317.75
580.772	332.75
580.982	324.75
581.193	304.75
581.403	303.75
581.614	322.75
581.825	321.75
582.035	324.75
582.246	320.75
582.456	330.75
582.667	331.75
582.877	319.75
583.087	307.75
583.298	324.75
583.508	308.75
583.719	304.75
583.929	311.75
584.139	296.75
584.35	318.75
584.56	308.75
584.77	299.75
584.981	329.75
585.191	309.75
585.401	296.75
585.611	310.75
585.821	319.75
586.032	293.75
586.242	295.75
586.452	297.75
586.662	310.75
586.872	300.75
587.082	319.75
587.292	298.75
587.502	294.75
587.713	316.75
587.923	286.75
588.133	300.75
588.343	293.75
588.553	314.75
588.762	321.75
588.972	316.75
589.182	342.75
589.392	311.75
589.602	299.75
589.812	309.75
590.022	296.75
590.232	274.75
590.441	315.75
590.651	298.75
590.861	296.75
591.071	314.75
591.281	302.75
591.49	299.75
591.7	306.75
591.91	312.75
592.119	304.75
592.329	309.75
592.539	307.75
592.748	318.75
592.958	321.75
593.167	320.75
593.377	314.75
593.587	331.75
593.796	316.75
594.006	326.75
594.215	320.75
594.424	301.75
594.634	331.75
594.843	314.75
595.053	309.75
595.262	309.75
595.472	303.75
595.681	306.75
595.89	297.75
596.1	288.75
596.309	287.75
596.518	289.75
596.727	289.75
596.937	284.75
597.146	298.75
597.355	277.75
597.564	282.75
597.774	289.75
597.983	266.75
598.192	279.75
598.401	276.75
598.61	269.75
598.819	274.75
599.028	270.75
599.237	272.75
599.446	261.75
599.655	272.75
599.864	267.75
600.073	266.75
600.282	271.75
600.491	246.75
600.7	252.75
600.909	264.75
601.118	263.75
601.327	263.75
601.536	240.75
601.745	251.75
601.953	266.75
602.162	275.75
602.371	258.75
602.58	277.75
602.789	256.75
602.997	270.75
603.206	246.75
603.415	259.75
603.623	250.75
603.832	219.75
604.041	239.75
604.249	259.75
604.458	245.75
604.666	235.75
604.875	269.75
605.084	249.75
605.292	251.75
605.501	247.75
605.709	229.75
605.918	249.75
606.126	230.75
606.334	244.75
606.543	252.75
606.751	255.75
606.96	240.75
607.168	251.75
607.376	254.75
607.585	250.75
607.793	231.75
608.001	248.75
608.21	247.75
608.418	230.75
608.626	258.75
608.834	235.75
609.043	239.75
609.251	246.75
609.459	244.75
609.667	247.75
609.875	252.75
610.083	251.75
610.291	247.75
610.499	241.75
610.707	232.75
610.916	246.75
611.124	247.75
611.332	248.75
611.54	245.75
611.748	248.75
611.955	234.75
612.163	251.75
612.371	243.75
612.579	232.75
612.787	218.75
612.995	243.75
613.203	231.75
613.411	239.75
613.618	241.75
613.826	230.75
614.034	254.75
614.242	227.75
614.449	246.75
614.657	233.75
614.865	254.75
615.072	241.75
615.28	228.75
615.488	221.75
615.695	250.75
615.903	225.75
616.111	224.75
616.318	240.75
616.526	231.75
616.733	244.75
616.941	238.75
617.148	240.75
617.356	235.75
617.563	246.75
617.771	246.75
617.978	259.75
618.185	226.75
618.393	211.75
618.6	214.75
618.807	220.75
619.015	203.75
619.222	225.75
619.429	216.75
619.637	238.75
619.844	226.75
620.051	210.75
620.258	238.75
620.466	228.75
620.673	219.75
620.88	209.75
621.087	226.75
621.294	213.75
621.501	217.75
621.708	228.75
621.915	226.75
622.122	215.75
622.329	231.75
622.536	230.75
622.743	226.75
622.95	217.75
623.157	202.75
623.364	220.75
623.571	223.75
623.778	217.75
623.985	210.75
624.192	216.75
624.399	216.75
624.606	228.75
624.812	216.75
625.019	208.75
625.226	218.75
625.433	213.75
625.639	199.75
625.846	204.75
626.053	203.75
626.259	224.75
626.466	210.75
626.673	215.75
626.879	212.75
627.086	201.75
627.293	187.75
627.499	218.75
627.706	202.75
627.912	200.75
628.119	211.75
628.325	217.75
628.532	191.75
628.738	196.75
628.945	190.75
629.151	194.75
629.357	189.75
629.564	175.75
629.77	202.75
629.976	200.75
630.183	192.75
630.389	188.75
630.595	182.75
630.802	195.75
631.008	200.75
631.214	199.75
631.42	180.75
631.627	196.75
631.833	196.75
632.039	188.75
632.245	185.75
632.451	195.75
632.657	187.75
632.863	193.75
633.069	184.75
633.275	192.75
633.481	190.75
633.688	180.75
633.893	196.75
634.099	177.75
634.305	178.75
634.511	189.75
634.717	180.75
634.923	176.75
635.129	190.75
635.335	200.75
635.541	169.75
635.747	190.75
635.952	166.75
636.158	189.75
636.364	177.75
636.57	183.75
636.775	174.75
636.981	180.75
637.187	170.75
637.392	166.75
637.598	180.75
637.804	182.75
638.009	176.75
638.215	194.75
638.421	185.75
638.626	179.75
638.832	170.75
639.037	184.75
639.243	160.75
639.448	182.75
639.654	174.75
639.859	156.75
640.065	186.75
640.27	172.75
640.475	172.75
640.681	179.75
640.886	162.75
641.091	167.75
641.297	175.75
641.502	168.75
641.707	171.75
641.913	159.75
642.118	156.75
642.323	169.75
642.528	179.75
642.733	176.75
642.939	178.75
643.144	168.75
643.349	167.75
643.554	163.75
643.759	180.75
643.964	176.75
644.169	157.75
644.374	179.75
644.579	154.75
644.784	157.75
644.989	166.75
645.194	154.75
645.399	176.75
645.604	173.75
645.809	174.75
646.014	155.75
646.219	182.75
646.423	179.75
646.628	168.75
646.833	164.75
647.038	162.75
647.243	178.75
647.447	167.75
647.652	172.75
647.857	164.75
648.062	164.75
648.266	155.75
648.471	174.75
648.676	172.75
648.88	174.75
649.085	152.75
649.289	163.75
649.494	156.75
649.698	181.75
649.903	175.75
650.107	168.75
650.312	163.75
650.516	161.75
650.721	159.75
650.925	167.75
651.13	156.75
651.334	163.75
651.539	155.75
651.743	159.75
651.947	149.75
652.152	146.75
652.356	147.75
652.56	139.75
652.764	141.75
652.969	144.75
653.173	143.75
653.377	137.75
653.581	142.75
653.785	123.75
653.99	127.75
654.194	147.75
654.398	150.75
654.602	140.75
654.806	134.75
655.01	147.75
655.214	138.75
655.418	118.75
655.622	136.75
655.826	133.75
656.03	127.75
656.234	130.75
656.438	135.75
656.642	136.75
656.846	136.75
657.049	129.75
657.253	119.75
657.457	136.75
657.661	130.75
657.865	124.75
658.068	115.75
658.272	103.75
658.476	106.75
658.68	103.75
658.883	103.75
659.087	104.75
659.291	98.75
659.494	92.75
659.698	91.75
659.901	84.75
660.105	112.75
660.309	105.75
660.512	91.75
660.716	102.75
660.919	87.75
661.123	88.75
661.326	82.75
661.53	93.75
661.733	96.75
661.936	91.75
662.14	89.75
662.343	80.75
662.546	74.75
662.75	75.75
662.953	79.75
663.156	75.75
663.36	72.75
663.563	86.75
663.766	77.75
663.969	74.75
664.173	70.75
664.376	81.75
664.579	88.75
664.782	85.75
664.985	82.75
665.188	82.75
665.391	75.75
665.594	84.75
665.797	71.75
666	97.75
666.203	86.75
666.406	82.75
666.609	70.75
666.812	78.75
667.015	67.75
667.218	94.75
667.421	75.75
667.624	68.75
667.827	74.75
668.03	74.75
668.232	87.75
668.435	91.75
668.638	81.75
668.841	74.75
669.043	63.75
669.246	90.75
669.449	66.75
669.651	87.75
669.854	70.75
670.057	85.75
670.259	82.75
670.462	69.75
670.665	79.75
670.867	98.75
671.07	86.75
671.272	86.75
671.475	66.75
671.677	75.75
671.88	78.75
672.082	67.75
672.284	89.75
672.487	73.75
672.689	84.75
672.892	90.75
