Data from 1988.PennyLincolnUp.Lamp.En5.5.200Scan.071819.P2_HRD10591_17-21-29-972.txt Node
Date: Thu Jul 18 17:21:29 EDT 2019
User: cochatt
Spectrometer: HR+D1059
Trigger mode: 1
Integration Time (sec): 1.000000E-1
Scans to average: 1
Electric dark correction enabled: true
Nonlinearity correction enabled: false
Boxcar width: 0
XAxis mode: Wavelengths
Number of Pixels in Spectrum: 2048
>>>>>Begin Spectral Data<<<<<
223.165	-23.94
223.4	-23.94
223.635	-23.94
223.869	-25.94
224.104	-23.94
224.338	-14.94
224.573	-9.94
224.808	-6.94
225.042	0.06
225.277	-4.94
225.511	2.06
225.746	-10.94
225.98	6.06
226.215	9.06
226.449	10.06
226.683	16.06
226.918	38.06
227.152	40.06
227.387	38.06
227.621	34.06
227.856	31.06
228.09	34.06
228.324	35.06
228.559	51.06
228.793	65.06
229.027	98.06
229.262	116.06
229.496	114.06
229.73	130.06
229.964	167.06
230.199	151.06
230.433	112.06
230.667	105.06
230.901	123.06
231.136	125.06
231.37	118.06
231.604	119.06
231.838	115.06
232.072	112.06
232.306	123.06
232.541	100.06
232.775	108.06
233.009	117.06
233.243	123.06
233.477	122.06
233.711	128.06
233.945	118.06
234.179	128.06
234.413	106.06
234.647	126.06
234.881	119.06
235.115	123.06
235.349	116.06
235.583	124.06
235.817	130.06
236.051	124.06
236.285	136.06
236.519	131.06
236.753	156.06
236.987	156.06
237.221	198.06
237.455	278.06
237.689	201.06
237.922	153.06
238.156	147.06
238.39	141.06
238.624	138.06
238.858	130.06
239.091	124.06
239.325	127.06
239.559	125.06
239.793	147.06
240.027	134.06
240.26	158.06
240.494	167.06
240.728	170.06
240.961	176.06
241.195	144.06
241.429	161.06
241.662	148.06
241.896	158.06
242.13	135.06
242.363	124.06
242.597	136.06
242.83	157.06
243.064	150.06
243.298	149.06
243.531	141.06
243.765	146.06
243.998	148.06
244.232	154.06
244.465	137.06
244.699	160.06
244.932	168.06
245.166	143.06
245.399	145.06
245.633	145.06
245.866	167.06
246.099	152.06
246.333	151.06
246.566	170.06
246.8	156.06
247.033	150.06
247.266	171.06
247.5	182.06
247.733	171.06
247.966	163.06
248.2	177.06
248.433	190.06
248.666	193.06
248.899	193.06
249.133	210.06
249.366	219.06
249.599	208.06
249.832	202.06
250.066	192.06
250.299	203.06
250.532	175.06
250.765	213.06
250.998	248.06
251.231	246.06
251.465	225.06
251.698	228.06
251.931	177.06
252.164	222.06
252.397	231.06
252.63	214.06
252.863	226.06
253.096	238.06
253.329	247.06
253.562	243.06
253.795	239.06
254.028	223.06
254.261	229.06
254.494	247.06
254.727	271.06
254.96	315.06
255.193	306.06
255.426	280.06
255.659	247.06
255.892	231.06
256.124	226.06
256.357	239.06
256.59	219.06
256.823	215.06
257.056	227.06
257.289	219.06
257.521	231.06
257.754	232.06
257.987	234.06
258.22	220.06
258.452	226.06
258.685	239.06
258.918	200.06
259.151	231.06
259.383	239.06
259.616	238.06
259.849	246.06
260.081	232.06
260.314	272.06
260.547	279.06
260.779	279.06
261.012	241.06
261.244	236.06
261.477	242.06
261.71	242.06
261.942	241.06
262.175	256.06
262.407	270.06
262.64	231.06
262.872	234.06
263.105	224.06
263.337	245.06
263.57	235.06
263.802	246.06
264.035	228.06
264.267	229.06
264.499	236.06
264.732	238.06
264.964	235.06
265.197	208.06
265.429	234.06
265.661	242.06
265.894	223.06
266.126	230.06
266.358	241.06
266.591	240.06
266.823	233.06
267.055	257.06
267.287	234.06
267.52	257.06
267.752	247.06
267.984	240.06
268.216	260.06
268.448	252.06
268.681	249.06
268.913	265.06
269.145	287.06
269.377	292.06
269.609	299.06
269.841	317.06
270.073	298.06
270.306	320.06
270.538	344.06
270.77	332.06
271.002	337.06
271.234	302.06
271.466	326.06
271.698	344.06
271.93	334.06
272.162	333.06
272.394	332.06
272.626	331.06
272.858	307.06
273.09	309.06
273.322	285.06
273.553	298.06
273.785	292.06
274.017	282.06
274.249	291.06
274.481	270.06
274.713	289.06
274.945	276.06
275.176	295.06
275.408	302.06
275.64	280.06
275.872	281.06
276.104	287.06
276.335	295.06
276.567	303.06
276.799	306.06
277.031	325.06
277.262	332.06
277.494	345.06
277.726	340.06
277.957	336.06
278.189	318.06
278.421	287.06
278.652	297.06
278.884	291.06
279.115	276.06
279.347	299.06
279.579	288.06
279.81	297.06
280.042	295.06
280.273	316.06
280.505	307.06
280.736	291.06
280.968	281.06
281.199	279.06
281.431	316.06
281.662	309.06
281.894	297.06
282.125	305.06
282.356	316.06
282.588	331.06
282.819	354.06
283.051	319.06
283.282	306.06
283.513	287.06
283.745	308.06
283.976	304.06
284.207	335.06
284.439	316.06
284.67	323.06
284.901	310.06
285.132	300.06
285.364	303.06
285.595	296.06
285.826	319.06
286.057	315.06
286.288	309.06
286.52	293.06
286.751	311.06
286.982	322.06
287.213	332.06
287.444	342.06
287.675	310.06
287.906	313.06
288.138	337.06
288.369	327.06
288.6	341.06
288.831	329.06
289.062	341.06
289.293	333.06
289.524	326.06
289.755	323.06
289.986	321.06
290.217	317.06
290.448	332.06
290.679	316.06
290.91	323.06
291.141	322.06
291.371	320.06
291.602	294.06
291.833	304.06
292.064	309.06
292.295	314.06
292.526	321.06
292.757	311.06
292.987	315.06
293.218	299.06
293.449	324.06
293.68	324.06
293.91	328.06
294.141	318.06
294.372	326.06
294.603	324.06
294.833	316.06
295.064	336.06
295.295	340.06
295.525	349.06
295.756	342.06
295.987	350.06
296.217	367.06
296.448	370.06
296.679	343.06
296.909	326.06
297.14	321.06
297.37	323.06
297.601	324.06
297.831	326.06
298.062	335.06
298.292	324.06
298.523	341.06
298.753	350.06
298.984	352.06
299.214	350.06
299.445	352.06
299.675	349.06
299.905	358.06
300.136	347.06
300.366	348.06
300.597	367.06
300.827	357.06
301.057	362.06
301.288	361.06
301.518	372.06
301.748	353.06
301.979	368.06
302.209	354.06
302.439	340.06
302.669	382.06
302.9	346.06
303.13	375.06
303.36	366.06
303.59	378.06
303.82	383.06
304.051	382.06
304.281	375.06
304.511	359.06
304.741	364.06
304.971	353.06
305.201	388.06
305.431	352.06
305.661	374.06
305.891	371.06
306.121	371.06
306.352	375.06
306.582	387.06
306.812	359.06
307.042	374.06
307.272	368.06
307.502	364.06
307.731	387.06
307.961	380.06
308.191	373.06
308.421	381.06
308.651	373.06
308.881	388.06
309.111	388.06
309.341	393.06
309.571	399.06
309.8	398.06
310.03	427.06
310.26	413.06
310.49	418.06
310.72	413.06
310.949	436.06
311.179	450.06
311.409	429.06
311.639	431.06
311.868	415.06
312.098	443.06
312.328	446.06
312.557	453.06
312.787	484.06
313.017	474.06
313.246	443.06
313.476	422.06
313.706	436.06
313.935	432.06
314.165	444.06
314.394	450.06
314.624	470.06
314.853	458.06
315.083	434.06
315.312	431.06
315.542	420.06
315.771	452.06
316.001	414.06
316.23	423.06
316.46	418.06
316.689	438.06
316.919	441.06
317.148	432.06
317.377	435.06
317.607	428.06
317.836	446.06
318.065	434.06
318.295	430.06
318.524	424.06
318.753	412.06
318.983	423.06
319.212	422.06
319.441	449.06
319.67	437.06
319.9	439.06
320.129	420.06
320.358	440.06
320.587	454.06
320.816	456.06
321.046	478.06
321.275	477.06
321.504	483.06
321.733	454.06
321.962	461.06
322.191	487.06
322.42	502.06
322.649	518.06
322.878	525.06
323.108	535.06
323.337	564.06
323.566	588.06
323.795	653.06
324.024	651.06
324.253	803.06
324.482	1192.06
324.71	1886.06
324.939	2866.06
325.168	2386.06
325.397	1189.06
325.626	812.06
325.855	654.06
326.084	603.06
326.313	599.06
326.542	604.06
326.77	634.06
326.999	772.06
327.228	1063.06
327.457	1678.06
327.686	2170.06
327.914	1353.06
328.143	870.06
328.372	742.06
328.6	690.06
328.829	648.06
329.058	660.06
329.287	692.06
329.515	635.06
329.744	605.06
329.972	576.06
330.201	579.06
330.43	619.06
330.658	643.06
330.887	726.06
331.115	693.06
331.344	636.06
331.572	568.06
331.801	572.06
332.03	563.06
332.258	551.06
332.486	548.06
332.715	527.06
332.943	517.06
333.172	534.06
333.4	511.06
333.629	541.06
333.857	575.06
334.085	543.06
334.314	552.06
334.542	547.06
334.771	568.06
334.999	548.06
335.227	535.06
335.455	538.06
335.684	523.06
335.912	523.06
336.14	517.06
336.369	529.06
336.597	525.06
336.825	521.06
337.053	527.06
337.281	518.06
337.51	502.06
337.738	524.06
337.966	490.06
338.194	537.06
338.422	515.06
338.65	497.06
338.878	484.06
339.106	496.06
339.334	502.06
339.562	524.06
339.79	490.06
340.018	480.06
340.246	499.06
340.474	505.06
340.702	487.06
340.93	496.06
341.158	490.06
341.386	510.06
341.614	523.06
341.842	502.06
342.07	507.06
342.298	494.06
342.526	492.06
342.754	483.06
342.981	472.06
343.209	498.06
343.437	479.06
343.665	485.06
343.893	514.06
344.12	533.06
344.348	510.06
344.576	483.06
344.804	510.06
345.031	504.06
345.259	522.06
345.487	504.06
345.714	485.06
345.942	474.06
346.17	498.06
346.397	492.06
346.625	487.06
346.853	478.06
347.08	493.06
347.308	498.06
347.535	498.06
347.763	533.06
347.99	500.06
348.218	492.06
348.445	506.06
348.673	489.06
348.9	481.06
349.128	490.06
349.355	494.06
349.583	450.06
349.81	477.06
350.037	485.06
350.265	462.06
350.492	491.06
350.72	481.06
350.947	470.06
351.174	473.06
351.402	511.06
351.629	497.06
351.856	479.06
352.083	512.06
352.311	517.06
352.538	533.06
352.765	499.06
352.992	499.06
353.22	490.06
353.447	505.06
353.674	472.06
353.901	464.06
354.128	459.06
354.355	439.06
354.583	468.06
354.81	454.06
355.037	458.06
355.264	460.06
355.491	461.06
355.718	443.06
355.945	451.06
356.172	446.06
356.399	445.06
356.626	440.06
356.853	460.06
357.08	468.06
357.307	473.06
357.534	444.06
357.761	446.06
357.988	457.06
358.215	455.06
358.441	456.06
358.668	453.06
358.895	454.06
359.122	465.06
359.349	464.06
359.576	481.06
359.802	510.06
360.029	531.06
360.256	546.06
360.483	544.06
360.709	503.06
360.936	495.06
361.163	476.06
361.39	498.06
361.616	508.06
361.843	486.06
362.07	494.06
362.296	496.06
362.523	474.06
362.749	472.06
362.976	480.06
363.203	476.06
363.429	462.06
363.656	472.06
363.882	468.06
364.109	472.06
364.335	483.06
364.562	478.06
364.788	460.06
365.015	472.06
365.241	486.06
365.468	464.06
365.694	457.06
365.92	462.06
366.147	477.06
366.373	474.06
366.599	452.06
366.826	473.06
367.052	454.06
367.278	462.06
367.505	459.06
367.731	470.06
367.957	468.06
368.184	486.06
368.41	483.06
368.636	487.06
368.862	495.06
369.089	487.06
369.315	459.06
369.541	443.06
369.767	464.06
369.993	461.06
370.219	468.06
370.445	474.06
370.672	465.06
370.898	464.06
371.124	478.06
371.35	498.06
371.576	472.06
371.802	471.06
372.028	457.06
372.254	460.06
372.48	456.06
372.706	486.06
372.932	459.06
373.158	470.06
373.384	486.06
373.61	478.06
373.835	471.06
374.061	479.06
374.287	472.06
374.513	484.06
374.739	495.06
374.965	494.06
375.191	474.06
375.416	485.06
375.642	469.06
375.868	467.06
376.094	459.06
376.319	488.06
376.545	486.06
376.771	460.06
376.997	472.06
377.222	470.06
377.448	444.06
377.674	460.06
377.899	432.06
378.125	454.06
378.35	468.06
378.576	482.06
378.802	471.06
379.027	468.06
379.253	480.06
379.478	463.06
379.704	473.06
379.929	478.06
380.155	462.06
380.38	466.06
380.606	485.06
380.831	478.06
381.057	473.06
381.282	470.06
381.507	479.06
381.733	468.06
381.958	483.06
382.184	488.06
382.409	476.06
382.634	479.06
382.86	490.06
383.085	494.06
383.31	485.06
383.535	499.06
383.761	493.06
383.986	502.06
384.211	494.06
384.436	499.06
384.662	482.06
384.887	506.06
385.112	506.06
385.337	477.06
385.562	502.06
385.787	520.06
386.013	526.06
386.238	532.06
386.463	555.06
386.688	521.06
386.913	519.06
387.138	517.06
387.363	510.06
387.588	523.06
387.813	518.06
388.038	516.06
388.263	537.06
388.488	545.06
388.713	533.06
388.938	530.06
389.163	524.06
389.387	547.06
389.612	525.06
389.837	567.06
390.062	531.06
390.287	520.06
390.512	507.06
390.736	510.06
390.961	523.06
391.186	540.06
391.411	541.06
391.636	534.06
391.86	534.06
392.085	534.06
392.31	550.06
392.534	553.06
392.759	534.06
392.984	544.06
393.208	524.06
393.433	521.06
393.658	525.06
393.882	537.06
394.107	520.06
394.331	518.06
394.556	539.06
394.78	538.06
395.005	534.06
395.229	552.06
395.454	549.06
395.678	539.06
395.903	562.06
396.127	603.06
396.352	597.06
396.576	573.06
396.801	545.06
397.025	558.06
397.249	546.06
397.474	576.06
397.698	562.06
397.922	593.06
398.147	583.06
398.371	636.06
398.595	598.06
398.82	611.06
399.044	618.06
399.268	642.06
399.492	660.06
399.717	693.06
399.941	728.06
400.165	738.06
400.389	785.06
400.613	716.06
400.837	646.06
401.062	636.06
401.286	616.06
401.51	616.06
401.734	594.06
401.958	608.06
402.182	613.06
402.406	630.06
402.63	613.06
402.854	608.06
403.078	619.06
403.302	622.06
403.526	616.06
403.75	662.06
403.974	616.06
404.198	610.06
404.422	645.06
404.645	643.06
404.869	645.06
405.093	665.06
405.317	715.06
405.541	751.06
405.765	697.06
405.988	666.06
406.212	667.06
406.436	691.06
406.66	699.06
406.883	704.06
407.107	731.06
407.331	762.06
407.555	860.06
407.778	847.06
408.002	782.06
408.226	707.06
408.449	714.06
408.673	724.06
408.896	720.06
409.12	791.06
409.344	725.06
409.567	682.06
409.791	663.06
410.014	649.06
410.238	654.06
410.461	638.06
410.685	670.06
410.908	675.06
411.132	715.06
411.355	751.06
411.578	731.06
411.802	664.06
412.025	656.06
412.249	650.06
412.472	683.06
412.695	681.06
412.919	667.06
413.142	640.06
413.365	633.06
413.589	626.06
413.812	602.06
414.035	587.06
414.258	578.06
414.482	608.06
414.705	627.06
414.928	590.06
415.151	605.06
415.374	600.06
415.597	601.06
415.821	587.06
416.044	600.06
416.267	628.06
416.49	608.06
416.713	624.06
416.936	599.06
417.159	588.06
417.382	605.06
417.605	600.06
417.828	607.06
418.051	646.06
418.274	620.06
418.497	590.06
418.72	574.06
418.943	610.06
419.166	624.06
419.389	650.06
419.611	641.06
419.834	635.06
420.057	621.06
420.28	638.06
420.503	616.06
420.726	604.06
420.948	645.06
421.171	684.06
421.394	720.06
421.617	682.06
421.839	641.06
422.062	640.06
422.285	660.06
422.507	701.06
422.73	792.06
422.953	772.06
423.175	698.06
423.398	659.06
423.621	667.06
423.843	692.06
424.066	682.06
424.288	684.06
424.511	686.06
424.733	756.06
424.956	866.06
425.178	836.06
425.401	840.06
425.623	829.06
425.846	722.06
426.068	697.06
426.291	686.06
426.513	682.06
426.735	670.06
426.958	734.06
427.18	855.06
427.402	1050.06
427.625	1114.06
427.847	974.06
428.069	865.06
428.292	748.06
428.514	673.06
428.736	676.06
428.958	639.06
429.181	614.06
429.403	627.06
429.625	665.06
429.847	671.06
430.069	763.06
430.292	757.06
430.514	643.06
430.736	645.06
430.958	618.06
431.18	611.06
431.402	594.06
431.624	565.06
431.846	593.06
432.068	587.06
432.29	595.06
432.512	588.06
432.734	613.06
432.956	618.06
433.178	614.06
433.4	604.06
433.622	597.06
433.844	611.06
434.066	585.06
434.287	606.06
434.509	604.06
434.731	612.06
434.953	625.06
435.175	644.06
435.397	690.06
435.618	683.06
435.84	743.06
436.062	860.06
436.284	945.06
436.505	767.06
436.727	709.06
436.949	638.06
437.17	659.06
437.392	626.06
437.614	651.06
437.835	711.06
438.057	807.06
438.278	942.06
438.5	922.06
438.721	1019.06
438.943	987.06
439.165	780.06
439.386	699.06
439.608	680.06
439.829	702.06
440.05	730.06
440.272	779.06
440.493	778.06
440.715	656.06
440.936	656.06
441.158	628.06
441.379	632.06
441.6	651.06
441.822	683.06
442.043	730.06
442.264	851.06
442.486	871.06
442.707	742.06
442.928	705.06
443.149	718.06
443.371	754.06
443.592	795.06
443.813	909.06
444.034	976.06
444.255	802.06
444.476	707.06
444.698	696.06
444.919	703.06
445.14	771.06
445.361	732.06
445.582	715.06
445.803	809.06
446.024	953.06
446.245	955.06
446.466	865.06
446.687	746.06
446.908	678.06
447.129	640.06
447.35	644.06
447.571	630.06
447.792	625.06
448.013	636.06
448.234	640.06
448.455	710.06
448.675	873.06
448.896	1038.06
449.117	858.06
449.338	808.06
449.559	934.06
449.779	1041.06
450	830.06
450.221	706.06
450.442	638.06
450.662	632.06
450.883	619.06
451.104	652.06
451.324	623.06
451.545	612.06
451.766	594.06
451.986	575.06
452.207	566.06
452.428	550.06
452.648	568.06
452.869	589.06
453.089	576.06
453.31	572.06
453.53	564.06
453.751	582.06
453.971	568.06
454.192	595.06
454.412	568.06
454.633	547.06
454.853	556.06
455.073	574.06
455.294	592.06
455.514	666.06
455.734	661.06
455.955	574.06
456.175	553.06
456.395	552.06
456.616	520.06
456.836	516.06
457.056	513.06
457.276	514.06
457.497	542.06
457.717	523.06
457.937	532.06
458.157	571.06
458.377	571.06
458.598	583.06
458.818	630.06
459.038	738.06
459.258	788.06
459.478	634.06
459.698	628.06
459.918	616.06
460.138	602.06
460.358	590.06
460.578	594.06
460.798	593.06
461.018	638.06
461.238	609.06
461.458	588.06
461.678	597.06
461.898	630.06
462.118	616.06
462.338	622.06
462.558	615.06
462.777	646.06
462.997	662.06
463.217	649.06
463.437	677.06
463.657	656.06
463.876	656.06
464.096	681.06
464.316	661.06
464.536	651.06
464.755	657.06
464.975	650.06
465.195	723.06
465.414	762.06
465.634	728.06
465.854	654.06
466.073	624.06
466.293	580.06
466.512	597.06
466.732	602.06
466.951	592.06
467.171	582.06
467.391	592.06
467.61	596.06
467.829	576.06
468.049	595.06
468.268	590.06
468.488	579.06
468.707	558.06
468.927	558.06
469.146	564.06
469.365	574.06
469.585	557.06
469.804	561.06
470.023	600.06
470.243	589.06
470.462	577.06
470.681	625.06
470.901	613.06
471.12	594.06
471.339	584.06
471.558	588.06
471.777	582.06
471.997	587.06
472.216	606.06
472.435	586.06
472.654	597.06
472.873	590.06
473.092	592.06
473.311	570.06
473.53	580.06
473.749	585.06
473.968	623.06
474.187	735.06
474.406	821.06
474.625	689.06
474.844	603.06
475.063	598.06
475.282	575.06
475.501	578.06
475.72	614.06
475.939	599.06
476.158	588.06
476.377	590.06
476.596	603.06
476.814	611.06
477.033	618.06
477.252	633.06
477.471	626.06
477.69	617.06
477.908	634.06
478.127	631.06
478.346	608.06
478.564	650.06
478.783	676.06
479.002	689.06
479.22	670.06
479.439	673.06
479.658	712.06
479.876	729.06
480.095	719.06
480.313	754.06
480.532	730.06
480.751	727.06
480.969	735.06
481.188	766.06
481.406	741.06
481.624	711.06
481.843	703.06
482.061	698.06
482.28	682.06
482.498	704.06
482.717	671.06
482.935	714.06
483.153	706.06
483.372	684.06
483.59	672.06
483.808	686.06
484.027	676.06
484.245	704.06
484.463	698.06
484.681	698.06
484.9	695.06
485.118	712.06
485.336	687.06
485.554	727.06
485.772	709.06
485.99	716.06
486.209	716.06
486.427	735.06
486.645	754.06
486.863	746.06
487.081	777.06
487.299	740.06
487.517	742.06
487.735	709.06
487.953	718.06
488.171	746.06
488.389	728.06
488.607	745.06
488.825	767.06
489.043	753.06
489.261	750.06
489.479	756.06
489.696	765.06
489.914	752.06
490.132	762.06
490.35	759.06
490.568	783.06
490.786	803.06
491.003	801.06
491.221	818.06
491.439	810.06
491.657	819.06
491.874	839.06
492.092	826.06
492.31	841.06
492.527	832.06
492.745	848.06
492.963	865.06
493.18	867.06
493.398	858.06
493.615	880.06
493.833	887.06
494.05	870.06
494.268	882.06
494.485	878.06
494.703	895.06
494.92	872.06
495.138	881.06
495.355	900.06
495.573	891.06
495.79	873.06
496.008	909.06
496.225	890.06
496.442	916.06
496.66	882.06
496.877	885.06
497.094	884.06
497.312	918.06
497.529	925.06
497.746	919.06
497.963	934.06
498.181	972.06
498.398	978.06
498.615	996.06
498.832	1014.06
499.049	1052.06
499.267	1037.06
499.484	1092.06
499.701	1135.06
499.918	1148.06
500.135	1224.06
500.352	1256.06
500.569	1241.06
500.786	1262.06
501.003	1246.06
501.22	1216.06
501.437	1207.06
501.654	1163.06
501.871	1132.06
502.088	1092.06
502.305	1087.06
502.522	1041.06
502.739	1000.06
502.956	1003.06
503.172	986.06
503.389	957.06
503.606	921.06
503.823	948.06
504.04	929.06
504.256	904.06
504.473	889.06
504.69	884.06
504.907	907.06
505.123	891.06
505.34	890.06
505.557	881.06
505.773	859.06
505.99	873.06
506.207	840.06
506.423	844.06
506.64	814.06
506.856	850.06
507.073	821.06
507.289	835.06
507.506	852.06
507.722	832.06
507.939	884.06
508.155	851.06
508.372	821.06
508.588	825.06
508.805	825.06
509.021	819.06
509.238	813.06
509.454	827.06
509.67	813.06
509.887	807.06
510.103	805.06
510.319	809.06
510.536	920.06
510.752	1470.06
510.968	1244.06
511.184	830.06
511.401	798.06
511.617	743.06
511.833	767.06
512.049	749.06
512.265	779.06
512.481	751.06
512.698	750.06
512.914	778.06
513.13	782.06
513.346	747.06
513.562	770.06
513.778	778.06
513.994	766.06
514.21	790.06
514.426	821.06
514.642	848.06
514.858	903.06
515.074	930.06
515.29	1119.06
515.506	1590.06
515.721	1314.06
515.937	919.06
516.153	878.06
516.369	812.06
516.585	804.06
516.801	806.06
517.016	841.06
517.232	803.06
517.448	792.06
517.664	812.06
517.879	819.06
518.095	820.06
518.311	795.06
518.527	802.06
518.742	774.06
518.958	802.06
519.173	769.06
519.389	789.06
519.605	752.06
519.82	799.06
520.036	797.06
520.251	824.06
520.467	846.06
520.682	845.06
520.898	844.06
521.113	871.06
521.329	916.06
521.544	1027.06
521.76	1258.06
521.975	1984.06
522.19	2016.06
522.406	1174.06
522.621	891.06
522.836	803.06
523.052	769.06
523.267	769.06
523.482	743.06
523.698	714.06
523.913	684.06
524.128	682.06
524.343	694.06
524.559	684.06
524.774	666.06
524.989	652.06
525.204	662.06
525.419	700.06
525.634	662.06
525.849	662.06
526.064	656.06
526.28	630.06
526.495	637.06
526.71	626.06
526.925	649.06
527.14	612.06
527.355	640.06
527.57	638.06
527.785	644.06
527.999	621.06
528.214	619.06
528.429	609.06
528.644	642.06
528.859	608.06
529.074	617.06
529.289	640.06
529.503	743.06
529.718	746.06
529.933	690.06
530.148	648.06
530.363	627.06
530.577	624.06
530.792	640.06
531.007	627.06
531.221	605.06
531.436	605.06
531.651	588.06
531.865	620.06
532.08	620.06
532.295	598.06
532.509	608.06
532.724	595.06
532.938	618.06
533.153	602.06
533.367	598.06
533.582	591.06
533.796	572.06
534.011	584.06
534.225	593.06
534.44	595.06
534.654	584.06
534.868	568.06
535.083	555.06
535.297	589.06
535.511	611.06
535.726	607.06
535.94	569.06
536.154	601.06
536.369	586.06
536.583	591.06
536.797	566.06
537.011	586.06
537.225	566.06
537.44	544.06
537.654	568.06
537.868	574.06
538.082	576.06
538.296	577.06
538.51	559.06
538.724	566.06
538.938	572.06
539.153	576.06
539.367	584.06
539.581	614.06
539.795	572.06
540.009	556.06
540.222	565.06
540.436	583.06
540.65	551.06
540.864	594.06
541.078	572.06
541.292	571.06
541.506	583.06
541.72	568.06
541.934	571.06
542.147	573.06
542.361	546.06
542.575	554.06
542.789	564.06
543.002	551.06
543.216	559.06
543.43	562.06
543.644	571.06
543.857	562.06
544.071	567.06
544.285	572.06
544.498	556.06
544.712	576.06
544.925	540.06
545.139	566.06
545.352	552.06
545.566	558.06
545.779	546.06
545.993	553.06
546.206	551.06
546.42	563.06
546.633	549.06
546.847	531.06
547.06	530.06
547.274	529.06
547.487	550.06
547.7	538.06
547.914	542.06
548.127	530.06
548.34	571.06
548.554	539.06
548.767	554.06
548.98	561.06
549.193	555.06
549.407	540.06
549.62	562.06
549.833	524.06
550.046	530.06
550.259	520.06
550.473	518.06
550.686	523.06
550.899	550.06
551.112	542.06
551.325	519.06
551.538	528.06
551.751	529.06
551.964	514.06
552.177	548.06
552.39	521.06
552.603	563.06
552.816	545.06
553.029	537.06
553.242	554.06
553.455	541.06
553.667	564.06
553.88	570.06
554.093	571.06
554.306	564.06
554.519	564.06
554.732	539.06
554.944	528.06
555.157	513.06
555.37	518.06
555.583	504.06
555.795	521.06
556.008	507.06
556.221	533.06
556.433	490.06
556.646	505.06
556.859	507.06
557.071	487.06
557.284	488.06
557.496	492.06
557.709	487.06
557.921	482.06
558.134	463.06
558.346	486.06
558.559	458.06
558.771	483.06
558.984	485.06
559.196	488.06
559.409	506.06
559.621	466.06
559.833	459.06
560.046	447.06
560.258	460.06
560.47	480.06
560.683	495.06
560.895	479.06
561.107	471.06
561.32	478.06
561.532	455.06
561.744	480.06
561.956	478.06
562.168	474.06
562.381	475.06
562.593	473.06
562.805	489.06
563.017	500.06
563.229	500.06
563.441	476.06
563.653	486.06
563.865	494.06
564.077	487.06
564.289	497.06
564.501	488.06
564.713	504.06
564.925	505.06
565.137	505.06
565.349	515.06
565.561	513.06
565.773	540.06
565.985	525.06
566.197	562.06
566.408	543.06
566.62	582.06
566.832	563.06
567.044	609.06
567.255	576.06
567.467	604.06
567.679	604.06
567.891	615.06
568.102	586.06
568.314	618.06
568.526	587.06
568.737	579.06
568.949	544.06
569.161	528.06
569.372	506.06
569.584	502.06
569.795	505.06
570.007	506.06
570.218	552.06
570.43	529.06
570.641	468.06
570.853	482.06
571.064	458.06
571.276	460.06
571.487	450.06
571.698	441.06
571.91	444.06
572.121	424.06
572.333	444.06
572.544	435.06
572.755	422.06
572.966	414.06
573.178	423.06
573.389	444.06
573.6	441.06
573.811	433.06
574.023	407.06
574.234	432.06
574.445	427.06
574.656	417.06
574.867	410.06
575.078	423.06
575.289	384.06
575.501	416.06
575.712	409.06
575.923	420.06
576.134	416.06
576.345	393.06
576.556	385.06
576.767	403.06
576.978	382.06
577.188	392.06
577.399	420.06
577.61	415.06
577.821	410.06
578.032	396.06
578.243	426.06
578.454	682.06
578.665	513.06
578.875	408.06
579.086	386.06
579.297	382.06
579.508	387.06
579.718	385.06
579.929	380.06
580.14	374.06
580.35	371.06
580.561	382.06
580.772	377.06
580.982	370.06
581.193	366.06
581.403	374.06
581.614	378.06
581.825	356.06
582.035	373.06
582.246	374.06
582.456	364.06
582.667	372.06
582.877	372.06
583.087	355.06
583.298	382.06
583.508	390.06
583.719	377.06
583.929	370.06
584.139	367.06
584.35	368.06
584.56	378.06
584.77	360.06
584.981	364.06
585.191	354.06
585.401	374.06
585.611	336.06
585.821	360.06
586.032	343.06
586.242	368.06
586.452	351.06
586.662	349.06
586.872	343.06
587.082	354.06
587.292	375.06
587.502	367.06
587.713	359.06
587.923	357.06
588.133	370.06
588.343	359.06
588.553	359.06
588.762	358.06
588.972	358.06
589.182	366.06
589.392	353.06
589.602	349.06
589.812	345.06
590.022	356.06
590.232	348.06
590.441	351.06
590.651	359.06
590.861	361.06
591.071	372.06
591.281	357.06
591.49	347.06
591.7	340.06
591.91	368.06
592.119	367.06
592.329	372.06
592.539	362.06
592.748	372.06
592.958	358.06
593.167	366.06
593.377	370.06
593.587	361.06
593.796	396.06
594.006	363.06
594.215	383.06
594.424	357.06
594.634	368.06
594.843	369.06
595.053	348.06
595.262	371.06
595.472	351.06
595.681	350.06
595.89	351.06
596.1	359.06
596.309	335.06
596.518	345.06
596.727	330.06
596.937	338.06
597.146	335.06
597.355	336.06
597.564	328.06
597.774	333.06
597.983	330.06
598.192	325.06
598.401	312.06
598.61	320.06
598.819	332.06
599.028	324.06
599.237	313.06
599.446	306.06
599.655	318.06
599.864	316.06
600.073	314.06
600.282	301.06
600.491	306.06
600.7	308.06
600.909	303.06
601.118	313.06
601.327	312.06
601.536	303.06
601.745	296.06
601.953	305.06
602.162	278.06
602.371	305.06
602.58	292.06
602.789	298.06
602.997	288.06
603.206	308.06
603.415	297.06
603.623	278.06
603.832	271.06
604.041	294.06
604.249	304.06
604.458	304.06
604.666	303.06
604.875	277.06
605.084	310.06
605.292	298.06
605.501	289.06
605.709	282.06
605.918	278.06
606.126	262.06
606.334	274.06
606.543	291.06
606.751	283.06
606.96	279.06
607.168	286.06
607.376	301.06
607.585	291.06
607.793	284.06
608.001	280.06
608.21	266.06
608.418	297.06
608.626	290.06
608.834	280.06
609.043	286.06
609.251	298.06
609.459	292.06
609.667	280.06
609.875	280.06
610.083	297.06
610.291	283.06
610.499	289.06
610.707	274.06
610.916	289.06
611.124	284.06
611.332	295.06
611.54	289.06
611.748	281.06
611.955	284.06
612.163	282.06
612.371	276.06
612.579	288.06
612.787	285.06
612.995	280.06
613.203	286.06
613.411	290.06
613.618	287.06
613.826	286.06
614.034	270.06
614.242	278.06
614.449	274.06
614.657	279.06
614.865	261.06
615.072	251.06
615.28	289.06
615.488	265.06
615.695	269.06
615.903	255.06
616.111	281.06
616.318	284.06
616.526	289.06
616.733	264.06
616.941	262.06
617.148	283.06
617.356	272.06
617.563	243.06
617.771	256.06
617.978	283.06
618.185	264.06
618.393	266.06
618.6	264.06
618.807	289.06
619.015	292.06
619.222	274.06
619.429	269.06
619.637	266.06
619.844	263.06
620.051	260.06
620.258	262.06
620.466	247.06
620.673	258.06
620.88	275.06
621.087	263.06
621.294	256.06
621.501	242.06
621.708	246.06
621.915	250.06
622.122	269.06
622.329	284.06
622.536	262.06
622.743	256.06
622.95	256.06
623.157	238.06
623.364	253.06
623.571	236.06
623.778	256.06
623.985	246.06
624.192	252.06
624.399	258.06
624.606	244.06
624.812	239.06
625.019	251.06
625.226	250.06
625.433	245.06
625.639	247.06
625.846	247.06
626.053	252.06
626.259	240.06
626.466	240.06
626.673	246.06
626.879	221.06
627.086	241.06
627.293	242.06
627.499	258.06
627.706	236.06
627.912	244.06
628.119	233.06
628.325	223.06
628.532	240.06
628.738	228.06
628.945	232.06
629.151	231.06
629.357	221.06
629.564	204.06
629.77	223.06
629.976	226.06
630.183	221.06
630.389	231.06
630.595	213.06
630.802	231.06
631.008	227.06
631.214	217.06
631.42	206.06
631.627	229.06
631.833	215.06
632.039	225.06
632.245	214.06
632.451	209.06
632.657	206.06
632.863	219.06
633.069	208.06
633.275	211.06
633.481	208.06
633.688	215.06
633.893	226.06
634.099	211.06
634.305	212.06
634.511	215.06
634.717	207.06
634.923	218.06
635.129	217.06
635.335	188.06
635.541	207.06
635.747	194.06
635.952	203.06
636.158	199.06
636.364	198.06
636.57	205.06
636.775	203.06
636.981	212.06
637.187	208.06
637.392	198.06
637.598	206.06
637.804	190.06
638.009	201.06
638.215	202.06
638.421	190.06
638.626	192.06
638.832	203.06
639.037	205.06
639.243	191.06
639.448	197.06
639.654	196.06
639.859	200.06
640.065	185.06
640.27	203.06
640.475	204.06
640.681	192.06
640.886	198.06
641.091	189.06
641.297	182.06
641.502	196.06
641.707	197.06
641.913	191.06
642.118	198.06
642.323	199.06
642.528	186.06
642.733	206.06
642.939	181.06
643.144	192.06
643.349	199.06
643.554	196.06
643.759	183.06
643.964	180.06
644.169	177.06
644.374	187.06
644.579	190.06
644.784	202.06
644.989	184.06
645.194	162.06
645.399	191.06
645.604	181.06
645.809	203.06
646.014	181.06
646.219	176.06
646.423	179.06
646.628	188.06
646.833	187.06
647.038	190.06
647.243	192.06
647.447	195.06
647.652	161.06
647.857	200.06
648.062	182.06
648.266	178.06
648.471	200.06
648.676	201.06
648.88	184.06
649.085	180.06
649.289	187.06
649.494	217.06
649.698	209.06
649.903	198.06
650.107	183.06
650.312	184.06
650.516	176.06
650.721	166.06
650.925	165.06
651.13	163.06
651.334	162.06
651.539	167.06
651.743	165.06
651.947	160.06
652.152	160.06
652.356	155.06
652.56	169.06
652.764	150.06
652.969	153.06
653.173	154.06
653.377	146.06
653.581	144.06
653.785	146.06
653.99	152.06
654.194	162.06
654.398	143.06
654.602	142.06
654.806	131.06
655.01	150.06
655.214	147.06
655.418	152.06
655.622	148.06
655.826	143.06
656.03	138.06
656.234	148.06
656.438	148.06
656.642	142.06
656.846	146.06
657.049	138.06
657.253	126.06
657.457	133.06
657.661	113.06
657.865	136.06
658.068	120.06
658.272	116.06
658.476	121.06
658.68	116.06
658.883	102.06
659.087	99.06
659.291	102.06
659.494	85.06
659.698	88.06
659.901	75.06
660.105	86.06
660.309	94.06
660.512	96.06
660.716	102.06
660.919	100.06
661.123	101.06
661.326	87.06
661.53	86.06
661.733	94.06
661.936	94.06
662.14	80.06
662.343	76.06
662.546	92.06
662.75	84.06
662.953	84.06
663.156	86.06
663.36	83.06
663.563	90.06
663.766	93.06
663.969	92.06
664.173	70.06
664.376	79.06
664.579	77.06
664.782	82.06
664.985	70.06
665.188	80.06
665.391	67.06
665.594	82.06
665.797	94.06
666	86.06
666.203	97.06
666.406	76.06
666.609	79.06
666.812	86.06
667.015	77.06
667.218	89.06
667.421	76.06
667.624	84.06
667.827	90.06
668.03	70.06
668.232	76.06
668.435	89.06
668.638	72.06
668.841	85.06
669.043	83.06
669.246	79.06
669.449	76.06
669.651	76.06
669.854	89.06
670.057	82.06
670.259	76.06
670.462	79.06
670.665	77.06
670.867	88.06
671.07	94.06
671.272	88.06
671.475	72.06
671.677	80.06
671.88	87.06
672.082	67.06
672.284	85.06
672.487	96.06
672.689	85.06
672.892	67.06
