Data from 1988.PennyLincolnUp.Lamp.En5.5.200Scan.071819.P2_HRD10591_17-19-45-972.txt Node
Date: Thu Jul 18 17:19:45 EDT 2019
User: cochatt
Spectrometer: HR+D1059
Trigger mode: 1
Integration Time (sec): 1.000000E-1
Scans to average: 1
Electric dark correction enabled: true
Nonlinearity correction enabled: false
Boxcar width: 0
XAxis mode: Wavelengths
Number of Pixels in Spectrum: 2048
>>>>>Begin Spectral Data<<<<<
223.165	-4.19
223.4	-4.19
223.635	-4.19
223.869	-34.19
224.104	-7.19
224.338	-23.19
224.573	-10.19
224.808	-10.19
225.042	-4.19
225.277	-16.19
225.511	2.81
225.746	3.81
225.98	10.81
226.215	5.81
226.449	23.81
226.683	22.81
226.918	16.81
227.152	22.81
227.387	11.81
227.621	28.81
227.856	31.81
228.09	51.81
228.324	51.81
228.559	50.81
228.793	64.81
229.027	107.81
229.262	100.81
229.496	104.81
229.73	137.81
229.964	151.81
230.199	128.81
230.433	119.81
230.667	117.81
230.901	113.81
231.136	121.81
231.37	117.81
231.604	111.81
231.838	120.81
232.072	115.81
232.306	120.81
232.541	119.81
232.775	122.81
233.009	109.81
233.243	104.81
233.477	104.81
233.711	101.81
233.945	116.81
234.179	108.81
234.413	119.81
234.647	111.81
234.881	92.81
235.115	115.81
235.349	116.81
235.583	125.81
235.817	133.81
236.051	135.81
236.285	121.81
236.519	120.81
236.753	121.81
236.987	157.81
237.221	183.81
237.455	259.81
237.689	190.81
237.922	137.81
238.156	128.81
238.39	132.81
238.624	131.81
238.858	134.81
239.091	135.81
239.325	117.81
239.559	143.81
239.793	140.81
240.027	143.81
240.26	154.81
240.494	161.81
240.728	147.81
240.961	148.81
241.195	160.81
241.429	144.81
241.662	135.81
241.896	141.81
242.13	133.81
242.363	153.81
242.597	132.81
242.83	141.81
243.064	143.81
243.298	153.81
243.531	148.81
243.765	145.81
243.998	143.81
244.232	137.81
244.465	150.81
244.699	144.81
244.932	156.81
245.166	133.81
245.399	148.81
245.633	152.81
245.866	135.81
246.099	171.81
246.333	139.81
246.566	150.81
246.8	155.81
247.033	143.81
247.266	164.81
247.5	173.81
247.733	172.81
247.966	163.81
248.2	175.81
248.433	179.81
248.666	191.81
248.899	193.81
249.133	200.81
249.366	208.81
249.599	197.81
249.832	185.81
250.066	202.81
250.299	183.81
250.532	180.81
250.765	192.81
250.998	215.81
251.231	241.81
251.465	247.81
251.698	230.81
251.931	211.81
252.164	187.81
252.397	213.81
252.63	217.81
252.863	218.81
253.096	223.81
253.329	236.81
253.562	255.81
253.795	215.81
254.028	202.81
254.261	230.81
254.494	235.81
254.727	257.81
254.96	287.81
255.193	295.81
255.426	274.81
255.659	242.81
255.892	212.81
256.124	197.81
256.357	220.81
256.59	221.81
256.823	229.81
257.056	220.81
257.289	204.81
257.521	218.81
257.754	213.81
257.987	210.81
258.22	221.81
258.452	209.81
258.685	211.81
258.918	201.81
259.151	229.81
259.383	222.81
259.616	219.81
259.849	213.81
260.081	222.81
260.314	270.81
260.547	283.81
260.779	263.81
261.012	246.81
261.244	224.81
261.477	226.81
261.71	214.81
261.942	251.81
262.175	252.81
262.407	239.81
262.64	229.81
262.872	213.81
263.105	225.81
263.337	219.81
263.57	224.81
263.802	228.81
264.035	220.81
264.267	230.81
264.499	214.81
264.732	236.81
264.964	228.81
265.197	216.81
265.429	214.81
265.661	216.81
265.894	217.81
266.126	214.81
266.358	221.81
266.591	215.81
266.823	237.81
267.055	242.81
267.287	230.81
267.52	223.81
267.752	240.81
267.984	219.81
268.216	241.81
268.448	231.81
268.681	240.81
268.913	251.81
269.145	261.81
269.377	300.81
269.609	289.81
269.841	284.81
270.073	270.81
270.306	307.81
270.538	315.81
270.77	324.81
271.002	288.81
271.234	295.81
271.466	326.81
271.698	325.81
271.93	344.81
272.162	319.81
272.394	329.81
272.626	305.81
272.858	315.81
273.09	287.81
273.322	288.81
273.553	273.81
273.785	268.81
274.017	268.81
274.249	270.81
274.481	284.81
274.713	252.81
274.945	273.81
275.176	288.81
275.408	285.81
275.64	286.81
275.872	276.81
276.104	277.81
276.335	284.81
276.567	302.81
276.799	297.81
277.031	316.81
277.262	337.81
277.494	340.81
277.726	335.81
277.957	308.81
278.189	303.81
278.421	309.81
278.652	291.81
278.884	273.81
279.115	293.81
279.347	286.81
279.579	276.81
279.81	272.81
280.042	275.81
280.273	269.81
280.505	288.81
280.736	288.81
280.968	269.81
281.199	262.81
281.431	262.81
281.662	279.81
281.894	272.81
282.125	269.81
282.356	300.81
282.588	333.81
282.819	324.81
283.051	317.81
283.282	289.81
283.513	283.81
283.745	300.81
283.976	296.81
284.207	301.81
284.439	277.81
284.67	281.81
284.901	294.81
285.132	291.81
285.364	294.81
285.595	295.81
285.826	291.81
286.057	288.81
286.288	295.81
286.52	295.81
286.751	270.81
286.982	304.81
287.213	307.81
287.444	311.81
287.675	283.81
287.906	301.81
288.138	328.81
288.369	324.81
288.6	315.81
288.831	299.81
289.062	321.81
289.293	303.81
289.524	296.81
289.755	318.81
289.986	319.81
290.217	304.81
290.448	309.81
290.679	301.81
290.91	312.81
291.141	301.81
291.371	288.81
291.602	300.81
291.833	303.81
292.064	299.81
292.295	311.81
292.526	309.81
292.757	304.81
292.987	304.81
293.218	315.81
293.449	313.81
293.68	301.81
293.91	313.81
294.141	299.81
294.372	316.81
294.603	301.81
294.833	292.81
295.064	321.81
295.295	313.81
295.525	316.81
295.756	327.81
295.987	324.81
296.217	357.81
296.448	352.81
296.679	334.81
296.909	310.81
297.14	313.81
297.37	333.81
297.601	311.81
297.831	316.81
298.062	328.81
298.292	328.81
298.523	322.81
298.753	339.81
298.984	343.81
299.214	318.81
299.445	341.81
299.675	313.81
299.905	324.81
300.136	337.81
300.366	332.81
300.597	342.81
300.827	332.81
301.057	357.81
301.288	342.81
301.518	344.81
301.748	339.81
301.979	355.81
302.209	337.81
302.439	352.81
302.669	356.81
302.9	348.81
303.13	349.81
303.36	351.81
303.59	371.81
303.82	366.81
304.051	365.81
304.281	369.81
304.511	355.81
304.741	360.81
304.971	349.81
305.201	335.81
305.431	358.81
305.661	358.81
305.891	366.81
306.121	357.81
306.352	347.81
306.582	345.81
306.812	363.81
307.042	365.81
307.272	372.81
307.502	346.81
307.731	353.81
307.961	348.81
308.191	364.81
308.421	356.81
308.651	352.81
308.881	347.81
309.111	382.81
309.341	357.81
309.571	394.81
309.8	383.81
310.03	381.81
310.26	401.81
310.49	409.81
310.72	389.81
310.949	449.81
311.179	449.81
311.409	399.81
311.639	418.81
311.868	428.81
312.098	413.81
312.328	439.81
312.557	434.81
312.787	426.81
313.017	430.81
313.246	427.81
313.476	412.81
313.706	410.81
313.935	414.81
314.165	419.81
314.394	448.81
314.624	433.81
314.853	421.81
315.083	411.81
315.312	387.81
315.542	396.81
315.771	383.81
316.001	397.81
316.23	414.81
316.46	414.81
316.689	412.81
316.919	429.81
317.148	418.81
317.377	391.81
317.607	409.81
317.836	407.81
318.065	412.81
318.295	435.81
318.524	401.81
318.753	407.81
318.983	400.81
319.212	420.81
319.441	406.81
319.67	422.81
319.9	413.81
320.129	415.81
320.358	417.81
320.587	425.81
320.816	429.81
321.046	427.81
321.275	428.81
321.504	438.81
321.733	457.81
321.962	435.81
322.191	433.81
322.42	467.81
322.649	482.81
322.878	493.81
323.108	509.81
323.337	527.81
323.566	566.81
323.795	567.81
324.024	622.81
324.253	763.81
324.482	1053.81
324.71	1669.81
324.939	2519.81
325.168	2129.81
325.397	1075.81
325.626	737.81
325.855	619.81
326.084	593.81
326.313	556.81
326.542	548.81
326.77	616.81
326.999	707.81
327.228	945.81
327.457	1507.81
327.686	1854.81
327.914	1203.81
328.143	792.81
328.372	645.81
328.6	632.81
328.829	612.81
329.058	616.81
329.287	631.81
329.515	595.81
329.744	557.81
329.972	514.81
330.201	523.81
330.43	557.81
330.658	613.81
330.887	640.81
331.115	644.81
331.344	561.81
331.572	529.81
331.801	550.81
332.03	519.81
332.258	512.81
332.486	495.81
332.715	485.81
332.943	492.81
333.172	505.81
333.4	504.81
333.629	498.81
333.857	517.81
334.085	516.81
334.314	533.81
334.542	521.81
334.771	486.81
334.999	515.81
335.227	515.81
335.455	496.81
335.684	507.81
335.912	469.81
336.14	499.81
336.369	473.81
336.597	501.81
336.825	488.81
337.053	491.81
337.281	495.81
337.51	483.81
337.738	488.81
337.966	495.81
338.194	500.81
338.422	463.81
338.65	497.81
338.878	468.81
339.106	459.81
339.334	492.81
339.562	466.81
339.79	486.81
340.018	484.81
340.246	458.81
340.474	485.81
340.702	488.81
340.93	469.81
341.158	472.81
341.386	475.81
341.614	481.81
341.842	476.81
342.07	459.81
342.298	455.81
342.526	484.81
342.754	443.81
342.981	452.81
343.209	471.81
343.437	454.81
343.665	468.81
343.893	475.81
344.12	488.81
344.348	496.81
344.576	480.81
344.804	491.81
345.031	508.81
345.259	507.81
345.487	499.81
345.714	485.81
345.942	442.81
346.17	460.81
346.397	463.81
346.625	447.81
346.853	453.81
347.08	457.81
347.308	463.81
347.535	489.81
347.763	480.81
347.99	471.81
348.218	476.81
348.445	488.81
348.673	467.81
348.9	459.81
349.128	461.81
349.355	440.81
349.583	439.81
349.81	444.81
350.037	442.81
350.265	452.81
350.492	425.81
350.72	441.81
350.947	470.81
351.174	459.81
351.402	479.81
351.629	484.81
351.856	467.81
352.083	493.81
352.311	497.81
352.538	502.81
352.765	499.81
352.992	469.81
353.22	468.81
353.447	460.81
353.674	454.81
353.901	437.81
354.128	443.81
354.355	461.81
354.583	445.81
354.81	446.81
355.037	446.81
355.264	420.81
355.491	451.81
355.718	427.81
355.945	446.81
356.172	451.81
356.399	435.81
356.626	424.81
356.853	420.81
357.08	420.81
357.307	428.81
357.534	438.81
357.761	420.81
357.988	438.81
358.215	423.81
358.441	424.81
358.668	426.81
358.895	444.81
359.122	440.81
359.349	424.81
359.576	450.81
359.802	509.81
360.029	520.81
360.256	529.81
360.483	517.81
360.709	474.81
360.936	467.81
361.163	455.81
361.39	453.81
361.616	468.81
361.843	470.81
362.07	458.81
362.296	468.81
362.523	471.81
362.749	480.81
362.976	441.81
363.203	448.81
363.429	448.81
363.656	439.81
363.882	461.81
364.109	445.81
364.335	441.81
364.562	427.81
364.788	460.81
365.015	434.81
365.241	458.81
365.468	461.81
365.694	456.81
365.92	469.81
366.147	461.81
366.373	461.81
366.599	455.81
366.826	435.81
367.052	441.81
367.278	453.81
367.505	463.81
367.731	463.81
367.957	451.81
368.184	440.81
368.41	452.81
368.636	461.81
368.862	465.81
369.089	478.81
369.315	443.81
369.541	464.81
369.767	450.81
369.993	450.81
370.219	450.81
370.445	458.81
370.672	439.81
370.898	448.81
371.124	450.81
371.35	445.81
371.576	432.81
371.802	435.81
372.028	424.81
372.254	463.81
372.48	469.81
372.706	434.81
372.932	448.81
373.158	450.81
373.384	457.81
373.61	452.81
373.835	457.81
374.061	445.81
374.287	460.81
374.513	464.81
374.739	461.81
374.965	468.81
375.191	468.81
375.416	469.81
375.642	452.81
375.868	451.81
376.094	454.81
376.319	433.81
376.545	427.81
376.771	444.81
376.997	450.81
377.222	443.81
377.448	467.81
377.674	466.81
377.899	429.81
378.125	430.81
378.35	433.81
378.576	439.81
378.802	432.81
379.027	452.81
379.253	433.81
379.478	440.81
379.704	428.81
379.929	452.81
380.155	451.81
380.38	440.81
380.606	445.81
380.831	451.81
381.057	472.81
381.282	466.81
381.507	432.81
381.733	466.81
381.958	461.81
382.184	475.81
382.409	451.81
382.634	470.81
382.86	469.81
383.085	450.81
383.31	470.81
383.535	449.81
383.761	470.81
383.986	475.81
384.211	475.81
384.436	485.81
384.662	484.81
384.887	500.81
385.112	480.81
385.337	474.81
385.562	487.81
385.787	483.81
386.013	495.81
386.238	487.81
386.463	515.81
386.688	509.81
386.913	500.81
387.138	517.81
387.363	501.81
387.588	478.81
387.813	511.81
388.038	495.81
388.263	513.81
388.488	492.81
388.713	493.81
388.938	502.81
389.163	520.81
389.387	508.81
389.612	492.81
389.837	506.81
390.062	500.81
390.287	485.81
390.512	511.81
390.736	499.81
390.961	505.81
391.186	493.81
391.411	492.81
391.636	488.81
391.86	505.81
392.085	532.81
392.31	498.81
392.534	524.81
392.759	534.81
392.984	511.81
393.208	499.81
393.433	501.81
393.658	526.81
393.882	515.81
394.107	536.81
394.331	508.81
394.556	493.81
394.78	499.81
395.005	521.81
395.229	523.81
395.454	519.81
395.678	521.81
395.903	521.81
396.127	560.81
396.352	542.81
396.576	541.81
396.801	537.81
397.025	531.81
397.249	545.81
397.474	547.81
397.698	544.81
397.922	567.81
398.147	565.81
398.371	556.81
398.595	572.81
398.82	573.81
399.044	605.81
399.268	605.81
399.492	642.81
399.717	659.81
399.941	699.81
400.165	740.81
400.389	734.81
400.613	701.81
400.837	628.81
401.062	599.81
401.286	584.81
401.51	611.81
401.734	567.81
401.958	598.81
402.182	607.81
402.406	604.81
402.63	587.81
402.854	605.81
403.078	595.81
403.302	616.81
403.526	617.81
403.75	609.81
403.974	614.81
404.198	591.81
404.422	592.81
404.645	587.81
404.869	591.81
405.093	609.81
405.317	667.81
405.541	701.81
405.765	625.81
405.988	634.81
406.212	656.81
406.436	683.81
406.66	695.81
406.883	659.81
407.107	680.81
407.331	719.81
407.555	820.81
407.778	837.81
408.002	742.81
408.226	670.81
408.449	673.81
408.673	663.81
408.896	689.81
409.12	782.81
409.344	698.81
409.567	647.81
409.791	630.81
410.014	604.81
410.238	611.81
410.461	621.81
410.685	631.81
410.908	660.81
411.132	671.81
411.355	702.81
411.578	689.81
411.802	604.81
412.025	610.81
412.249	606.81
412.472	583.81
412.695	620.81
412.919	608.81
413.142	613.81
413.365	581.81
413.589	600.81
413.812	596.81
414.035	594.81
414.258	573.81
414.482	584.81
414.705	575.81
414.928	566.81
415.151	577.81
415.374	593.81
415.597	582.81
415.821	549.81
416.044	576.81
416.267	557.81
416.49	574.81
416.713	569.81
416.936	578.81
417.159	565.81
417.382	556.81
417.605	580.81
417.828	588.81
418.051	583.81
418.274	577.81
418.497	554.81
418.72	567.81
418.943	572.81
419.166	619.81
419.389	625.81
419.611	604.81
419.834	601.81
420.057	601.81
420.28	574.81
420.503	588.81
420.726	577.81
420.948	605.81
421.171	670.81
421.394	694.81
421.617	637.81
421.839	595.81
422.062	600.81
422.285	599.81
422.507	717.81
422.73	777.81
422.953	761.81
423.175	652.81
423.398	620.81
423.621	646.81
423.843	659.81
424.066	641.81
424.288	649.81
424.511	686.81
424.733	728.81
424.956	805.81
425.178	808.81
425.401	822.81
425.623	843.81
425.846	703.81
426.068	653.81
426.291	628.81
426.513	636.81
426.735	631.81
426.958	707.81
427.18	782.81
427.402	959.81
427.625	1053.81
427.847	897.81
428.069	787.81
428.292	683.81
428.514	645.81
428.736	631.81
428.958	623.81
429.181	593.81
429.403	601.81
429.625	607.81
429.847	646.81
430.069	724.81
430.292	724.81
430.514	630.81
430.736	619.81
430.958	589.81
431.18	596.81
431.402	584.81
431.624	569.81
431.846	545.81
432.068	583.81
432.29	563.81
432.512	582.81
432.734	571.81
432.956	588.81
433.178	585.81
433.4	563.81
433.622	567.81
433.844	578.81
434.066	581.81
434.287	568.81
434.509	573.81
434.731	584.81
434.953	588.81
435.175	595.81
435.397	646.81
435.618	634.81
435.84	715.81
436.062	835.81
436.284	888.81
436.505	715.81
436.727	689.81
436.949	605.81
437.17	592.81
437.392	600.81
437.614	625.81
437.835	639.81
438.057	747.81
438.278	906.81
438.5	889.81
438.721	993.81
438.943	923.81
439.165	735.81
439.386	657.81
439.608	673.81
439.829	638.81
440.05	694.81
440.272	730.81
440.493	692.81
440.715	623.81
440.936	626.81
441.158	605.81
441.379	606.81
441.6	636.81
441.822	641.81
442.043	680.81
442.264	775.81
442.486	857.81
442.707	691.81
442.928	656.81
443.149	686.81
443.371	716.81
443.592	730.81
443.813	851.81
444.034	934.81
444.255	772.81
444.476	686.81
444.698	679.81
444.919	660.81
445.14	731.81
445.361	728.81
445.582	695.81
445.803	771.81
446.024	888.81
446.245	891.81
446.466	818.81
446.687	699.81
446.908	674.81
447.129	629.81
447.35	623.81
447.571	609.81
447.792	593.81
448.013	578.81
448.234	613.81
448.455	686.81
448.675	829.81
448.896	945.81
449.117	829.81
449.338	757.81
449.559	884.81
449.779	1001.81
450	814.81
450.221	661.81
450.442	634.81
450.662	607.81
450.883	612.81
451.104	598.81
451.324	613.81
451.545	573.81
451.766	552.81
451.986	549.81
452.207	534.81
452.428	514.81
452.648	519.81
452.869	537.81
453.089	552.81
453.31	555.81
453.53	545.81
453.751	545.81
453.971	541.81
454.192	571.81
454.412	557.81
454.633	559.81
454.853	529.81
455.073	524.81
455.294	563.81
455.514	635.81
455.734	631.81
455.955	533.81
456.175	517.81
456.395	522.81
456.616	524.81
456.836	520.81
457.056	515.81
457.276	504.81
457.497	507.81
457.717	517.81
457.937	519.81
458.157	519.81
458.377	521.81
458.598	565.81
458.818	599.81
459.038	726.81
459.258	726.81
459.478	630.81
459.698	580.81
459.918	563.81
460.138	580.81
460.358	581.81
460.578	583.81
460.798	578.81
461.018	594.81
461.238	576.81
461.458	588.81
461.678	572.81
461.898	596.81
462.118	573.81
462.338	606.81
462.558	614.81
462.777	601.81
462.997	634.81
463.217	644.81
463.437	647.81
463.657	631.81
463.876	628.81
464.096	636.81
464.316	611.81
464.536	612.81
464.755	658.81
464.975	641.81
465.195	671.81
465.414	755.81
465.634	673.81
465.854	630.81
466.073	591.81
466.293	582.81
466.512	571.81
466.732	539.81
466.951	567.81
467.171	559.81
467.391	568.81
467.61	558.81
467.829	590.81
468.049	561.81
468.268	552.81
468.488	557.81
468.707	559.81
468.927	543.81
469.146	528.81
469.365	526.81
469.585	549.81
469.804	552.81
470.023	579.81
470.243	551.81
470.462	549.81
470.681	593.81
470.901	599.81
471.12	576.81
471.339	559.81
471.558	551.81
471.777	554.81
471.997	539.81
472.216	553.81
472.435	542.81
472.654	538.81
472.873	550.81
473.092	542.81
473.311	551.81
473.53	549.81
473.749	563.81
473.968	592.81
474.187	712.81
474.406	731.81
474.625	622.81
474.844	583.81
475.063	577.81
475.282	564.81
475.501	587.81
475.72	569.81
475.939	576.81
476.158	567.81
476.377	579.81
476.596	560.81
476.814	603.81
477.033	595.81
477.252	610.81
477.471	596.81
477.69	604.81
477.908	605.81
478.127	613.81
478.346	641.81
478.564	629.81
478.783	662.81
479.002	666.81
479.22	660.81
479.439	641.81
479.658	678.81
479.876	658.81
480.095	691.81
480.313	742.81
480.532	710.81
480.751	680.81
480.969	693.81
481.188	685.81
481.406	696.81
481.624	685.81
481.843	672.81
482.061	661.81
482.28	669.81
482.498	655.81
482.717	646.81
482.935	676.81
483.153	668.81
483.372	624.81
483.59	640.81
483.808	651.81
484.027	649.81
484.245	684.81
484.463	672.81
484.681	662.81
484.9	676.81
485.118	704.81
485.336	673.81
485.554	677.81
485.772	676.81
485.99	684.81
486.209	683.81
486.427	689.81
486.645	679.81
486.863	701.81
487.081	722.81
487.299	719.81
487.517	734.81
487.735	711.81
487.953	701.81
488.171	677.81
488.389	709.81
488.607	699.81
488.825	700.81
489.043	703.81
489.261	723.81
489.479	727.81
489.696	729.81
489.914	718.81
490.132	737.81
490.35	709.81
490.568	732.81
490.786	764.81
491.003	763.81
491.221	784.81
491.439	768.81
491.657	794.81
491.874	793.81
492.092	800.81
492.31	819.81
492.527	806.81
492.745	829.81
492.963	787.81
493.18	839.81
493.398	825.81
493.615	813.81
493.833	815.81
494.05	838.81
494.268	862.81
494.485	820.81
494.703	853.81
494.92	849.81
495.138	832.81
495.355	841.81
495.573	855.81
495.79	849.81
496.008	879.81
496.225	849.81
496.442	863.81
496.66	833.81
496.877	838.81
497.094	846.81
497.312	862.81
497.529	878.81
497.746	895.81
497.963	918.81
498.181	940.81
498.398	949.81
498.615	962.81
498.832	994.81
499.049	978.81
499.267	1022.81
499.484	1028.81
499.701	1084.81
499.918	1113.81
500.135	1165.81
500.352	1235.81
500.569	1226.81
500.786	1221.81
501.003	1199.81
501.22	1163.81
501.437	1133.81
501.654	1129.81
501.871	1109.81
502.088	1071.81
502.305	1019.81
502.522	987.81
502.739	991.81
502.956	913.81
503.172	930.81
503.389	902.81
503.606	896.81
503.823	934.81
504.04	890.81
504.256	892.81
504.473	881.81
504.69	879.81
504.907	815.81
505.123	856.81
505.34	838.81
505.557	828.81
505.773	802.81
505.99	815.81
506.207	821.81
506.423	859.81
506.64	804.81
506.856	783.81
507.073	811.81
507.289	785.81
507.506	781.81
507.722	806.81
507.939	844.81
508.155	812.81
508.372	772.81
508.588	783.81
508.805	777.81
509.021	768.81
509.238	777.81
509.454	770.81
509.67	791.81
509.887	749.81
510.103	776.81
510.319	777.81
510.536	867.81
510.752	1395.81
510.968	1171.81
511.184	828.81
511.401	737.81
511.617	741.81
511.833	716.81
512.049	724.81
512.265	724.81
512.481	720.81
512.698	712.81
512.914	721.81
513.13	715.81
513.346	714.81
513.562	705.81
513.778	728.81
513.994	737.81
514.21	754.81
514.426	765.81
514.642	835.81
514.858	835.81
515.074	862.81
515.29	1025.81
515.506	1455.81
515.721	1287.81
515.937	892.81
516.153	830.81
516.369	806.81
516.585	769.81
516.801	773.81
517.016	780.81
517.232	776.81
517.448	757.81
517.664	768.81
517.879	732.81
518.095	769.81
518.311	772.81
518.527	771.81
518.742	744.81
518.958	771.81
519.173	741.81
519.389	729.81
519.605	728.81
519.82	715.81
520.036	760.81
520.251	791.81
520.467	785.81
520.682	808.81
520.898	791.81
521.113	808.81
521.329	855.81
521.544	925.81
521.76	1149.81
521.975	1878.81
522.19	1895.81
522.406	1070.81
522.621	811.81
522.836	766.81
523.052	752.81
523.267	711.81
523.482	689.81
523.698	687.81
523.913	669.81
524.128	687.81
524.343	650.81
524.559	653.81
524.774	619.81
524.989	635.81
525.204	663.81
525.419	649.81
525.634	625.81
525.849	617.81
526.064	633.81
526.28	630.81
526.495	612.81
526.71	617.81
526.925	606.81
527.14	607.81
527.355	610.81
527.57	597.81
527.785	601.81
527.999	595.81
528.214	588.81
528.429	615.81
528.644	622.81
528.859	611.81
529.074	611.81
529.289	625.81
529.503	703.81
529.718	701.81
529.933	652.81
530.148	626.81
530.363	615.81
530.577	595.81
530.792	615.81
531.007	594.81
531.221	593.81
531.436	587.81
531.651	584.81
531.865	589.81
532.08	570.81
532.295	593.81
532.509	576.81
532.724	589.81
532.938	558.81
533.153	584.81
533.367	581.81
533.582	576.81
533.796	572.81
534.011	576.81
534.225	560.81
534.44	558.81
534.654	577.81
534.868	573.81
535.083	589.81
535.297	560.81
535.511	562.81
535.726	596.81
535.94	575.81
536.154	584.81
536.369	548.81
536.583	567.81
536.797	545.81
537.011	568.81
537.225	563.81
537.44	552.81
537.654	557.81
537.868	557.81
538.082	563.81
538.296	549.81
538.51	540.81
538.724	560.81
538.938	549.81
539.153	542.81
539.367	560.81
539.581	544.81
539.795	536.81
540.009	547.81
540.222	541.81
540.436	531.81
540.65	544.81
540.864	569.81
541.078	567.81
541.292	558.81
541.506	544.81
541.72	542.81
541.934	549.81
542.147	568.81
542.361	530.81
542.575	513.81
542.789	533.81
543.002	517.81
543.216	534.81
543.43	545.81
543.644	529.81
543.857	535.81
544.071	541.81
544.285	530.81
544.498	562.81
544.712	522.81
544.925	548.81
545.139	535.81
545.352	521.81
545.566	516.81
545.779	534.81
545.993	532.81
546.206	526.81
546.42	525.81
546.633	520.81
546.847	509.81
547.06	533.81
547.274	531.81
547.487	521.81
547.7	516.81
547.914	511.81
548.127	509.81
548.34	514.81
548.554	508.81
548.767	515.81
548.98	514.81
549.193	529.81
549.407	511.81
549.62	529.81
549.833	522.81
550.046	518.81
550.259	525.81
550.473	500.81
550.686	536.81
550.899	508.81
551.112	500.81
551.325	509.81
551.538	524.81
551.751	528.81
551.964	527.81
552.177	488.81
552.39	512.81
552.603	508.81
552.816	521.81
553.029	509.81
553.242	527.81
553.455	528.81
553.667	531.81
553.88	550.81
554.093	517.81
554.306	514.81
554.519	524.81
554.732	537.81
554.944	496.81
555.157	510.81
555.37	506.81
555.583	488.81
555.795	493.81
556.008	479.81
556.221	487.81
556.433	501.81
556.646	494.81
556.859	465.81
557.071	489.81
557.284	464.81
557.496	472.81
557.709	485.81
557.921	494.81
558.134	478.81
558.346	482.81
558.559	461.81
558.771	475.81
558.984	464.81
559.196	461.81
559.409	470.81
559.621	469.81
559.833	463.81
560.046	452.81
560.258	439.81
560.47	456.81
560.683	463.81
560.895	450.81
561.107	455.81
561.32	457.81
561.532	478.81
561.744	447.81
561.956	464.81
562.168	455.81
562.381	451.81
562.593	457.81
562.805	475.81
563.017	463.81
563.229	461.81
563.441	468.81
563.653	466.81
563.865	487.81
564.077	481.81
564.289	454.81
564.501	491.81
564.713	481.81
564.925	479.81
565.137	504.81
565.349	513.81
565.561	511.81
565.773	510.81
565.985	521.81
566.197	525.81
566.408	535.81
566.62	557.81
566.832	571.81
567.044	576.81
567.255	585.81
567.467	581.81
567.679	591.81
567.891	597.81
568.102	589.81
568.314	577.81
568.526	567.81
568.737	545.81
568.949	526.81
569.161	513.81
569.372	500.81
569.584	475.81
569.795	487.81
570.007	474.81
570.218	500.81
570.43	541.81
570.641	458.81
570.853	456.81
571.064	439.81
571.276	463.81
571.487	419.81
571.698	436.81
571.91	434.81
572.121	413.81
572.333	424.81
572.544	419.81
572.755	440.81
572.966	435.81
573.178	420.81
573.389	414.81
573.6	407.81
573.811	407.81
574.023	401.81
574.234	407.81
574.445	399.81
574.656	386.81
574.867	401.81
575.078	396.81
575.289	373.81
575.501	390.81
575.712	384.81
575.923	392.81
576.134	379.81
576.345	411.81
576.556	392.81
576.767	393.81
576.978	377.81
577.188	411.81
577.399	370.81
577.61	369.81
577.821	368.81
578.032	391.81
578.243	399.81
578.454	664.81
578.665	516.81
578.875	385.81
579.086	389.81
579.297	397.81
579.508	393.81
579.718	379.81
579.929	372.81
580.14	371.81
580.35	373.81
580.561	357.81
580.772	360.81
580.982	353.81
581.193	375.81
581.403	347.81
581.614	359.81
581.825	360.81
582.035	347.81
582.246	350.81
582.456	358.81
582.667	365.81
582.877	359.81
583.087	360.81
583.298	355.81
583.508	346.81
583.719	341.81
583.929	349.81
584.139	359.81
584.35	338.81
584.56	356.81
584.77	343.81
584.981	354.81
585.191	359.81
585.401	350.81
585.611	334.81
585.821	356.81
586.032	357.81
586.242	334.81
586.452	340.81
586.662	339.81
586.872	353.81
587.082	360.81
587.292	343.81
587.502	341.81
587.713	327.81
587.923	360.81
588.133	351.81
588.343	355.81
588.553	329.81
588.762	351.81
588.972	339.81
589.182	354.81
589.392	356.81
589.602	334.81
589.812	352.81
590.022	367.81
590.232	353.81
590.441	365.81
590.651	342.81
590.861	347.81
591.071	353.81
591.281	335.81
591.49	351.81
591.7	364.81
591.91	334.81
592.119	342.81
592.329	351.81
592.539	352.81
592.748	389.81
592.958	368.81
593.167	375.81
593.377	375.81
593.587	371.81
593.796	369.81
594.006	357.81
594.215	350.81
594.424	363.81
594.634	363.81
594.843	356.81
595.053	354.81
595.262	334.81
595.472	353.81
595.681	337.81
595.89	348.81
596.1	326.81
596.309	337.81
596.518	333.81
596.727	319.81
596.937	303.81
597.146	315.81
597.355	323.81
597.564	332.81
597.774	305.81
597.983	313.81
598.192	309.81
598.401	304.81
598.61	297.81
598.819	312.81
599.028	294.81
599.237	298.81
599.446	285.81
599.655	325.81
599.864	284.81
600.073	283.81
600.282	304.81
600.491	299.81
600.7	290.81
600.909	297.81
601.118	299.81
601.327	291.81
601.536	304.81
601.745	287.81
601.953	293.81
602.162	280.81
602.371	276.81
602.58	282.81
602.789	280.81
602.997	269.81
603.206	291.81
603.415	289.81
603.623	306.81
603.832	291.81
604.041	295.81
604.249	283.81
604.458	283.81
604.666	292.81
604.875	263.81
605.084	277.81
605.292	290.81
605.501	294.81
605.709	262.81
605.918	256.81
606.126	269.81
606.334	261.81
606.543	276.81
606.751	273.81
606.96	279.81
607.168	304.81
607.376	286.81
607.585	275.81
607.793	268.81
608.001	277.81
608.21	272.81
608.418	262.81
608.626	274.81
608.834	283.81
609.043	269.81
609.251	274.81
609.459	268.81
609.667	279.81
609.875	287.81
610.083	268.81
610.291	281.81
610.499	262.81
610.707	264.81
610.916	290.81
611.124	270.81
611.332	276.81
611.54	258.81
611.748	277.81
611.955	261.81
612.163	274.81
612.371	268.81
612.579	270.81
612.787	278.81
612.995	270.81
613.203	255.81
613.411	266.81
613.618	257.81
613.826	267.81
614.034	262.81
614.242	269.81
614.449	257.81
614.657	246.81
614.865	261.81
615.072	258.81
615.28	265.81
615.488	275.81
615.695	281.81
615.903	287.81
616.111	258.81
616.318	265.81
616.526	249.81
616.733	272.81
616.941	253.81
617.148	259.81
617.356	257.81
617.563	255.81
617.771	269.81
617.978	275.81
618.185	261.81
618.393	254.81
618.6	257.81
618.807	261.81
619.015	252.81
619.222	248.81
619.429	266.81
619.637	243.81
619.844	255.81
620.051	251.81
620.258	276.81
620.466	241.81
620.673	246.81
620.88	252.81
621.087	245.81
621.294	262.81
621.501	241.81
621.708	255.81
621.915	263.81
622.122	265.81
622.329	254.81
622.536	240.81
622.743	224.81
622.95	244.81
623.157	247.81
623.364	223.81
623.571	243.81
623.778	230.81
623.985	253.81
624.192	241.81
624.399	229.81
624.606	224.81
624.812	226.81
625.019	231.81
625.226	259.81
625.433	240.81
625.639	225.81
625.846	237.81
626.053	252.81
626.259	237.81
626.466	251.81
626.673	238.81
626.879	227.81
627.086	238.81
627.293	230.81
627.499	228.81
627.706	223.81
627.912	232.81
628.119	235.81
628.325	232.81
628.532	231.81
628.738	218.81
628.945	226.81
629.151	230.81
629.357	229.81
629.564	218.81
629.77	221.81
629.976	227.81
630.183	222.81
630.389	214.81
630.595	221.81
630.802	181.81
631.008	207.81
631.214	198.81
631.42	209.81
631.627	212.81
631.833	208.81
632.039	215.81
632.245	210.81
632.451	230.81
632.657	192.81
632.863	195.81
633.069	197.81
633.275	204.81
633.481	200.81
633.688	189.81
633.893	197.81
634.099	195.81
634.305	200.81
634.511	199.81
634.717	203.81
634.923	191.81
635.129	192.81
635.335	195.81
635.541	177.81
635.747	208.81
635.952	197.81
636.158	193.81
636.364	192.81
636.57	183.81
636.775	190.81
636.981	197.81
637.187	204.81
637.392	201.81
637.598	187.81
637.804	196.81
638.009	213.81
638.215	190.81
638.421	202.81
638.626	188.81
638.832	187.81
639.037	184.81
639.243	165.81
639.448	205.81
639.654	180.81
639.859	177.81
640.065	182.81
640.27	184.81
640.475	188.81
640.681	199.81
640.886	198.81
641.091	193.81
641.297	196.81
641.502	181.81
641.707	187.81
641.913	189.81
642.118	183.81
642.323	193.81
642.528	186.81
642.733	179.81
642.939	184.81
643.144	178.81
643.349	189.81
643.554	177.81
643.759	171.81
643.964	168.81
644.169	167.81
644.374	179.81
644.579	185.81
644.784	160.81
644.989	197.81
645.194	177.81
645.399	182.81
645.604	171.81
645.809	168.81
646.014	195.81
646.219	178.81
646.423	178.81
646.628	172.81
646.833	196.81
647.038	164.81
647.243	160.81
647.447	181.81
647.652	185.81
647.857	184.81
648.062	172.81
648.266	173.81
648.471	175.81
648.676	178.81
648.88	190.81
649.085	175.81
649.289	180.81
649.494	177.81
649.698	210.81
649.903	204.81
650.107	171.81
650.312	190.81
650.516	167.81
650.721	160.81
650.925	165.81
651.13	161.81
651.334	174.81
651.539	160.81
651.743	159.81
651.947	164.81
652.152	168.81
652.356	153.81
652.56	167.81
652.764	164.81
652.969	152.81
653.173	130.81
653.377	149.81
653.581	151.81
653.785	140.81
653.99	151.81
654.194	146.81
654.398	144.81
654.602	145.81
654.806	150.81
655.01	142.81
655.214	140.81
655.418	134.81
655.622	141.81
655.826	121.81
656.03	134.81
656.234	141.81
656.438	133.81
656.642	120.81
656.846	129.81
657.049	130.81
657.253	122.81
657.457	127.81
657.661	109.81
657.865	111.81
658.068	121.81
658.272	138.81
658.476	106.81
658.68	118.81
658.883	97.81
659.087	108.81
659.291	101.81
659.494	102.81
659.698	85.81
659.901	97.81
660.105	88.81
660.309	100.81
660.512	114.81
660.716	97.81
660.919	94.81
661.123	95.81
661.326	88.81
661.53	74.81
661.733	79.81
661.936	88.81
662.14	96.81
662.343	96.81
662.546	59.81
662.75	81.81
662.953	76.81
663.156	82.81
663.36	78.81
663.563	85.81
663.766	81.81
663.969	73.81
664.173	88.81
664.376	82.81
664.579	89.81
664.782	79.81
664.985	82.81
665.188	85.81
665.391	90.81
665.594	73.81
665.797	78.81
666	80.81
666.203	81.81
666.406	97.81
666.609	68.81
666.812	81.81
667.015	83.81
667.218	77.81
667.421	86.81
667.624	79.81
667.827	95.81
668.03	96.81
668.232	79.81
668.435	86.81
668.638	85.81
668.841	92.81
669.043	80.81
669.246	71.81
669.449	71.81
669.651	84.81
669.854	75.81
670.057	73.81
670.259	72.81
670.462	86.81
670.665	73.81
670.867	85.81
671.07	69.81
671.272	75.81
671.475	71.81
671.677	84.81
671.88	58.81
672.082	84.81
672.284	88.81
672.487	72.81
672.689	71.81
672.892	76.81
