Data from 1988.PennyLincolnUp.Lamp.En5.5.200Scan.071819.P2_HRD10591_17-20-09-972.txt Node
Date: Thu Jul 18 17:20:09 EDT 2019
User: cochatt
Spectrometer: HR+D1059
Trigger mode: 1
Integration Time (sec): 1.000000E-1
Scans to average: 1
Electric dark correction enabled: true
Nonlinearity correction enabled: false
Boxcar width: 0
XAxis mode: Wavelengths
Number of Pixels in Spectrum: 2048
>>>>>Begin Spectral Data<<<<<
223.165	-18.12
223.4	-18.12
223.635	-18.12
223.869	-12.12
224.104	-18.12
224.338	-20.12
224.573	-21.12
224.808	-7.12
225.042	0.88
225.277	-5.12
225.511	-4.12
225.746	1.88
225.98	5.88
226.215	18.88
226.449	21.88
226.683	14.88
226.918	13.88
227.152	27.88
227.387	23.88
227.621	31.88
227.856	37.88
228.09	37.88
228.324	64.88
228.559	58.88
228.793	56.88
229.027	93.88
229.262	125.88
229.496	130.88
229.73	132.88
229.964	152.88
230.199	128.88
230.433	111.88
230.667	124.88
230.901	123.88
231.136	97.88
231.37	116.88
231.604	103.88
231.838	116.88
232.072	124.88
232.306	106.88
232.541	104.88
232.775	100.88
233.009	105.88
233.243	105.88
233.477	106.88
233.711	107.88
233.945	114.88
234.179	107.88
234.413	116.88
234.647	124.88
234.881	128.88
235.115	115.88
235.349	124.88
235.583	122.88
235.817	112.88
236.051	124.88
236.285	122.88
236.519	122.88
236.753	132.88
236.987	148.88
237.221	183.88
237.455	224.88
237.689	199.88
237.922	129.88
238.156	136.88
238.39	136.88
238.624	118.88
238.858	119.88
239.091	123.88
239.325	124.88
239.559	124.88
239.793	121.88
240.027	127.88
240.26	132.88
240.494	150.88
240.728	160.88
240.961	155.88
241.195	156.88
241.429	132.88
241.662	165.88
241.896	131.88
242.13	131.88
242.363	137.88
242.597	121.88
242.83	135.88
243.064	141.88
243.298	149.88
243.531	156.88
243.765	132.88
243.998	148.88
244.232	150.88
244.465	141.88
244.699	138.88
244.932	137.88
245.166	134.88
245.399	165.88
245.633	141.88
245.866	133.88
246.099	142.88
246.333	148.88
246.566	150.88
246.8	145.88
247.033	154.88
247.266	143.88
247.5	158.88
247.733	171.88
247.966	165.88
248.2	155.88
248.433	177.88
248.666	160.88
248.899	189.88
249.133	208.88
249.366	211.88
249.599	201.88
249.832	187.88
250.066	172.88
250.299	185.88
250.532	180.88
250.765	193.88
250.998	209.88
251.231	226.88
251.465	198.88
251.698	194.88
251.931	191.88
252.164	190.88
252.397	200.88
252.63	205.88
252.863	203.88
253.096	212.88
253.329	207.88
253.562	210.88
253.795	210.88
254.028	192.88
254.261	227.88
254.494	209.88
254.727	251.88
254.96	288.88
255.193	255.88
255.426	219.88
255.659	217.88
255.892	213.88
256.124	216.88
256.357	214.88
256.59	184.88
256.823	205.88
257.056	213.88
257.289	195.88
257.521	206.88
257.754	193.88
257.987	195.88
258.22	198.88
258.452	202.88
258.685	204.88
258.918	210.88
259.151	207.88
259.383	197.88
259.616	226.88
259.849	219.88
260.081	229.88
260.314	242.88
260.547	251.88
260.779	233.88
261.012	212.88
261.244	201.88
261.477	208.88
261.71	214.88
261.942	219.88
262.175	209.88
262.407	216.88
262.64	223.88
262.872	206.88
263.105	224.88
263.337	195.88
263.57	218.88
263.802	205.88
264.035	186.88
264.267	187.88
264.499	203.88
264.732	198.88
264.964	202.88
265.197	212.88
265.429	204.88
265.661	212.88
265.894	204.88
266.126	206.88
266.358	192.88
266.591	206.88
266.823	203.88
267.055	226.88
267.287	222.88
267.52	215.88
267.752	217.88
267.984	215.88
268.216	219.88
268.448	227.88
268.681	233.88
268.913	252.88
269.145	270.88
269.377	282.88
269.609	267.88
269.841	262.88
270.073	260.88
270.306	273.88
270.538	304.88
270.77	297.88
271.002	288.88
271.234	293.88
271.466	284.88
271.698	301.88
271.93	286.88
272.162	297.88
272.394	309.88
272.626	306.88
272.858	258.88
273.09	267.88
273.322	281.88
273.553	250.88
273.785	249.88
274.017	258.88
274.249	262.88
274.481	237.88
274.713	248.88
274.945	272.88
275.176	264.88
275.408	255.88
275.64	253.88
275.872	256.88
276.104	262.88
276.335	274.88
276.567	254.88
276.799	276.88
277.031	282.88
277.262	287.88
277.494	297.88
277.726	286.88
277.957	288.88
278.189	276.88
278.421	259.88
278.652	269.88
278.884	274.88
279.115	247.88
279.347	247.88
279.579	248.88
279.81	260.88
280.042	240.88
280.273	260.88
280.505	251.88
280.736	244.88
280.968	252.88
281.199	268.88
281.431	241.88
281.662	242.88
281.894	245.88
282.125	245.88
282.356	278.88
282.588	301.88
282.819	305.88
283.051	284.88
283.282	258.88
283.513	256.88
283.745	249.88
283.976	262.88
284.207	249.88
284.439	274.88
284.67	270.88
284.901	271.88
285.132	274.88
285.364	265.88
285.595	266.88
285.826	269.88
286.057	254.88
286.288	281.88
286.52	272.88
286.751	261.88
286.982	264.88
287.213	272.88
287.444	287.88
287.675	268.88
287.906	278.88
288.138	277.88
288.369	291.88
288.6	295.88
288.831	286.88
289.062	292.88
289.293	289.88
289.524	257.88
289.755	262.88
289.986	277.88
290.217	299.88
290.448	288.88
290.679	278.88
290.91	286.88
291.141	283.88
291.371	264.88
291.602	285.88
291.833	274.88
292.064	279.88
292.295	277.88
292.526	270.88
292.757	281.88
292.987	272.88
293.218	274.88
293.449	292.88
293.68	280.88
293.91	286.88
294.141	294.88
294.372	278.88
294.603	275.88
294.833	283.88
295.064	270.88
295.295	280.88
295.525	264.88
295.756	282.88
295.987	302.88
296.217	305.88
296.448	324.88
296.679	320.88
296.909	286.88
297.14	280.88
297.37	283.88
297.601	281.88
297.831	312.88
298.062	300.88
298.292	300.88
298.523	297.88
298.753	289.88
298.984	305.88
299.214	300.88
299.445	292.88
299.675	290.88
299.905	326.88
300.136	320.88
300.366	308.88
300.597	289.88
300.827	296.88
301.057	334.88
301.288	334.88
301.518	334.88
301.748	300.88
301.979	331.88
302.209	303.88
302.439	316.88
302.669	317.88
302.9	315.88
303.13	307.88
303.36	323.88
303.59	321.88
303.82	327.88
304.051	344.88
304.281	333.88
304.511	289.88
304.741	308.88
304.971	316.88
305.201	309.88
305.431	320.88
305.661	308.88
305.891	307.88
306.121	321.88
306.352	323.88
306.582	322.88
306.812	323.88
307.042	326.88
307.272	328.88
307.502	322.88
307.731	340.88
307.961	324.88
308.191	331.88
308.421	328.88
308.651	342.88
308.881	331.88
309.111	324.88
309.341	338.88
309.571	354.88
309.8	339.88
310.03	360.88
310.26	361.88
310.49	368.88
310.72	379.88
310.949	388.88
311.179	389.88
311.409	365.88
311.639	364.88
311.868	362.88
312.098	373.88
312.328	365.88
312.557	382.88
312.787	416.88
313.017	416.88
313.246	410.88
313.476	373.88
313.706	356.88
313.935	368.88
314.165	371.88
314.394	392.88
314.624	384.88
314.853	384.88
315.083	364.88
315.312	381.88
315.542	383.88
315.771	362.88
316.001	370.88
316.23	379.88
316.46	380.88
316.689	373.88
316.919	375.88
317.148	391.88
317.377	390.88
317.607	378.88
317.836	400.88
318.065	379.88
318.295	393.88
318.524	364.88
318.753	375.88
318.983	355.88
319.212	374.88
319.441	380.88
319.67	378.88
319.9	387.88
320.129	379.88
320.358	365.88
320.587	377.88
320.816	382.88
321.046	401.88
321.275	405.88
321.504	409.88
321.733	396.88
321.962	429.88
322.191	411.88
322.42	405.88
322.649	437.88
322.878	449.88
323.108	471.88
323.337	476.88
323.566	480.88
323.795	524.88
324.024	590.88
324.253	713.88
324.482	972.88
324.71	1550.88
324.939	2288.88
325.168	2007.88
325.397	1018.88
325.626	686.88
325.855	578.88
326.084	506.88
326.313	505.88
326.542	504.88
326.77	565.88
326.999	653.88
327.228	894.88
327.457	1377.88
327.686	1686.88
327.914	1142.88
328.143	740.88
328.372	608.88
328.6	578.88
328.829	574.88
329.058	581.88
329.287	588.88
329.515	516.88
329.744	507.88
329.972	499.88
330.201	474.88
330.43	536.88
330.658	541.88
330.887	590.88
331.115	587.88
331.344	503.88
331.572	480.88
331.801	482.88
332.03	473.88
332.258	479.88
332.486	469.88
332.715	432.88
332.943	449.88
333.172	434.88
333.4	448.88
333.629	455.88
333.857	463.88
334.085	442.88
334.314	439.88
334.542	466.88
334.771	463.88
334.999	468.88
335.227	452.88
335.455	453.88
335.684	441.88
335.912	468.88
336.14	470.88
336.369	453.88
336.597	440.88
336.825	441.88
337.053	439.88
337.281	440.88
337.51	430.88
337.738	443.88
337.966	428.88
338.194	429.88
338.422	446.88
338.65	452.88
338.878	432.88
339.106	427.88
339.334	435.88
339.562	442.88
339.79	443.88
340.018	444.88
340.246	409.88
340.474	431.88
340.702	432.88
340.93	441.88
341.158	428.88
341.386	418.88
341.614	424.88
341.842	422.88
342.07	412.88
342.298	404.88
342.526	420.88
342.754	397.88
342.981	415.88
343.209	428.88
343.437	426.88
343.665	427.88
343.893	422.88
344.12	444.88
344.348	449.88
344.576	452.88
344.804	437.88
345.031	453.88
345.259	442.88
345.487	457.88
345.714	408.88
345.942	442.88
346.17	424.88
346.397	406.88
346.625	424.88
346.853	434.88
347.08	414.88
347.308	417.88
347.535	408.88
347.763	444.88
347.99	424.88
348.218	432.88
348.445	432.88
348.673	424.88
348.9	425.88
349.128	410.88
349.355	399.88
349.583	399.88
349.81	407.88
350.037	421.88
350.265	395.88
350.492	413.88
350.72	404.88
350.947	412.88
351.174	408.88
351.402	425.88
351.629	432.88
351.856	437.88
352.083	423.88
352.311	438.88
352.538	432.88
352.765	434.88
352.992	431.88
353.22	409.88
353.447	417.88
353.674	420.88
353.901	390.88
354.128	397.88
354.355	396.88
354.583	384.88
354.81	417.88
355.037	406.88
355.264	382.88
355.491	390.88
355.718	392.88
355.945	392.88
356.172	404.88
356.399	404.88
356.626	391.88
356.853	380.88
357.08	386.88
357.307	408.88
357.534	378.88
357.761	398.88
357.988	402.88
358.215	384.88
358.441	374.88
358.668	405.88
358.895	390.88
359.122	405.88
359.349	410.88
359.576	422.88
359.802	466.88
360.029	475.88
360.256	451.88
360.483	458.88
360.709	419.88
360.936	414.88
361.163	426.88
361.39	398.88
361.616	435.88
361.843	410.88
362.07	428.88
362.296	441.88
362.523	413.88
362.749	410.88
362.976	409.88
363.203	409.88
363.429	404.88
363.656	382.88
363.882	413.88
364.109	386.88
364.335	424.88
364.562	405.88
364.788	392.88
365.015	390.88
365.241	401.88
365.468	413.88
365.694	422.88
365.92	392.88
366.147	422.88
366.373	416.88
366.599	402.88
366.826	398.88
367.052	405.88
367.278	401.88
367.505	406.88
367.731	392.88
367.957	385.88
368.184	398.88
368.41	405.88
368.636	412.88
368.862	408.88
369.089	427.88
369.315	402.88
369.541	411.88
369.767	394.88
369.993	405.88
370.219	412.88
370.445	390.88
370.672	404.88
370.898	406.88
371.124	406.88
371.35	402.88
371.576	387.88
371.802	404.88
372.028	368.88
372.254	389.88
372.48	395.88
372.706	411.88
372.932	403.88
373.158	394.88
373.384	404.88
373.61	393.88
373.835	410.88
374.061	393.88
374.287	416.88
374.513	402.88
374.739	413.88
374.965	417.88
375.191	397.88
375.416	416.88
375.642	409.88
375.868	423.88
376.094	410.88
376.319	402.88
376.545	397.88
376.771	396.88
376.997	400.88
377.222	391.88
377.448	400.88
377.674	398.88
377.899	421.88
378.125	389.88
378.35	386.88
378.576	397.88
378.802	388.88
379.027	412.88
379.253	404.88
379.478	401.88
379.704	422.88
379.929	404.88
380.155	400.88
380.38	406.88
380.606	411.88
380.831	382.88
381.057	404.88
381.282	408.88
381.507	418.88
381.733	419.88
381.958	403.88
382.184	423.88
382.409	439.88
382.634	425.88
382.86	397.88
383.085	408.88
383.31	436.88
383.535	423.88
383.761	414.88
383.986	420.88
384.211	430.88
384.436	437.88
384.662	427.88
384.887	417.88
385.112	423.88
385.337	423.88
385.562	422.88
385.787	424.88
386.013	436.88
386.238	441.88
386.463	446.88
386.688	451.88
386.913	450.88
387.138	435.88
387.363	472.88
387.588	438.88
387.813	456.88
388.038	457.88
388.263	451.88
388.488	432.88
388.713	434.88
388.938	453.88
389.163	435.88
389.387	432.88
389.612	443.88
389.837	446.88
390.062	445.88
390.287	446.88
390.512	451.88
390.736	432.88
390.961	436.88
391.186	448.88
391.411	445.88
391.636	477.88
391.86	454.88
392.085	458.88
392.31	460.88
392.534	456.88
392.759	461.88
392.984	467.88
393.208	455.88
393.433	442.88
393.658	453.88
393.882	454.88
394.107	429.88
394.331	453.88
394.556	448.88
394.78	458.88
395.005	474.88
395.229	461.88
395.454	460.88
395.678	459.88
395.903	485.88
396.127	512.88
396.352	515.88
396.576	480.88
396.801	485.88
397.025	474.88
397.249	475.88
397.474	485.88
397.698	475.88
397.922	512.88
398.147	522.88
398.371	519.88
398.595	488.88
398.82	517.88
399.044	512.88
399.268	532.88
399.492	574.88
399.717	573.88
399.941	596.88
400.165	632.88
400.389	635.88
400.613	585.88
400.837	548.88
401.062	529.88
401.286	493.88
401.51	506.88
401.734	514.88
401.958	515.88
402.182	532.88
402.406	523.88
402.63	519.88
402.854	529.88
403.078	518.88
403.302	530.88
403.526	530.88
403.75	547.88
403.974	540.88
404.198	542.88
404.422	553.88
404.645	534.88
404.869	525.88
405.093	557.88
405.317	595.88
405.541	628.88
405.765	583.88
405.988	537.88
406.212	573.88
406.436	601.88
406.66	627.88
406.883	594.88
407.107	628.88
407.331	640.88
407.555	737.88
407.778	697.88
408.002	664.88
408.226	598.88
408.449	566.88
408.673	576.88
408.896	628.88
409.12	676.88
409.344	619.88
409.567	569.88
409.791	548.88
410.014	554.88
410.238	543.88
410.461	530.88
410.685	548.88
410.908	555.88
411.132	614.88
411.355	621.88
411.578	595.88
411.802	560.88
412.025	556.88
412.249	554.88
412.472	568.88
412.695	539.88
412.919	539.88
413.142	529.88
413.365	551.88
413.589	547.88
413.812	517.88
414.035	525.88
414.258	508.88
414.482	505.88
414.705	542.88
414.928	545.88
415.151	509.88
415.374	500.88
415.597	507.88
415.821	505.88
416.044	479.88
416.267	502.88
416.49	513.88
416.713	505.88
416.936	507.88
417.159	500.88
417.382	504.88
417.605	515.88
417.828	520.88
418.051	548.88
418.274	526.88
418.497	502.88
418.72	517.88
418.943	494.88
419.166	516.88
419.389	538.88
419.611	562.88
419.834	520.88
420.057	542.88
420.28	549.88
420.503	523.88
420.726	526.88
420.948	523.88
421.171	596.88
421.394	596.88
421.617	567.88
421.839	538.88
422.062	530.88
422.285	571.88
422.507	612.88
422.73	685.88
422.953	644.88
423.175	597.88
423.398	574.88
423.621	558.88
423.843	564.88
424.066	590.88
424.288	593.88
424.511	608.88
424.733	661.88
424.956	747.88
425.178	715.88
425.401	686.88
425.623	734.88
425.846	636.88
426.068	589.88
426.291	583.88
426.513	587.88
426.735	596.88
426.958	624.88
427.18	722.88
427.402	858.88
427.625	960.88
427.847	832.88
428.069	702.88
428.292	626.88
428.514	576.88
428.736	562.88
428.958	542.88
429.181	547.88
429.403	520.88
429.625	560.88
429.847	547.88
430.069	650.88
430.292	646.88
430.514	570.88
430.736	541.88
430.958	534.88
431.18	516.88
431.402	529.88
431.624	506.88
431.846	518.88
432.068	510.88
432.29	537.88
432.512	501.88
432.734	525.88
432.956	514.88
433.178	529.88
433.4	520.88
433.622	530.88
433.844	529.88
434.066	510.88
434.287	471.88
434.509	512.88
434.731	549.88
434.953	526.88
435.175	556.88
435.397	572.88
435.618	566.88
435.84	609.88
436.062	710.88
436.284	816.88
436.505	681.88
436.727	598.88
436.949	574.88
437.17	546.88
437.392	549.88
437.614	572.88
437.835	593.88
438.057	709.88
438.278	800.88
438.5	793.88
438.721	864.88
438.943	823.88
439.165	674.88
439.386	630.88
439.608	584.88
439.829	582.88
440.05	636.88
440.272	685.88
440.493	627.88
440.715	567.88
440.936	547.88
441.158	542.88
441.379	559.88
441.6	567.88
441.822	580.88
442.043	618.88
442.264	692.88
442.486	749.88
442.707	632.88
442.928	603.88
443.149	566.88
443.371	646.88
443.592	667.88
443.813	756.88
444.034	826.88
444.255	682.88
444.476	628.88
444.698	572.88
444.919	564.88
445.14	702.88
445.361	666.88
445.582	629.88
445.803	678.88
446.024	835.88
446.245	820.88
446.466	755.88
446.687	648.88
446.908	598.88
447.129	550.88
447.35	573.88
447.571	542.88
447.792	540.88
448.013	545.88
448.234	548.88
448.455	624.88
448.675	730.88
448.896	861.88
449.117	710.88
449.338	704.88
449.559	789.88
449.779	910.88
450	725.88
450.221	596.88
450.442	553.88
450.662	529.88
450.883	542.88
451.104	539.88
451.324	536.88
451.545	525.88
451.766	492.88
451.986	504.88
452.207	490.88
452.428	468.88
452.648	477.88
452.869	498.88
453.089	517.88
453.31	507.88
453.53	476.88
453.751	479.88
453.971	486.88
454.192	507.88
454.412	478.88
454.633	494.88
454.853	498.88
455.073	476.88
455.294	518.88
455.514	586.88
455.734	557.88
455.955	476.88
456.175	470.88
456.395	450.88
456.616	465.88
456.836	446.88
457.056	433.88
457.276	438.88
457.497	450.88
457.717	434.88
457.937	460.88
458.157	477.88
458.377	489.88
458.598	496.88
458.818	560.88
459.038	650.88
459.258	674.88
459.478	550.88
459.698	481.88
459.918	508.88
460.138	502.88
460.358	528.88
460.578	512.88
460.798	524.88
461.018	501.88
461.238	527.88
461.458	523.88
461.678	513.88
461.898	526.88
462.118	526.88
462.338	523.88
462.558	537.88
462.777	550.88
462.997	572.88
463.217	554.88
463.437	573.88
463.657	564.88
463.876	555.88
464.096	567.88
464.316	562.88
464.536	581.88
464.755	570.88
464.975	565.88
465.195	598.88
465.414	676.88
465.634	630.88
465.854	574.88
466.073	520.88
466.293	522.88
466.512	532.88
466.732	483.88
466.951	493.88
467.171	485.88
467.391	493.88
467.61	511.88
467.829	502.88
468.049	525.88
468.268	520.88
468.488	497.88
468.707	498.88
468.927	496.88
469.146	498.88
469.365	497.88
469.585	488.88
469.804	482.88
470.023	532.88
470.243	505.88
470.462	500.88
470.681	527.88
470.901	520.88
471.12	531.88
471.339	512.88
471.558	497.88
471.777	482.88
471.997	498.88
472.216	488.88
472.435	489.88
472.654	484.88
472.873	486.88
473.092	481.88
473.311	506.88
473.53	513.88
473.749	509.88
473.968	564.88
474.187	645.88
474.406	666.88
474.625	572.88
474.844	518.88
475.063	498.88
475.282	521.88
475.501	518.88
475.72	527.88
475.939	556.88
476.158	512.88
476.377	525.88
476.596	526.88
476.814	537.88
477.033	549.88
477.252	542.88
477.471	522.88
477.69	560.88
477.908	557.88
478.127	554.88
478.346	555.88
478.564	567.88
478.783	541.88
479.002	587.88
479.22	582.88
479.439	570.88
479.658	598.88
479.876	579.88
480.095	601.88
480.313	625.88
480.532	616.88
480.751	609.88
480.969	629.88
481.188	624.88
481.406	618.88
481.624	597.88
481.843	601.88
482.061	587.88
482.28	587.88
482.498	575.88
482.717	591.88
482.935	598.88
483.153	611.88
483.372	597.88
483.59	582.88
483.808	589.88
484.027	588.88
484.245	565.88
484.463	580.88
484.681	582.88
484.9	584.88
485.118	600.88
485.336	626.88
485.554	602.88
485.772	637.88
485.99	630.88
486.209	609.88
486.427	615.88
486.645	624.88
486.863	649.88
487.081	628.88
487.299	613.88
487.517	632.88
487.735	634.88
487.953	637.88
488.171	641.88
488.389	621.88
488.607	623.88
488.825	628.88
489.043	638.88
489.261	636.88
489.479	651.88
489.696	650.88
489.914	642.88
490.132	665.88
490.35	657.88
490.568	667.88
490.786	696.88
491.003	698.88
491.221	679.88
491.439	712.88
491.657	706.88
491.874	697.88
492.092	703.88
492.31	706.88
492.527	719.88
492.745	697.88
492.963	718.88
493.18	713.88
493.398	717.88
493.615	725.88
493.833	760.88
494.05	768.88
494.268	754.88
494.485	737.88
494.703	762.88
494.92	749.88
495.138	740.88
495.355	776.88
495.573	749.88
495.79	744.88
496.008	772.88
496.225	768.88
496.442	772.88
496.66	774.88
496.877	753.88
497.094	775.88
497.312	763.88
497.529	773.88
497.746	787.88
497.963	799.88
498.181	828.88
498.398	844.88
498.615	830.88
498.832	859.88
499.049	864.88
499.267	904.88
499.484	934.88
499.701	966.88
499.918	962.88
500.135	1001.88
500.352	1060.88
500.569	1050.88
500.786	1071.88
501.003	1050.88
501.22	1012.88
501.437	975.88
501.654	979.88
501.871	959.88
502.088	932.88
502.305	874.88
502.522	889.88
502.739	841.88
502.956	841.88
503.172	788.88
503.389	820.88
503.606	825.88
503.823	812.88
504.04	784.88
504.256	786.88
504.473	775.88
504.69	764.88
504.907	781.88
505.123	762.88
505.34	746.88
505.557	740.88
505.773	733.88
505.99	725.88
506.207	729.88
506.423	726.88
506.64	740.88
506.856	702.88
507.073	726.88
507.289	707.88
507.506	692.88
507.722	705.88
507.939	748.88
508.155	710.88
508.372	704.88
508.588	676.88
508.805	702.88
509.021	677.88
509.238	720.88
509.454	685.88
509.67	708.88
509.887	682.88
510.103	677.88
510.319	716.88
510.536	777.88
510.752	1283.88
510.968	1085.88
511.184	718.88
511.401	707.88
511.617	672.88
511.833	666.88
512.049	651.88
512.265	636.88
512.481	636.88
512.698	654.88
512.914	679.88
513.13	668.88
513.346	651.88
513.562	673.88
513.778	671.88
513.994	666.88
514.21	684.88
514.426	683.88
514.642	749.88
514.858	755.88
515.074	814.88
515.29	925.88
515.506	1366.88
515.721	1173.88
515.937	836.88
516.153	733.88
516.369	714.88
516.585	700.88
516.801	705.88
517.016	687.88
517.232	703.88
517.448	692.88
517.664	707.88
517.879	682.88
518.095	705.88
518.311	680.88
518.527	699.88
518.742	666.88
518.958	681.88
519.173	659.88
519.389	672.88
519.605	671.88
519.82	671.88
520.036	660.88
520.251	713.88
520.467	724.88
520.682	717.88
520.898	706.88
521.113	748.88
521.329	805.88
521.544	873.88
521.76	1109.88
521.975	1728.88
522.19	1763.88
522.406	981.88
522.621	760.88
522.836	702.88
523.052	668.88
523.267	650.88
523.482	629.88
523.698	616.88
523.913	619.88
524.128	603.88
524.343	602.88
524.559	585.88
524.774	578.88
524.989	616.88
525.204	590.88
525.419	597.88
525.634	563.88
525.849	566.88
526.064	552.88
526.28	555.88
526.495	556.88
526.71	550.88
526.925	545.88
527.14	538.88
527.355	548.88
527.57	530.88
527.785	539.88
527.999	547.88
528.214	548.88
528.429	556.88
528.644	565.88
528.859	550.88
529.074	543.88
529.289	555.88
529.503	651.88
529.718	643.88
529.933	595.88
530.148	579.88
530.363	543.88
530.577	548.88
530.792	536.88
531.007	542.88
531.221	507.88
531.436	536.88
531.651	522.88
531.865	537.88
532.08	517.88
532.295	533.88
532.509	530.88
532.724	546.88
532.938	510.88
533.153	514.88
533.367	515.88
533.582	523.88
533.796	501.88
534.011	524.88
534.225	515.88
534.44	514.88
534.654	518.88
534.868	502.88
535.083	482.88
535.297	529.88
535.511	512.88
535.726	521.88
535.94	542.88
536.154	507.88
536.369	509.88
536.583	492.88
536.797	483.88
537.011	512.88
537.225	505.88
537.44	484.88
537.654	504.88
537.868	506.88
538.082	487.88
538.296	512.88
538.51	487.88
538.724	507.88
538.938	484.88
539.153	520.88
539.367	523.88
539.581	519.88
539.795	516.88
540.009	507.88
540.222	486.88
540.436	477.88
540.65	500.88
540.864	499.88
541.078	502.88
541.292	496.88
541.506	493.88
541.72	501.88
541.934	481.88
542.147	521.88
542.361	479.88
542.575	506.88
542.789	488.88
543.002	494.88
543.216	500.88
543.43	484.88
543.644	482.88
543.857	477.88
544.071	486.88
544.285	497.88
544.498	484.88
544.712	473.88
544.925	474.88
545.139	474.88
545.352	477.88
545.566	514.88
545.779	474.88
545.993	480.88
546.206	481.88
546.42	498.88
546.633	468.88
546.847	469.88
547.06	478.88
547.274	480.88
547.487	474.88
547.7	478.88
547.914	467.88
548.127	467.88
548.34	479.88
548.554	469.88
548.767	489.88
548.98	471.88
549.193	481.88
549.407	487.88
549.62	451.88
549.833	467.88
550.046	453.88
550.259	460.88
550.473	459.88
550.686	484.88
550.899	467.88
551.112	442.88
551.325	455.88
551.538	453.88
551.751	454.88
551.964	479.88
552.177	477.88
552.39	451.88
552.603	464.88
552.816	485.88
553.029	469.88
553.242	461.88
553.455	488.88
553.667	489.88
553.88	491.88
554.093	469.88
554.306	485.88
554.519	473.88
554.732	487.88
554.944	449.88
555.157	446.88
555.37	443.88
555.583	456.88
555.795	436.88
556.008	461.88
556.221	441.88
556.433	421.88
556.646	420.88
556.859	422.88
557.071	418.88
557.284	435.88
557.496	426.88
557.709	436.88
557.921	424.88
558.134	434.88
558.346	432.88
558.559	429.88
558.771	402.88
558.984	433.88
559.196	399.88
559.409	431.88
559.621	440.88
559.833	422.88
560.046	420.88
560.258	420.88
560.47	408.88
560.683	420.88
560.895	401.88
561.107	415.88
561.32	410.88
561.532	406.88
561.744	412.88
561.956	417.88
562.168	422.88
562.381	386.88
562.593	412.88
562.805	407.88
563.017	411.88
563.229	418.88
563.441	444.88
563.653	444.88
563.865	445.88
564.077	412.88
564.289	432.88
564.501	427.88
564.713	422.88
564.925	413.88
565.137	453.88
565.349	445.88
565.561	476.88
565.773	453.88
565.985	456.88
566.197	484.88
566.408	480.88
566.62	488.88
566.832	500.88
567.044	502.88
567.255	485.88
567.467	508.88
567.679	526.88
567.891	546.88
568.102	529.88
568.314	524.88
568.526	509.88
568.737	477.88
568.949	461.88
569.161	462.88
569.372	436.88
569.584	451.88
569.795	452.88
570.007	438.88
570.218	471.88
570.43	471.88
570.641	421.88
570.853	409.88
571.064	402.88
571.276	381.88
571.487	391.88
571.698	394.88
571.91	414.88
572.121	380.88
572.333	371.88
572.544	374.88
572.755	378.88
572.966	379.88
573.178	380.88
573.389	360.88
573.6	364.88
573.811	379.88
574.023	382.88
574.234	370.88
574.445	372.88
574.656	341.88
574.867	349.88
575.078	382.88
575.289	370.88
575.501	379.88
575.712	368.88
575.923	360.88
576.134	349.88
576.345	357.88
576.556	348.88
576.767	338.88
576.978	357.88
577.188	374.88
577.399	341.88
577.61	354.88
577.821	333.88
578.032	360.88
578.243	373.88
578.454	600.88
578.665	477.88
578.875	361.88
579.086	340.88
579.297	342.88
579.508	375.88
579.718	343.88
579.929	329.88
580.14	328.88
580.35	319.88
580.561	334.88
580.772	321.88
580.982	341.88
581.193	344.88
581.403	336.88
581.614	346.88
581.825	339.88
582.035	336.88
582.246	320.88
582.456	330.88
582.667	317.88
582.877	332.88
583.087	322.88
583.298	304.88
583.508	317.88
583.719	328.88
583.929	315.88
584.139	317.88
584.35	323.88
584.56	319.88
584.77	292.88
584.981	333.88
585.191	316.88
585.401	321.88
585.611	314.88
585.821	317.88
586.032	312.88
586.242	312.88
586.452	332.88
586.662	291.88
586.872	296.88
587.082	310.88
587.292	317.88
587.502	302.88
587.713	321.88
587.923	326.88
588.133	300.88
588.343	288.88
588.553	309.88
588.762	315.88
588.972	308.88
589.182	320.88
589.392	310.88
589.602	309.88
589.812	301.88
590.022	312.88
590.232	316.88
590.441	322.88
590.651	312.88
590.861	318.88
591.071	300.88
591.281	309.88
591.49	306.88
591.7	332.88
591.91	306.88
592.119	324.88
592.329	303.88
592.539	328.88
592.748	340.88
592.958	317.88
593.167	325.88
593.377	329.88
593.587	335.88
593.796	322.88
594.006	338.88
594.215	321.88
594.424	339.88
594.634	342.88
594.843	326.88
595.053	318.88
595.262	314.88
595.472	299.88
595.681	325.88
595.89	307.88
596.1	295.88
596.309	298.88
596.518	313.88
596.727	310.88
596.937	296.88
597.146	306.88
597.355	300.88
597.564	300.88
597.774	296.88
597.983	287.88
598.192	282.88
598.401	288.88
598.61	279.88
598.819	276.88
599.028	269.88
599.237	280.88
599.446	276.88
599.655	277.88
599.864	280.88
600.073	261.88
600.282	277.88
600.491	284.88
600.7	275.88
600.909	267.88
601.118	273.88
601.327	291.88
601.536	272.88
601.745	279.88
601.953	286.88
602.162	263.88
602.371	250.88
602.58	260.88
602.789	268.88
602.997	265.88
603.206	273.88
603.415	273.88
603.623	273.88
603.832	266.88
604.041	276.88
604.249	270.88
604.458	250.88
604.666	250.88
604.875	263.88
605.084	256.88
605.292	261.88
605.501	242.88
605.709	254.88
605.918	253.88
606.126	256.88
606.334	256.88
606.543	256.88
606.751	253.88
606.96	244.88
607.168	254.88
607.376	251.88
607.585	261.88
607.793	260.88
608.001	267.88
608.21	245.88
608.418	260.88
608.626	243.88
608.834	252.88
609.043	257.88
609.251	261.88
609.459	243.88
609.667	251.88
609.875	256.88
610.083	249.88
610.291	245.88
610.499	261.88
610.707	243.88
610.916	260.88
611.124	261.88
611.332	262.88
611.54	277.88
611.748	260.88
611.955	246.88
612.163	236.88
612.371	245.88
612.579	264.88
612.787	254.88
612.995	240.88
613.203	255.88
613.411	249.88
613.618	240.88
613.826	237.88
614.034	237.88
614.242	254.88
614.449	235.88
614.657	237.88
614.865	253.88
615.072	246.88
615.28	244.88
615.488	214.88
615.695	246.88
615.903	253.88
616.111	245.88
616.318	245.88
616.526	249.88
616.733	253.88
616.941	248.88
617.148	233.88
617.356	240.88
617.563	234.88
617.771	240.88
617.978	260.88
618.185	252.88
618.393	240.88
618.6	235.88
618.807	245.88
619.015	257.88
619.222	243.88
619.429	224.88
619.637	238.88
619.844	234.88
620.051	233.88
620.258	222.88
620.466	233.88
620.673	243.88
620.88	238.88
621.087	224.88
621.294	246.88
621.501	236.88
621.708	229.88
621.915	241.88
622.122	243.88
622.329	236.88
622.536	219.88
622.743	217.88
622.95	224.88
623.157	229.88
623.364	232.88
623.571	227.88
623.778	223.88
623.985	237.88
624.192	213.88
624.399	214.88
624.606	216.88
624.812	215.88
625.019	217.88
625.226	234.88
625.433	220.88
625.639	216.88
625.846	227.88
626.053	224.88
626.259	215.88
626.466	208.88
626.673	204.88
626.879	223.88
627.086	226.88
627.293	205.88
627.499	212.88
627.706	203.88
627.912	206.88
628.119	218.88
628.325	212.88
628.532	216.88
628.738	219.88
628.945	217.88
629.151	205.88
629.357	211.88
629.564	201.88
629.77	215.88
629.976	214.88
630.183	200.88
630.389	194.88
630.595	193.88
630.802	216.88
631.008	217.88
631.214	210.88
631.42	200.88
631.627	221.88
631.833	199.88
632.039	184.88
632.245	194.88
632.451	197.88
632.657	193.88
632.863	207.88
633.069	205.88
633.275	184.88
633.481	170.88
633.688	198.88
633.893	218.88
634.099	195.88
634.305	201.88
634.511	196.88
634.717	190.88
634.923	191.88
635.129	184.88
635.335	190.88
635.541	192.88
635.747	192.88
635.952	202.88
636.158	185.88
636.364	186.88
636.57	182.88
636.775	181.88
636.981	198.88
637.187	204.88
637.392	184.88
637.598	192.88
637.804	192.88
638.009	170.88
638.215	195.88
638.421	188.88
638.626	182.88
638.832	171.88
639.037	186.88
639.243	176.88
639.448	164.88
639.654	162.88
639.859	185.88
640.065	182.88
640.27	178.88
640.475	189.88
640.681	164.88
640.886	186.88
641.091	180.88
641.297	173.88
641.502	183.88
641.707	176.88
641.913	184.88
642.118	184.88
642.323	173.88
642.528	190.88
642.733	183.88
642.939	178.88
643.144	185.88
643.349	162.88
643.554	176.88
643.759	176.88
643.964	163.88
644.169	152.88
644.374	161.88
644.579	164.88
644.784	173.88
644.989	170.88
645.194	158.88
645.399	169.88
645.604	162.88
645.809	176.88
646.014	175.88
646.219	169.88
646.423	176.88
646.628	170.88
646.833	169.88
647.038	181.88
647.243	167.88
647.447	172.88
647.652	168.88
647.857	161.88
648.062	168.88
648.266	168.88
648.471	181.88
648.676	177.88
648.88	176.88
649.085	182.88
649.289	147.88
649.494	178.88
649.698	193.88
649.903	191.88
650.107	179.88
650.312	174.88
650.516	136.88
650.721	171.88
650.925	172.88
651.13	162.88
651.334	147.88
651.539	142.88
651.743	160.88
651.947	142.88
652.152	140.88
652.356	150.88
652.56	140.88
652.764	143.88
652.969	148.88
653.173	138.88
653.377	152.88
653.581	131.88
653.785	136.88
653.99	140.88
654.194	140.88
654.398	124.88
654.602	136.88
654.806	132.88
655.01	132.88
655.214	153.88
655.418	128.88
655.622	136.88
655.826	136.88
656.03	133.88
656.234	140.88
656.438	130.88
656.642	132.88
656.846	139.88
657.049	130.88
657.253	125.88
657.457	116.88
657.661	118.88
657.865	117.88
658.068	126.88
658.272	123.88
658.476	118.88
658.68	112.88
658.883	99.88
659.087	101.88
659.291	98.88
659.494	100.88
659.698	90.88
659.901	112.88
660.105	114.88
660.309	89.88
660.512	98.88
660.716	95.88
660.919	90.88
661.123	82.88
661.326	96.88
661.53	93.88
661.733	99.88
661.936	106.88
662.14	83.88
662.343	98.88
662.546	89.88
662.75	86.88
662.953	93.88
663.156	89.88
663.36	80.88
663.563	79.88
663.766	80.88
663.969	78.88
664.173	74.88
664.376	81.88
664.579	76.88
664.782	83.88
664.985	81.88
665.188	75.88
665.391	79.88
665.594	85.88
665.797	78.88
666	80.88
666.203	76.88
666.406	89.88
666.609	82.88
666.812	65.88
667.015	75.88
667.218	89.88
667.421	84.88
667.624	63.88
667.827	81.88
668.03	87.88
668.232	79.88
668.435	84.88
668.638	81.88
668.841	75.88
669.043	97.88
669.246	76.88
669.449	78.88
669.651	96.88
669.854	81.88
670.057	97.88
670.259	85.88
670.462	89.88
670.665	97.88
670.867	76.88
671.07	78.88
671.272	91.88
671.475	84.88
671.677	96.88
671.88	89.88
672.082	89.88
672.284	88.88
672.487	95.88
672.689	86.88
672.892	89.88
