Data from 1988.PennyLincolnUp.Lamp.En5.5.200Scan.071819.P2_HRD10591_17-20-17-972.txt Node
Date: Thu Jul 18 17:20:17 EDT 2019
User: cochatt
Spectrometer: HR+D1059
Trigger mode: 1
Integration Time (sec): 1.000000E-1
Scans to average: 1
Electric dark correction enabled: true
Nonlinearity correction enabled: false
Boxcar width: 0
XAxis mode: Wavelengths
Number of Pixels in Spectrum: 2048
>>>>>Begin Spectral Data<<<<<
223.165	-8.19
223.4	-8.19
223.635	-8.19
223.869	-10.19
224.104	-36.19
224.338	-4.19
224.573	-24.19
224.808	-18.19
225.042	-4.19
225.277	-10.19
225.511	11.81
225.746	8.81
225.98	1.81
226.215	11.81
226.449	23.81
226.683	16.81
226.918	19.81
227.152	20.81
227.387	37.81
227.621	31.81
227.856	50.81
228.09	38.81
228.324	47.81
228.559	45.81
228.793	77.81
229.027	99.81
229.262	116.81
229.496	113.81
229.73	147.81
229.964	160.81
230.199	108.81
230.433	135.81
230.667	127.81
230.901	107.81
231.136	111.81
231.37	115.81
231.604	130.81
231.838	121.81
232.072	127.81
232.306	99.81
232.541	120.81
232.775	108.81
233.009	115.81
233.243	121.81
233.477	107.81
233.711	123.81
233.945	130.81
234.179	117.81
234.413	116.81
234.647	113.81
234.881	121.81
235.115	124.81
235.349	116.81
235.583	127.81
235.817	132.81
236.051	134.81
236.285	130.81
236.519	135.81
236.753	137.81
236.987	145.81
237.221	191.81
237.455	253.81
237.689	203.81
237.922	152.81
238.156	145.81
238.39	143.81
238.624	130.81
238.858	147.81
239.091	123.81
239.325	131.81
239.559	117.81
239.793	136.81
240.027	142.81
240.26	135.81
240.494	156.81
240.728	151.81
240.961	146.81
241.195	157.81
241.429	136.81
241.662	143.81
241.896	137.81
242.13	143.81
242.363	140.81
242.597	153.81
242.83	151.81
243.064	139.81
243.298	151.81
243.531	163.81
243.765	145.81
243.998	134.81
244.232	150.81
244.465	156.81
244.699	134.81
244.932	161.81
245.166	155.81
245.399	155.81
245.633	144.81
245.866	155.81
246.099	169.81
246.333	156.81
246.566	151.81
246.8	154.81
247.033	159.81
247.266	141.81
247.5	154.81
247.733	172.81
247.966	172.81
248.2	187.81
248.433	172.81
248.666	182.81
248.899	194.81
249.133	201.81
249.366	219.81
249.599	203.81
249.832	196.81
250.066	185.81
250.299	195.81
250.532	196.81
250.765	209.81
250.998	251.81
251.231	233.81
251.465	228.81
251.698	226.81
251.931	197.81
252.164	211.81
252.397	201.81
252.63	211.81
252.863	207.81
253.096	223.81
253.329	256.81
253.562	230.81
253.795	237.81
254.028	220.81
254.261	245.81
254.494	255.81
254.727	260.81
254.96	293.81
255.193	288.81
255.426	245.81
255.659	241.81
255.892	232.81
256.124	229.81
256.357	217.81
256.59	225.81
256.823	227.81
257.056	221.81
257.289	214.81
257.521	218.81
257.754	232.81
257.987	219.81
258.22	216.81
258.452	215.81
258.685	227.81
258.918	218.81
259.151	225.81
259.383	231.81
259.616	248.81
259.849	230.81
260.081	257.81
260.314	250.81
260.547	281.81
260.779	267.81
261.012	254.81
261.244	231.81
261.477	241.81
261.71	237.81
261.942	225.81
262.175	246.81
262.407	248.81
262.64	228.81
262.872	211.81
263.105	225.81
263.337	231.81
263.57	214.81
263.802	216.81
264.035	224.81
264.267	221.81
264.499	212.81
264.732	221.81
264.964	229.81
265.197	216.81
265.429	225.81
265.661	249.81
265.894	240.81
266.126	232.81
266.358	228.81
266.591	219.81
266.823	220.81
267.055	244.81
267.287	234.81
267.52	225.81
267.752	232.81
267.984	244.81
268.216	236.81
268.448	252.81
268.681	257.81
268.913	279.81
269.145	267.81
269.377	292.81
269.609	276.81
269.841	280.81
270.073	287.81
270.306	309.81
270.538	332.81
270.77	312.81
271.002	341.81
271.234	314.81
271.466	313.81
271.698	331.81
271.93	343.81
272.162	331.81
272.394	326.81
272.626	330.81
272.858	308.81
273.09	307.81
273.322	287.81
273.553	303.81
273.785	287.81
274.017	272.81
274.249	284.81
274.481	279.81
274.713	272.81
274.945	279.81
275.176	277.81
275.408	280.81
275.64	250.81
275.872	266.81
276.104	279.81
276.335	285.81
276.567	278.81
276.799	290.81
277.031	326.81
277.262	339.81
277.494	343.81
277.726	336.81
277.957	307.81
278.189	305.81
278.421	288.81
278.652	292.81
278.884	280.81
279.115	275.81
279.347	289.81
279.579	295.81
279.81	278.81
280.042	269.81
280.273	278.81
280.505	297.81
280.736	282.81
280.968	270.81
281.199	276.81
281.431	294.81
281.662	287.81
281.894	270.81
282.125	285.81
282.356	303.81
282.588	307.81
282.819	326.81
283.051	305.81
283.282	297.81
283.513	306.81
283.745	287.81
283.976	307.81
284.207	306.81
284.439	305.81
284.67	288.81
284.901	309.81
285.132	288.81
285.364	306.81
285.595	297.81
285.826	294.81
286.057	296.81
286.288	288.81
286.52	295.81
286.751	305.81
286.982	295.81
287.213	291.81
287.444	288.81
287.675	301.81
287.906	306.81
288.138	312.81
288.369	336.81
288.6	322.81
288.831	315.81
289.062	331.81
289.293	324.81
289.524	315.81
289.755	309.81
289.986	311.81
290.217	295.81
290.448	306.81
290.679	309.81
290.91	304.81
291.141	296.81
291.371	305.81
291.602	295.81
291.833	297.81
292.064	313.81
292.295	300.81
292.526	307.81
292.757	303.81
292.987	314.81
293.218	313.81
293.449	332.81
293.68	318.81
293.91	300.81
294.141	311.81
294.372	297.81
294.603	308.81
294.833	325.81
295.064	320.81
295.295	325.81
295.525	332.81
295.756	323.81
295.987	312.81
296.217	357.81
296.448	345.81
296.679	325.81
296.909	319.81
297.14	311.81
297.37	331.81
297.601	325.81
297.831	328.81
298.062	322.81
298.292	328.81
298.523	330.81
298.753	328.81
298.984	329.81
299.214	328.81
299.445	324.81
299.675	343.81
299.905	342.81
300.136	333.81
300.366	323.81
300.597	328.81
300.827	338.81
301.057	340.81
301.288	347.81
301.518	337.81
301.748	345.81
301.979	354.81
302.209	360.81
302.439	354.81
302.669	329.81
302.9	351.81
303.13	341.81
303.36	367.81
303.59	365.81
303.82	369.81
304.051	348.81
304.281	347.81
304.511	359.81
304.741	328.81
304.971	344.81
305.201	351.81
305.431	359.81
305.661	352.81
305.891	345.81
306.121	361.81
306.352	351.81
306.582	378.81
306.812	356.81
307.042	355.81
307.272	350.81
307.502	362.81
307.731	365.81
307.961	355.81
308.191	355.81
308.421	353.81
308.651	355.81
308.881	392.81
309.111	379.81
309.341	381.81
309.571	386.81
309.8	386.81
310.03	378.81
310.26	415.81
310.49	423.81
310.72	418.81
310.949	418.81
311.179	416.81
311.409	421.81
311.639	395.81
311.868	410.81
312.098	394.81
312.328	407.81
312.557	428.81
312.787	435.81
313.017	462.81
313.246	439.81
313.476	404.81
313.706	424.81
313.935	415.81
314.165	429.81
314.394	424.81
314.624	443.81
314.853	403.81
315.083	416.81
315.312	401.81
315.542	409.81
315.771	416.81
316.001	391.81
316.23	406.81
316.46	419.81
316.689	424.81
316.919	401.81
317.148	420.81
317.377	439.81
317.607	421.81
317.836	391.81
318.065	402.81
318.295	407.81
318.524	408.81
318.753	420.81
318.983	413.81
319.212	410.81
319.441	420.81
319.67	432.81
319.9	415.81
320.129	407.81
320.358	422.81
320.587	436.81
320.816	439.81
321.046	433.81
321.275	441.81
321.504	426.81
321.733	435.81
321.962	434.81
322.191	444.81
322.42	468.81
322.649	481.81
322.878	504.81
323.108	499.81
323.337	544.81
323.566	546.81
323.795	579.81
324.024	635.81
324.253	803.81
324.482	1105.81
324.71	1706.81
324.939	2603.81
325.168	2188.81
325.397	1099.81
325.626	755.81
325.855	617.81
326.084	566.81
326.313	544.81
326.542	577.81
326.77	603.81
326.999	725.81
327.228	999.81
327.457	1526.81
327.686	1893.81
327.914	1250.81
328.143	803.81
328.372	691.81
328.6	659.81
328.829	628.81
329.058	639.81
329.287	651.81
329.515	588.81
329.744	559.81
329.972	524.81
330.201	533.81
330.43	559.81
330.658	626.81
330.887	643.81
331.115	670.81
331.344	564.81
331.572	523.81
331.801	518.81
332.03	548.81
332.258	511.81
332.486	492.81
332.715	489.81
332.943	500.81
333.172	494.81
333.4	489.81
333.629	503.81
333.857	502.81
334.085	516.81
334.314	511.81
334.542	525.81
334.771	525.81
334.999	519.81
335.227	492.81
335.455	509.81
335.684	503.81
335.912	488.81
336.14	498.81
336.369	484.81
336.597	507.81
336.825	497.81
337.053	499.81
337.281	466.81
337.51	473.81
337.738	509.81
337.966	493.81
338.194	495.81
338.422	495.81
338.65	463.81
338.878	483.81
339.106	464.81
339.334	455.81
339.562	459.81
339.79	464.81
340.018	467.81
340.246	467.81
340.474	471.81
340.702	477.81
340.93	477.81
341.158	483.81
341.386	481.81
341.614	482.81
341.842	487.81
342.07	461.81
342.298	468.81
342.526	465.81
342.754	458.81
342.981	459.81
343.209	457.81
343.437	461.81
343.665	470.81
343.893	482.81
344.12	477.81
344.348	478.81
344.576	477.81
344.804	476.81
345.031	495.81
345.259	487.81
345.487	473.81
345.714	492.81
345.942	451.81
346.17	456.81
346.397	449.81
346.625	464.81
346.853	469.81
347.08	472.81
347.308	461.81
347.535	487.81
347.763	483.81
347.99	472.81
348.218	492.81
348.445	463.81
348.673	476.81
348.9	459.81
349.128	451.81
349.355	461.81
349.583	448.81
349.81	432.81
350.037	440.81
350.265	464.81
350.492	459.81
350.72	465.81
350.947	461.81
351.174	466.81
351.402	462.81
351.629	461.81
351.856	468.81
352.083	471.81
352.311	473.81
352.538	468.81
352.765	491.81
352.992	468.81
353.22	469.81
353.447	449.81
353.674	472.81
353.901	426.81
354.128	431.81
354.355	412.81
354.583	427.81
354.81	432.81
355.037	435.81
355.264	435.81
355.491	416.81
355.718	428.81
355.945	434.81
356.172	433.81
356.399	440.81
356.626	441.81
356.853	440.81
357.08	437.81
357.307	457.81
357.534	456.81
357.761	429.81
357.988	451.81
358.215	435.81
358.441	419.81
358.668	435.81
358.895	451.81
359.122	453.81
359.349	459.81
359.576	467.81
359.802	477.81
360.029	521.81
360.256	542.81
360.483	520.81
360.709	462.81
360.936	441.81
361.163	458.81
361.39	474.81
361.616	469.81
361.843	461.81
362.07	459.81
362.296	466.81
362.523	484.81
362.749	467.81
362.976	465.81
363.203	461.81
363.429	450.81
363.656	446.81
363.882	423.81
364.109	443.81
364.335	447.81
364.562	444.81
364.788	451.81
365.015	440.81
365.241	444.81
365.468	460.81
365.694	461.81
365.92	456.81
366.147	440.81
366.373	453.81
366.599	457.81
366.826	440.81
367.052	439.81
367.278	457.81
367.505	439.81
367.731	459.81
367.957	448.81
368.184	466.81
368.41	437.81
368.636	424.81
368.862	465.81
369.089	460.81
369.315	462.81
369.541	451.81
369.767	444.81
369.993	463.81
370.219	453.81
370.445	417.81
370.672	452.81
370.898	440.81
371.124	448.81
371.35	440.81
371.576	448.81
371.802	458.81
372.028	444.81
372.254	450.81
372.48	461.81
372.706	459.81
372.932	469.81
373.158	470.81
373.384	454.81
373.61	455.81
373.835	443.81
374.061	439.81
374.287	474.81
374.513	457.81
374.739	468.81
374.965	447.81
375.191	475.81
375.416	468.81
375.642	465.81
375.868	445.81
376.094	453.81
376.319	450.81
376.545	450.81
376.771	452.81
376.997	447.81
377.222	449.81
377.448	448.81
377.674	438.81
377.899	463.81
378.125	452.81
378.35	447.81
378.576	464.81
378.802	448.81
379.027	440.81
379.253	442.81
379.478	439.81
379.704	467.81
379.929	463.81
380.155	433.81
380.38	449.81
380.606	465.81
380.831	469.81
381.057	477.81
381.282	452.81
381.507	447.81
381.733	451.81
381.958	459.81
382.184	456.81
382.409	465.81
382.634	482.81
382.86	454.81
383.085	445.81
383.31	458.81
383.535	484.81
383.761	484.81
383.986	462.81
384.211	461.81
384.436	491.81
384.662	480.81
384.887	485.81
385.112	474.81
385.337	490.81
385.562	480.81
385.787	509.81
386.013	509.81
386.238	505.81
386.463	503.81
386.688	496.81
386.913	487.81
387.138	513.81
387.363	522.81
387.588	499.81
387.813	511.81
388.038	483.81
388.263	494.81
388.488	504.81
388.713	482.81
388.938	492.81
389.163	501.81
389.387	500.81
389.612	499.81
389.837	488.81
390.062	501.81
390.287	490.81
390.512	471.81
390.736	482.81
390.961	488.81
391.186	484.81
391.411	496.81
391.636	506.81
391.86	486.81
392.085	524.81
392.31	525.81
392.534	517.81
392.759	524.81
392.984	517.81
393.208	511.81
393.433	517.81
393.658	515.81
393.882	498.81
394.107	499.81
394.331	501.81
394.556	519.81
394.78	516.81
395.005	524.81
395.229	515.81
395.454	522.81
395.678	529.81
395.903	553.81
396.127	582.81
396.352	563.81
396.576	523.81
396.801	523.81
397.025	551.81
397.249	535.81
397.474	542.81
397.698	539.81
397.922	527.81
398.147	580.81
398.371	573.81
398.595	566.81
398.82	589.81
399.044	598.81
399.268	607.81
399.492	608.81
399.717	668.81
399.941	692.81
400.165	714.81
400.389	703.81
400.613	664.81
400.837	635.81
401.062	629.81
401.286	586.81
401.51	586.81
401.734	571.81
401.958	588.81
402.182	600.81
402.406	601.81
402.63	610.81
402.854	597.81
403.078	593.81
403.302	607.81
403.526	601.81
403.75	612.81
403.974	625.81
404.198	611.81
404.422	575.81
404.645	598.81
404.869	596.81
405.093	634.81
405.317	665.81
405.541	695.81
405.765	658.81
405.988	610.81
406.212	652.81
406.436	651.81
406.66	672.81
406.883	659.81
407.107	694.81
407.331	748.81
407.555	827.81
407.778	821.81
408.002	755.81
408.226	657.81
408.449	671.81
408.673	673.81
408.896	680.81
409.12	739.81
409.344	736.81
409.567	636.81
409.791	621.81
410.014	611.81
410.238	621.81
410.461	638.81
410.685	622.81
410.908	630.81
411.132	673.81
411.355	680.81
411.578	653.81
411.802	627.81
412.025	615.81
412.249	587.81
412.472	601.81
412.695	601.81
412.919	609.81
413.142	594.81
413.365	586.81
413.589	601.81
413.812	570.81
414.035	561.81
414.258	570.81
414.482	579.81
414.705	574.81
414.928	555.81
415.151	563.81
415.374	561.81
415.597	564.81
415.821	552.81
416.044	567.81
416.267	569.81
416.49	587.81
416.713	576.81
416.936	577.81
417.159	587.81
417.382	567.81
417.605	592.81
417.828	592.81
418.051	599.81
418.274	607.81
418.497	589.81
418.72	580.81
418.943	559.81
419.166	608.81
419.389	602.81
419.611	623.81
419.834	606.81
420.057	610.81
420.28	601.81
420.503	566.81
420.726	574.81
420.948	613.81
421.171	669.81
421.394	699.81
421.617	624.81
421.839	595.81
422.062	611.81
422.285	620.81
422.507	691.81
422.73	773.81
422.953	748.81
423.175	659.81
423.398	633.81
423.621	617.81
423.843	625.81
424.066	658.81
424.288	626.81
424.511	644.81
424.733	729.81
424.956	850.81
425.178	793.81
425.401	792.81
425.623	803.81
425.846	695.81
426.068	649.81
426.291	643.81
426.513	664.81
426.735	663.81
426.958	740.81
427.18	796.81
427.402	954.81
427.625	1071.81
427.847	915.81
428.069	765.81
428.292	688.81
428.514	641.81
428.736	635.81
428.958	637.81
429.181	591.81
429.403	605.81
429.625	627.81
429.847	661.81
430.069	733.81
430.292	747.81
430.514	644.81
430.736	614.81
430.958	589.81
431.18	578.81
431.402	563.81
431.624	538.81
431.846	554.81
432.068	555.81
432.29	581.81
432.512	581.81
432.734	571.81
432.956	580.81
433.178	584.81
433.4	583.81
433.622	551.81
433.844	579.81
434.066	577.81
434.287	561.81
434.509	578.81
434.731	601.81
434.953	584.81
435.175	617.81
435.397	645.81
435.618	667.81
435.84	701.81
436.062	805.81
436.284	873.81
436.505	738.81
436.727	663.81
436.949	623.81
437.17	624.81
437.392	600.81
437.614	637.81
437.835	653.81
438.057	751.81
438.278	872.81
438.5	882.81
438.721	984.81
438.943	933.81
439.165	722.81
439.386	662.81
439.608	654.81
439.829	652.81
440.05	675.81
440.272	734.81
440.493	714.81
440.715	667.81
440.936	624.81
441.158	635.81
441.379	602.81
441.6	626.81
441.822	665.81
442.043	695.81
442.264	779.81
442.486	851.81
442.707	703.81
442.928	680.81
443.149	676.81
443.371	691.81
443.592	753.81
443.813	885.81
444.034	923.81
444.255	801.81
444.476	697.81
444.698	651.81
444.919	673.81
445.14	771.81
445.361	710.81
445.582	731.81
445.803	797.81
446.024	901.81
446.245	921.81
446.466	827.81
446.687	707.81
446.908	659.81
447.129	641.81
447.35	598.81
447.571	619.81
447.792	608.81
448.013	610.81
448.234	621.81
448.455	689.81
448.675	816.81
448.896	949.81
449.117	815.81
449.338	743.81
449.559	883.81
449.779	985.81
450	811.81
450.221	665.81
450.442	600.81
450.662	584.81
450.883	589.81
451.104	612.81
451.324	591.81
451.545	580.81
451.766	588.81
451.986	538.81
452.207	543.81
452.428	528.81
452.648	533.81
452.869	532.81
453.089	529.81
453.31	541.81
453.53	544.81
453.751	519.81
453.971	547.81
454.192	568.81
454.412	549.81
454.633	503.81
454.853	549.81
455.073	544.81
455.294	551.81
455.514	658.81
455.734	635.81
455.955	545.81
456.175	513.81
456.395	501.81
456.616	505.81
456.836	513.81
457.056	492.81
457.276	482.81
457.497	513.81
457.717	503.81
457.937	523.81
458.157	523.81
458.377	532.81
458.598	573.81
458.818	619.81
459.038	723.81
459.258	718.81
459.478	604.81
459.698	580.81
459.918	549.81
460.138	575.81
460.358	577.81
460.578	577.81
460.798	602.81
461.018	578.81
461.238	590.81
461.458	559.81
461.678	577.81
461.898	593.81
462.118	575.81
462.338	592.81
462.558	625.81
462.777	625.81
462.997	630.81
463.217	646.81
463.437	639.81
463.657	641.81
463.876	626.81
464.096	607.81
464.316	621.81
464.536	647.81
464.755	626.81
464.975	629.81
465.195	680.81
465.414	761.81
465.634	679.81
465.854	594.81
466.073	577.81
466.293	579.81
466.512	552.81
466.732	543.81
466.951	579.81
467.171	542.81
467.391	542.81
467.61	572.81
467.829	570.81
468.049	586.81
468.268	558.81
468.488	537.81
468.707	533.81
468.927	546.81
469.146	549.81
469.365	531.81
469.585	541.81
469.804	526.81
470.023	554.81
470.243	551.81
470.462	572.81
470.681	593.81
470.901	607.81
471.12	569.81
471.339	569.81
471.558	561.81
471.777	544.81
471.997	538.81
472.216	544.81
472.435	564.81
472.654	554.81
472.873	523.81
473.092	553.81
473.311	557.81
473.53	553.81
473.749	573.81
473.968	624.81
474.187	728.81
474.406	762.81
474.625	616.81
474.844	593.81
475.063	580.81
475.282	560.81
475.501	567.81
475.72	572.81
475.939	585.81
476.158	575.81
476.377	575.81
476.596	555.81
476.814	585.81
477.033	599.81
477.252	588.81
477.471	582.81
477.69	601.81
477.908	605.81
478.127	598.81
478.346	616.81
478.564	614.81
478.783	651.81
479.002	659.81
479.22	648.81
479.439	654.81
479.658	674.81
479.876	679.81
480.095	693.81
480.313	722.81
480.532	689.81
480.751	663.81
480.969	695.81
481.188	689.81
481.406	692.81
481.624	681.81
481.843	668.81
482.061	651.81
482.28	637.81
482.498	640.81
482.717	639.81
482.935	645.81
483.153	650.81
483.372	659.81
483.59	654.81
483.808	663.81
484.027	652.81
484.245	654.81
484.463	639.81
484.681	668.81
484.9	689.81
485.118	680.81
485.336	687.81
485.554	657.81
485.772	685.81
485.99	684.81
486.209	705.81
486.427	705.81
486.645	695.81
486.863	738.81
487.081	712.81
487.299	730.81
487.517	712.81
487.735	697.81
487.953	695.81
488.171	699.81
488.389	716.81
488.607	709.81
488.825	720.81
489.043	721.81
489.261	712.81
489.479	725.81
489.696	692.81
489.914	735.81
490.132	729.81
490.35	745.81
490.568	770.81
490.786	769.81
491.003	749.81
491.221	776.81
491.439	770.81
491.657	779.81
491.874	777.81
492.092	825.81
492.31	793.81
492.527	790.81
492.745	806.81
492.963	804.81
493.18	803.81
493.398	833.81
493.615	836.81
493.833	846.81
494.05	819.81
494.268	802.81
494.485	807.81
494.703	815.81
494.92	828.81
495.138	839.81
495.355	836.81
495.573	816.81
495.79	840.81
496.008	852.81
496.225	835.81
496.442	830.81
496.66	852.81
496.877	843.81
497.094	841.81
497.312	879.81
497.529	889.81
497.746	875.81
497.963	903.81
498.181	913.81
498.398	946.81
498.615	953.81
498.832	966.81
499.049	1003.81
499.267	1036.81
499.484	1015.81
499.701	1067.81
499.918	1113.81
500.135	1160.81
500.352	1190.81
500.569	1214.81
500.786	1204.81
501.003	1189.81
501.22	1174.81
501.437	1153.81
501.654	1111.81
501.871	1090.81
502.088	1017.81
502.305	989.81
502.522	979.81
502.739	981.81
502.956	920.81
503.172	954.81
503.389	901.81
503.606	928.81
503.823	885.81
504.04	875.81
504.256	856.81
504.473	872.81
504.69	849.81
504.907	880.81
505.123	859.81
505.34	858.81
505.557	827.81
505.773	845.81
505.99	804.81
506.207	838.81
506.423	828.81
506.64	797.81
506.856	798.81
507.073	786.81
507.289	774.81
507.506	791.81
507.722	813.81
507.939	810.81
508.155	794.81
508.372	771.81
508.588	753.81
508.805	783.81
509.021	759.81
509.238	817.81
509.454	775.81
509.67	792.81
509.887	753.81
510.103	751.81
510.319	771.81
510.536	867.81
510.752	1368.81
510.968	1167.81
511.184	795.81
511.401	761.81
511.617	748.81
511.833	753.81
512.049	729.81
512.265	706.81
512.481	737.81
512.698	721.81
512.914	726.81
513.13	732.81
513.346	727.81
513.562	717.81
513.778	713.81
513.994	704.81
514.21	742.81
514.426	785.81
514.642	839.81
514.858	843.81
515.074	900.81
515.29	1037.81
515.506	1483.81
515.721	1256.81
515.937	867.81
516.153	805.81
516.369	815.81
516.585	778.81
516.801	744.81
517.016	772.81
517.232	752.81
517.448	759.81
517.664	768.81
517.879	759.81
518.095	789.81
518.311	767.81
518.527	769.81
518.742	752.81
518.958	744.81
519.173	743.81
519.389	723.81
519.605	752.81
519.82	729.81
520.036	753.81
520.251	785.81
520.467	802.81
520.682	793.81
520.898	815.81
521.113	853.81
521.329	885.81
521.544	972.81
521.76	1184.81
521.975	1891.81
522.19	1905.81
522.406	1071.81
522.621	823.81
522.836	769.81
523.052	736.81
523.267	703.81
523.482	724.81
523.698	683.81
523.913	706.81
524.128	667.81
524.343	656.81
524.559	625.81
524.774	640.81
524.989	654.81
525.204	667.81
525.419	643.81
525.634	632.81
525.849	628.81
526.064	643.81
526.28	620.81
526.495	627.81
526.71	604.81
526.925	607.81
527.14	606.81
527.355	613.81
527.57	614.81
527.785	611.81
527.999	612.81
528.214	601.81
528.429	615.81
528.644	611.81
528.859	625.81
529.074	608.81
529.289	618.81
529.503	698.81
529.718	704.81
529.933	651.81
530.148	617.81
530.363	600.81
530.577	612.81
530.792	604.81
531.007	588.81
531.221	593.81
531.436	599.81
531.651	587.81
531.865	577.81
532.08	613.81
532.295	592.81
532.509	589.81
532.724	555.81
532.938	548.81
533.153	552.81
533.367	571.81
533.582	585.81
533.796	551.81
534.011	589.81
534.225	575.81
534.44	563.81
534.654	594.81
534.868	563.81
535.083	552.81
535.297	554.81
535.511	566.81
535.726	569.81
535.94	583.81
536.154	567.81
536.369	550.81
536.583	565.81
536.797	539.81
537.011	554.81
537.225	552.81
537.44	544.81
537.654	569.81
537.868	546.81
538.082	547.81
538.296	537.81
538.51	561.81
538.724	543.81
538.938	536.81
539.153	556.81
539.367	556.81
539.581	568.81
539.795	550.81
540.009	544.81
540.222	536.81
540.436	511.81
540.65	539.81
540.864	553.81
541.078	547.81
541.292	580.81
541.506	562.81
541.72	552.81
541.934	545.81
542.147	537.81
542.361	515.81
542.575	531.81
542.789	519.81
543.002	539.81
543.216	532.81
543.43	549.81
543.644	541.81
543.857	534.81
544.071	545.81
544.285	525.81
544.498	542.81
544.712	546.81
544.925	548.81
545.139	532.81
545.352	529.81
545.566	536.81
545.779	504.81
545.993	524.81
546.206	531.81
546.42	518.81
546.633	519.81
546.847	530.81
547.06	514.81
547.274	517.81
547.487	537.81
547.7	534.81
547.914	539.81
548.127	541.81
548.34	522.81
548.554	532.81
548.767	516.81
548.98	503.81
549.193	513.81
549.407	519.81
549.62	516.81
549.833	534.81
550.046	519.81
550.259	517.81
550.473	511.81
550.686	530.81
550.899	513.81
551.112	525.81
551.325	524.81
551.538	520.81
551.751	497.81
551.964	510.81
552.177	496.81
552.39	509.81
552.603	516.81
552.816	497.81
553.029	520.81
553.242	513.81
553.455	529.81
553.667	542.81
553.88	551.81
554.093	519.81
554.306	538.81
554.519	509.81
554.732	495.81
554.944	480.81
555.157	511.81
555.37	479.81
555.583	485.81
555.795	480.81
556.008	485.81
556.221	479.81
556.433	491.81
556.646	464.81
556.859	480.81
557.071	482.81
557.284	469.81
557.496	476.81
557.709	488.81
557.921	460.81
558.134	467.81
558.346	467.81
558.559	440.81
558.771	473.81
558.984	449.81
559.196	456.81
559.409	455.81
559.621	460.81
559.833	444.81
560.046	457.81
560.258	463.81
560.47	459.81
560.683	457.81
560.895	470.81
561.107	473.81
561.32	456.81
561.532	456.81
561.744	467.81
561.956	473.81
562.168	434.81
562.381	445.81
562.593	474.81
562.805	474.81
563.017	473.81
563.229	458.81
563.441	459.81
563.653	462.81
563.865	462.81
564.077	463.81
564.289	459.81
564.501	469.81
564.713	484.81
564.925	497.81
565.137	513.81
565.349	509.81
565.561	506.81
565.773	501.81
565.985	513.81
566.197	530.81
566.408	536.81
566.62	546.81
566.832	575.81
567.044	583.81
567.255	574.81
567.467	573.81
567.679	581.81
567.891	601.81
568.102	592.81
568.314	582.81
568.526	573.81
568.737	551.81
568.949	528.81
569.161	488.81
569.372	485.81
569.584	480.81
569.795	483.81
570.007	470.81
570.218	520.81
570.43	516.81
570.641	451.81
570.853	456.81
571.064	472.81
571.276	423.81
571.487	452.81
571.698	409.81
571.91	433.81
572.121	418.81
572.333	436.81
572.544	431.81
572.755	437.81
572.966	413.81
573.178	407.81
573.389	412.81
573.6	418.81
573.811	427.81
574.023	384.81
574.234	428.81
574.445	410.81
574.656	392.81
574.867	405.81
575.078	401.81
575.289	388.81
575.501	407.81
575.712	375.81
575.923	381.81
576.134	379.81
576.345	389.81
576.556	379.81
576.767	390.81
576.978	392.81
577.188	365.81
577.399	381.81
577.61	389.81
577.821	384.81
578.032	388.81
578.243	433.81
578.454	636.81
578.665	491.81
578.875	389.81
579.086	374.81
579.297	348.81
579.508	369.81
579.718	364.81
579.929	361.81
580.14	351.81
580.35	362.81
580.561	368.81
580.772	383.81
580.982	377.81
581.193	357.81
581.403	364.81
581.614	370.81
581.825	347.81
582.035	356.81
582.246	347.81
582.456	354.81
582.667	356.81
582.877	354.81
583.087	360.81
583.298	352.81
583.508	357.81
583.719	352.81
583.929	353.81
584.139	355.81
584.35	345.81
584.56	333.81
584.77	352.81
584.981	359.81
585.191	343.81
585.401	350.81
585.611	356.81
585.821	354.81
586.032	339.81
586.242	345.81
586.452	348.81
586.662	332.81
586.872	347.81
587.082	346.81
587.292	330.81
587.502	348.81
587.713	348.81
587.923	351.81
588.133	339.81
588.343	347.81
588.553	353.81
588.762	341.81
588.972	338.81
589.182	358.81
589.392	337.81
589.602	350.81
589.812	341.81
590.022	346.81
590.232	344.81
590.441	343.81
590.651	345.81
590.861	336.81
591.071	343.81
591.281	353.81
591.49	345.81
591.7	353.81
591.91	337.81
592.119	343.81
592.329	356.81
592.539	339.81
592.748	383.81
592.958	352.81
593.167	383.81
593.377	371.81
593.587	373.81
593.796	377.81
594.006	373.81
594.215	349.81
594.424	360.81
594.634	367.81
594.843	359.81
595.053	351.81
595.262	332.81
595.472	352.81
595.681	337.81
595.89	349.81
596.1	329.81
596.309	335.81
596.518	334.81
596.727	321.81
596.937	326.81
597.146	319.81
597.355	313.81
597.564	315.81
597.774	309.81
597.983	319.81
598.192	327.81
598.401	303.81
598.61	315.81
598.819	296.81
599.028	307.81
599.237	305.81
599.446	315.81
599.655	287.81
599.864	283.81
600.073	293.81
600.282	298.81
600.491	303.81
600.7	291.81
600.909	297.81
601.118	292.81
601.327	312.81
601.536	287.81
601.745	302.81
601.953	298.81
602.162	298.81
602.371	299.81
602.58	282.81
602.789	284.81
602.997	301.81
603.206	290.81
603.415	298.81
603.623	294.81
603.832	292.81
604.041	285.81
604.249	265.81
604.458	296.81
604.666	282.81
604.875	275.81
605.084	275.81
605.292	274.81
605.501	280.81
605.709	287.81
605.918	276.81
606.126	291.81
606.334	267.81
606.543	268.81
606.751	269.81
606.96	293.81
607.168	279.81
607.376	283.81
607.585	288.81
607.793	267.81
608.001	287.81
608.21	278.81
608.418	279.81
608.626	276.81
608.834	271.81
609.043	283.81
609.251	273.81
609.459	274.81
609.667	281.81
609.875	258.81
610.083	284.81
610.291	274.81
610.499	275.81
610.707	292.81
610.916	268.81
611.124	265.81
611.332	272.81
611.54	281.81
611.748	277.81
611.955	277.81
612.163	282.81
612.371	284.81
612.579	276.81
612.787	276.81
612.995	285.81
613.203	283.81
613.411	269.81
613.618	265.81
613.826	259.81
614.034	273.81
614.242	261.81
614.449	267.81
614.657	251.81
614.865	257.81
615.072	280.81
615.28	250.81
615.488	278.81
615.695	280.81
615.903	271.81
616.111	266.81
616.318	269.81
616.526	263.81
616.733	273.81
616.941	247.81
617.148	248.81
617.356	255.81
617.563	265.81
617.771	259.81
617.978	244.81
618.185	255.81
618.393	257.81
618.6	251.81
618.807	265.81
619.015	265.81
619.222	251.81
619.429	250.81
619.637	260.81
619.844	261.81
620.051	258.81
620.258	256.81
620.466	240.81
620.673	264.81
620.88	247.81
621.087	249.81
621.294	245.81
621.501	261.81
621.708	238.81
621.915	266.81
622.122	252.81
622.329	250.81
622.536	240.81
622.743	255.81
622.95	240.81
623.157	261.81
623.364	244.81
623.571	242.81
623.778	264.81
623.985	228.81
624.192	253.81
624.399	255.81
624.606	247.81
624.812	233.81
625.019	219.81
625.226	251.81
625.433	221.81
625.639	234.81
625.846	230.81
626.053	226.81
626.259	215.81
626.466	222.81
626.673	239.81
626.879	227.81
627.086	237.81
627.293	224.81
627.499	243.81
627.706	228.81
627.912	219.81
628.119	236.81
628.325	226.81
628.532	221.81
628.738	223.81
628.945	210.81
629.151	217.81
629.357	220.81
629.564	234.81
629.77	217.81
629.976	207.81
630.183	215.81
630.389	223.81
630.595	208.81
630.802	210.81
631.008	214.81
631.214	221.81
631.42	210.81
631.627	223.81
631.833	205.81
632.039	217.81
632.245	210.81
632.451	194.81
632.657	219.81
632.863	202.81
633.069	199.81
633.275	209.81
633.481	202.81
633.688	189.81
633.893	214.81
634.099	218.81
634.305	203.81
634.511	215.81
634.717	203.81
634.923	198.81
635.129	205.81
635.335	209.81
635.541	181.81
635.747	185.81
635.952	201.81
636.158	201.81
636.364	205.81
636.57	180.81
636.775	205.81
636.981	189.81
637.187	209.81
637.392	188.81
637.598	193.81
637.804	224.81
638.009	204.81
638.215	192.81
638.421	185.81
638.626	198.81
638.832	192.81
639.037	203.81
639.243	199.81
639.448	194.81
639.654	192.81
639.859	179.81
640.065	189.81
640.27	204.81
640.475	188.81
640.681	179.81
640.886	195.81
641.091	188.81
641.297	189.81
641.502	204.81
641.707	191.81
641.913	187.81
642.118	172.81
642.323	163.81
642.528	184.81
642.733	171.81
642.939	188.81
643.144	188.81
643.349	182.81
643.554	175.81
643.759	170.81
643.964	181.81
644.169	185.81
644.374	198.81
644.579	162.81
644.784	170.81
644.989	181.81
645.194	200.81
645.399	183.81
645.604	181.81
645.809	191.81
646.014	192.81
646.219	172.81
646.423	167.81
646.628	170.81
646.833	177.81
647.038	179.81
647.243	192.81
647.447	197.81
647.652	180.81
647.857	174.81
648.062	163.81
648.266	197.81
648.471	190.81
648.676	183.81
648.88	176.81
649.085	182.81
649.289	188.81
649.494	177.81
649.698	219.81
649.903	187.81
650.107	180.81
650.312	178.81
650.516	171.81
650.721	183.81
650.925	165.81
651.13	163.81
651.334	159.81
651.539	156.81
651.743	158.81
651.947	157.81
652.152	164.81
652.356	149.81
652.56	147.81
652.764	155.81
652.969	139.81
653.173	155.81
653.377	149.81
653.581	147.81
653.785	155.81
653.99	134.81
654.194	143.81
654.398	149.81
654.602	150.81
654.806	145.81
655.01	160.81
655.214	149.81
655.418	139.81
655.622	135.81
655.826	138.81
656.03	151.81
656.234	149.81
656.438	137.81
656.642	146.81
656.846	150.81
657.049	138.81
657.253	132.81
657.457	137.81
657.661	128.81
657.865	108.81
658.068	129.81
658.272	113.81
658.476	119.81
658.68	96.81
658.883	115.81
659.087	113.81
659.291	99.81
659.494	98.81
659.698	89.81
659.901	87.81
660.105	118.81
660.309	99.81
660.512	96.81
660.716	94.81
660.919	98.81
661.123	80.81
661.326	83.81
661.53	85.81
661.733	89.81
661.936	83.81
662.14	85.81
662.343	96.81
662.546	81.81
662.75	95.81
662.953	96.81
663.156	77.81
663.36	95.81
663.563	94.81
663.766	85.81
663.969	93.81
664.173	66.81
664.376	87.81
664.579	91.81
664.782	79.81
664.985	90.81
665.188	88.81
665.391	89.81
665.594	79.81
665.797	77.81
666	79.81
666.203	76.81
666.406	82.81
666.609	73.81
666.812	74.81
667.015	81.81
667.218	87.81
667.421	89.81
667.624	72.81
667.827	97.81
668.03	87.81
668.232	85.81
668.435	82.81
668.638	88.81
668.841	73.81
669.043	89.81
669.246	85.81
669.449	79.81
669.651	89.81
669.854	74.81
670.057	79.81
670.259	82.81
670.462	73.81
670.665	87.81
670.867	82.81
671.07	70.81
671.272	94.81
671.475	82.81
671.677	92.81
671.88	80.81
672.082	88.81
672.284	80.81
672.487	88.81
672.689	75.81
672.892	84.81
