Data from 1988.PennyLincolnUp.Lamp.En5.5.200Scan.071819.P2_HRD10591_17-20-04-973.txt Node
Date: Thu Jul 18 17:20:04 EDT 2019
User: cochatt
Spectrometer: HR+D1059
Trigger mode: 1
Integration Time (sec): 1.000000E-1
Scans to average: 1
Electric dark correction enabled: true
Nonlinearity correction enabled: false
Boxcar width: 0
XAxis mode: Wavelengths
Number of Pixels in Spectrum: 2048
>>>>>Begin Spectral Data<<<<<
223.165	-5.12
223.4	-5.12
223.635	-5.12
223.869	1.88
224.104	-24.12
224.338	-12.12
224.573	-12.12
224.808	-12.12
225.042	-4.12
225.277	-8.12
225.511	-7.12
225.746	-1.12
225.98	-1.12
226.215	-6.12
226.449	12.88
226.683	18.88
226.918	38.88
227.152	20.88
227.387	22.88
227.621	42.88
227.856	47.88
228.09	59.88
228.324	44.88
228.559	46.88
228.793	62.88
229.027	99.88
229.262	121.88
229.496	105.88
229.73	128.88
229.964	158.88
230.199	140.88
230.433	119.88
230.667	110.88
230.901	115.88
231.136	124.88
231.37	118.88
231.604	118.88
231.838	117.88
232.072	110.88
232.306	127.88
232.541	104.88
232.775	117.88
233.009	112.88
233.243	120.88
233.477	117.88
233.711	112.88
233.945	123.88
234.179	117.88
234.413	117.88
234.647	127.88
234.881	120.88
235.115	111.88
235.349	120.88
235.583	135.88
235.817	132.88
236.051	132.88
236.285	129.88
236.519	146.88
236.753	134.88
236.987	146.88
237.221	200.88
237.455	267.88
237.689	195.88
237.922	147.88
238.156	136.88
238.39	137.88
238.624	130.88
238.858	122.88
239.091	123.88
239.325	131.88
239.559	117.88
239.793	139.88
240.027	148.88
240.26	143.88
240.494	166.88
240.728	155.88
240.961	152.88
241.195	149.88
241.429	138.88
241.662	130.88
241.896	132.88
242.13	128.88
242.363	126.88
242.597	137.88
242.83	148.88
243.064	143.88
243.298	146.88
243.531	148.88
243.765	145.88
243.998	146.88
244.232	144.88
244.465	140.88
244.699	132.88
244.932	151.88
245.166	139.88
245.399	150.88
245.633	146.88
245.866	156.88
246.099	140.88
246.333	154.88
246.566	157.88
246.8	160.88
247.033	156.88
247.266	169.88
247.5	174.88
247.733	161.88
247.966	166.88
248.2	186.88
248.433	180.88
248.666	174.88
248.899	198.88
249.133	207.88
249.366	212.88
249.599	199.88
249.832	198.88
250.066	183.88
250.299	173.88
250.532	182.88
250.765	195.88
250.998	233.88
251.231	248.88
251.465	218.88
251.698	207.88
251.931	205.88
252.164	204.88
252.397	199.88
252.63	198.88
252.863	199.88
253.096	236.88
253.329	223.88
253.562	229.88
253.795	210.88
254.028	233.88
254.261	223.88
254.494	231.88
254.727	272.88
254.96	274.88
255.193	274.88
255.426	240.88
255.659	243.88
255.892	248.88
256.124	246.88
256.357	224.88
256.59	224.88
256.823	216.88
257.056	215.88
257.289	209.88
257.521	235.88
257.754	232.88
257.987	220.88
258.22	199.88
258.452	232.88
258.685	217.88
258.918	206.88
259.151	225.88
259.383	230.88
259.616	235.88
259.849	251.88
260.081	217.88
260.314	258.88
260.547	283.88
260.779	256.88
261.012	243.88
261.244	238.88
261.477	240.88
261.71	238.88
261.942	246.88
262.175	251.88
262.407	254.88
262.64	231.88
262.872	217.88
263.105	211.88
263.337	218.88
263.57	219.88
263.802	212.88
264.035	231.88
264.267	235.88
264.499	228.88
264.732	225.88
264.964	246.88
265.197	219.88
265.429	222.88
265.661	221.88
265.894	218.88
266.126	213.88
266.358	218.88
266.591	226.88
266.823	222.88
267.055	241.88
267.287	241.88
267.52	255.88
267.752	259.88
267.984	239.88
268.216	234.88
268.448	238.88
268.681	256.88
268.913	255.88
269.145	273.88
269.377	299.88
269.609	287.88
269.841	282.88
270.073	263.88
270.306	288.88
270.538	330.88
270.77	332.88
271.002	313.88
271.234	308.88
271.466	318.88
271.698	337.88
271.93	332.88
272.162	332.88
272.394	333.88
272.626	323.88
272.858	295.88
273.09	290.88
273.322	308.88
273.553	277.88
273.785	274.88
274.017	278.88
274.249	299.88
274.481	295.88
274.713	282.88
274.945	291.88
275.176	289.88
275.408	284.88
275.64	265.88
275.872	273.88
276.104	267.88
276.335	274.88
276.567	276.88
276.799	301.88
277.031	332.88
277.262	336.88
277.494	344.88
277.726	332.88
277.957	315.88
278.189	301.88
278.421	304.88
278.652	280.88
278.884	270.88
279.115	279.88
279.347	272.88
279.579	288.88
279.81	258.88
280.042	272.88
280.273	269.88
280.505	289.88
280.736	297.88
280.968	279.88
281.199	290.88
281.431	281.88
281.662	273.88
281.894	307.88
282.125	308.88
282.356	302.88
282.588	311.88
282.819	346.88
283.051	298.88
283.282	304.88
283.513	300.88
283.745	307.88
283.976	294.88
284.207	316.88
284.439	309.88
284.67	285.88
284.901	285.88
285.132	307.88
285.364	308.88
285.595	296.88
285.826	285.88
286.057	302.88
286.288	283.88
286.52	312.88
286.751	294.88
286.982	306.88
287.213	291.88
287.444	307.88
287.675	310.88
287.906	307.88
288.138	316.88
288.369	324.88
288.6	317.88
288.831	320.88
289.062	332.88
289.293	306.88
289.524	318.88
289.755	311.88
289.986	304.88
290.217	302.88
290.448	315.88
290.679	342.88
290.91	296.88
291.141	297.88
291.371	323.88
291.602	315.88
291.833	304.88
292.064	308.88
292.295	297.88
292.526	304.88
292.757	308.88
292.987	340.88
293.218	320.88
293.449	311.88
293.68	315.88
293.91	297.88
294.141	319.88
294.372	327.88
294.603	329.88
294.833	316.88
295.064	325.88
295.295	318.88
295.525	315.88
295.756	329.88
295.987	305.88
296.217	338.88
296.448	366.88
296.679	344.88
296.909	327.88
297.14	328.88
297.37	317.88
297.601	328.88
297.831	326.88
298.062	318.88
298.292	326.88
298.523	337.88
298.753	324.88
298.984	346.88
299.214	341.88
299.445	330.88
299.675	335.88
299.905	348.88
300.136	339.88
300.366	362.88
300.597	339.88
300.827	324.88
301.057	354.88
301.288	337.88
301.518	342.88
301.748	350.88
301.979	349.88
302.209	350.88
302.439	354.88
302.669	360.88
302.9	362.88
303.13	349.88
303.36	366.88
303.59	356.88
303.82	362.88
304.051	363.88
304.281	352.88
304.511	342.88
304.741	359.88
304.971	357.88
305.201	369.88
305.431	355.88
305.661	350.88
305.891	345.88
306.121	361.88
306.352	372.88
306.582	370.88
306.812	362.88
307.042	373.88
307.272	376.88
307.502	346.88
307.731	347.88
307.961	364.88
308.191	367.88
308.421	375.88
308.651	375.88
308.881	379.88
309.111	383.88
309.341	376.88
309.571	375.88
309.8	384.88
310.03	377.88
310.26	404.88
310.49	427.88
310.72	416.88
310.949	416.88
311.179	436.88
311.409	404.88
311.639	406.88
311.868	395.88
312.098	419.88
312.328	411.88
312.557	429.88
312.787	459.88
313.017	434.88
313.246	451.88
313.476	420.88
313.706	422.88
313.935	421.88
314.165	435.88
314.394	441.88
314.624	435.88
314.853	402.88
315.083	418.88
315.312	423.88
315.542	409.88
315.771	395.88
316.001	396.88
316.23	401.88
316.46	413.88
316.689	406.88
316.919	409.88
317.148	427.88
317.377	430.88
317.607	429.88
317.836	416.88
318.065	404.88
318.295	420.88
318.524	421.88
318.753	416.88
318.983	408.88
319.212	404.88
319.441	439.88
319.67	432.88
319.9	411.88
320.129	415.88
320.358	415.88
320.587	409.88
320.816	419.88
321.046	432.88
321.275	452.88
321.504	454.88
321.733	436.88
321.962	459.88
322.191	450.88
322.42	463.88
322.649	503.88
322.878	524.88
323.108	514.88
323.337	548.88
323.566	551.88
323.795	562.88
324.024	632.88
324.253	766.88
324.482	1068.88
324.71	1685.88
324.939	2409.88
325.168	2112.88
325.397	1102.88
325.626	719.88
325.855	631.88
326.084	564.88
326.313	540.88
326.542	577.88
326.77	613.88
326.999	703.88
327.228	979.88
327.457	1490.88
327.686	1830.88
327.914	1252.88
328.143	827.88
328.372	681.88
328.6	638.88
328.829	587.88
329.058	635.88
329.287	656.88
329.515	598.88
329.744	570.88
329.972	542.88
330.201	543.88
330.43	562.88
330.658	608.88
330.887	652.88
331.115	659.88
331.344	556.88
331.572	542.88
331.801	534.88
332.03	546.88
332.258	529.88
332.486	528.88
332.715	511.88
332.943	497.88
333.172	523.88
333.4	485.88
333.629	494.88
333.857	528.88
334.085	515.88
334.314	510.88
334.542	527.88
334.771	522.88
334.999	499.88
335.227	525.88
335.455	497.88
335.684	509.88
335.912	503.88
336.14	477.88
336.369	492.88
336.597	496.88
336.825	513.88
337.053	490.88
337.281	494.88
337.51	478.88
337.738	492.88
337.966	488.88
338.194	490.88
338.422	521.88
338.65	494.88
338.878	491.88
339.106	482.88
339.334	481.88
339.562	473.88
339.79	474.88
340.018	475.88
340.246	481.88
340.474	499.88
340.702	480.88
340.93	479.88
341.158	483.88
341.386	469.88
341.614	488.88
341.842	485.88
342.07	456.88
342.298	456.88
342.526	472.88
342.754	472.88
342.981	442.88
343.209	472.88
343.437	445.88
343.665	484.88
343.893	480.88
344.12	494.88
344.348	479.88
344.576	472.88
344.804	500.88
345.031	491.88
345.259	522.88
345.487	491.88
345.714	486.88
345.942	480.88
346.17	465.88
346.397	473.88
346.625	458.88
346.853	483.88
347.08	449.88
347.308	460.88
347.535	475.88
347.763	480.88
347.99	490.88
348.218	466.88
348.445	479.88
348.673	486.88
348.9	471.88
349.128	465.88
349.355	465.88
349.583	443.88
349.81	449.88
350.037	449.88
350.265	474.88
350.492	443.88
350.72	468.88
350.947	472.88
351.174	465.88
351.402	479.88
351.629	484.88
351.856	457.88
352.083	491.88
352.311	496.88
352.538	491.88
352.765	511.88
352.992	485.88
353.22	468.88
353.447	483.88
353.674	472.88
353.901	453.88
354.128	450.88
354.355	464.88
354.583	442.88
354.81	458.88
355.037	453.88
355.264	431.88
355.491	451.88
355.718	441.88
355.945	466.88
356.172	454.88
356.399	434.88
356.626	435.88
356.853	443.88
357.08	447.88
357.307	463.88
357.534	441.88
357.761	448.88
357.988	455.88
358.215	459.88
358.441	432.88
358.668	423.88
358.895	432.88
359.122	439.88
359.349	448.88
359.576	482.88
359.802	503.88
360.029	528.88
360.256	541.88
360.483	509.88
360.709	487.88
360.936	467.88
361.163	455.88
361.39	474.88
361.616	471.88
361.843	483.88
362.07	486.88
362.296	471.88
362.523	471.88
362.749	469.88
362.976	461.88
363.203	465.88
363.429	454.88
363.656	450.88
363.882	464.88
364.109	468.88
364.335	474.88
364.562	451.88
364.788	430.88
365.015	474.88
365.241	450.88
365.468	471.88
365.694	462.88
365.92	455.88
366.147	449.88
366.373	466.88
366.599	448.88
366.826	436.88
367.052	456.88
367.278	438.88
367.505	435.88
367.731	451.88
367.957	462.88
368.184	455.88
368.41	474.88
368.636	463.88
368.862	475.88
369.089	467.88
369.315	433.88
369.541	454.88
369.767	455.88
369.993	444.88
370.219	445.88
370.445	451.88
370.672	444.88
370.898	439.88
371.124	437.88
371.35	444.88
371.576	456.88
371.802	452.88
372.028	479.88
372.254	457.88
372.48	446.88
372.706	452.88
372.932	455.88
373.158	456.88
373.384	463.88
373.61	450.88
373.835	459.88
374.061	444.88
374.287	478.88
374.513	444.88
374.739	451.88
374.965	474.88
375.191	476.88
375.416	465.88
375.642	458.88
375.868	469.88
376.094	460.88
376.319	459.88
376.545	447.88
376.771	482.88
376.997	447.88
377.222	448.88
377.448	474.88
377.674	464.88
377.899	447.88
378.125	474.88
378.35	449.88
378.576	427.88
378.802	438.88
379.027	448.88
379.253	457.88
379.478	448.88
379.704	448.88
379.929	471.88
380.155	454.88
380.38	463.88
380.606	462.88
380.831	454.88
381.057	482.88
381.282	459.88
381.507	470.88
381.733	467.88
381.958	464.88
382.184	481.88
382.409	471.88
382.634	485.88
382.86	451.88
383.085	466.88
383.31	473.88
383.535	492.88
383.761	474.88
383.986	476.88
384.211	474.88
384.436	497.88
384.662	502.88
384.887	495.88
385.112	499.88
385.337	514.88
385.562	481.88
385.787	494.88
386.013	530.88
386.238	501.88
386.463	534.88
386.688	500.88
386.913	493.88
387.138	498.88
387.363	519.88
387.588	506.88
387.813	490.88
388.038	507.88
388.263	515.88
388.488	534.88
388.713	512.88
388.938	506.88
389.163	512.88
389.387	526.88
389.612	489.88
389.837	497.88
390.062	506.88
390.287	485.88
390.512	517.88
390.736	502.88
390.961	496.88
391.186	486.88
391.411	525.88
391.636	522.88
391.86	526.88
392.085	502.88
392.31	518.88
392.534	514.88
392.759	528.88
392.984	528.88
393.208	531.88
393.433	513.88
393.658	530.88
393.882	525.88
394.107	514.88
394.331	537.88
394.556	522.88
394.78	515.88
395.005	547.88
395.229	512.88
395.454	533.88
395.678	532.88
395.903	554.88
396.127	561.88
396.352	565.88
396.576	529.88
396.801	530.88
397.025	539.88
397.249	535.88
397.474	568.88
397.698	554.88
397.922	578.88
398.147	590.88
398.371	581.88
398.595	560.88
398.82	592.88
399.044	578.88
399.268	597.88
399.492	645.88
399.717	694.88
399.941	706.88
400.165	737.88
400.389	750.88
400.613	665.88
400.837	624.88
401.062	608.88
401.286	592.88
401.51	603.88
401.734	599.88
401.958	591.88
402.182	607.88
402.406	579.88
402.63	596.88
402.854	596.88
403.078	618.88
403.302	617.88
403.526	610.88
403.75	606.88
403.974	620.88
404.198	596.88
404.422	614.88
404.645	593.88
404.869	636.88
405.093	616.88
405.317	662.88
405.541	700.88
405.765	639.88
405.988	645.88
406.212	636.88
406.436	680.88
406.66	665.88
406.883	649.88
407.107	701.88
407.331	740.88
407.555	822.88
407.778	819.88
408.002	738.88
408.226	681.88
408.449	664.88
408.673	687.88
408.896	708.88
409.12	768.88
409.344	706.88
409.567	662.88
409.791	642.88
410.014	651.88
410.238	636.88
410.461	617.88
410.685	632.88
410.908	632.88
411.132	692.88
411.355	707.88
411.578	680.88
411.802	649.88
412.025	610.88
412.249	604.88
412.472	618.88
412.695	625.88
412.919	593.88
413.142	592.88
413.365	594.88
413.589	606.88
413.812	593.88
414.035	584.88
414.258	559.88
414.482	570.88
414.705	587.88
414.928	565.88
415.151	552.88
415.374	570.88
415.597	591.88
415.821	573.88
416.044	582.88
416.267	590.88
416.49	553.88
416.713	569.88
416.936	585.88
417.159	568.88
417.382	595.88
417.605	593.88
417.828	583.88
418.051	602.88
418.274	597.88
418.497	596.88
418.72	587.88
418.943	584.88
419.166	595.88
419.389	638.88
419.611	628.88
419.834	637.88
420.057	618.88
420.28	599.88
420.503	570.88
420.726	595.88
420.948	616.88
421.171	662.88
421.394	713.88
421.617	616.88
421.839	608.88
422.062	618.88
422.285	604.88
422.507	691.88
422.73	766.88
422.953	723.88
423.175	639.88
423.398	648.88
423.621	659.88
423.843	651.88
424.066	637.88
424.288	641.88
424.511	687.88
424.733	739.88
424.956	843.88
425.178	800.88
425.401	810.88
425.623	821.88
425.846	715.88
426.068	680.88
426.291	637.88
426.513	644.88
426.735	653.88
426.958	723.88
427.18	781.88
427.402	955.88
427.625	1058.88
427.847	926.88
428.069	773.88
428.292	701.88
428.514	647.88
428.736	646.88
428.958	632.88
429.181	603.88
429.403	601.88
429.625	608.88
429.847	643.88
430.069	730.88
430.292	746.88
430.514	634.88
430.736	583.88
430.958	613.88
431.18	600.88
431.402	589.88
431.624	578.88
431.846	560.88
432.068	571.88
432.29	562.88
432.512	586.88
432.734	562.88
432.956	592.88
433.178	562.88
433.4	606.88
433.622	587.88
433.844	562.88
434.066	583.88
434.287	583.88
434.509	591.88
434.731	589.88
434.953	609.88
435.175	623.88
435.397	658.88
435.618	636.88
435.84	710.88
436.062	820.88
436.284	902.88
436.505	736.88
436.727	671.88
436.949	626.88
437.17	614.88
437.392	598.88
437.614	631.88
437.835	674.88
438.057	742.88
438.278	876.88
438.5	898.88
438.721	980.88
438.943	954.88
439.165	741.88
439.386	673.88
439.608	647.88
439.829	656.88
440.05	681.88
440.272	741.88
440.493	702.88
440.715	655.88
440.936	648.88
441.158	624.88
441.379	616.88
441.6	622.88
441.822	638.88
442.043	697.88
442.264	786.88
442.486	851.88
442.707	720.88
442.928	666.88
443.149	679.88
443.371	704.88
443.592	766.88
443.813	869.88
444.034	946.88
444.255	777.88
444.476	694.88
444.698	657.88
444.919	663.88
445.14	789.88
445.361	716.88
445.582	703.88
445.803	791.88
446.024	899.88
446.245	916.88
446.466	864.88
446.687	714.88
446.908	651.88
447.129	598.88
447.35	607.88
447.571	619.88
447.792	586.88
448.013	576.88
448.234	611.88
448.455	687.88
448.675	802.88
448.896	950.88
449.117	827.88
449.338	760.88
449.559	890.88
449.779	986.88
450	793.88
450.221	671.88
450.442	608.88
450.662	603.88
450.883	596.88
451.104	586.88
451.324	599.88
451.545	574.88
451.766	562.88
451.986	556.88
452.207	532.88
452.428	537.88
452.648	550.88
452.869	536.88
453.089	553.88
453.31	567.88
453.53	534.88
453.751	525.88
453.971	538.88
454.192	545.88
454.412	560.88
454.633	558.88
454.853	529.88
455.073	552.88
455.294	575.88
455.514	648.88
455.734	606.88
455.955	558.88
456.175	515.88
456.395	509.88
456.616	507.88
456.836	514.88
457.056	519.88
457.276	489.88
457.497	514.88
457.717	522.88
457.937	518.88
458.157	515.88
458.377	530.88
458.598	554.88
458.818	639.88
459.038	715.88
459.258	720.88
459.478	619.88
459.698	585.88
459.918	569.88
460.138	592.88
460.358	577.88
460.578	590.88
460.798	577.88
461.018	599.88
461.238	614.88
461.458	588.88
461.678	582.88
461.898	588.88
462.118	578.88
462.338	582.88
462.558	605.88
462.777	638.88
462.997	649.88
463.217	633.88
463.437	665.88
463.657	642.88
463.876	651.88
464.096	637.88
464.316	634.88
464.536	628.88
464.755	631.88
464.975	640.88
465.195	676.88
465.414	752.88
465.634	683.88
465.854	616.88
466.073	608.88
466.293	597.88
466.512	578.88
466.732	569.88
466.951	562.88
467.171	573.88
467.391	556.88
467.61	583.88
467.829	583.88
468.049	589.88
468.268	550.88
468.488	556.88
468.707	535.88
468.927	546.88
469.146	558.88
469.365	574.88
469.585	533.88
469.804	558.88
470.023	565.88
470.243	575.88
470.462	559.88
470.681	594.88
470.901	582.88
471.12	574.88
471.339	569.88
471.558	575.88
471.777	564.88
471.997	569.88
472.216	563.88
472.435	563.88
472.654	559.88
472.873	544.88
473.092	542.88
473.311	539.88
473.53	594.88
473.749	566.88
473.968	603.88
474.187	720.88
474.406	774.88
474.625	649.88
474.844	586.88
475.063	588.88
475.282	573.88
475.501	577.88
475.72	570.88
475.939	550.88
476.158	550.88
476.377	577.88
476.596	576.88
476.814	584.88
477.033	625.88
477.252	588.88
477.471	587.88
477.69	592.88
477.908	612.88
478.127	624.88
478.346	618.88
478.564	644.88
478.783	625.88
479.002	654.88
479.22	662.88
479.439	627.88
479.658	699.88
479.876	695.88
480.095	694.88
480.313	720.88
480.532	712.88
480.751	705.88
480.969	704.88
481.188	696.88
481.406	690.88
481.624	690.88
481.843	660.88
482.061	662.88
482.28	667.88
482.498	637.88
482.717	671.88
482.935	652.88
483.153	659.88
483.372	679.88
483.59	652.88
483.808	664.88
484.027	658.88
484.245	654.88
484.463	694.88
484.681	682.88
484.9	674.88
485.118	680.88
485.336	700.88
485.554	674.88
485.772	680.88
485.99	672.88
486.209	681.88
486.427	704.88
486.645	692.88
486.863	723.88
487.081	703.88
487.299	707.88
487.517	731.88
487.735	686.88
487.953	700.88
488.171	718.88
488.389	711.88
488.607	700.88
488.825	719.88
489.043	699.88
489.261	715.88
489.479	721.88
489.696	718.88
489.914	748.88
490.132	724.88
490.35	745.88
490.568	721.88
490.786	760.88
491.003	748.88
491.221	790.88
491.439	786.88
491.657	783.88
491.874	802.88
492.092	808.88
492.31	801.88
492.527	810.88
492.745	815.88
492.963	846.88
493.18	825.88
493.398	816.88
493.615	805.88
493.833	820.88
494.05	835.88
494.268	835.88
494.485	835.88
494.703	826.88
494.92	827.88
495.138	836.88
495.355	862.88
495.573	846.88
495.79	848.88
496.008	860.88
496.225	852.88
496.442	862.88
496.66	861.88
496.877	839.88
497.094	855.88
497.312	895.88
497.529	875.88
497.746	926.88
497.963	908.88
498.181	937.88
498.398	953.88
498.615	964.88
498.832	981.88
499.049	1002.88
499.267	1024.88
499.484	1046.88
499.701	1082.88
499.918	1134.88
500.135	1147.88
500.352	1211.88
500.569	1238.88
500.786	1228.88
501.003	1218.88
501.22	1184.88
501.437	1154.88
501.654	1125.88
501.871	1102.88
502.088	1055.88
502.305	1001.88
502.522	972.88
502.739	996.88
502.956	931.88
503.172	914.88
503.389	911.88
503.606	912.88
503.823	907.88
504.04	868.88
504.256	891.88
504.473	864.88
504.69	877.88
504.907	892.88
505.123	856.88
505.34	821.88
505.557	848.88
505.773	805.88
505.99	826.88
506.207	816.88
506.423	848.88
506.64	833.88
506.856	800.88
507.073	802.88
507.289	809.88
507.506	768.88
507.722	796.88
507.939	841.88
508.155	796.88
508.372	789.88
508.588	750.88
508.805	736.88
509.021	790.88
509.238	784.88
509.454	792.88
509.67	792.88
509.887	796.88
510.103	780.88
510.319	774.88
510.536	851.88
510.752	1375.88
510.968	1189.88
511.184	822.88
511.401	774.88
511.617	728.88
511.833	718.88
512.049	723.88
512.265	720.88
512.481	710.88
512.698	698.88
512.914	704.88
513.13	743.88
513.346	741.88
513.562	735.88
513.778	731.88
513.994	722.88
514.21	749.88
514.426	750.88
514.642	803.88
514.858	850.88
515.074	884.88
515.29	1015.88
515.506	1458.88
515.721	1226.88
515.937	881.88
516.153	800.88
516.369	772.88
516.585	792.88
516.801	775.88
517.016	767.88
517.232	785.88
517.448	770.88
517.664	796.88
517.879	783.88
518.095	781.88
518.311	781.88
518.527	779.88
518.742	755.88
518.958	767.88
519.173	731.88
519.389	736.88
519.605	752.88
519.82	736.88
520.036	756.88
520.251	771.88
520.467	775.88
520.682	795.88
520.898	794.88
521.113	825.88
521.329	883.88
521.544	970.88
521.76	1142.88
521.975	1834.88
522.19	1818.88
522.406	1067.88
522.621	843.88
522.836	759.88
523.052	725.88
523.267	699.88
523.482	694.88
523.698	682.88
523.913	671.88
524.128	662.88
524.343	668.88
524.559	641.88
524.774	623.88
524.989	660.88
525.204	662.88
525.419	648.88
525.634	640.88
525.849	620.88
526.064	628.88
526.28	627.88
526.495	595.88
526.71	613.88
526.925	610.88
527.14	611.88
527.355	609.88
527.57	603.88
527.785	587.88
527.999	607.88
528.214	594.88
528.429	622.88
528.644	620.88
528.859	599.88
529.074	608.88
529.289	648.88
529.503	748.88
529.718	707.88
529.933	656.88
530.148	631.88
530.363	624.88
530.577	590.88
530.792	598.88
531.007	582.88
531.221	587.88
531.436	564.88
531.651	599.88
531.865	590.88
532.08	587.88
532.295	593.88
532.509	601.88
532.724	592.88
532.938	590.88
533.153	566.88
533.367	562.88
533.582	588.88
533.796	575.88
534.011	565.88
534.225	590.88
534.44	565.88
534.654	549.88
534.868	577.88
535.083	563.88
535.297	548.88
535.511	572.88
535.726	573.88
535.94	580.88
536.154	585.88
536.369	582.88
536.583	557.88
536.797	553.88
537.011	539.88
537.225	542.88
537.44	571.88
537.654	547.88
537.868	532.88
538.082	545.88
538.296	562.88
538.51	555.88
538.724	577.88
538.938	551.88
539.153	561.88
539.367	570.88
539.581	550.88
539.795	567.88
540.009	568.88
540.222	564.88
540.436	565.88
540.65	533.88
540.864	568.88
541.078	560.88
541.292	564.88
541.506	556.88
541.72	538.88
541.934	536.88
542.147	543.88
542.361	544.88
542.575	549.88
542.789	553.88
543.002	537.88
543.216	540.88
543.43	559.88
543.644	570.88
543.857	538.88
544.071	552.88
544.285	551.88
544.498	560.88
544.712	546.88
544.925	544.88
545.139	574.88
545.352	544.88
545.566	521.88
545.779	532.88
545.993	547.88
546.206	549.88
546.42	532.88
546.633	536.88
546.847	510.88
547.06	479.88
547.274	516.88
547.487	537.88
547.7	515.88
547.914	513.88
548.127	528.88
548.34	528.88
548.554	516.88
548.767	536.88
548.98	526.88
549.193	510.88
549.407	547.88
549.62	521.88
549.833	540.88
550.046	521.88
550.259	525.88
550.473	517.88
550.686	531.88
550.899	518.88
551.112	523.88
551.325	524.88
551.538	519.88
551.751	503.88
551.964	522.88
552.177	522.88
552.39	516.88
552.603	510.88
552.816	515.88
553.029	497.88
553.242	504.88
553.455	532.88
553.667	548.88
553.88	548.88
554.093	545.88
554.306	538.88
554.519	541.88
554.732	512.88
554.944	521.88
555.157	517.88
555.37	496.88
555.583	491.88
555.795	512.88
556.008	503.88
556.221	490.88
556.433	496.88
556.646	489.88
556.859	476.88
557.071	481.88
557.284	494.88
557.496	486.88
557.709	494.88
557.921	476.88
558.134	455.88
558.346	469.88
558.559	483.88
558.771	474.88
558.984	471.88
559.196	471.88
559.409	448.88
559.621	491.88
559.833	452.88
560.046	449.88
560.258	456.88
560.47	455.88
560.683	439.88
560.895	448.88
561.107	466.88
561.32	460.88
561.532	466.88
561.744	460.88
561.956	471.88
562.168	460.88
562.381	458.88
562.593	454.88
562.805	448.88
563.017	466.88
563.229	464.88
563.441	455.88
563.653	476.88
563.865	478.88
564.077	465.88
564.289	494.88
564.501	483.88
564.713	490.88
564.925	516.88
565.137	526.88
565.349	529.88
565.561	505.88
565.773	518.88
565.985	547.88
566.197	546.88
566.408	556.88
566.62	550.88
566.832	586.88
567.044	553.88
567.255	576.88
567.467	580.88
567.679	577.88
567.891	607.88
568.102	613.88
568.314	586.88
568.526	581.88
568.737	538.88
568.949	514.88
569.161	489.88
569.372	516.88
569.584	497.88
569.795	483.88
570.007	475.88
570.218	525.88
570.43	519.88
570.641	477.88
570.853	459.88
571.064	457.88
571.276	448.88
571.487	425.88
571.698	452.88
571.91	466.88
572.121	429.88
572.333	409.88
572.544	416.88
572.755	425.88
572.966	428.88
573.178	424.88
573.389	432.88
573.6	422.88
573.811	433.88
574.023	412.88
574.234	423.88
574.445	436.88
574.656	400.88
574.867	410.88
575.078	414.88
575.289	380.88
575.501	388.88
575.712	389.88
575.923	386.88
576.134	396.88
576.345	389.88
576.556	404.88
576.767	388.88
576.978	401.88
577.188	400.88
577.399	384.88
577.61	375.88
577.821	377.88
578.032	380.88
578.243	426.88
578.454	673.88
578.665	489.88
578.875	390.88
579.086	372.88
579.297	378.88
579.508	382.88
579.718	366.88
579.929	390.88
580.14	375.88
580.35	367.88
580.561	354.88
580.772	359.88
580.982	369.88
581.193	371.88
581.403	350.88
581.614	372.88
581.825	353.88
582.035	355.88
582.246	368.88
582.456	370.88
582.667	374.88
582.877	372.88
583.087	347.88
583.298	359.88
583.508	332.88
583.719	343.88
583.929	355.88
584.139	382.88
584.35	336.88
584.56	351.88
584.77	375.88
584.981	354.88
585.191	368.88
585.401	370.88
585.611	358.88
585.821	351.88
586.032	348.88
586.242	348.88
586.452	354.88
586.662	338.88
586.872	350.88
587.082	341.88
587.292	351.88
587.502	360.88
587.713	357.88
587.923	351.88
588.133	350.88
588.343	348.88
588.553	352.88
588.762	360.88
588.972	356.88
589.182	344.88
589.392	349.88
589.602	337.88
589.812	348.88
590.022	343.88
590.232	331.88
590.441	319.88
590.651	327.88
590.861	344.88
591.071	359.88
591.281	338.88
591.49	319.88
591.7	363.88
591.91	355.88
592.119	348.88
592.329	370.88
592.539	374.88
592.748	363.88
592.958	370.88
593.167	350.88
593.377	360.88
593.587	371.88
593.796	364.88
594.006	374.88
594.215	361.88
594.424	382.88
594.634	359.88
594.843	369.88
595.053	340.88
595.262	362.88
595.472	346.88
595.681	354.88
595.89	368.88
596.1	342.88
596.309	328.88
596.518	337.88
596.727	345.88
596.937	324.88
597.146	309.88
597.355	333.88
597.564	322.88
597.774	321.88
597.983	298.88
598.192	297.88
598.401	308.88
598.61	304.88
598.819	305.88
599.028	304.88
599.237	313.88
599.446	304.88
599.655	306.88
599.864	290.88
600.073	298.88
600.282	300.88
600.491	288.88
600.7	302.88
600.909	297.88
601.118	314.88
601.327	314.88
601.536	302.88
601.745	304.88
601.953	301.88
602.162	307.88
602.371	305.88
602.58	289.88
602.789	300.88
602.997	300.88
603.206	310.88
603.415	306.88
603.623	291.88
603.832	258.88
604.041	270.88
604.249	287.88
604.458	281.88
604.666	294.88
604.875	279.88
605.084	296.88
605.292	263.88
605.501	294.88
605.709	305.88
605.918	278.88
606.126	280.88
606.334	285.88
606.543	270.88
606.751	281.88
606.96	276.88
607.168	282.88
607.376	274.88
607.585	276.88
607.793	267.88
608.001	277.88
608.21	263.88
608.418	285.88
608.626	267.88
608.834	286.88
609.043	289.88
609.251	281.88
609.459	270.88
609.667	269.88
609.875	266.88
610.083	256.88
610.291	266.88
610.499	284.88
610.707	265.88
610.916	272.88
611.124	296.88
611.332	276.88
611.54	280.88
611.748	270.88
611.955	279.88
612.163	264.88
612.371	269.88
612.579	274.88
612.787	281.88
612.995	283.88
613.203	275.88
613.411	272.88
613.618	273.88
613.826	248.88
614.034	271.88
614.242	257.88
614.449	269.88
614.657	240.88
614.865	245.88
615.072	277.88
615.28	267.88
615.488	292.88
615.695	269.88
615.903	251.88
616.111	275.88
616.318	250.88
616.526	261.88
616.733	259.88
616.941	278.88
617.148	260.88
617.356	278.88
617.563	266.88
617.771	264.88
617.978	279.88
618.185	250.88
618.393	247.88
618.6	269.88
618.807	263.88
619.015	261.88
619.222	269.88
619.429	253.88
619.637	248.88
619.844	263.88
620.051	264.88
620.258	258.88
620.466	251.88
620.673	228.88
620.88	241.88
621.087	227.88
621.294	249.88
621.501	236.88
621.708	250.88
621.915	254.88
622.122	259.88
622.329	268.88
622.536	259.88
622.743	264.88
622.95	243.88
623.157	254.88
623.364	262.88
623.571	223.88
623.778	249.88
623.985	244.88
624.192	253.88
624.399	245.88
624.606	233.88
624.812	251.88
625.019	245.88
625.226	233.88
625.433	230.88
625.639	237.88
625.846	241.88
626.053	232.88
626.259	235.88
626.466	235.88
626.673	236.88
626.879	222.88
627.086	244.88
627.293	236.88
627.499	220.88
627.706	231.88
627.912	234.88
628.119	225.88
628.325	238.88
628.532	224.88
628.738	227.88
628.945	209.88
629.151	227.88
629.357	216.88
629.564	229.88
629.77	234.88
629.976	207.88
630.183	214.88
630.389	218.88
630.595	228.88
630.802	212.88
631.008	221.88
631.214	234.88
631.42	224.88
631.627	225.88
631.833	230.88
632.039	220.88
632.245	216.88
632.451	209.88
632.657	216.88
632.863	216.88
633.069	200.88
633.275	183.88
633.481	190.88
633.688	198.88
633.893	209.88
634.099	226.88
634.305	201.88
634.511	206.88
634.717	196.88
634.923	190.88
635.129	202.88
635.335	201.88
635.541	201.88
635.747	194.88
635.952	200.88
636.158	215.88
636.364	215.88
636.57	207.88
636.775	177.88
636.981	198.88
637.187	207.88
637.392	191.88
637.598	187.88
637.804	210.88
638.009	206.88
638.215	201.88
638.421	190.88
638.626	189.88
638.832	202.88
639.037	187.88
639.243	202.88
639.448	196.88
639.654	187.88
639.859	175.88
640.065	201.88
640.27	188.88
640.475	185.88
640.681	196.88
640.886	208.88
641.091	203.88
641.297	179.88
641.502	165.88
641.707	187.88
641.913	197.88
642.118	176.88
642.323	186.88
642.528	200.88
642.733	185.88
642.939	184.88
643.144	170.88
643.349	181.88
643.554	195.88
643.759	194.88
643.964	175.88
644.169	191.88
644.374	172.88
644.579	186.88
644.784	180.88
644.989	178.88
645.194	178.88
645.399	170.88
645.604	193.88
645.809	173.88
646.014	190.88
646.219	187.88
646.423	182.88
646.628	175.88
646.833	181.88
647.038	184.88
647.243	169.88
647.447	182.88
647.652	172.88
647.857	185.88
648.062	186.88
648.266	197.88
648.471	188.88
648.676	187.88
648.88	192.88
649.085	188.88
649.289	201.88
649.494	180.88
649.698	208.88
649.903	203.88
650.107	182.88
650.312	178.88
650.516	175.88
650.721	159.88
650.925	159.88
651.13	163.88
651.334	149.88
651.539	167.88
651.743	177.88
651.947	171.88
652.152	159.88
652.356	157.88
652.56	162.88
652.764	159.88
652.969	150.88
653.173	148.88
653.377	147.88
653.581	143.88
653.785	152.88
653.99	135.88
654.194	139.88
654.398	158.88
654.602	158.88
654.806	156.88
655.01	158.88
655.214	147.88
655.418	148.88
655.622	141.88
655.826	146.88
656.03	136.88
656.234	134.88
656.438	156.88
656.642	150.88
656.846	162.88
657.049	144.88
657.253	132.88
657.457	130.88
657.661	128.88
657.865	110.88
658.068	120.88
658.272	124.88
658.476	114.88
658.68	103.88
658.883	124.88
659.087	96.88
659.291	110.88
659.494	89.88
659.698	97.88
659.901	99.88
660.105	104.88
660.309	98.88
660.512	101.88
660.716	81.88
660.919	84.88
661.123	103.88
661.326	98.88
661.53	98.88
661.733	104.88
661.936	83.88
662.14	84.88
662.343	88.88
662.546	94.88
662.75	96.88
662.953	93.88
663.156	95.88
663.36	85.88
663.563	82.88
663.766	82.88
663.969	75.88
664.173	68.88
664.376	80.88
664.579	81.88
664.782	87.88
664.985	82.88
665.188	83.88
665.391	72.88
665.594	80.88
665.797	87.88
666	86.88
666.203	91.88
666.406	95.88
666.609	65.88
666.812	80.88
667.015	81.88
667.218	91.88
667.421	78.88
667.624	86.88
667.827	90.88
668.03	70.88
668.232	67.88
668.435	85.88
668.638	99.88
668.841	76.88
669.043	77.88
669.246	80.88
669.449	77.88
669.651	96.88
669.854	76.88
670.057	86.88
670.259	86.88
670.462	79.88
670.665	86.88
670.867	84.88
671.07	87.88
671.272	82.88
671.475	87.88
671.677	75.88
671.88	75.88
672.082	73.88
672.284	79.88
672.487	63.88
672.689	77.88
672.892	96.88
