Data from 1988.PennyLincolnUp.Lamp.En5.5.200Scan.071819.P2_HRD10591_17-20-05-971.txt Node
Date: Thu Jul 18 17:20:05 EDT 2019
User: cochatt
Spectrometer: HR+D1059
Trigger mode: 1
Integration Time (sec): 1.000000E-1
Scans to average: 1
Electric dark correction enabled: true
Nonlinearity correction enabled: false
Boxcar width: 0
XAxis mode: Wavelengths
Number of Pixels in Spectrum: 2048
>>>>>Begin Spectral Data<<<<<
223.165	-15.38
223.4	-15.38
223.635	-15.38
223.869	-13.38
224.104	-22.38
224.338	-11.38
224.573	-27.38
224.808	-9.38
225.042	-11.38
225.277	1.62
225.511	-3.38
225.746	-9.38
225.98	3.62
226.215	5.62
226.449	19.62
226.683	20.62
226.918	36.62
227.152	35.62
227.387	29.62
227.621	35.62
227.856	46.62
228.09	58.62
228.324	54.62
228.559	50.62
228.793	70.62
229.027	104.62
229.262	120.62
229.496	120.62
229.73	130.62
229.964	166.62
230.199	136.62
230.433	140.62
230.667	124.62
230.901	102.62
231.136	125.62
231.37	106.62
231.604	126.62
231.838	107.62
232.072	105.62
232.306	112.62
232.541	107.62
232.775	120.62
233.009	128.62
233.243	109.62
233.477	127.62
233.711	137.62
233.945	128.62
234.179	124.62
234.413	114.62
234.647	117.62
234.881	132.62
235.115	117.62
235.349	131.62
235.583	137.62
235.817	115.62
236.051	118.62
236.285	122.62
236.519	123.62
236.753	131.62
236.987	165.62
237.221	204.62
237.455	255.62
237.689	208.62
237.922	155.62
238.156	136.62
238.39	144.62
238.624	142.62
238.858	136.62
239.091	135.62
239.325	109.62
239.559	129.62
239.793	138.62
240.027	128.62
240.26	147.62
240.494	155.62
240.728	164.62
240.961	150.62
241.195	143.62
241.429	150.62
241.662	144.62
241.896	142.62
242.13	142.62
242.363	147.62
242.597	142.62
242.83	161.62
243.064	150.62
243.298	136.62
243.531	155.62
243.765	148.62
243.998	140.62
244.232	139.62
244.465	149.62
244.699	154.62
244.932	150.62
245.166	137.62
245.399	165.62
245.633	154.62
245.866	167.62
246.099	148.62
246.333	163.62
246.566	165.62
246.8	170.62
247.033	163.62
247.266	166.62
247.5	171.62
247.733	190.62
247.966	202.62
248.2	185.62
248.433	197.62
248.666	184.62
248.899	177.62
249.133	206.62
249.366	206.62
249.599	217.62
249.832	200.62
250.066	194.62
250.299	184.62
250.532	192.62
250.765	204.62
250.998	229.62
251.231	248.62
251.465	206.62
251.698	216.62
251.931	212.62
252.164	205.62
252.397	207.62
252.63	214.62
252.863	203.62
253.096	217.62
253.329	242.62
253.562	243.62
253.795	230.62
254.028	213.62
254.261	244.62
254.494	235.62
254.727	254.62
254.96	295.62
255.193	267.62
255.426	240.62
255.659	233.62
255.892	228.62
256.124	231.62
256.357	211.62
256.59	228.62
256.823	213.62
257.056	206.62
257.289	190.62
257.521	226.62
257.754	219.62
257.987	208.62
258.22	214.62
258.452	218.62
258.685	222.62
258.918	219.62
259.151	212.62
259.383	215.62
259.616	226.62
259.849	218.62
260.081	246.62
260.314	268.62
260.547	273.62
260.779	246.62
261.012	246.62
261.244	241.62
261.477	233.62
261.71	231.62
261.942	243.62
262.175	250.62
262.407	225.62
262.64	224.62
262.872	231.62
263.105	222.62
263.337	222.62
263.57	221.62
263.802	230.62
264.035	233.62
264.267	237.62
264.499	231.62
264.732	234.62
264.964	216.62
265.197	236.62
265.429	218.62
265.661	224.62
265.894	222.62
266.126	224.62
266.358	224.62
266.591	241.62
266.823	235.62
267.055	248.62
267.287	242.62
267.52	215.62
267.752	226.62
267.984	245.62
268.216	244.62
268.448	234.62
268.681	248.62
268.913	256.62
269.145	284.62
269.377	288.62
269.609	289.62
269.841	278.62
270.073	297.62
270.306	314.62
270.538	339.62
270.77	328.62
271.002	346.62
271.234	293.62
271.466	315.62
271.698	338.62
271.93	343.62
272.162	337.62
272.394	350.62
272.626	336.62
272.858	286.62
273.09	289.62
273.322	284.62
273.553	289.62
273.785	282.62
274.017	281.62
274.249	275.62
274.481	288.62
274.713	271.62
274.945	278.62
275.176	295.62
275.408	288.62
275.64	289.62
275.872	281.62
276.104	278.62
276.335	285.62
276.567	294.62
276.799	304.62
277.031	318.62
277.262	327.62
277.494	328.62
277.726	331.62
277.957	309.62
278.189	334.62
278.421	297.62
278.652	294.62
278.884	268.62
279.115	277.62
279.347	308.62
279.579	293.62
279.81	288.62
280.042	292.62
280.273	289.62
280.505	275.62
280.736	278.62
280.968	291.62
281.199	288.62
281.431	274.62
281.662	291.62
281.894	293.62
282.125	279.62
282.356	310.62
282.588	340.62
282.819	327.62
283.051	295.62
283.282	271.62
283.513	296.62
283.745	300.62
283.976	300.62
284.207	295.62
284.439	308.62
284.67	301.62
284.901	292.62
285.132	313.62
285.364	289.62
285.595	310.62
285.826	300.62
286.057	298.62
286.288	310.62
286.52	299.62
286.751	315.62
286.982	306.62
287.213	310.62
287.444	309.62
287.675	307.62
287.906	315.62
288.138	299.62
288.369	326.62
288.6	331.62
288.831	310.62
289.062	311.62
289.293	307.62
289.524	324.62
289.755	301.62
289.986	296.62
290.217	310.62
290.448	310.62
290.679	301.62
290.91	316.62
291.141	324.62
291.371	304.62
291.602	295.62
291.833	315.62
292.064	312.62
292.295	316.62
292.526	323.62
292.757	296.62
292.987	305.62
293.218	312.62
293.449	297.62
293.68	316.62
293.91	327.62
294.141	307.62
294.372	326.62
294.603	330.62
294.833	325.62
295.064	317.62
295.295	316.62
295.525	323.62
295.756	335.62
295.987	345.62
296.217	334.62
296.448	357.62
296.679	332.62
296.909	333.62
297.14	316.62
297.37	331.62
297.601	334.62
297.831	326.62
298.062	344.62
298.292	333.62
298.523	351.62
298.753	349.62
298.984	332.62
299.214	322.62
299.445	343.62
299.675	323.62
299.905	348.62
300.136	348.62
300.366	356.62
300.597	329.62
300.827	341.62
301.057	348.62
301.288	369.62
301.518	360.62
301.748	362.62
301.979	372.62
302.209	353.62
302.439	361.62
302.669	363.62
302.9	358.62
303.13	355.62
303.36	368.62
303.59	340.62
303.82	354.62
304.051	363.62
304.281	355.62
304.511	345.62
304.741	354.62
304.971	356.62
305.201	358.62
305.431	366.62
305.661	352.62
305.891	341.62
306.121	379.62
306.352	358.62
306.582	368.62
306.812	372.62
307.042	363.62
307.272	350.62
307.502	365.62
307.731	370.62
307.961	371.62
308.191	357.62
308.421	376.62
308.651	357.62
308.881	380.62
309.111	368.62
309.341	368.62
309.571	377.62
309.8	414.62
310.03	398.62
310.26	412.62
310.49	416.62
310.72	419.62
310.949	445.62
311.179	444.62
311.409	421.62
311.639	413.62
311.868	394.62
312.098	427.62
312.328	432.62
312.557	433.62
312.787	453.62
313.017	445.62
313.246	410.62
313.476	397.62
313.706	425.62
313.935	425.62
314.165	426.62
314.394	440.62
314.624	427.62
314.853	436.62
315.083	413.62
315.312	404.62
315.542	425.62
315.771	407.62
316.001	407.62
316.23	406.62
316.46	404.62
316.689	395.62
316.919	406.62
317.148	434.62
317.377	437.62
317.607	436.62
317.836	427.62
318.065	425.62
318.295	398.62
318.524	422.62
318.753	420.62
318.983	419.62
319.212	398.62
319.441	417.62
319.67	425.62
319.9	416.62
320.129	416.62
320.358	398.62
320.587	455.62
320.816	417.62
321.046	445.62
321.275	440.62
321.504	469.62
321.733	442.62
321.962	451.62
322.191	453.62
322.42	495.62
322.649	498.62
322.878	496.62
323.108	488.62
323.337	528.62
323.566	562.62
323.795	603.62
324.024	653.62
324.253	770.62
324.482	1094.62
324.71	1670.62
324.939	2495.62
325.168	2154.62
325.397	1063.62
325.626	721.62
325.855	624.62
326.084	578.62
326.313	556.62
326.542	569.62
326.77	606.62
326.999	707.62
327.228	992.62
327.457	1509.62
327.686	1862.62
327.914	1249.62
328.143	794.62
328.372	687.62
328.6	636.62
328.829	640.62
329.058	632.62
329.287	640.62
329.515	614.62
329.744	561.62
329.972	563.62
330.201	581.62
330.43	597.62
330.658	597.62
330.887	649.62
331.115	631.62
331.344	601.62
331.572	546.62
331.801	536.62
332.03	543.62
332.258	541.62
332.486	497.62
332.715	491.62
332.943	503.62
333.172	499.62
333.4	501.62
333.629	506.62
333.857	478.62
334.085	511.62
334.314	492.62
334.542	536.62
334.771	532.62
334.999	505.62
335.227	513.62
335.455	483.62
335.684	507.62
335.912	521.62
336.14	487.62
336.369	490.62
336.597	490.62
336.825	512.62
337.053	496.62
337.281	504.62
337.51	488.62
337.738	500.62
337.966	488.62
338.194	471.62
338.422	496.62
338.65	481.62
338.878	488.62
339.106	484.62
339.334	481.62
339.562	498.62
339.79	489.62
340.018	485.62
340.246	484.62
340.474	463.62
340.702	480.62
340.93	483.62
341.158	489.62
341.386	484.62
341.614	475.62
341.842	504.62
342.07	464.62
342.298	498.62
342.526	460.62
342.754	471.62
342.981	468.62
343.209	453.62
343.437	476.62
343.665	482.62
343.893	506.62
344.12	516.62
344.348	512.62
344.576	516.62
344.804	491.62
345.031	516.62
345.259	500.62
345.487	489.62
345.714	496.62
345.942	498.62
346.17	476.62
346.397	488.62
346.625	455.62
346.853	452.62
347.08	474.62
347.308	477.62
347.535	468.62
347.763	477.62
347.99	476.62
348.218	480.62
348.445	486.62
348.673	489.62
348.9	467.62
349.128	454.62
349.355	452.62
349.583	448.62
349.81	466.62
350.037	442.62
350.265	457.62
350.492	461.62
350.72	446.62
350.947	484.62
351.174	474.62
351.402	478.62
351.629	464.62
351.856	464.62
352.083	475.62
352.311	506.62
352.538	482.62
352.765	469.62
352.992	482.62
353.22	468.62
353.447	469.62
353.674	451.62
353.901	450.62
354.128	443.62
354.355	434.62
354.583	425.62
354.81	465.62
355.037	440.62
355.264	438.62
355.491	444.62
355.718	436.62
355.945	433.62
356.172	441.62
356.399	459.62
356.626	441.62
356.853	432.62
357.08	433.62
357.307	440.62
357.534	446.62
357.761	435.62
357.988	436.62
358.215	449.62
358.441	433.62
358.668	456.62
358.895	456.62
359.122	456.62
359.349	484.62
359.576	474.62
359.802	492.62
360.029	510.62
360.256	514.62
360.483	530.62
360.709	493.62
360.936	468.62
361.163	481.62
361.39	477.62
361.616	502.62
361.843	482.62
362.07	476.62
362.296	474.62
362.523	481.62
362.749	470.62
362.976	463.62
363.203	468.62
363.429	456.62
363.656	458.62
363.882	449.62
364.109	446.62
364.335	442.62
364.562	440.62
364.788	446.62
365.015	438.62
365.241	452.62
365.468	446.62
365.694	457.62
365.92	458.62
366.147	453.62
366.373	454.62
366.599	470.62
366.826	441.62
367.052	456.62
367.278	470.62
367.505	456.62
367.731	462.62
367.957	462.62
368.184	450.62
368.41	468.62
368.636	487.62
368.862	478.62
369.089	474.62
369.315	442.62
369.541	455.62
369.767	457.62
369.993	451.62
370.219	452.62
370.445	451.62
370.672	459.62
370.898	469.62
371.124	457.62
371.35	453.62
371.576	427.62
371.802	471.62
372.028	446.62
372.254	461.62
372.48	458.62
372.706	458.62
372.932	470.62
373.158	469.62
373.384	434.62
373.61	467.62
373.835	457.62
374.061	451.62
374.287	454.62
374.513	452.62
374.739	465.62
374.965	483.62
375.191	465.62
375.416	451.62
375.642	469.62
375.868	482.62
376.094	457.62
376.319	454.62
376.545	458.62
376.771	438.62
376.997	444.62
377.222	466.62
377.448	474.62
377.674	457.62
377.899	454.62
378.125	484.62
378.35	455.62
378.576	448.62
378.802	466.62
379.027	445.62
379.253	453.62
379.478	453.62
379.704	458.62
379.929	441.62
380.155	463.62
380.38	444.62
380.606	458.62
380.831	453.62
381.057	451.62
381.282	460.62
381.507	468.62
381.733	482.62
381.958	456.62
382.184	457.62
382.409	464.62
382.634	501.62
382.86	480.62
383.085	465.62
383.31	477.62
383.535	484.62
383.761	467.62
383.986	482.62
384.211	489.62
384.436	500.62
384.662	489.62
384.887	480.62
385.112	503.62
385.337	484.62
385.562	482.62
385.787	496.62
386.013	541.62
386.238	485.62
386.463	508.62
386.688	521.62
386.913	496.62
387.138	522.62
387.363	508.62
387.588	481.62
387.813	516.62
388.038	505.62
388.263	496.62
388.488	527.62
388.713	512.62
388.938	497.62
389.163	523.62
389.387	537.62
389.612	492.62
389.837	505.62
390.062	483.62
390.287	526.62
390.512	501.62
390.736	516.62
390.961	531.62
391.186	525.62
391.411	524.62
391.636	505.62
391.86	529.62
392.085	544.62
392.31	533.62
392.534	514.62
392.759	526.62
392.984	507.62
393.208	502.62
393.433	529.62
393.658	508.62
393.882	510.62
394.107	523.62
394.331	506.62
394.556	523.62
394.78	534.62
395.005	509.62
395.229	524.62
395.454	523.62
395.678	571.62
395.903	550.62
396.127	567.62
396.352	576.62
396.576	537.62
396.801	509.62
397.025	530.62
397.249	534.62
397.474	554.62
397.698	555.62
397.922	584.62
398.147	569.62
398.371	593.62
398.595	577.62
398.82	579.62
399.044	619.62
399.268	642.62
399.492	632.62
399.717	705.62
399.941	692.62
400.165	718.62
400.389	718.62
400.613	664.62
400.837	626.62
401.062	604.62
401.286	627.62
401.51	599.62
401.734	599.62
401.958	600.62
402.182	589.62
402.406	608.62
402.63	632.62
402.854	600.62
403.078	601.62
403.302	626.62
403.526	633.62
403.75	623.62
403.974	606.62
404.198	636.62
404.422	606.62
404.645	621.62
404.869	633.62
405.093	618.62
405.317	655.62
405.541	729.62
405.765	662.62
405.988	623.62
406.212	660.62
406.436	692.62
406.66	677.62
406.883	668.62
407.107	709.62
407.331	746.62
407.555	842.62
407.778	802.62
408.002	742.62
408.226	709.62
408.449	710.62
408.673	676.62
408.896	701.62
409.12	749.62
409.344	745.62
409.567	657.62
409.791	642.62
410.014	626.62
410.238	617.62
410.461	629.62
410.685	642.62
410.908	652.62
411.132	702.62
411.355	726.62
411.578	689.62
411.802	647.62
412.025	645.62
412.249	634.62
412.472	618.62
412.695	651.62
412.919	630.62
413.142	596.62
413.365	592.62
413.589	600.62
413.812	589.62
414.035	591.62
414.258	581.62
414.482	589.62
414.705	596.62
414.928	587.62
415.151	582.62
415.374	564.62
415.597	590.62
415.821	556.62
416.044	578.62
416.267	594.62
416.49	599.62
416.713	578.62
416.936	583.62
417.159	593.62
417.382	595.62
417.605	599.62
417.828	593.62
418.051	604.62
418.274	619.62
418.497	594.62
418.72	580.62
418.943	562.62
419.166	614.62
419.389	636.62
419.611	610.62
419.834	612.62
420.057	595.62
420.28	604.62
420.503	594.62
420.726	597.62
420.948	631.62
421.171	672.62
421.394	730.62
421.617	631.62
421.839	604.62
422.062	612.62
422.285	641.62
422.507	701.62
422.73	752.62
422.953	752.62
423.175	678.62
423.398	644.62
423.621	615.62
423.843	660.62
424.066	658.62
424.288	654.62
424.511	674.62
424.733	744.62
424.956	812.62
425.178	789.62
425.401	775.62
425.623	822.62
425.846	722.62
426.068	678.62
426.291	657.62
426.513	652.62
426.735	665.62
426.958	710.62
427.18	817.62
427.402	972.62
427.625	1038.62
427.847	907.62
428.069	787.62
428.292	684.62
428.514	648.62
428.736	642.62
428.958	644.62
429.181	603.62
429.403	583.62
429.625	612.62
429.847	647.62
430.069	723.62
430.292	734.62
430.514	647.62
430.736	628.62
430.958	586.62
431.18	583.62
431.402	596.62
431.624	566.62
431.846	570.62
432.068	580.62
432.29	586.62
432.512	567.62
432.734	589.62
432.956	587.62
433.178	591.62
433.4	587.62
433.622	608.62
433.844	593.62
434.066	579.62
434.287	600.62
434.509	589.62
434.731	590.62
434.953	605.62
435.175	635.62
435.397	638.62
435.618	645.62
435.84	717.62
436.062	805.62
436.284	897.62
436.505	743.62
436.727	671.62
436.949	637.62
437.17	626.62
437.392	627.62
437.614	630.62
437.835	681.62
438.057	763.62
438.278	870.62
438.5	900.62
438.721	982.62
438.943	939.62
439.165	761.62
439.386	660.62
439.608	679.62
439.829	673.62
440.05	690.62
440.272	749.62
440.493	724.62
440.715	657.62
440.936	629.62
441.158	637.62
441.379	621.62
441.6	651.62
441.822	664.62
442.043	690.62
442.264	792.62
442.486	864.62
442.707	731.62
442.928	674.62
443.149	690.62
443.371	706.62
443.592	744.62
443.813	858.62
444.034	935.62
444.255	786.62
444.476	704.62
444.698	666.62
444.919	655.62
445.14	781.62
445.361	726.62
445.582	714.62
445.803	764.62
446.024	880.62
446.245	901.62
446.466	846.62
446.687	706.62
446.908	643.62
447.129	625.62
447.35	608.62
447.571	607.62
447.792	617.62
448.013	630.62
448.234	639.62
448.455	702.62
448.675	822.62
448.896	946.62
449.117	856.62
449.338	768.62
449.559	863.62
449.779	978.62
450	790.62
450.221	674.62
450.442	625.62
450.662	608.62
450.883	602.62
451.104	624.62
451.324	605.62
451.545	595.62
451.766	566.62
451.986	565.62
452.207	556.62
452.428	565.62
452.648	548.62
452.869	558.62
453.089	545.62
453.31	578.62
453.53	571.62
453.751	538.62
453.971	532.62
454.192	548.62
454.412	561.62
454.633	545.62
454.853	516.62
455.073	536.62
455.294	570.62
455.514	651.62
455.734	626.62
455.955	542.62
456.175	515.62
456.395	553.62
456.616	526.62
456.836	529.62
457.056	528.62
457.276	500.62
457.497	530.62
457.717	515.62
457.937	529.62
458.157	523.62
458.377	548.62
458.598	558.62
458.818	611.62
459.038	686.62
459.258	710.62
459.478	636.62
459.698	611.62
459.918	583.62
460.138	582.62
460.358	589.62
460.578	602.62
460.798	598.62
461.018	612.62
461.238	605.62
461.458	571.62
461.678	596.62
461.898	614.62
462.118	604.62
462.338	597.62
462.558	626.62
462.777	617.62
462.997	648.62
463.217	642.62
463.437	658.62
463.657	644.62
463.876	633.62
464.096	640.62
464.316	626.62
464.536	648.62
464.755	646.62
464.975	641.62
465.195	702.62
465.414	768.62
465.634	704.62
465.854	637.62
466.073	596.62
466.293	572.62
466.512	589.62
466.732	560.62
466.951	553.62
467.171	565.62
467.391	557.62
467.61	582.62
467.829	578.62
468.049	588.62
468.268	561.62
468.488	542.62
468.707	543.62
468.927	569.62
469.146	546.62
469.365	558.62
469.585	572.62
469.804	577.62
470.023	564.62
470.243	564.62
470.462	604.62
470.681	584.62
470.901	598.62
471.12	586.62
471.339	556.62
471.558	571.62
471.777	576.62
471.997	573.62
472.216	560.62
472.435	556.62
472.654	564.62
472.873	552.62
473.092	564.62
473.311	563.62
473.53	581.62
473.749	583.62
473.968	607.62
474.187	722.62
474.406	750.62
474.625	657.62
474.844	578.62
475.063	571.62
475.282	594.62
475.501	557.62
475.72	578.62
475.939	596.62
476.158	570.62
476.377	602.62
476.596	594.62
476.814	604.62
477.033	597.62
477.252	616.62
477.471	608.62
477.69	631.62
477.908	609.62
478.127	650.62
478.346	628.62
478.564	632.62
478.783	618.62
479.002	652.62
479.22	627.62
479.439	668.62
479.658	688.62
479.876	694.62
480.095	715.62
480.313	702.62
480.532	690.62
480.751	708.62
480.969	677.62
481.188	694.62
481.406	715.62
481.624	701.62
481.843	684.62
482.061	689.62
482.28	680.62
482.498	672.62
482.717	668.62
482.935	656.62
483.153	655.62
483.372	655.62
483.59	678.62
483.808	656.62
484.027	652.62
484.245	676.62
484.463	677.62
484.681	708.62
484.9	693.62
485.118	676.62
485.336	678.62
485.554	693.62
485.772	652.62
485.99	666.62
486.209	679.62
486.427	701.62
486.645	700.62
486.863	746.62
487.081	707.62
487.299	729.62
487.517	712.62
487.735	697.62
487.953	736.62
488.171	727.62
488.389	731.62
488.607	719.62
488.825	708.62
489.043	732.62
489.261	755.62
489.479	734.62
489.696	728.62
489.914	734.62
490.132	765.62
490.35	756.62
490.568	758.62
490.786	762.62
491.003	806.62
491.221	780.62
491.439	786.62
491.657	821.62
491.874	809.62
492.092	813.62
492.31	813.62
492.527	833.62
492.745	811.62
492.963	811.62
493.18	811.62
493.398	845.62
493.615	832.62
493.833	854.62
494.05	849.62
494.268	856.62
494.485	797.62
494.703	820.62
494.92	846.62
495.138	868.62
495.355	854.62
495.573	852.62
495.79	851.62
496.008	874.62
496.225	843.62
496.442	857.62
496.66	855.62
496.877	863.62
497.094	890.62
497.312	869.62
497.529	885.62
497.746	908.62
497.963	912.62
498.181	923.62
498.398	954.62
498.615	967.62
498.832	988.62
499.049	1007.62
499.267	1032.62
499.484	1062.62
499.701	1065.62
499.918	1152.62
500.135	1156.62
500.352	1217.62
500.569	1260.62
500.786	1227.62
501.003	1244.62
501.22	1218.62
501.437	1170.62
501.654	1121.62
501.871	1108.62
502.088	1093.62
502.305	1068.62
502.522	1011.62
502.739	956.62
502.956	957.62
503.172	922.62
503.389	909.62
503.606	963.62
503.823	890.62
504.04	900.62
504.256	884.62
504.473	866.62
504.69	870.62
504.907	894.62
505.123	861.62
505.34	850.62
505.557	838.62
505.773	846.62
505.99	813.62
506.207	817.62
506.423	820.62
506.64	801.62
506.856	808.62
507.073	806.62
507.289	796.62
507.506	819.62
507.722	802.62
507.939	835.62
508.155	805.62
508.372	796.62
508.588	769.62
508.805	786.62
509.021	782.62
509.238	777.62
509.454	820.62
509.67	790.62
509.887	775.62
510.103	786.62
510.319	811.62
510.536	869.62
510.752	1436.62
510.968	1183.62
511.184	790.62
511.401	774.62
511.617	757.62
511.833	754.62
512.049	737.62
512.265	728.62
512.481	716.62
512.698	716.62
512.914	750.62
513.13	756.62
513.346	735.62
513.562	720.62
513.778	742.62
513.994	760.62
514.21	752.62
514.426	801.62
514.642	810.62
514.858	865.62
515.074	895.62
515.29	1020.62
515.506	1477.62
515.721	1260.62
515.937	892.62
516.153	830.62
516.369	781.62
516.585	782.62
516.801	773.62
517.016	781.62
517.232	790.62
517.448	798.62
517.664	775.62
517.879	790.62
518.095	788.62
518.311	780.62
518.527	753.62
518.742	747.62
518.958	760.62
519.173	729.62
519.389	745.62
519.605	719.62
519.82	737.62
520.036	750.62
520.251	788.62
520.467	820.62
520.682	802.62
520.898	806.62
521.113	826.62
521.329	888.62
521.544	991.62
521.76	1217.62
521.975	1868.62
522.19	1893.62
522.406	1085.62
522.621	848.62
522.836	768.62
523.052	728.62
523.267	742.62
523.482	686.62
523.698	674.62
523.913	671.62
524.128	677.62
524.343	681.62
524.559	649.62
524.774	658.62
524.989	629.62
525.204	668.62
525.419	676.62
525.634	631.62
525.849	651.62
526.064	624.62
526.28	629.62
526.495	621.62
526.71	625.62
526.925	626.62
527.14	612.62
527.355	619.62
527.57	607.62
527.785	631.62
527.999	621.62
528.214	639.62
528.429	628.62
528.644	602.62
528.859	621.62
529.074	594.62
529.289	640.62
529.503	717.62
529.718	691.62
529.933	647.62
530.148	638.62
530.363	629.62
530.577	599.62
530.792	604.62
531.007	597.62
531.221	584.62
531.436	610.62
531.651	577.62
531.865	584.62
532.08	589.62
532.295	600.62
532.509	584.62
532.724	596.62
532.938	606.62
533.153	598.62
533.367	582.62
533.582	564.62
533.796	594.62
534.011	600.62
534.225	588.62
534.44	590.62
534.654	562.62
534.868	571.62
535.083	598.62
535.297	601.62
535.511	579.62
535.726	582.62
535.94	595.62
536.154	589.62
536.369	593.62
536.583	573.62
536.797	563.62
537.011	542.62
537.225	563.62
537.44	572.62
537.654	565.62
537.868	553.62
538.082	532.62
538.296	532.62
538.51	561.62
538.724	558.62
538.938	565.62
539.153	570.62
539.367	568.62
539.581	581.62
539.795	552.62
540.009	573.62
540.222	549.62
540.436	553.62
540.65	570.62
540.864	542.62
541.078	555.62
541.292	562.62
541.506	575.62
541.72	552.62
541.934	562.62
542.147	570.62
542.361	548.62
542.575	554.62
542.789	546.62
543.002	550.62
543.216	572.62
543.43	586.62
543.644	568.62
543.857	547.62
544.071	545.62
544.285	542.62
544.498	530.62
544.712	544.62
544.925	537.62
545.139	557.62
545.352	541.62
545.566	548.62
545.779	520.62
545.993	537.62
546.206	535.62
546.42	567.62
546.633	532.62
546.847	522.62
547.06	530.62
547.274	536.62
547.487	537.62
547.7	547.62
547.914	550.62
548.127	531.62
548.34	522.62
548.554	533.62
548.767	531.62
548.98	525.62
549.193	523.62
549.407	545.62
549.62	536.62
549.833	535.62
550.046	529.62
550.259	533.62
550.473	538.62
550.686	521.62
550.899	509.62
551.112	537.62
551.325	524.62
551.538	526.62
551.751	518.62
551.964	525.62
552.177	526.62
552.39	516.62
552.603	535.62
552.816	544.62
553.029	527.62
553.242	530.62
553.455	525.62
553.667	537.62
553.88	555.62
554.093	546.62
554.306	520.62
554.519	523.62
554.732	523.62
554.944	530.62
555.157	520.62
555.37	498.62
555.583	476.62
555.795	510.62
556.008	486.62
556.221	478.62
556.433	485.62
556.646	491.62
556.859	480.62
557.071	494.62
557.284	492.62
557.496	501.62
557.709	500.62
557.921	483.62
558.134	480.62
558.346	474.62
558.559	475.62
558.771	478.62
558.984	458.62
559.196	455.62
559.409	459.62
559.621	485.62
559.833	483.62
560.046	460.62
560.258	472.62
560.47	466.62
560.683	454.62
560.895	472.62
561.107	470.62
561.32	466.62
561.532	481.62
561.744	473.62
561.956	455.62
562.168	450.62
562.381	457.62
562.593	496.62
562.805	467.62
563.017	475.62
563.229	483.62
563.441	482.62
563.653	490.62
563.865	485.62
564.077	497.62
564.289	474.62
564.501	498.62
564.713	473.62
564.925	478.62
565.137	496.62
565.349	520.62
565.561	500.62
565.773	534.62
565.985	525.62
566.197	541.62
566.408	549.62
566.62	589.62
566.832	578.62
567.044	581.62
567.255	577.62
567.467	573.62
567.679	584.62
567.891	602.62
568.102	622.62
568.314	582.62
568.526	593.62
568.737	581.62
568.949	526.62
569.161	524.62
569.372	500.62
569.584	493.62
569.795	487.62
570.007	477.62
570.218	521.62
570.43	512.62
570.641	462.62
570.853	463.62
571.064	462.62
571.276	467.62
571.487	440.62
571.698	450.62
571.91	430.62
572.121	429.62
572.333	439.62
572.544	433.62
572.755	430.62
572.966	419.62
573.178	418.62
573.389	436.62
573.6	410.62
573.811	394.62
574.023	436.62
574.234	394.62
574.445	416.62
574.656	419.62
574.867	392.62
575.078	390.62
575.289	403.62
575.501	390.62
575.712	389.62
575.923	375.62
576.134	401.62
576.345	400.62
576.556	398.62
576.767	385.62
576.978	378.62
577.188	400.62
577.399	394.62
577.61	396.62
577.821	383.62
578.032	390.62
578.243	424.62
578.454	652.62
578.665	507.62
578.875	412.62
579.086	391.62
579.297	386.62
579.508	374.62
579.718	378.62
579.929	382.62
580.14	381.62
580.35	381.62
580.561	389.62
580.772	388.62
580.982	367.62
581.193	376.62
581.403	354.62
581.614	353.62
581.825	380.62
582.035	355.62
582.246	346.62
582.456	388.62
582.667	374.62
582.877	378.62
583.087	380.62
583.298	325.62
583.508	354.62
583.719	361.62
583.929	361.62
584.139	365.62
584.35	360.62
584.56	364.62
584.77	353.62
584.981	366.62
585.191	330.62
585.401	344.62
585.611	360.62
585.821	366.62
586.032	368.62
586.242	352.62
586.452	366.62
586.662	347.62
586.872	372.62
587.082	353.62
587.292	355.62
587.502	352.62
587.713	318.62
587.923	353.62
588.133	333.62
588.343	328.62
588.553	364.62
588.762	356.62
588.972	336.62
589.182	349.62
589.392	354.62
589.602	348.62
589.812	338.62
590.022	348.62
590.232	356.62
590.441	352.62
590.651	357.62
590.861	340.62
591.071	359.62
591.281	363.62
591.49	350.62
591.7	345.62
591.91	335.62
592.119	351.62
592.329	355.62
592.539	378.62
592.748	363.62
592.958	370.62
593.167	355.62
593.377	383.62
593.587	382.62
593.796	393.62
594.006	377.62
594.215	380.62
594.424	374.62
594.634	352.62
594.843	359.62
595.053	361.62
595.262	354.62
595.472	347.62
595.681	353.62
595.89	336.62
596.1	340.62
596.309	328.62
596.518	331.62
596.727	329.62
596.937	326.62
597.146	326.62
597.355	322.62
597.564	336.62
597.774	316.62
597.983	302.62
598.192	305.62
598.401	323.62
598.61	318.62
598.819	312.62
599.028	316.62
599.237	305.62
599.446	315.62
599.655	317.62
599.864	299.62
600.073	284.62
600.282	296.62
600.491	301.62
600.7	292.62
600.909	301.62
601.118	321.62
601.327	297.62
601.536	297.62
601.745	329.62
601.953	304.62
602.162	307.62
602.371	294.62
602.58	311.62
602.789	300.62
602.997	290.62
603.206	306.62
603.415	307.62
603.623	286.62
603.832	277.62
604.041	281.62
604.249	280.62
604.458	279.62
604.666	284.62
604.875	289.62
605.084	278.62
605.292	289.62
605.501	295.62
605.709	274.62
605.918	298.62
606.126	309.62
606.334	290.62
606.543	292.62
606.751	275.62
606.96	270.62
607.168	287.62
607.376	278.62
607.585	281.62
607.793	264.62
608.001	296.62
608.21	285.62
608.418	278.62
608.626	267.62
608.834	285.62
609.043	283.62
609.251	274.62
609.459	280.62
609.667	282.62
609.875	277.62
610.083	293.62
610.291	273.62
610.499	269.62
610.707	280.62
610.916	292.62
611.124	277.62
611.332	290.62
611.54	288.62
611.748	283.62
611.955	279.62
612.163	276.62
612.371	259.62
612.579	280.62
612.787	290.62
612.995	268.62
613.203	282.62
613.411	269.62
613.618	260.62
613.826	253.62
614.034	269.62
614.242	281.62
614.449	276.62
614.657	280.62
614.865	264.62
615.072	267.62
615.28	282.62
615.488	279.62
615.695	261.62
615.903	272.62
616.111	267.62
616.318	256.62
616.526	265.62
616.733	280.62
616.941	279.62
617.148	258.62
617.356	256.62
617.563	262.62
617.771	257.62
617.978	275.62
618.185	275.62
618.393	257.62
618.6	265.62
618.807	265.62
619.015	268.62
619.222	270.62
619.429	251.62
619.637	249.62
619.844	269.62
620.051	266.62
620.258	282.62
620.466	278.62
620.673	244.62
620.88	265.62
621.087	244.62
621.294	259.62
621.501	251.62
621.708	263.62
621.915	262.62
622.122	264.62
622.329	242.62
622.536	249.62
622.743	252.62
622.95	244.62
623.157	244.62
623.364	255.62
623.571	250.62
623.778	241.62
623.985	253.62
624.192	240.62
624.399	242.62
624.606	260.62
624.812	247.62
625.019	235.62
625.226	241.62
625.433	226.62
625.639	233.62
625.846	225.62
626.053	233.62
626.259	242.62
626.466	240.62
626.673	254.62
626.879	227.62
627.086	241.62
627.293	236.62
627.499	221.62
627.706	241.62
627.912	230.62
628.119	249.62
628.325	226.62
628.532	236.62
628.738	214.62
628.945	218.62
629.151	232.62
629.357	223.62
629.564	230.62
629.77	206.62
629.976	206.62
630.183	205.62
630.389	215.62
630.595	228.62
630.802	215.62
631.008	226.62
631.214	221.62
631.42	222.62
631.627	228.62
631.833	212.62
632.039	217.62
632.245	223.62
632.451	219.62
632.657	208.62
632.863	217.62
633.069	227.62
633.275	215.62
633.481	202.62
633.688	206.62
633.893	200.62
634.099	206.62
634.305	214.62
634.511	217.62
634.717	220.62
634.923	208.62
635.129	212.62
635.335	198.62
635.541	225.62
635.747	195.62
635.952	216.62
636.158	204.62
636.364	206.62
636.57	200.62
636.775	210.62
636.981	219.62
637.187	202.62
637.392	214.62
637.598	205.62
637.804	199.62
638.009	213.62
638.215	187.62
638.421	211.62
638.626	191.62
638.832	194.62
639.037	199.62
639.243	205.62
639.448	198.62
639.654	189.62
639.859	195.62
640.065	179.62
640.27	197.62
640.475	198.62
640.681	202.62
640.886	186.62
641.091	186.62
641.297	200.62
641.502	184.62
641.707	192.62
641.913	195.62
642.118	195.62
642.323	190.62
642.528	190.62
642.733	180.62
642.939	192.62
643.144	191.62
643.349	197.62
643.554	193.62
643.759	198.62
643.964	189.62
644.169	197.62
644.374	180.62
644.579	197.62
644.784	187.62
644.989	192.62
645.194	177.62
645.399	195.62
645.604	182.62
645.809	198.62
646.014	181.62
646.219	179.62
646.423	193.62
646.628	185.62
646.833	194.62
647.038	187.62
647.243	201.62
647.447	183.62
647.652	196.62
647.857	173.62
648.062	188.62
648.266	184.62
648.471	186.62
648.676	183.62
648.88	186.62
649.085	174.62
649.289	197.62
649.494	187.62
649.698	197.62
649.903	198.62
650.107	186.62
650.312	181.62
650.516	177.62
650.721	182.62
650.925	167.62
651.13	184.62
651.334	163.62
651.539	166.62
651.743	167.62
651.947	166.62
652.152	146.62
652.356	173.62
652.56	140.62
652.764	153.62
652.969	155.62
653.173	159.62
653.377	140.62
653.581	157.62
653.785	156.62
653.99	142.62
654.194	158.62
654.398	135.62
654.602	163.62
654.806	140.62
655.01	150.62
655.214	142.62
655.418	137.62
655.622	161.62
655.826	137.62
656.03	136.62
656.234	164.62
656.438	149.62
656.642	155.62
656.846	139.62
657.049	132.62
657.253	114.62
657.457	138.62
657.661	119.62
657.865	126.62
658.068	126.62
658.272	121.62
658.476	125.62
658.68	113.62
658.883	107.62
659.087	114.62
659.291	100.62
659.494	101.62
659.698	106.62
659.901	103.62
660.105	106.62
660.309	101.62
660.512	101.62
660.716	94.62
660.919	88.62
661.123	89.62
661.326	84.62
661.53	86.62
661.733	89.62
661.936	91.62
662.14	91.62
662.343	85.62
662.546	78.62
662.75	79.62
662.953	95.62
663.156	78.62
663.36	92.62
663.563	89.62
663.766	75.62
663.969	86.62
664.173	80.62
664.376	84.62
664.579	81.62
664.782	73.62
664.985	102.62
665.188	79.62
665.391	86.62
665.594	61.62
665.797	83.62
666	87.62
666.203	86.62
666.406	90.62
666.609	78.62
666.812	84.62
667.015	80.62
667.218	95.62
667.421	81.62
667.624	80.62
667.827	84.62
668.03	92.62
668.232	106.62
668.435	84.62
668.638	80.62
668.841	84.62
669.043	85.62
669.246	89.62
669.449	74.62
669.651	78.62
669.854	70.62
670.057	94.62
670.259	80.62
670.462	73.62
670.665	85.62
670.867	84.62
671.07	81.62
671.272	85.62
671.475	83.62
671.677	80.62
671.88	85.62
672.082	95.62
672.284	89.62
672.487	89.62
672.689	82.62
672.892	89.62
