Data from 1988.PennyLincolnUp.Lamp.En5.5.200Scan.071819.P2_HRD10591_17-20-52-972.txt Node
Date: Thu Jul 18 17:20:52 EDT 2019
User: cochatt
Spectrometer: HR+D1059
Trigger mode: 1
Integration Time (sec): 1.000000E-1
Scans to average: 1
Electric dark correction enabled: true
Nonlinearity correction enabled: false
Boxcar width: 0
XAxis mode: Wavelengths
Number of Pixels in Spectrum: 2048
>>>>>Begin Spectral Data<<<<<
223.165	-23.12
223.4	-23.12
223.635	-23.12
223.869	-23.12
224.104	-3.12
224.338	-5.12
224.573	-3.12
224.808	-18.12
225.042	-9.12
225.277	-2.12
225.511	5.88
225.746	-0.12
225.98	17.88
226.215	4.88
226.449	4.88
226.683	9.88
226.918	11.88
227.152	31.88
227.387	24.88
227.621	23.88
227.856	46.88
228.09	37.88
228.324	54.88
228.559	49.88
228.793	54.88
229.027	97.88
229.262	98.88
229.496	112.88
229.73	161.88
229.964	161.88
230.199	143.88
230.433	111.88
230.667	111.88
230.901	104.88
231.136	126.88
231.37	90.88
231.604	126.88
231.838	114.88
232.072	116.88
232.306	113.88
232.541	122.88
232.775	108.88
233.009	120.88
233.243	99.88
233.477	118.88
233.711	124.88
233.945	116.88
234.179	119.88
234.413	121.88
234.647	122.88
234.881	126.88
235.115	133.88
235.349	109.88
235.583	114.88
235.817	115.88
236.051	128.88
236.285	128.88
236.519	136.88
236.753	137.88
236.987	151.88
237.221	194.88
237.455	265.88
237.689	204.88
237.922	148.88
238.156	144.88
238.39	133.88
238.624	136.88
238.858	144.88
239.091	142.88
239.325	128.88
239.559	148.88
239.793	136.88
240.027	130.88
240.26	152.88
240.494	169.88
240.728	160.88
240.961	152.88
241.195	149.88
241.429	155.88
241.662	128.88
241.896	136.88
242.13	128.88
242.363	135.88
242.597	138.88
242.83	139.88
243.064	148.88
243.298	128.88
243.531	156.88
243.765	136.88
243.998	152.88
244.232	150.88
244.465	145.88
244.699	149.88
244.932	151.88
245.166	141.88
245.399	150.88
245.633	159.88
245.866	149.88
246.099	147.88
246.333	177.88
246.566	169.88
246.8	171.88
247.033	158.88
247.266	152.88
247.5	167.88
247.733	188.88
247.966	177.88
248.2	179.88
248.433	177.88
248.666	167.88
248.899	192.88
249.133	219.88
249.366	228.88
249.599	215.88
249.832	187.88
250.066	202.88
250.299	201.88
250.532	192.88
250.765	201.88
250.998	244.88
251.231	237.88
251.465	238.88
251.698	210.88
251.931	198.88
252.164	211.88
252.397	206.88
252.63	216.88
252.863	224.88
253.096	234.88
253.329	235.88
253.562	255.88
253.795	219.88
254.028	255.88
254.261	240.88
254.494	225.88
254.727	276.88
254.96	291.88
255.193	282.88
255.426	261.88
255.659	243.88
255.892	241.88
256.124	220.88
256.357	215.88
256.59	226.88
256.823	232.88
257.056	231.88
257.289	223.88
257.521	227.88
257.754	223.88
257.987	219.88
258.22	226.88
258.452	212.88
258.685	220.88
258.918	214.88
259.151	224.88
259.383	233.88
259.616	229.88
259.849	230.88
260.081	263.88
260.314	253.88
260.547	275.88
260.779	255.88
261.012	245.88
261.244	230.88
261.477	242.88
261.71	227.88
261.942	239.88
262.175	253.88
262.407	260.88
262.64	229.88
262.872	232.88
263.105	228.88
263.337	211.88
263.57	232.88
263.802	227.88
264.035	225.88
264.267	214.88
264.499	213.88
264.732	224.88
264.964	220.88
265.197	221.88
265.429	223.88
265.661	210.88
265.894	227.88
266.126	237.88
266.358	229.88
266.591	238.88
266.823	240.88
267.055	221.88
267.287	244.88
267.52	240.88
267.752	250.88
267.984	252.88
268.216	260.88
268.448	249.88
268.681	253.88
268.913	254.88
269.145	276.88
269.377	300.88
269.609	282.88
269.841	286.88
270.073	287.88
270.306	322.88
270.538	356.88
270.77	338.88
271.002	325.88
271.234	302.88
271.466	304.88
271.698	349.88
271.93	336.88
272.162	331.88
272.394	341.88
272.626	327.88
272.858	318.88
273.09	284.88
273.322	300.88
273.553	295.88
273.785	289.88
274.017	282.88
274.249	276.88
274.481	273.88
274.713	267.88
274.945	292.88
275.176	293.88
275.408	290.88
275.64	299.88
275.872	281.88
276.104	284.88
276.335	274.88
276.567	300.88
276.799	287.88
277.031	314.88
277.262	351.88
277.494	348.88
277.726	334.88
277.957	306.88
278.189	298.88
278.421	289.88
278.652	288.88
278.884	279.88
279.115	287.88
279.347	278.88
279.579	287.88
279.81	272.88
280.042	290.88
280.273	282.88
280.505	301.88
280.736	269.88
280.968	285.88
281.199	298.88
281.431	287.88
281.662	290.88
281.894	288.88
282.125	280.88
282.356	295.88
282.588	321.88
282.819	339.88
283.051	309.88
283.282	283.88
283.513	312.88
283.745	290.88
283.976	288.88
284.207	320.88
284.439	309.88
284.67	298.88
284.901	303.88
285.132	300.88
285.364	288.88
285.595	291.88
285.826	292.88
286.057	302.88
286.288	305.88
286.52	312.88
286.751	288.88
286.982	297.88
287.213	316.88
287.444	311.88
287.675	308.88
287.906	334.88
288.138	333.88
288.369	330.88
288.6	320.88
288.831	317.88
289.062	316.88
289.293	318.88
289.524	323.88
289.755	325.88
289.986	305.88
290.217	312.88
290.448	317.88
290.679	318.88
290.91	326.88
291.141	302.88
291.371	309.88
291.602	313.88
291.833	312.88
292.064	304.88
292.295	296.88
292.526	323.88
292.757	294.88
292.987	319.88
293.218	309.88
293.449	327.88
293.68	319.88
293.91	317.88
294.141	315.88
294.372	305.88
294.603	324.88
294.833	326.88
295.064	327.88
295.295	312.88
295.525	325.88
295.756	322.88
295.987	327.88
296.217	364.88
296.448	372.88
296.679	325.88
296.909	332.88
297.14	324.88
297.37	331.88
297.601	337.88
297.831	331.88
298.062	326.88
298.292	329.88
298.523	347.88
298.753	326.88
298.984	336.88
299.214	330.88
299.445	338.88
299.675	333.88
299.905	341.88
300.136	347.88
300.366	327.88
300.597	353.88
300.827	334.88
301.057	368.88
301.288	369.88
301.518	360.88
301.748	361.88
301.979	351.88
302.209	367.88
302.439	350.88
302.669	361.88
302.9	350.88
303.13	357.88
303.36	363.88
303.59	366.88
303.82	364.88
304.051	370.88
304.281	353.88
304.511	349.88
304.741	346.88
304.971	361.88
305.201	365.88
305.431	350.88
305.661	350.88
305.891	363.88
306.121	363.88
306.352	377.88
306.582	366.88
306.812	379.88
307.042	359.88
307.272	346.88
307.502	368.88
307.731	356.88
307.961	371.88
308.191	366.88
308.421	365.88
308.651	369.88
308.881	368.88
309.111	356.88
309.341	375.88
309.571	412.88
309.8	389.88
310.03	406.88
310.26	406.88
310.49	414.88
310.72	434.88
310.949	425.88
311.179	432.88
311.409	393.88
311.639	410.88
311.868	408.88
312.098	420.88
312.328	430.88
312.557	457.88
312.787	455.88
313.017	479.88
313.246	448.88
313.476	423.88
313.706	431.88
313.935	432.88
314.165	454.88
314.394	438.88
314.624	447.88
314.853	436.88
315.083	431.88
315.312	406.88
315.542	410.88
315.771	383.88
316.001	426.88
316.23	423.88
316.46	402.88
316.689	421.88
316.919	415.88
317.148	407.88
317.377	447.88
317.607	415.88
317.836	421.88
318.065	425.88
318.295	414.88
318.524	431.88
318.753	405.88
318.983	412.88
319.212	416.88
319.441	452.88
319.67	455.88
319.9	431.88
320.129	409.88
320.358	426.88
320.587	430.88
320.816	439.88
321.046	448.88
321.275	468.88
321.504	446.88
321.733	443.88
321.962	468.88
322.191	485.88
322.42	508.88
322.649	498.88
322.878	480.88
323.108	538.88
323.337	550.88
323.566	575.88
323.795	611.88
324.024	646.88
324.253	794.88
324.482	1137.88
324.71	1798.88
324.939	2696.88
325.168	2261.88
325.397	1138.88
325.626	743.88
325.855	646.88
326.084	560.88
326.313	564.88
326.542	590.88
326.77	607.88
326.999	745.88
327.228	1038.88
327.457	1592.88
327.686	1988.88
327.914	1278.88
328.143	807.88
328.372	700.88
328.6	678.88
328.829	632.88
329.058	650.88
329.287	657.88
329.515	622.88
329.744	568.88
329.972	556.88
330.201	565.88
330.43	581.88
330.658	646.88
330.887	672.88
331.115	665.88
331.344	592.88
331.572	550.88
331.801	545.88
332.03	556.88
332.258	538.88
332.486	513.88
332.715	485.88
332.943	508.88
333.172	520.88
333.4	511.88
333.629	514.88
333.857	509.88
334.085	538.88
334.314	535.88
334.542	538.88
334.771	551.88
334.999	519.88
335.227	523.88
335.455	520.88
335.684	520.88
335.912	490.88
336.14	493.88
336.369	496.88
336.597	503.88
336.825	523.88
337.053	520.88
337.281	491.88
337.51	469.88
337.738	496.88
337.966	528.88
338.194	504.88
338.422	516.88
338.65	482.88
338.878	478.88
339.106	481.88
339.334	453.88
339.562	481.88
339.79	473.88
340.018	486.88
340.246	468.88
340.474	498.88
340.702	473.88
340.93	499.88
341.158	464.88
341.386	468.88
341.614	478.88
341.842	484.88
342.07	477.88
342.298	501.88
342.526	474.88
342.754	458.88
342.981	465.88
343.209	466.88
343.437	453.88
343.665	486.88
343.893	470.88
344.12	508.88
344.348	489.88
344.576	492.88
344.804	502.88
345.031	529.88
345.259	523.88
345.487	493.88
345.714	489.88
345.942	474.88
346.17	490.88
346.397	457.88
346.625	485.88
346.853	480.88
347.08	465.88
347.308	478.88
347.535	489.88
347.763	505.88
347.99	497.88
348.218	490.88
348.445	508.88
348.673	490.88
348.9	473.88
349.128	453.88
349.355	473.88
349.583	469.88
349.81	472.88
350.037	458.88
350.265	461.88
350.492	461.88
350.72	466.88
350.947	477.88
351.174	478.88
351.402	482.88
351.629	500.88
351.856	497.88
352.083	494.88
352.311	485.88
352.538	506.88
352.765	492.88
352.992	485.88
353.22	470.88
353.447	470.88
353.674	462.88
353.901	449.88
354.128	462.88
354.355	434.88
354.583	452.88
354.81	442.88
355.037	449.88
355.264	432.88
355.491	446.88
355.718	453.88
355.945	429.88
356.172	437.88
356.399	432.88
356.626	434.88
356.853	438.88
357.08	424.88
357.307	432.88
357.534	450.88
357.761	437.88
357.988	446.88
358.215	455.88
358.441	436.88
358.668	424.88
358.895	456.88
359.122	458.88
359.349	468.88
359.576	468.88
359.802	521.88
360.029	536.88
360.256	558.88
360.483	515.88
360.709	489.88
360.936	486.88
361.163	462.88
361.39	476.88
361.616	472.88
361.843	477.88
362.07	485.88
362.296	485.88
362.523	491.88
362.749	469.88
362.976	478.88
363.203	463.88
363.429	465.88
363.656	453.88
363.882	458.88
364.109	474.88
364.335	470.88
364.562	451.88
364.788	451.88
365.015	465.88
365.241	479.88
365.468	466.88
365.694	466.88
365.92	473.88
366.147	464.88
366.373	440.88
366.599	466.88
366.826	448.88
367.052	461.88
367.278	448.88
367.505	448.88
367.731	461.88
367.957	452.88
368.184	462.88
368.41	472.88
368.636	464.88
368.862	453.88
369.089	452.88
369.315	476.88
369.541	436.88
369.767	476.88
369.993	467.88
370.219	478.88
370.445	437.88
370.672	454.88
370.898	450.88
371.124	437.88
371.35	457.88
371.576	449.88
371.802	455.88
372.028	450.88
372.254	467.88
372.48	457.88
372.706	449.88
372.932	464.88
373.158	457.88
373.384	471.88
373.61	471.88
373.835	458.88
374.061	485.88
374.287	463.88
374.513	481.88
374.739	476.88
374.965	469.88
375.191	484.88
375.416	496.88
375.642	470.88
375.868	450.88
376.094	463.88
376.319	448.88
376.545	464.88
376.771	433.88
376.997	460.88
377.222	485.88
377.448	461.88
377.674	457.88
377.899	448.88
378.125	457.88
378.35	450.88
378.576	456.88
378.802	449.88
379.027	448.88
379.253	446.88
379.478	460.88
379.704	453.88
379.929	457.88
380.155	467.88
380.38	433.88
380.606	469.88
380.831	463.88
381.057	451.88
381.282	453.88
381.507	460.88
381.733	465.88
381.958	477.88
382.184	468.88
382.409	459.88
382.634	464.88
382.86	476.88
383.085	482.88
383.31	487.88
383.535	477.88
383.761	474.88
383.986	493.88
384.211	475.88
384.436	467.88
384.662	484.88
384.887	497.88
385.112	491.88
385.337	486.88
385.562	494.88
385.787	519.88
386.013	513.88
386.238	511.88
386.463	507.88
386.688	519.88
386.913	510.88
387.138	504.88
387.363	502.88
387.588	492.88
387.813	509.88
388.038	510.88
388.263	508.88
388.488	526.88
388.713	513.88
388.938	509.88
389.163	522.88
389.387	518.88
389.612	494.88
389.837	500.88
390.062	517.88
390.287	481.88
390.512	483.88
390.736	514.88
390.961	521.88
391.186	503.88
391.411	492.88
391.636	537.88
391.86	558.88
392.085	519.88
392.31	522.88
392.534	507.88
392.759	518.88
392.984	519.88
393.208	524.88
393.433	532.88
393.658	512.88
393.882	495.88
394.107	504.88
394.331	519.88
394.556	508.88
394.78	510.88
395.005	523.88
395.229	519.88
395.454	536.88
395.678	547.88
395.903	547.88
396.127	570.88
396.352	580.88
396.576	554.88
396.801	520.88
397.025	524.88
397.249	539.88
397.474	548.88
397.698	560.88
397.922	566.88
398.147	591.88
398.371	616.88
398.595	572.88
398.82	578.88
399.044	598.88
399.268	608.88
399.492	678.88
399.717	664.88
399.941	709.88
400.165	718.88
400.389	764.88
400.613	696.88
400.837	638.88
401.062	628.88
401.286	599.88
401.51	622.88
401.734	592.88
401.958	622.88
402.182	593.88
402.406	596.88
402.63	618.88
402.854	611.88
403.078	630.88
403.302	607.88
403.526	620.88
403.75	616.88
403.974	616.88
404.198	600.88
404.422	608.88
404.645	615.88
404.869	608.88
405.093	653.88
405.317	681.88
405.541	711.88
405.765	655.88
405.988	624.88
406.212	637.88
406.436	674.88
406.66	708.88
406.883	689.88
407.107	724.88
407.331	733.88
407.555	797.88
407.778	816.88
408.002	759.88
408.226	719.88
408.449	686.88
408.673	672.88
408.896	720.88
409.12	754.88
409.344	724.88
409.567	666.88
409.791	621.88
410.014	613.88
410.238	638.88
410.461	624.88
410.685	614.88
410.908	625.88
411.132	696.88
411.355	714.88
411.578	662.88
411.802	613.88
412.025	617.88
412.249	608.88
412.472	636.88
412.695	647.88
412.919	645.88
413.142	607.88
413.365	588.88
413.589	615.88
413.812	575.88
414.035	585.88
414.258	587.88
414.482	587.88
414.705	607.88
414.928	581.88
415.151	583.88
415.374	608.88
415.597	589.88
415.821	586.88
416.044	584.88
416.267	586.88
416.49	565.88
416.713	574.88
416.936	585.88
417.159	573.88
417.382	602.88
417.605	566.88
417.828	594.88
418.051	634.88
418.274	625.88
418.497	593.88
418.72	596.88
418.943	593.88
419.166	604.88
419.389	606.88
419.611	621.88
419.834	612.88
420.057	615.88
420.28	590.88
420.503	607.88
420.726	590.88
420.948	608.88
421.171	687.88
421.394	724.88
421.617	633.88
421.839	588.88
422.062	612.88
422.285	639.88
422.507	714.88
422.73	785.88
422.953	782.88
423.175	690.88
423.398	633.88
423.621	635.88
423.843	686.88
424.066	646.88
424.288	677.88
424.511	674.88
424.733	763.88
424.956	867.88
425.178	809.88
425.401	785.88
425.623	855.88
425.846	722.88
426.068	661.88
426.291	665.88
426.513	659.88
426.735	660.88
426.958	712.88
427.18	810.88
427.402	973.88
427.625	1078.88
427.847	933.88
428.069	806.88
428.292	710.88
428.514	650.88
428.736	634.88
428.958	642.88
429.181	608.88
429.403	608.88
429.625	629.88
429.847	661.88
430.069	753.88
430.292	739.88
430.514	633.88
430.736	603.88
430.958	601.88
431.18	597.88
431.402	576.88
431.624	558.88
431.846	560.88
432.068	565.88
432.29	582.88
432.512	575.88
432.734	601.88
432.956	590.88
433.178	591.88
433.4	596.88
433.622	574.88
433.844	576.88
434.066	566.88
434.287	590.88
434.509	600.88
434.731	604.88
434.953	598.88
435.175	608.88
435.397	644.88
435.618	677.88
435.84	725.88
436.062	832.88
436.284	916.88
436.505	774.88
436.727	714.88
436.949	657.88
437.17	608.88
437.392	636.88
437.614	617.88
437.835	658.88
438.057	772.88
438.278	906.88
438.5	922.88
438.721	998.88
438.943	973.88
439.165	763.88
439.386	698.88
439.608	680.88
439.829	676.88
440.05	703.88
440.272	768.88
440.493	713.88
440.715	653.88
440.936	652.88
441.158	593.88
441.379	617.88
441.6	612.88
441.822	658.88
442.043	709.88
442.264	838.88
442.486	862.88
442.707	730.88
442.928	692.88
443.149	693.88
443.371	738.88
443.592	777.88
443.813	872.88
444.034	940.88
444.255	758.88
444.476	701.88
444.698	659.88
444.919	672.88
445.14	794.88
445.361	744.88
445.582	709.88
445.803	816.88
446.024	908.88
446.245	950.88
446.466	862.88
446.687	730.88
446.908	688.88
447.129	642.88
447.35	623.88
447.571	626.88
447.792	597.88
448.013	600.88
448.234	630.88
448.455	706.88
448.675	844.88
448.896	979.88
449.117	834.88
449.338	795.88
449.559	906.88
449.779	1033.88
450	807.88
450.221	676.88
450.442	612.88
450.662	641.88
450.883	617.88
451.104	636.88
451.324	593.88
451.545	582.88
451.766	585.88
451.986	566.88
452.207	529.88
452.428	553.88
452.648	544.88
452.869	537.88
453.089	563.88
453.31	578.88
453.53	549.88
453.751	569.88
453.971	578.88
454.192	564.88
454.412	574.88
454.633	551.88
454.853	538.88
455.073	535.88
455.294	572.88
455.514	668.88
455.734	628.88
455.955	566.88
456.175	525.88
456.395	533.88
456.616	506.88
456.836	489.88
457.056	504.88
457.276	494.88
457.497	511.88
457.717	515.88
457.937	526.88
458.157	528.88
458.377	558.88
458.598	562.88
458.818	623.88
459.038	733.88
459.258	768.88
459.478	654.88
459.698	602.88
459.918	574.88
460.138	585.88
460.358	580.88
460.578	592.88
460.798	589.88
461.018	614.88
461.238	593.88
461.458	600.88
461.678	594.88
461.898	592.88
462.118	587.88
462.338	616.88
462.558	623.88
462.777	622.88
462.997	638.88
463.217	644.88
463.437	677.88
463.657	625.88
463.876	649.88
464.096	623.88
464.316	626.88
464.536	644.88
464.755	635.88
464.975	624.88
465.195	700.88
465.414	769.88
465.634	691.88
465.854	625.88
466.073	594.88
466.293	579.88
466.512	588.88
466.732	557.88
466.951	561.88
467.171	544.88
467.391	564.88
467.61	584.88
467.829	593.88
468.049	586.88
468.268	566.88
468.488	571.88
468.707	536.88
468.927	530.88
469.146	544.88
469.365	535.88
469.585	527.88
469.804	550.88
470.023	577.88
470.243	556.88
470.462	576.88
470.681	583.88
470.901	594.88
471.12	576.88
471.339	559.88
471.558	566.88
471.777	592.88
471.997	562.88
472.216	583.88
472.435	566.88
472.654	574.88
472.873	551.88
473.092	551.88
473.311	552.88
473.53	573.88
473.749	580.88
473.968	608.88
474.187	719.88
474.406	757.88
474.625	634.88
474.844	604.88
475.063	565.88
475.282	564.88
475.501	566.88
475.72	576.88
475.939	584.88
476.158	584.88
476.377	597.88
476.596	588.88
476.814	599.88
477.033	598.88
477.252	617.88
477.471	613.88
477.69	616.88
477.908	610.88
478.127	610.88
478.346	620.88
478.564	642.88
478.783	658.88
479.002	654.88
479.22	637.88
479.439	664.88
479.658	671.88
479.876	684.88
480.095	696.88
480.313	721.88
480.532	735.88
480.751	701.88
480.969	715.88
481.188	710.88
481.406	710.88
481.624	703.88
481.843	676.88
482.061	681.88
482.28	655.88
482.498	680.88
482.717	660.88
482.935	678.88
483.153	654.88
483.372	656.88
483.59	666.88
483.808	673.88
484.027	669.88
484.245	665.88
484.463	691.88
484.681	681.88
484.9	686.88
485.118	686.88
485.336	677.88
485.554	678.88
485.772	701.88
485.99	686.88
486.209	688.88
486.427	720.88
486.645	713.88
486.863	760.88
487.081	743.88
487.299	729.88
487.517	713.88
487.735	722.88
487.953	713.88
488.171	729.88
488.389	759.88
488.607	714.88
488.825	732.88
489.043	725.88
489.261	703.88
489.479	741.88
489.696	756.88
489.914	726.88
490.132	761.88
490.35	756.88
490.568	740.88
490.786	785.88
491.003	792.88
491.221	814.88
491.439	819.88
491.657	774.88
491.874	828.88
492.092	802.88
492.31	803.88
492.527	818.88
492.745	816.88
492.963	831.88
493.18	824.88
493.398	833.88
493.615	828.88
493.833	833.88
494.05	810.88
494.268	858.88
494.485	835.88
494.703	836.88
494.92	843.88
495.138	865.88
495.355	866.88
495.573	864.88
495.79	891.88
496.008	865.88
496.225	868.88
496.442	877.88
496.66	855.88
496.877	848.88
497.094	884.88
497.312	874.88
497.529	884.88
497.746	918.88
497.963	910.88
498.181	975.88
498.398	935.88
498.615	957.88
498.832	1004.88
499.049	979.88
499.267	1014.88
499.484	1021.88
499.701	1095.88
499.918	1117.88
500.135	1179.88
500.352	1226.88
500.569	1257.88
500.786	1239.88
501.003	1234.88
501.22	1183.88
501.437	1143.88
501.654	1103.88
501.871	1116.88
502.088	1056.88
502.305	997.88
502.522	998.88
502.739	974.88
502.956	937.88
503.172	933.88
503.389	914.88
503.606	928.88
503.823	918.88
504.04	912.88
504.256	886.88
504.473	885.88
504.69	866.88
504.907	879.88
505.123	816.88
505.34	850.88
505.557	838.88
505.773	848.88
505.99	859.88
506.207	839.88
506.423	818.88
506.64	820.88
506.856	816.88
507.073	820.88
507.289	812.88
507.506	796.88
507.722	793.88
507.939	822.88
508.155	829.88
508.372	806.88
508.588	787.88
508.805	778.88
509.021	785.88
509.238	793.88
509.454	820.88
509.67	768.88
509.887	790.88
510.103	786.88
510.319	802.88
510.536	909.88
510.752	1430.88
510.968	1222.88
511.184	792.88
511.401	762.88
511.617	743.88
511.833	758.88
512.049	721.88
512.265	740.88
512.481	760.88
512.698	741.88
512.914	733.88
513.13	734.88
513.346	745.88
513.562	723.88
513.778	741.88
513.994	737.88
514.21	741.88
514.426	788.88
514.642	833.88
514.858	882.88
515.074	910.88
515.29	1092.88
515.506	1498.88
515.721	1293.88
515.937	904.88
516.153	840.88
516.369	828.88
516.585	814.88
516.801	778.88
517.016	801.88
517.232	783.88
517.448	810.88
517.664	792.88
517.879	791.88
518.095	773.88
518.311	774.88
518.527	769.88
518.742	748.88
518.958	738.88
519.173	752.88
519.389	736.88
519.605	743.88
519.82	734.88
520.036	757.88
520.251	804.88
520.467	817.88
520.682	823.88
520.898	795.88
521.113	838.88
521.329	910.88
521.544	1008.88
521.76	1193.88
521.975	1897.88
522.19	1960.88
522.406	1141.88
522.621	853.88
522.836	783.88
523.052	750.88
523.267	726.88
523.482	677.88
523.698	690.88
523.913	685.88
524.128	685.88
524.343	659.88
524.559	654.88
524.774	646.88
524.989	648.88
525.204	670.88
525.419	677.88
525.634	646.88
525.849	628.88
526.064	641.88
526.28	643.88
526.495	580.88
526.71	640.88
526.925	608.88
527.14	615.88
527.355	619.88
527.57	582.88
527.785	602.88
527.999	592.88
528.214	603.88
528.429	608.88
528.644	622.88
528.859	610.88
529.074	611.88
529.289	640.88
529.503	714.88
529.718	680.88
529.933	645.88
530.148	621.88
530.363	617.88
530.577	609.88
530.792	600.88
531.007	585.88
531.221	606.88
531.436	596.88
531.651	594.88
531.865	565.88
532.08	574.88
532.295	596.88
532.509	609.88
532.724	599.88
532.938	602.88
533.153	588.88
533.367	581.88
533.582	591.88
533.796	596.88
534.011	591.88
534.225	583.88
534.44	579.88
534.654	574.88
534.868	562.88
535.083	573.88
535.297	574.88
535.511	578.88
535.726	590.88
535.94	585.88
536.154	544.88
536.369	578.88
536.583	556.88
536.797	569.88
537.011	577.88
537.225	551.88
537.44	550.88
537.654	557.88
537.868	546.88
538.082	576.88
538.296	562.88
538.51	554.88
538.724	574.88
538.938	568.88
539.153	559.88
539.367	580.88
539.581	587.88
539.795	553.88
540.009	551.88
540.222	558.88
540.436	545.88
540.65	565.88
540.864	584.88
541.078	549.88
541.292	568.88
541.506	534.88
541.72	558.88
541.934	552.88
542.147	548.88
542.361	561.88
542.575	530.88
542.789	550.88
543.002	570.88
543.216	542.88
543.43	534.88
543.644	560.88
543.857	570.88
544.071	557.88
544.285	551.88
544.498	517.88
544.712	540.88
544.925	538.88
545.139	544.88
545.352	534.88
545.566	524.88
545.779	516.88
545.993	542.88
546.206	553.88
546.42	534.88
546.633	542.88
546.847	523.88
547.06	520.88
547.274	540.88
547.487	533.88
547.7	534.88
547.914	532.88
548.127	543.88
548.34	539.88
548.554	527.88
548.767	543.88
548.98	536.88
549.193	541.88
549.407	522.88
549.62	518.88
549.833	537.88
550.046	518.88
550.259	535.88
550.473	504.88
550.686	539.88
550.899	520.88
551.112	522.88
551.325	521.88
551.538	525.88
551.751	526.88
551.964	499.88
552.177	523.88
552.39	549.88
552.603	513.88
552.816	525.88
553.029	530.88
553.242	521.88
553.455	546.88
553.667	567.88
553.88	546.88
554.093	520.88
554.306	525.88
554.519	522.88
554.732	520.88
554.944	510.88
555.157	497.88
555.37	517.88
555.583	520.88
555.795	516.88
556.008	508.88
556.221	481.88
556.433	482.88
556.646	478.88
556.859	457.88
557.071	482.88
557.284	463.88
557.496	450.88
557.709	477.88
557.921	480.88
558.134	481.88
558.346	469.88
558.559	481.88
558.771	467.88
558.984	436.88
559.196	463.88
559.409	460.88
559.621	454.88
559.833	480.88
560.046	481.88
560.258	472.88
560.47	460.88
560.683	467.88
560.895	446.88
561.107	467.88
561.32	466.88
561.532	469.88
561.744	463.88
561.956	447.88
562.168	477.88
562.381	491.88
562.593	465.88
562.805	467.88
563.017	465.88
563.229	466.88
563.441	489.88
563.653	472.88
563.865	461.88
564.077	472.88
564.289	462.88
564.501	467.88
564.713	484.88
564.925	502.88
565.137	505.88
565.349	518.88
565.561	517.88
565.773	518.88
565.985	521.88
566.197	549.88
566.408	546.88
566.62	558.88
566.832	566.88
567.044	559.88
567.255	556.88
567.467	561.88
567.679	581.88
567.891	585.88
568.102	606.88
568.314	581.88
568.526	560.88
568.737	558.88
568.949	531.88
569.161	515.88
569.372	499.88
569.584	520.88
569.795	510.88
570.007	487.88
570.218	526.88
570.43	522.88
570.641	464.88
570.853	463.88
571.064	451.88
571.276	445.88
571.487	442.88
571.698	456.88
571.91	432.88
572.121	423.88
572.333	446.88
572.544	407.88
572.755	435.88
572.966	421.88
573.178	391.88
573.389	405.88
573.6	393.88
573.811	411.88
574.023	433.88
574.234	414.88
574.445	400.88
574.656	414.88
574.867	391.88
575.078	407.88
575.289	410.88
575.501	393.88
575.712	374.88
575.923	373.88
576.134	386.88
576.345	384.88
576.556	405.88
576.767	384.88
576.978	382.88
577.188	378.88
577.399	380.88
577.61	394.88
577.821	406.88
578.032	409.88
578.243	414.88
578.454	654.88
578.665	513.88
578.875	390.88
579.086	387.88
579.297	368.88
579.508	385.88
579.718	361.88
579.929	371.88
580.14	353.88
580.35	360.88
580.561	361.88
580.772	342.88
580.982	353.88
581.193	375.88
581.403	345.88
581.614	374.88
581.825	368.88
582.035	345.88
582.246	383.88
582.456	358.88
582.667	343.88
582.877	365.88
583.087	357.88
583.298	346.88
583.508	360.88
583.719	361.88
583.929	359.88
584.139	346.88
584.35	336.88
584.56	352.88
584.77	349.88
584.981	355.88
585.191	356.88
585.401	337.88
585.611	354.88
585.821	355.88
586.032	360.88
586.242	344.88
586.452	332.88
586.662	329.88
586.872	327.88
587.082	330.88
587.292	351.88
587.502	344.88
587.713	342.88
587.923	348.88
588.133	348.88
588.343	348.88
588.553	349.88
588.762	340.88
588.972	336.88
589.182	345.88
589.392	350.88
589.602	339.88
589.812	336.88
590.022	348.88
590.232	344.88
590.441	347.88
590.651	349.88
590.861	341.88
591.071	330.88
591.281	364.88
591.49	348.88
591.7	343.88
591.91	344.88
592.119	340.88
592.329	374.88
592.539	348.88
592.748	364.88
592.958	353.88
593.167	364.88
593.377	383.88
593.587	387.88
593.796	355.88
594.006	378.88
594.215	364.88
594.424	355.88
594.634	360.88
594.843	359.88
595.053	364.88
595.262	346.88
595.472	358.88
595.681	340.88
595.89	331.88
596.1	335.88
596.309	330.88
596.518	340.88
596.727	334.88
596.937	319.88
597.146	315.88
597.355	315.88
597.564	318.88
597.774	309.88
597.983	314.88
598.192	320.88
598.401	304.88
598.61	312.88
598.819	317.88
599.028	306.88
599.237	301.88
599.446	302.88
599.655	318.88
599.864	315.88
600.073	289.88
600.282	298.88
600.491	296.88
600.7	310.88
600.909	305.88
601.118	298.88
601.327	312.88
601.536	297.88
601.745	298.88
601.953	302.88
602.162	308.88
602.371	279.88
602.58	299.88
602.789	289.88
602.997	279.88
603.206	298.88
603.415	294.88
603.623	292.88
603.832	290.88
604.041	302.88
604.249	298.88
604.458	281.88
604.666	284.88
604.875	280.88
605.084	284.88
605.292	274.88
605.501	290.88
605.709	293.88
605.918	290.88
606.126	287.88
606.334	309.88
606.543	261.88
606.751	281.88
606.96	267.88
607.168	272.88
607.376	287.88
607.585	275.88
607.793	274.88
608.001	303.88
608.21	283.88
608.418	268.88
608.626	281.88
608.834	277.88
609.043	283.88
609.251	263.88
609.459	283.88
609.667	252.88
609.875	265.88
610.083	279.88
610.291	256.88
610.499	275.88
610.707	273.88
610.916	267.88
611.124	269.88
611.332	260.88
611.54	284.88
611.748	278.88
611.955	284.88
612.163	268.88
612.371	281.88
612.579	270.88
612.787	287.88
612.995	278.88
613.203	266.88
613.411	281.88
613.618	265.88
613.826	266.88
614.034	274.88
614.242	261.88
614.449	272.88
614.657	265.88
614.865	258.88
615.072	269.88
615.28	276.88
615.488	281.88
615.695	272.88
615.903	276.88
616.111	262.88
616.318	263.88
616.526	266.88
616.733	273.88
616.941	261.88
617.148	269.88
617.356	271.88
617.563	269.88
617.771	260.88
617.978	236.88
618.185	289.88
618.393	256.88
618.6	243.88
618.807	260.88
619.015	269.88
619.222	256.88
619.429	242.88
619.637	265.88
619.844	260.88
620.051	256.88
620.258	264.88
620.466	248.88
620.673	246.88
620.88	251.88
621.087	240.88
621.294	243.88
621.501	258.88
621.708	241.88
621.915	239.88
622.122	263.88
622.329	256.88
622.536	242.88
622.743	249.88
622.95	241.88
623.157	242.88
623.364	243.88
623.571	248.88
623.778	252.88
623.985	236.88
624.192	227.88
624.399	242.88
624.606	256.88
624.812	248.88
625.019	239.88
625.226	240.88
625.433	229.88
625.639	236.88
625.846	233.88
626.053	241.88
626.259	244.88
626.466	224.88
626.673	229.88
626.879	233.88
627.086	212.88
627.293	230.88
627.499	223.88
627.706	222.88
627.912	209.88
628.119	218.88
628.325	236.88
628.532	217.88
628.738	238.88
628.945	225.88
629.151	213.88
629.357	205.88
629.564	214.88
629.77	208.88
629.976	230.88
630.183	214.88
630.389	222.88
630.595	213.88
630.802	208.88
631.008	222.88
631.214	209.88
631.42	239.88
631.627	220.88
631.833	215.88
632.039	195.88
632.245	203.88
632.451	214.88
632.657	212.88
632.863	212.88
633.069	215.88
633.275	204.88
633.481	202.88
633.688	204.88
633.893	208.88
634.099	191.88
634.305	198.88
634.511	204.88
634.717	207.88
634.923	215.88
635.129	207.88
635.335	199.88
635.541	206.88
635.747	197.88
635.952	186.88
636.158	194.88
636.364	194.88
636.57	214.88
636.775	196.88
636.981	198.88
637.187	202.88
637.392	185.88
637.598	178.88
637.804	183.88
638.009	205.88
638.215	204.88
638.421	207.88
638.626	189.88
638.832	187.88
639.037	198.88
639.243	183.88
639.448	185.88
639.654	220.88
639.859	184.88
640.065	197.88
640.27	220.88
640.475	180.88
640.681	184.88
640.886	207.88
641.091	210.88
641.297	183.88
641.502	183.88
641.707	179.88
641.913	189.88
642.118	177.88
642.323	188.88
642.528	191.88
642.733	191.88
642.939	187.88
643.144	184.88
643.349	188.88
643.554	184.88
643.759	192.88
643.964	188.88
644.169	197.88
644.374	179.88
644.579	182.88
644.784	179.88
644.989	184.88
645.194	181.88
645.399	172.88
645.604	188.88
645.809	180.88
646.014	167.88
646.219	190.88
646.423	191.88
646.628	178.88
646.833	190.88
647.038	197.88
647.243	183.88
647.447	188.88
647.652	207.88
647.857	185.88
648.062	170.88
648.266	166.88
648.471	207.88
648.676	192.88
648.88	188.88
649.085	188.88
649.289	194.88
649.494	186.88
649.698	210.88
649.903	211.88
650.107	193.88
650.312	168.88
650.516	156.88
650.721	157.88
650.925	174.88
651.13	148.88
651.334	164.88
651.539	153.88
651.743	173.88
651.947	169.88
652.152	168.88
652.356	138.88
652.56	155.88
652.764	146.88
652.969	159.88
653.173	172.88
653.377	143.88
653.581	148.88
653.785	135.88
653.99	136.88
654.194	158.88
654.398	156.88
654.602	153.88
654.806	160.88
655.01	142.88
655.214	162.88
655.418	148.88
655.622	140.88
655.826	124.88
656.03	144.88
656.234	129.88
656.438	147.88
656.642	145.88
656.846	146.88
657.049	140.88
657.253	132.88
657.457	128.88
657.661	126.88
657.865	129.88
658.068	112.88
658.272	116.88
658.476	97.88
658.68	108.88
658.883	118.88
659.087	108.88
659.291	97.88
659.494	100.88
659.698	97.88
659.901	101.88
660.105	87.88
660.309	94.88
660.512	90.88
660.716	104.88
660.919	93.88
661.123	95.88
661.326	84.88
661.53	92.88
661.733	88.88
661.936	75.88
662.14	90.88
662.343	86.88
662.546	88.88
662.75	77.88
662.953	77.88
663.156	89.88
663.36	85.88
663.563	77.88
663.766	89.88
663.969	66.88
664.173	86.88
664.376	77.88
664.579	84.88
664.782	84.88
664.985	76.88
665.188	92.88
665.391	87.88
665.594	80.88
665.797	68.88
666	80.88
666.203	84.88
666.406	90.88
666.609	87.88
666.812	81.88
667.015	66.88
667.218	80.88
667.421	79.88
667.624	81.88
667.827	80.88
668.03	73.88
668.232	74.88
668.435	71.88
668.638	84.88
668.841	82.88
669.043	85.88
669.246	88.88
669.449	82.88
669.651	94.88
669.854	76.88
670.057	88.88
670.259	73.88
670.462	79.88
670.665	84.88
670.867	93.88
671.07	77.88
671.272	86.88
671.475	80.88
671.677	89.88
671.88	85.88
672.082	78.88
672.284	86.88
672.487	85.88
672.689	86.88
672.892	77.88
