Data from 1988.PennyLincolnUp.Lamp.En5.5.200Scan.071819.P2_HRD10591_17-21-10-973.txt Node
Date: Thu Jul 18 17:21:10 EDT 2019
User: cochatt
Spectrometer: HR+D1059
Trigger mode: 1
Integration Time (sec): 1.000000E-1
Scans to average: 1
Electric dark correction enabled: true
Nonlinearity correction enabled: false
Boxcar width: 0
XAxis mode: Wavelengths
Number of Pixels in Spectrum: 2048
>>>>>Begin Spectral Data<<<<<
223.165	-21.06
223.4	-21.06
223.635	-21.06
223.869	-26.06
224.104	-28.06
224.338	-20.06
224.573	-13.06
224.808	-9.06
225.042	-7.06
225.277	-12.06
225.511	10.94
225.746	-1.06
225.98	12.94
226.215	-5.06
226.449	16.94
226.683	29.94
226.918	32.94
227.152	38.94
227.387	33.94
227.621	41.94
227.856	22.94
228.09	46.94
228.324	42.94
228.559	70.94
228.793	74.94
229.027	115.94
229.262	126.94
229.496	127.94
229.73	150.94
229.964	165.94
230.199	149.94
230.433	119.94
230.667	127.94
230.901	121.94
231.136	120.94
231.37	113.94
231.604	115.94
231.838	110.94
232.072	116.94
232.306	125.94
232.541	122.94
232.775	109.94
233.009	127.94
233.243	109.94
233.477	125.94
233.711	126.94
233.945	120.94
234.179	135.94
234.413	117.94
234.647	123.94
234.881	111.94
235.115	133.94
235.349	114.94
235.583	133.94
235.817	113.94
236.051	131.94
236.285	128.94
236.519	138.94
236.753	145.94
236.987	166.94
237.221	207.94
237.455	254.94
237.689	213.94
237.922	145.94
238.156	140.94
238.39	133.94
238.624	141.94
238.858	140.94
239.091	133.94
239.325	129.94
239.559	129.94
239.793	151.94
240.027	134.94
240.26	153.94
240.494	174.94
240.728	169.94
240.961	172.94
241.195	171.94
241.429	158.94
241.662	153.94
241.896	135.94
242.13	139.94
242.363	154.94
242.597	141.94
242.83	159.94
243.064	138.94
243.298	170.94
243.531	148.94
243.765	139.94
243.998	155.94
244.232	165.94
244.465	160.94
244.699	151.94
244.932	165.94
245.166	167.94
245.399	154.94
245.633	157.94
245.866	163.94
246.099	147.94
246.333	157.94
246.566	157.94
246.8	164.94
247.033	159.94
247.266	164.94
247.5	179.94
247.733	170.94
247.966	181.94
248.2	170.94
248.433	199.94
248.666	173.94
248.899	200.94
249.133	219.94
249.366	238.94
249.599	223.94
249.832	208.94
250.066	199.94
250.299	197.94
250.532	203.94
250.765	224.94
250.998	256.94
251.231	259.94
251.465	248.94
251.698	223.94
251.931	225.94
252.164	199.94
252.397	208.94
252.63	209.94
252.863	228.94
253.096	230.94
253.329	243.94
253.562	263.94
253.795	244.94
254.028	225.94
254.261	230.94
254.494	253.94
254.727	270.94
254.96	305.94
255.193	286.94
255.426	277.94
255.659	259.94
255.892	243.94
256.124	249.94
256.357	247.94
256.59	247.94
256.823	229.94
257.056	227.94
257.289	223.94
257.521	225.94
257.754	243.94
257.987	232.94
258.22	241.94
258.452	237.94
258.685	244.94
258.918	232.94
259.151	233.94
259.383	233.94
259.616	238.94
259.849	255.94
260.081	277.94
260.314	263.94
260.547	284.94
260.779	273.94
261.012	268.94
261.244	255.94
261.477	243.94
261.71	257.94
261.942	253.94
262.175	252.94
262.407	245.94
262.64	244.94
262.872	252.94
263.105	233.94
263.337	233.94
263.57	235.94
263.802	233.94
264.035	237.94
264.267	250.94
264.499	225.94
264.732	223.94
264.964	242.94
265.197	237.94
265.429	249.94
265.661	226.94
265.894	231.94
266.126	247.94
266.358	235.94
266.591	231.94
266.823	250.94
267.055	255.94
267.287	240.94
267.52	257.94
267.752	238.94
267.984	253.94
268.216	237.94
268.448	257.94
268.681	257.94
268.913	274.94
269.145	292.94
269.377	300.94
269.609	312.94
269.841	300.94
270.073	297.94
270.306	326.94
270.538	365.94
270.77	356.94
271.002	334.94
271.234	335.94
271.466	332.94
271.698	344.94
271.93	358.94
272.162	338.94
272.394	363.94
272.626	343.94
272.858	324.94
273.09	298.94
273.322	306.94
273.553	290.94
273.785	303.94
274.017	294.94
274.249	291.94
274.481	288.94
274.713	311.94
274.945	296.94
275.176	295.94
275.408	280.94
275.64	294.94
275.872	286.94
276.104	282.94
276.335	295.94
276.567	307.94
276.799	330.94
277.031	354.94
277.262	340.94
277.494	350.94
277.726	357.94
277.957	326.94
278.189	318.94
278.421	312.94
278.652	299.94
278.884	317.94
279.115	298.94
279.347	303.94
279.579	302.94
279.81	301.94
280.042	301.94
280.273	300.94
280.505	295.94
280.736	281.94
280.968	294.94
281.199	281.94
281.431	288.94
281.662	302.94
281.894	306.94
282.125	285.94
282.356	326.94
282.588	333.94
282.819	350.94
283.051	314.94
283.282	318.94
283.513	308.94
283.745	303.94
283.976	334.94
284.207	323.94
284.439	302.94
284.67	309.94
284.901	317.94
285.132	315.94
285.364	307.94
285.595	307.94
285.826	314.94
286.057	317.94
286.288	326.94
286.52	306.94
286.751	292.94
286.982	316.94
287.213	300.94
287.444	321.94
287.675	305.94
287.906	358.94
288.138	341.94
288.369	334.94
288.6	338.94
288.831	325.94
289.062	335.94
289.293	351.94
289.524	338.94
289.755	325.94
289.986	315.94
290.217	322.94
290.448	334.94
290.679	328.94
290.91	335.94
291.141	337.94
291.371	326.94
291.602	309.94
291.833	325.94
292.064	330.94
292.295	311.94
292.526	342.94
292.757	318.94
292.987	318.94
293.218	342.94
293.449	338.94
293.68	321.94
293.91	325.94
294.141	333.94
294.372	326.94
294.603	327.94
294.833	338.94
295.064	310.94
295.295	328.94
295.525	321.94
295.756	335.94
295.987	346.94
296.217	340.94
296.448	375.94
296.679	355.94
296.909	362.94
297.14	322.94
297.37	346.94
297.601	333.94
297.831	326.94
298.062	337.94
298.292	345.94
298.523	350.94
298.753	347.94
298.984	326.94
299.214	349.94
299.445	321.94
299.675	328.94
299.905	343.94
300.136	362.94
300.366	363.94
300.597	360.94
300.827	381.94
301.057	371.94
301.288	370.94
301.518	373.94
301.748	358.94
301.979	363.94
302.209	374.94
302.439	370.94
302.669	378.94
302.9	381.94
303.13	360.94
303.36	385.94
303.59	377.94
303.82	376.94
304.051	379.94
304.281	384.94
304.511	357.94
304.741	383.94
304.971	366.94
305.201	355.94
305.431	381.94
305.661	371.94
305.891	381.94
306.121	387.94
306.352	370.94
306.582	379.94
306.812	389.94
307.042	377.94
307.272	365.94
307.502	389.94
307.731	383.94
307.961	382.94
308.191	385.94
308.421	384.94
308.651	391.94
308.881	381.94
309.111	389.94
309.341	402.94
309.571	403.94
309.8	426.94
310.03	409.94
310.26	433.94
310.49	424.94
310.72	450.94
310.949	451.94
311.179	462.94
311.409	441.94
311.639	448.94
311.868	439.94
312.098	437.94
312.328	450.94
312.557	455.94
312.787	467.94
313.017	468.94
313.246	445.94
313.476	443.94
313.706	436.94
313.935	445.94
314.165	430.94
314.394	469.94
314.624	445.94
314.853	461.94
315.083	438.94
315.312	434.94
315.542	433.94
315.771	435.94
316.001	419.94
316.23	407.94
316.46	410.94
316.689	455.94
316.919	435.94
317.148	450.94
317.377	468.94
317.607	464.94
317.836	468.94
318.065	436.94
318.295	429.94
318.524	424.94
318.753	446.94
318.983	442.94
319.212	426.94
319.441	444.94
319.67	443.94
319.9	441.94
320.129	437.94
320.358	442.94
320.587	459.94
320.816	438.94
321.046	445.94
321.275	478.94
321.504	439.94
321.733	456.94
321.962	483.94
322.191	497.94
322.42	511.94
322.649	513.94
322.878	541.94
323.108	527.94
323.337	555.94
323.566	580.94
323.795	635.94
324.024	672.94
324.253	832.94
324.482	1181.94
324.71	1875.94
324.939	2821.94
325.168	2391.94
325.397	1176.94
325.626	759.94
325.855	662.94
326.084	614.94
326.313	601.94
326.542	596.94
326.77	640.94
326.999	759.94
327.228	1063.94
327.457	1659.94
327.686	2071.94
327.914	1375.94
328.143	875.94
328.372	741.94
328.6	693.94
328.829	644.94
329.058	683.94
329.287	693.94
329.515	621.94
329.744	579.94
329.972	579.94
330.201	586.94
330.43	628.94
330.658	653.94
330.887	698.94
331.115	683.94
331.344	619.94
331.572	577.94
331.801	573.94
332.03	570.94
332.258	558.94
332.486	538.94
332.715	516.94
332.943	529.94
333.172	527.94
333.4	525.94
333.629	536.94
333.857	568.94
334.085	534.94
334.314	550.94
334.542	554.94
334.771	549.94
334.999	538.94
335.227	549.94
335.455	547.94
335.684	522.94
335.912	543.94
336.14	515.94
336.369	497.94
336.597	537.94
336.825	532.94
337.053	517.94
337.281	501.94
337.51	508.94
337.738	517.94
337.966	519.94
338.194	531.94
338.422	517.94
338.65	514.94
338.878	517.94
339.106	487.94
339.334	498.94
339.562	482.94
339.79	526.94
340.018	524.94
340.246	515.94
340.474	515.94
340.702	509.94
340.93	505.94
341.158	520.94
341.386	498.94
341.614	512.94
341.842	523.94
342.07	497.94
342.298	497.94
342.526	498.94
342.754	471.94
342.981	492.94
343.209	498.94
343.437	509.94
343.665	505.94
343.893	508.94
344.12	521.94
344.348	513.94
344.576	517.94
344.804	511.94
345.031	508.94
345.259	543.94
345.487	515.94
345.714	530.94
345.942	500.94
346.17	499.94
346.397	492.94
346.625	485.94
346.853	496.94
347.08	463.94
347.308	501.94
347.535	515.94
347.763	516.94
347.99	518.94
348.218	487.94
348.445	516.94
348.673	495.94
348.9	491.94
349.128	485.94
349.355	484.94
349.583	469.94
349.81	458.94
350.037	493.94
350.265	481.94
350.492	474.94
350.72	482.94
350.947	480.94
351.174	471.94
351.402	517.94
351.629	515.94
351.856	498.94
352.083	509.94
352.311	497.94
352.538	515.94
352.765	515.94
352.992	505.94
353.22	459.94
353.447	517.94
353.674	477.94
353.901	464.94
354.128	463.94
354.355	483.94
354.583	461.94
354.81	449.94
355.037	476.94
355.264	429.94
355.491	440.94
355.718	443.94
355.945	461.94
356.172	458.94
356.399	455.94
356.626	444.94
356.853	462.94
357.08	462.94
357.307	456.94
357.534	453.94
357.761	463.94
357.988	492.94
358.215	479.94
358.441	455.94
358.668	457.94
358.895	451.94
359.122	460.94
359.349	478.94
359.576	504.94
359.802	513.94
360.029	546.94
360.256	573.94
360.483	521.94
360.709	519.94
360.936	502.94
361.163	483.94
361.39	486.94
361.616	506.94
361.843	484.94
362.07	476.94
362.296	502.94
362.523	479.94
362.749	495.94
362.976	484.94
363.203	477.94
363.429	484.94
363.656	486.94
363.882	481.94
364.109	479.94
364.335	463.94
364.562	468.94
364.788	480.94
365.015	473.94
365.241	453.94
365.468	487.94
365.694	488.94
365.92	489.94
366.147	487.94
366.373	485.94
366.599	470.94
366.826	464.94
367.052	456.94
367.278	470.94
367.505	458.94
367.731	480.94
367.957	477.94
368.184	495.94
368.41	485.94
368.636	463.94
368.862	476.94
369.089	467.94
369.315	485.94
369.541	470.94
369.767	486.94
369.993	492.94
370.219	483.94
370.445	467.94
370.672	481.94
370.898	465.94
371.124	464.94
371.35	493.94
371.576	481.94
371.802	453.94
372.028	469.94
372.254	489.94
372.48	491.94
372.706	491.94
372.932	475.94
373.158	476.94
373.384	490.94
373.61	478.94
373.835	492.94
374.061	468.94
374.287	497.94
374.513	497.94
374.739	478.94
374.965	483.94
375.191	471.94
375.416	496.94
375.642	494.94
375.868	499.94
376.094	490.94
376.319	492.94
376.545	478.94
376.771	457.94
376.997	471.94
377.222	478.94
377.448	472.94
377.674	491.94
377.899	447.94
378.125	469.94
378.35	481.94
378.576	478.94
378.802	443.94
379.027	464.94
379.253	478.94
379.478	482.94
379.704	467.94
379.929	461.94
380.155	459.94
380.38	491.94
380.606	486.94
380.831	495.94
381.057	490.94
381.282	485.94
381.507	494.94
381.733	473.94
381.958	481.94
382.184	470.94
382.409	494.94
382.634	506.94
382.86	489.94
383.085	496.94
383.31	474.94
383.535	490.94
383.761	494.94
383.986	510.94
384.211	499.94
384.436	501.94
384.662	497.94
384.887	504.94
385.112	514.94
385.337	526.94
385.562	508.94
385.787	515.94
386.013	533.94
386.238	520.94
386.463	518.94
386.688	519.94
386.913	535.94
387.138	529.94
387.363	513.94
387.588	504.94
387.813	521.94
388.038	525.94
388.263	515.94
388.488	515.94
388.713	533.94
388.938	538.94
389.163	523.94
389.387	552.94
389.612	512.94
389.837	518.94
390.062	518.94
390.287	532.94
390.512	544.94
390.736	530.94
390.961	547.94
391.186	511.94
391.411	533.94
391.636	549.94
391.86	533.94
392.085	532.94
392.31	532.94
392.534	530.94
392.759	554.94
392.984	545.94
393.208	538.94
393.433	525.94
393.658	540.94
393.882	533.94
394.107	537.94
394.331	529.94
394.556	527.94
394.78	520.94
395.005	546.94
395.229	571.94
395.454	543.94
395.678	556.94
395.903	579.94
396.127	602.94
396.352	598.94
396.576	586.94
396.801	542.94
397.025	584.94
397.249	562.94
397.474	555.94
397.698	558.94
397.922	586.94
398.147	598.94
398.371	620.94
398.595	609.94
398.82	583.94
399.044	620.94
399.268	627.94
399.492	677.94
399.717	705.94
399.941	743.94
400.165	732.94
400.389	753.94
400.613	703.94
400.837	632.94
401.062	637.94
401.286	620.94
401.51	635.94
401.734	642.94
401.958	616.94
402.182	606.94
402.406	632.94
402.63	636.94
402.854	628.94
403.078	635.94
403.302	645.94
403.526	629.94
403.75	630.94
403.974	630.94
404.198	630.94
404.422	642.94
404.645	660.94
404.869	655.94
405.093	661.94
405.317	710.94
405.541	755.94
405.765	699.94
405.988	666.94
406.212	683.94
406.436	691.94
406.66	727.94
406.883	691.94
407.107	718.94
407.331	780.94
407.555	868.94
407.778	852.94
408.002	779.94
408.226	729.94
408.449	732.94
408.673	704.94
408.896	728.94
409.12	790.94
409.344	729.94
409.567	665.94
409.791	661.94
410.014	652.94
410.238	627.94
410.461	634.94
410.685	651.94
410.908	656.94
411.132	697.94
411.355	762.94
411.578	734.94
411.802	657.94
412.025	626.94
412.249	645.94
412.472	659.94
412.695	665.94
412.919	679.94
413.142	645.94
413.365	618.94
413.589	606.94
413.812	619.94
414.035	633.94
414.258	614.94
414.482	603.94
414.705	609.94
414.928	605.94
415.151	604.94
415.374	608.94
415.597	595.94
415.821	599.94
416.044	589.94
416.267	605.94
416.49	590.94
416.713	579.94
416.936	610.94
417.159	586.94
417.382	595.94
417.605	635.94
417.828	612.94
418.051	646.94
418.274	621.94
418.497	608.94
418.72	598.94
418.943	589.94
419.166	617.94
419.389	663.94
419.611	651.94
419.834	646.94
420.057	639.94
420.28	617.94
420.503	618.94
420.726	622.94
420.948	633.94
421.171	698.94
421.394	737.94
421.617	663.94
421.839	633.94
422.062	641.94
422.285	657.94
422.507	729.94
422.73	793.94
422.953	780.94
423.175	693.94
423.398	675.94
423.621	664.94
423.843	694.94
424.066	696.94
424.288	671.94
424.511	687.94
424.733	756.94
424.956	863.94
425.178	815.94
425.401	836.94
425.623	860.94
425.846	739.94
426.068	693.94
426.291	674.94
426.513	691.94
426.735	719.94
426.958	772.94
427.18	837.94
427.402	980.94
427.625	1112.94
427.847	940.94
428.069	800.94
428.292	745.94
428.514	695.94
428.736	636.94
428.958	653.94
429.181	650.94
429.403	634.94
429.625	643.94
429.847	700.94
430.069	747.94
430.292	784.94
430.514	673.94
430.736	624.94
430.958	595.94
431.18	614.94
431.402	588.94
431.624	587.94
431.846	587.94
432.068	592.94
432.29	624.94
432.512	591.94
432.734	600.94
432.956	606.94
433.178	628.94
433.4	622.94
433.622	595.94
433.844	587.94
434.066	590.94
434.287	591.94
434.509	593.94
434.731	617.94
434.953	613.94
435.175	614.94
435.397	650.94
435.618	691.94
435.84	715.94
436.062	836.94
436.284	931.94
436.505	776.94
436.727	710.94
436.949	651.94
437.17	628.94
437.392	633.94
437.614	649.94
437.835	713.94
438.057	826.94
438.278	946.94
438.5	939.94
438.721	1023.94
438.943	988.94
439.165	796.94
439.386	723.94
439.608	692.94
439.829	695.94
440.05	735.94
440.272	818.94
440.493	742.94
440.715	681.94
440.936	651.94
441.158	641.94
441.379	641.94
441.6	658.94
441.822	668.94
442.043	733.94
442.264	833.94
442.486	874.94
442.707	753.94
442.928	693.94
443.149	711.94
443.371	743.94
443.592	795.94
443.813	894.94
444.034	1030.94
444.255	820.94
444.476	721.94
444.698	691.94
444.919	679.94
445.14	819.94
445.361	761.94
445.582	748.94
445.803	850.94
446.024	949.94
446.245	979.94
446.466	870.94
446.687	767.94
446.908	695.94
447.129	663.94
447.35	648.94
447.571	653.94
447.792	627.94
448.013	613.94
448.234	641.94
448.455	697.94
448.675	873.94
448.896	1015.94
449.117	847.94
449.338	803.94
449.559	926.94
449.779	1077.94
450	842.94
450.221	716.94
450.442	648.94
450.662	629.94
450.883	622.94
451.104	642.94
451.324	627.94
451.545	605.94
451.766	597.94
451.986	573.94
452.207	556.94
452.428	560.94
452.648	555.94
452.869	557.94
453.089	571.94
453.31	565.94
453.53	595.94
453.751	579.94
453.971	587.94
454.192	606.94
454.412	585.94
454.633	564.94
454.853	559.94
455.073	563.94
455.294	584.94
455.514	685.94
455.734	647.94
455.955	561.94
456.175	553.94
456.395	563.94
456.616	527.94
456.836	520.94
457.056	533.94
457.276	548.94
457.497	534.94
457.717	563.94
457.937	539.94
458.157	553.94
458.377	564.94
458.598	595.94
458.818	643.94
459.038	733.94
459.258	761.94
459.478	661.94
459.698	609.94
459.918	602.94
460.138	581.94
460.358	614.94
460.578	603.94
460.798	630.94
461.018	613.94
461.238	601.94
461.458	599.94
461.678	606.94
461.898	613.94
462.118	630.94
462.338	627.94
462.558	635.94
462.777	634.94
462.997	637.94
463.217	669.94
463.437	691.94
463.657	631.94
463.876	662.94
464.096	654.94
464.316	656.94
464.536	659.94
464.755	658.94
464.975	668.94
465.195	725.94
465.414	807.94
465.634	701.94
465.854	675.94
466.073	613.94
466.293	634.94
466.512	605.94
466.732	582.94
466.951	584.94
467.171	593.94
467.391	572.94
467.61	606.94
467.829	592.94
468.049	613.94
468.268	572.94
468.488	578.94
468.707	566.94
468.927	565.94
469.146	574.94
469.365	563.94
469.585	572.94
469.804	567.94
470.023	589.94
470.243	562.94
470.462	595.94
470.681	614.94
470.901	632.94
471.12	585.94
471.339	589.94
471.558	626.94
471.777	575.94
471.997	565.94
472.216	561.94
472.435	562.94
472.654	594.94
472.873	584.94
473.092	585.94
473.311	587.94
473.53	586.94
473.749	594.94
473.968	649.94
474.187	773.94
474.406	818.94
474.625	657.94
474.844	590.94
475.063	583.94
475.282	606.94
475.501	589.94
475.72	622.94
475.939	626.94
476.158	638.94
476.377	613.94
476.596	599.94
476.814	599.94
477.033	633.94
477.252	620.94
477.471	621.94
477.69	614.94
477.908	629.94
478.127	637.94
478.346	629.94
478.564	643.94
478.783	685.94
479.002	695.94
479.22	661.94
479.439	680.94
479.658	713.94
479.876	739.94
480.095	712.94
480.313	755.94
480.532	731.94
480.751	744.94
480.969	720.94
481.188	753.94
481.406	746.94
481.624	735.94
481.843	716.94
482.061	704.94
482.28	695.94
482.498	701.94
482.717	697.94
482.935	677.94
483.153	679.94
483.372	688.94
483.59	665.94
483.808	712.94
484.027	701.94
484.245	698.94
484.463	706.94
484.681	721.94
484.9	693.94
485.118	712.94
485.336	727.94
485.554	746.94
485.772	730.94
485.99	714.94
486.209	732.94
486.427	732.94
486.645	723.94
486.863	765.94
487.081	769.94
487.299	766.94
487.517	717.94
487.735	773.94
487.953	741.94
488.171	770.94
488.389	750.94
488.607	758.94
488.825	761.94
489.043	738.94
489.261	741.94
489.479	747.94
489.696	772.94
489.914	758.94
490.132	758.94
490.35	773.94
490.568	781.94
490.786	774.94
491.003	807.94
491.221	822.94
491.439	822.94
491.657	852.94
491.874	828.94
492.092	856.94
492.31	836.94
492.527	850.94
492.745	847.94
492.963	907.94
493.18	841.94
493.398	831.94
493.615	866.94
493.833	891.94
494.05	910.94
494.268	877.94
494.485	875.94
494.703	871.94
494.92	882.94
495.138	867.94
495.355	891.94
495.573	881.94
495.79	863.94
496.008	852.94
496.225	881.94
496.442	895.94
496.66	902.94
496.877	906.94
497.094	902.94
497.312	917.94
497.529	913.94
497.746	911.94
497.963	947.94
498.181	985.94
498.398	985.94
498.615	994.94
498.832	1020.94
499.049	1037.94
499.267	1066.94
499.484	1117.94
499.701	1118.94
499.918	1157.94
500.135	1205.94
500.352	1237.94
500.569	1299.94
500.786	1270.94
501.003	1261.94
501.22	1254.94
501.437	1226.94
501.654	1183.94
501.871	1161.94
502.088	1112.94
502.305	1085.94
502.522	1015.94
502.739	1015.94
502.956	965.94
503.172	975.94
503.389	975.94
503.606	957.94
503.823	954.94
504.04	906.94
504.256	890.94
504.473	892.94
504.69	914.94
504.907	882.94
505.123	885.94
505.34	881.94
505.557	888.94
505.773	874.94
505.99	870.94
506.207	865.94
506.423	857.94
506.64	848.94
506.856	839.94
507.073	854.94
507.289	863.94
507.506	850.94
507.722	825.94
507.939	878.94
508.155	845.94
508.372	841.94
508.588	812.94
508.805	831.94
509.021	809.94
509.238	843.94
509.454	826.94
509.67	810.94
509.887	804.94
510.103	797.94
510.319	797.94
510.536	910.94
510.752	1468.94
510.968	1289.94
511.184	846.94
511.401	817.94
511.617	784.94
511.833	781.94
512.049	750.94
512.265	754.94
512.481	736.94
512.698	747.94
512.914	759.94
513.13	755.94
513.346	759.94
513.562	768.94
513.778	742.94
513.994	799.94
514.21	781.94
514.426	799.94
514.642	863.94
514.858	909.94
515.074	965.94
515.29	1121.94
515.506	1559.94
515.721	1316.94
515.937	935.94
516.153	885.94
516.369	862.94
516.585	814.94
516.801	807.94
517.016	833.94
517.232	803.94
517.448	815.94
517.664	818.94
517.879	814.94
518.095	797.94
518.311	824.94
518.527	803.94
518.742	808.94
518.958	805.94
519.173	754.94
519.389	777.94
519.605	791.94
519.82	797.94
520.036	779.94
520.251	809.94
520.467	849.94
520.682	857.94
520.898	831.94
521.113	884.94
521.329	923.94
521.544	1005.94
521.76	1226.94
521.975	2007.94
522.19	2056.94
522.406	1143.94
522.621	872.94
522.836	775.94
523.052	784.94
523.267	760.94
523.482	724.94
523.698	720.94
523.913	696.94
524.128	715.94
524.343	693.94
524.559	677.94
524.774	680.94
524.989	666.94
525.204	683.94
525.419	675.94
525.634	667.94
525.849	645.94
526.064	661.94
526.28	659.94
526.495	630.94
526.71	653.94
526.925	637.94
527.14	635.94
527.355	615.94
527.57	622.94
527.785	629.94
527.999	639.94
528.214	638.94
528.429	635.94
528.644	622.94
528.859	616.94
529.074	621.94
529.289	659.94
529.503	762.94
529.718	720.94
529.933	661.94
530.148	647.94
530.363	622.94
530.577	626.94
530.792	610.94
531.007	629.94
531.221	604.94
531.436	580.94
531.651	623.94
531.865	621.94
532.08	620.94
532.295	589.94
532.509	613.94
532.724	592.94
532.938	591.94
533.153	631.94
533.367	591.94
533.582	582.94
533.796	599.94
534.011	590.94
534.225	585.94
534.44	572.94
534.654	582.94
534.868	606.94
535.083	594.94
535.297	607.94
535.511	589.94
535.726	617.94
535.94	619.94
536.154	611.94
536.369	583.94
536.583	593.94
536.797	588.94
537.011	559.94
537.225	558.94
537.44	574.94
537.654	606.94
537.868	586.94
538.082	593.94
538.296	590.94
538.51	572.94
538.724	587.94
538.938	565.94
539.153	567.94
539.367	594.94
539.581	571.94
539.795	573.94
540.009	562.94
540.222	584.94
540.436	589.94
540.65	575.94
540.864	563.94
541.078	593.94
541.292	591.94
541.506	579.94
541.72	582.94
541.934	580.94
542.147	561.94
542.361	577.94
542.575	587.94
542.789	558.94
543.002	564.94
543.216	591.94
543.43	600.94
543.644	597.94
543.857	573.94
544.071	567.94
544.285	577.94
544.498	542.94
544.712	555.94
544.925	572.94
545.139	559.94
545.352	553.94
545.566	548.94
545.779	549.94
545.993	569.94
546.206	554.94
546.42	539.94
546.633	567.94
546.847	548.94
547.06	547.94
547.274	555.94
547.487	544.94
547.7	531.94
547.914	548.94
548.127	569.94
548.34	567.94
548.554	531.94
548.767	585.94
548.98	549.94
549.193	531.94
549.407	537.94
549.62	538.94
549.833	532.94
550.046	531.94
550.259	530.94
550.473	540.94
550.686	545.94
550.899	552.94
551.112	533.94
551.325	527.94
551.538	549.94
551.751	530.94
551.964	539.94
552.177	525.94
552.39	557.94
552.603	543.94
552.816	545.94
553.029	527.94
553.242	553.94
553.455	564.94
553.667	561.94
553.88	545.94
554.093	587.94
554.306	531.94
554.519	519.94
554.732	541.94
554.944	545.94
555.157	522.94
555.37	521.94
555.583	530.94
555.795	531.94
556.008	516.94
556.221	491.94
556.433	507.94
556.646	510.94
556.859	486.94
557.071	477.94
557.284	487.94
557.496	481.94
557.709	493.94
557.921	490.94
558.134	483.94
558.346	494.94
558.559	484.94
558.771	489.94
558.984	497.94
559.196	451.94
559.409	487.94
559.621	481.94
559.833	500.94
560.046	474.94
560.258	458.94
560.47	463.94
560.683	479.94
560.895	491.94
561.107	478.94
561.32	487.94
561.532	483.94
561.744	482.94
561.956	487.94
562.168	475.94
562.381	485.94
562.593	457.94
562.805	479.94
563.017	481.94
563.229	493.94
563.441	502.94
563.653	485.94
563.865	487.94
564.077	492.94
564.289	501.94
564.501	513.94
564.713	508.94
564.925	512.94
565.137	522.94
565.349	525.94
565.561	536.94
565.773	527.94
565.985	527.94
566.197	536.94
566.408	537.94
566.62	597.94
566.832	590.94
567.044	594.94
567.255	587.94
567.467	615.94
567.679	575.94
567.891	629.94
568.102	636.94
568.314	622.94
568.526	582.94
568.737	581.94
568.949	548.94
569.161	535.94
569.372	522.94
569.584	519.94
569.795	493.94
570.007	487.94
570.218	515.94
570.43	544.94
570.641	492.94
570.853	479.94
571.064	469.94
571.276	475.94
571.487	456.94
571.698	471.94
571.91	435.94
572.121	434.94
572.333	435.94
572.544	434.94
572.755	429.94
572.966	433.94
573.178	452.94
573.389	407.94
573.6	441.94
573.811	422.94
574.023	403.94
574.234	405.94
574.445	396.94
574.656	411.94
574.867	431.94
575.078	413.94
575.289	402.94
575.501	418.94
575.712	400.94
575.923	403.94
576.134	403.94
576.345	397.94
576.556	406.94
576.767	381.94
576.978	405.94
577.188	399.94
577.399	391.94
577.61	399.94
577.821	403.94
578.032	415.94
578.243	434.94
578.454	715.94
578.665	531.94
578.875	407.94
579.086	403.94
579.297	396.94
579.508	391.94
579.718	396.94
579.929	383.94
580.14	378.94
580.35	370.94
580.561	382.94
580.772	381.94
580.982	370.94
581.193	375.94
581.403	364.94
581.614	375.94
581.825	383.94
582.035	380.94
582.246	364.94
582.456	358.94
582.667	362.94
582.877	373.94
583.087	364.94
583.298	353.94
583.508	355.94
583.719	374.94
583.929	377.94
584.139	375.94
584.35	364.94
584.56	362.94
584.77	358.94
584.981	356.94
585.191	353.94
585.401	364.94
585.611	357.94
585.821	378.94
586.032	375.94
586.242	367.94
586.452	353.94
586.662	361.94
586.872	360.94
587.082	349.94
587.292	369.94
587.502	363.94
587.713	352.94
587.923	363.94
588.133	364.94
588.343	363.94
588.553	347.94
588.762	347.94
588.972	351.94
589.182	361.94
589.392	348.94
589.602	350.94
589.812	361.94
590.022	359.94
590.232	359.94
590.441	358.94
590.651	361.94
590.861	355.94
591.071	350.94
591.281	334.94
591.49	343.94
591.7	374.94
591.91	371.94
592.119	377.94
592.329	355.94
592.539	375.94
592.748	371.94
592.958	378.94
593.167	355.94
593.377	369.94
593.587	381.94
593.796	374.94
594.006	379.94
594.215	371.94
594.424	365.94
594.634	371.94
594.843	375.94
595.053	374.94
595.262	358.94
595.472	353.94
595.681	365.94
595.89	350.94
596.1	331.94
596.309	350.94
596.518	338.94
596.727	327.94
596.937	356.94
597.146	321.94
597.355	345.94
597.564	329.94
597.774	332.94
597.983	328.94
598.192	330.94
598.401	323.94
598.61	297.94
598.819	327.94
599.028	310.94
599.237	298.94
599.446	313.94
599.655	336.94
599.864	320.94
600.073	306.94
600.282	312.94
600.491	331.94
600.7	309.94
600.909	323.94
601.118	307.94
601.327	313.94
601.536	318.94
601.745	301.94
601.953	329.94
602.162	307.94
602.371	306.94
602.58	313.94
602.789	308.94
602.997	292.94
603.206	309.94
603.415	289.94
603.623	302.94
603.832	307.94
604.041	322.94
604.249	315.94
604.458	296.94
604.666	285.94
604.875	302.94
605.084	290.94
605.292	296.94
605.501	306.94
605.709	285.94
605.918	295.94
606.126	302.94
606.334	284.94
606.543	305.94
606.751	294.94
606.96	273.94
607.168	286.94
607.376	283.94
607.585	283.94
607.793	272.94
608.001	303.94
608.21	279.94
608.418	287.94
608.626	269.94
608.834	283.94
609.043	297.94
609.251	298.94
609.459	285.94
609.667	290.94
609.875	289.94
610.083	277.94
610.291	274.94
610.499	283.94
610.707	287.94
610.916	289.94
611.124	286.94
611.332	294.94
611.54	300.94
611.748	295.94
611.955	287.94
612.163	264.94
612.371	284.94
612.579	289.94
612.787	282.94
612.995	278.94
613.203	288.94
613.411	275.94
613.618	289.94
613.826	281.94
614.034	274.94
614.242	267.94
614.449	268.94
614.657	270.94
614.865	289.94
615.072	266.94
615.28	263.94
615.488	259.94
615.695	280.94
615.903	271.94
616.111	269.94
616.318	284.94
616.526	268.94
616.733	255.94
616.941	283.94
617.148	277.94
617.356	270.94
617.563	274.94
617.771	273.94
617.978	270.94
618.185	269.94
618.393	268.94
618.6	277.94
618.807	278.94
619.015	265.94
619.222	262.94
619.429	271.94
619.637	271.94
619.844	270.94
620.051	266.94
620.258	264.94
620.466	260.94
620.673	256.94
620.88	252.94
621.087	259.94
621.294	243.94
621.501	248.94
621.708	267.94
621.915	253.94
622.122	235.94
622.329	253.94
622.536	253.94
622.743	266.94
622.95	264.94
623.157	268.94
623.364	241.94
623.571	275.94
623.778	262.94
623.985	273.94
624.192	261.94
624.399	266.94
624.606	245.94
624.812	241.94
625.019	253.94
625.226	244.94
625.433	225.94
625.639	249.94
625.846	249.94
626.053	250.94
626.259	237.94
626.466	222.94
626.673	250.94
626.879	236.94
627.086	215.94
627.293	246.94
627.499	247.94
627.706	239.94
627.912	220.94
628.119	218.94
628.325	249.94
628.532	236.94
628.738	242.94
628.945	241.94
629.151	221.94
629.357	245.94
629.564	219.94
629.77	233.94
629.976	232.94
630.183	220.94
630.389	218.94
630.595	227.94
630.802	230.94
631.008	236.94
631.214	231.94
631.42	224.94
631.627	217.94
631.833	228.94
632.039	226.94
632.245	241.94
632.451	218.94
632.657	230.94
632.863	219.94
633.069	225.94
633.275	218.94
633.481	213.94
633.688	211.94
633.893	216.94
634.099	225.94
634.305	213.94
634.511	184.94
634.717	216.94
634.923	221.94
635.129	203.94
635.335	216.94
635.541	216.94
635.747	199.94
635.952	226.94
636.158	209.94
636.364	222.94
636.57	202.94
636.775	208.94
636.981	216.94
637.187	218.94
637.392	207.94
637.598	192.94
637.804	221.94
638.009	199.94
638.215	199.94
638.421	211.94
638.626	198.94
638.832	191.94
639.037	195.94
639.243	201.94
639.448	198.94
639.654	204.94
639.859	188.94
640.065	198.94
640.27	197.94
640.475	197.94
640.681	186.94
640.886	200.94
641.091	200.94
641.297	203.94
641.502	206.94
641.707	182.94
641.913	197.94
642.118	195.94
642.323	193.94
642.528	205.94
642.733	181.94
642.939	191.94
643.144	191.94
643.349	186.94
643.554	189.94
643.759	203.94
643.964	179.94
644.169	199.94
644.374	193.94
644.579	196.94
644.784	194.94
644.989	184.94
645.194	172.94
645.399	205.94
645.604	184.94
645.809	183.94
646.014	211.94
646.219	177.94
646.423	196.94
646.628	186.94
646.833	177.94
647.038	184.94
647.243	180.94
647.447	190.94
647.652	189.94
647.857	183.94
648.062	181.94
648.266	186.94
648.471	195.94
648.676	206.94
648.88	198.94
649.085	201.94
649.289	183.94
649.494	213.94
649.698	212.94
649.903	217.94
650.107	185.94
650.312	185.94
650.516	185.94
650.721	189.94
650.925	176.94
651.13	175.94
651.334	183.94
651.539	171.94
651.743	183.94
651.947	187.94
652.152	153.94
652.356	164.94
652.56	169.94
652.764	159.94
652.969	161.94
653.173	160.94
653.377	161.94
653.581	165.94
653.785	165.94
653.99	153.94
654.194	154.94
654.398	150.94
654.602	149.94
654.806	158.94
655.01	156.94
655.214	165.94
655.418	158.94
655.622	149.94
655.826	151.94
656.03	141.94
656.234	150.94
656.438	136.94
656.642	134.94
656.846	139.94
657.049	131.94
657.253	127.94
657.457	133.94
657.661	115.94
657.865	105.94
658.068	123.94
658.272	114.94
658.476	119.94
658.68	110.94
658.883	117.94
659.087	112.94
659.291	112.94
659.494	109.94
659.698	105.94
659.901	100.94
660.105	125.94
660.309	94.94
660.512	111.94
660.716	106.94
660.919	92.94
661.123	85.94
661.326	94.94
661.53	89.94
661.733	87.94
661.936	92.94
662.14	88.94
662.343	93.94
662.546	97.94
662.75	78.94
662.953	90.94
663.156	72.94
663.36	82.94
663.563	81.94
663.766	92.94
663.969	97.94
664.173	78.94
664.376	79.94
664.579	92.94
664.782	78.94
664.985	85.94
665.188	93.94
665.391	78.94
665.594	79.94
665.797	91.94
666	82.94
666.203	75.94
666.406	82.94
666.609	67.94
666.812	86.94
667.015	84.94
667.218	83.94
667.421	86.94
667.624	85.94
667.827	83.94
668.03	84.94
668.232	73.94
668.435	85.94
668.638	92.94
668.841	84.94
669.043	69.94
669.246	80.94
669.449	84.94
669.651	101.94
669.854	91.94
670.057	83.94
670.259	79.94
670.462	85.94
670.665	75.94
670.867	78.94
671.07	94.94
671.272	93.94
671.475	90.94
671.677	75.94
671.88	94.94
672.082	78.94
672.284	74.94
672.487	83.94
672.689	79.94
672.892	88.94
