Data from 1988.PennyLincolnUp.Lamp.En5.5.200Scan.071819.P2_HRD10591_17-20-20-972.txt Node
Date: Thu Jul 18 17:20:20 EDT 2019
User: cochatt
Spectrometer: HR+D1059
Trigger mode: 1
Integration Time (sec): 1.000000E-1
Scans to average: 1
Electric dark correction enabled: true
Nonlinearity correction enabled: false
Boxcar width: 0
XAxis mode: Wavelengths
Number of Pixels in Spectrum: 2048
>>>>>Begin Spectral Data<<<<<
223.165	-15.25
223.4	-15.25
223.635	-15.25
223.869	-23.25
224.104	-19.25
224.338	-16.25
224.573	-2.25
224.808	-8.25
225.042	-12.25
225.277	-14.25
225.511	-16.25
225.746	1.75
225.98	20.75
226.215	4.75
226.449	20.75
226.683	28.75
226.918	26.75
227.152	23.75
227.387	31.75
227.621	39.75
227.856	45.75
228.09	48.75
228.324	51.75
228.559	52.75
228.793	80.75
229.027	107.75
229.262	105.75
229.496	115.75
229.73	133.75
229.964	173.75
230.199	131.75
230.433	113.75
230.667	124.75
230.901	119.75
231.136	108.75
231.37	106.75
231.604	123.75
231.838	119.75
232.072	104.75
232.306	121.75
232.541	116.75
232.775	120.75
233.009	137.75
233.243	127.75
233.477	113.75
233.711	122.75
233.945	139.75
234.179	129.75
234.413	128.75
234.647	125.75
234.881	128.75
235.115	132.75
235.349	130.75
235.583	139.75
235.817	126.75
236.051	127.75
236.285	146.75
236.519	154.75
236.753	124.75
236.987	148.75
237.221	195.75
237.455	245.75
237.689	213.75
237.922	154.75
238.156	145.75
238.39	155.75
238.624	117.75
238.858	124.75
239.091	117.75
239.325	133.75
239.559	127.75
239.793	147.75
240.027	143.75
240.26	175.75
240.494	177.75
240.728	156.75
240.961	151.75
241.195	156.75
241.429	148.75
241.662	142.75
241.896	135.75
242.13	135.75
242.363	147.75
242.597	143.75
242.83	163.75
243.064	140.75
243.298	144.75
243.531	137.75
243.765	160.75
243.998	151.75
244.232	140.75
244.465	152.75
244.699	156.75
244.932	160.75
245.166	152.75
245.399	143.75
245.633	147.75
245.866	162.75
246.099	142.75
246.333	170.75
246.566	172.75
246.8	154.75
247.033	139.75
247.266	161.75
247.5	166.75
247.733	172.75
247.966	195.75
248.2	177.75
248.433	203.75
248.666	172.75
248.899	191.75
249.133	225.75
249.366	225.75
249.599	206.75
249.832	196.75
250.066	179.75
250.299	191.75
250.532	195.75
250.765	218.75
250.998	217.75
251.231	224.75
251.465	213.75
251.698	220.75
251.931	204.75
252.164	197.75
252.397	216.75
252.63	213.75
252.863	218.75
253.096	244.75
253.329	232.75
253.562	235.75
253.795	237.75
254.028	235.75
254.261	242.75
254.494	257.75
254.727	268.75
254.96	273.75
255.193	295.75
255.426	255.75
255.659	248.75
255.892	247.75
256.124	228.75
256.357	227.75
256.59	220.75
256.823	234.75
257.056	225.75
257.289	221.75
257.521	212.75
257.754	232.75
257.987	228.75
258.22	213.75
258.452	230.75
258.685	202.75
258.918	220.75
259.151	223.75
259.383	215.75
259.616	253.75
259.849	259.75
260.081	223.75
260.314	258.75
260.547	265.75
260.779	250.75
261.012	248.75
261.244	247.75
261.477	246.75
261.71	223.75
261.942	242.75
262.175	234.75
262.407	242.75
262.64	231.75
262.872	223.75
263.105	237.75
263.337	226.75
263.57	220.75
263.802	236.75
264.035	212.75
264.267	220.75
264.499	225.75
264.732	219.75
264.964	231.75
265.197	248.75
265.429	225.75
265.661	230.75
265.894	229.75
266.126	239.75
266.358	239.75
266.591	233.75
266.823	246.75
267.055	223.75
267.287	243.75
267.52	232.75
267.752	254.75
267.984	263.75
268.216	249.75
268.448	246.75
268.681	258.75
268.913	276.75
269.145	281.75
269.377	292.75
269.609	292.75
269.841	289.75
270.073	281.75
270.306	321.75
270.538	328.75
270.77	326.75
271.002	314.75
271.234	299.75
271.466	345.75
271.698	323.75
271.93	338.75
272.162	330.75
272.394	321.75
272.626	307.75
272.858	306.75
273.09	289.75
273.322	305.75
273.553	280.75
273.785	278.75
274.017	286.75
274.249	289.75
274.481	304.75
274.713	265.75
274.945	265.75
275.176	285.75
275.408	261.75
275.64	291.75
275.872	284.75
276.104	291.75
276.335	279.75
276.567	283.75
276.799	307.75
277.031	303.75
277.262	339.75
277.494	343.75
277.726	316.75
277.957	310.75
278.189	315.75
278.421	303.75
278.652	300.75
278.884	297.75
279.115	288.75
279.347	292.75
279.579	285.75
279.81	294.75
280.042	277.75
280.273	266.75
280.505	288.75
280.736	288.75
280.968	264.75
281.199	287.75
281.431	276.75
281.662	289.75
281.894	291.75
282.125	303.75
282.356	303.75
282.588	349.75
282.819	340.75
283.051	315.75
283.282	287.75
283.513	288.75
283.745	292.75
283.976	292.75
284.207	298.75
284.439	301.75
284.67	307.75
284.901	295.75
285.132	288.75
285.364	285.75
285.595	288.75
285.826	298.75
286.057	294.75
286.288	291.75
286.52	309.75
286.751	311.75
286.982	324.75
287.213	294.75
287.444	311.75
287.675	327.75
287.906	314.75
288.138	332.75
288.369	334.75
288.6	318.75
288.831	331.75
289.062	314.75
289.293	311.75
289.524	306.75
289.755	316.75
289.986	315.75
290.217	317.75
290.448	308.75
290.679	331.75
290.91	317.75
291.141	296.75
291.371	298.75
291.602	310.75
291.833	309.75
292.064	309.75
292.295	299.75
292.526	327.75
292.757	326.75
292.987	313.75
293.218	318.75
293.449	319.75
293.68	310.75
293.91	306.75
294.141	314.75
294.372	311.75
294.603	323.75
294.833	319.75
295.064	316.75
295.295	316.75
295.525	309.75
295.756	324.75
295.987	339.75
296.217	350.75
296.448	355.75
296.679	325.75
296.909	331.75
297.14	323.75
297.37	322.75
297.601	316.75
297.831	322.75
298.062	333.75
298.292	343.75
298.523	324.75
298.753	345.75
298.984	350.75
299.214	350.75
299.445	338.75
299.675	331.75
299.905	358.75
300.136	334.75
300.366	355.75
300.597	335.75
300.827	345.75
301.057	371.75
301.288	367.75
301.518	334.75
301.748	356.75
301.979	356.75
302.209	353.75
302.439	352.75
302.669	349.75
302.9	357.75
303.13	362.75
303.36	370.75
303.59	360.75
303.82	378.75
304.051	363.75
304.281	358.75
304.511	364.75
304.741	372.75
304.971	345.75
305.201	353.75
305.431	349.75
305.661	359.75
305.891	355.75
306.121	367.75
306.352	379.75
306.582	375.75
306.812	349.75
307.042	349.75
307.272	363.75
307.502	361.75
307.731	356.75
307.961	372.75
308.191	364.75
308.421	353.75
308.651	373.75
308.881	351.75
309.111	362.75
309.341	367.75
309.571	379.75
309.8	391.75
310.03	415.75
310.26	408.75
310.49	394.75
310.72	428.75
310.949	456.75
311.179	426.75
311.409	415.75
311.639	403.75
311.868	419.75
312.098	407.75
312.328	430.75
312.557	428.75
312.787	447.75
313.017	451.75
313.246	424.75
313.476	418.75
313.706	424.75
313.935	417.75
314.165	442.75
314.394	442.75
314.624	428.75
314.853	412.75
315.083	417.75
315.312	431.75
315.542	428.75
315.771	431.75
316.001	403.75
316.23	417.75
316.46	423.75
316.689	428.75
316.919	425.75
317.148	451.75
317.377	431.75
317.607	421.75
317.836	428.75
318.065	423.75
318.295	425.75
318.524	409.75
318.753	419.75
318.983	408.75
319.212	431.75
319.441	433.75
319.67	452.75
319.9	426.75
320.129	406.75
320.358	424.75
320.587	441.75
320.816	435.75
321.046	435.75
321.275	442.75
321.504	439.75
321.733	440.75
321.962	443.75
322.191	479.75
322.42	487.75
322.649	499.75
322.878	489.75
323.108	492.75
323.337	550.75
323.566	551.75
323.795	584.75
324.024	625.75
324.253	772.75
324.482	1068.75
324.71	1718.75
324.939	2551.75
325.168	2173.75
325.397	1114.75
325.626	745.75
325.855	628.75
326.084	590.75
326.313	566.75
326.542	587.75
326.77	612.75
326.999	713.75
327.228	984.75
327.457	1514.75
327.686	1880.75
327.914	1238.75
328.143	782.75
328.372	690.75
328.6	645.75
328.829	617.75
329.058	649.75
329.287	649.75
329.515	617.75
329.744	541.75
329.972	547.75
330.201	552.75
330.43	580.75
330.658	616.75
330.887	660.75
331.115	657.75
331.344	568.75
331.572	565.75
331.801	552.75
332.03	543.75
332.258	514.75
332.486	510.75
332.715	489.75
332.943	479.75
333.172	486.75
333.4	490.75
333.629	525.75
333.857	520.75
334.085	512.75
334.314	503.75
334.542	543.75
334.771	547.75
334.999	518.75
335.227	528.75
335.455	513.75
335.684	504.75
335.912	511.75
336.14	496.75
336.369	499.75
336.597	512.75
336.825	535.75
337.053	524.75
337.281	497.75
337.51	498.75
337.738	495.75
337.966	502.75
338.194	482.75
338.422	493.75
338.65	493.75
338.878	479.75
339.106	487.75
339.334	490.75
339.562	467.75
339.79	476.75
340.018	474.75
340.246	467.75
340.474	481.75
340.702	499.75
340.93	482.75
341.158	498.75
341.386	477.75
341.614	484.75
341.842	483.75
342.07	476.75
342.298	469.75
342.526	466.75
342.754	483.75
342.981	471.75
343.209	471.75
343.437	485.75
343.665	496.75
343.893	498.75
344.12	498.75
344.348	485.75
344.576	483.75
344.804	507.75
345.031	506.75
345.259	523.75
345.487	508.75
345.714	501.75
345.942	485.75
346.17	484.75
346.397	480.75
346.625	460.75
346.853	473.75
347.08	477.75
347.308	467.75
347.535	495.75
347.763	486.75
347.99	495.75
348.218	493.75
348.445	496.75
348.673	496.75
348.9	472.75
349.128	462.75
349.355	451.75
349.583	448.75
349.81	456.75
350.037	466.75
350.265	453.75
350.492	458.75
350.72	445.75
350.947	459.75
351.174	457.75
351.402	501.75
351.629	472.75
351.856	487.75
352.083	466.75
352.311	497.75
352.538	470.75
352.765	483.75
352.992	504.75
353.22	481.75
353.447	478.75
353.674	468.75
353.901	445.75
354.128	450.75
354.355	443.75
354.583	456.75
354.81	455.75
355.037	445.75
355.264	446.75
355.491	440.75
355.718	416.75
355.945	440.75
356.172	424.75
356.399	429.75
356.626	421.75
356.853	432.75
357.08	421.75
357.307	433.75
357.534	449.75
357.761	443.75
357.988	446.75
358.215	433.75
358.441	456.75
358.668	468.75
358.895	457.75
359.122	443.75
359.349	458.75
359.576	479.75
359.802	479.75
360.029	514.75
360.256	548.75
360.483	531.75
360.709	484.75
360.936	473.75
361.163	473.75
361.39	487.75
361.616	480.75
361.843	456.75
362.07	454.75
362.296	484.75
362.523	472.75
362.749	476.75
362.976	453.75
363.203	467.75
363.429	439.75
363.656	461.75
363.882	465.75
364.109	475.75
364.335	446.75
364.562	449.75
364.788	452.75
365.015	452.75
365.241	463.75
365.468	442.75
365.694	465.75
365.92	467.75
366.147	460.75
366.373	463.75
366.599	461.75
366.826	433.75
367.052	415.75
367.278	463.75
367.505	438.75
367.731	473.75
367.957	447.75
368.184	452.75
368.41	454.75
368.636	472.75
368.862	460.75
369.089	465.75
369.315	447.75
369.541	475.75
369.767	450.75
369.993	455.75
370.219	427.75
370.445	444.75
370.672	447.75
370.898	449.75
371.124	459.75
371.35	464.75
371.576	439.75
371.802	462.75
372.028	443.75
372.254	452.75
372.48	443.75
372.706	473.75
372.932	474.75
373.158	460.75
373.384	467.75
373.61	459.75
373.835	460.75
374.061	467.75
374.287	466.75
374.513	500.75
374.739	470.75
374.965	442.75
375.191	455.75
375.416	473.75
375.642	469.75
375.868	485.75
376.094	471.75
376.319	455.75
376.545	468.75
376.771	459.75
376.997	455.75
377.222	453.75
377.448	453.75
377.674	448.75
377.899	452.75
378.125	456.75
378.35	452.75
378.576	469.75
378.802	433.75
379.027	448.75
379.253	456.75
379.478	439.75
379.704	465.75
379.929	453.75
380.155	465.75
380.38	464.75
380.606	460.75
380.831	459.75
381.057	449.75
381.282	449.75
381.507	459.75
381.733	472.75
381.958	444.75
382.184	458.75
382.409	495.75
382.634	480.75
382.86	453.75
383.085	487.75
383.31	484.75
383.535	479.75
383.761	481.75
383.986	472.75
384.211	490.75
384.436	515.75
384.662	489.75
384.887	489.75
385.112	489.75
385.337	495.75
385.562	489.75
385.787	496.75
386.013	503.75
386.238	529.75
386.463	509.75
386.688	511.75
386.913	513.75
387.138	499.75
387.363	536.75
387.588	512.75
387.813	515.75
388.038	502.75
388.263	518.75
388.488	492.75
388.713	505.75
388.938	511.75
389.163	524.75
389.387	525.75
389.612	513.75
389.837	527.75
390.062	489.75
390.287	487.75
390.512	501.75
390.736	507.75
390.961	509.75
391.186	490.75
391.411	501.75
391.636	525.75
391.86	521.75
392.085	537.75
392.31	542.75
392.534	507.75
392.759	522.75
392.984	525.75
393.208	518.75
393.433	532.75
393.658	536.75
393.882	497.75
394.107	543.75
394.331	527.75
394.556	492.75
394.78	520.75
395.005	519.75
395.229	505.75
395.454	512.75
395.678	516.75
395.903	584.75
396.127	570.75
396.352	568.75
396.576	538.75
396.801	527.75
397.025	561.75
397.249	535.75
397.474	555.75
397.698	555.75
397.922	569.75
398.147	591.75
398.371	582.75
398.595	560.75
398.82	590.75
399.044	623.75
399.268	641.75
399.492	645.75
399.717	666.75
399.941	707.75
400.165	701.75
400.389	771.75
400.613	670.75
400.837	646.75
401.062	629.75
401.286	618.75
401.51	602.75
401.734	588.75
401.958	602.75
402.182	604.75
402.406	595.75
402.63	620.75
402.854	614.75
403.078	609.75
403.302	610.75
403.526	635.75
403.75	593.75
403.974	619.75
404.198	633.75
404.422	608.75
404.645	611.75
404.869	637.75
405.093	655.75
405.317	665.75
405.541	709.75
405.765	667.75
405.988	647.75
406.212	652.75
406.436	671.75
406.66	689.75
406.883	664.75
407.107	688.75
407.331	758.75
407.555	795.75
407.778	819.75
408.002	757.75
408.226	701.75
408.449	687.75
408.673	668.75
408.896	688.75
409.12	753.75
409.344	714.75
409.567	658.75
409.791	632.75
410.014	631.75
410.238	626.75
410.461	619.75
410.685	618.75
410.908	639.75
411.132	667.75
411.355	716.75
411.578	684.75
411.802	627.75
412.025	619.75
412.249	624.75
412.472	645.75
412.695	640.75
412.919	625.75
413.142	604.75
413.365	565.75
413.589	587.75
413.812	596.75
414.035	580.75
414.258	574.75
414.482	599.75
414.705	591.75
414.928	578.75
415.151	600.75
415.374	601.75
415.597	599.75
415.821	572.75
416.044	585.75
416.267	580.75
416.49	577.75
416.713	580.75
416.936	577.75
417.159	567.75
417.382	584.75
417.605	594.75
417.828	600.75
418.051	602.75
418.274	604.75
418.497	593.75
418.72	609.75
418.943	571.75
419.166	617.75
419.389	643.75
419.611	596.75
419.834	586.75
420.057	626.75
420.28	603.75
420.503	599.75
420.726	570.75
420.948	612.75
421.171	671.75
421.394	703.75
421.617	637.75
421.839	620.75
422.062	599.75
422.285	649.75
422.507	707.75
422.73	783.75
422.953	785.75
423.175	662.75
423.398	641.75
423.621	628.75
423.843	665.75
424.066	658.75
424.288	668.75
424.511	666.75
424.733	731.75
424.956	828.75
425.178	799.75
425.401	783.75
425.623	818.75
425.846	714.75
426.068	670.75
426.291	649.75
426.513	647.75
426.735	694.75
426.958	731.75
427.18	820.75
427.402	973.75
427.625	1086.75
427.847	926.75
428.069	770.75
428.292	692.75
428.514	649.75
428.736	627.75
428.958	631.75
429.181	617.75
429.403	624.75
429.625	637.75
429.847	645.75
430.069	728.75
430.292	720.75
430.514	646.75
430.736	616.75
430.958	576.75
431.18	586.75
431.402	573.75
431.624	596.75
431.846	555.75
432.068	559.75
432.29	580.75
432.512	572.75
432.734	583.75
432.956	584.75
433.178	627.75
433.4	603.75
433.622	587.75
433.844	581.75
434.066	589.75
434.287	597.75
434.509	601.75
434.731	612.75
434.953	589.75
435.175	631.75
435.397	651.75
435.618	661.75
435.84	707.75
436.062	848.75
436.284	900.75
436.505	767.75
436.727	654.75
436.949	630.75
437.17	616.75
437.392	627.75
437.614	634.75
437.835	651.75
438.057	756.75
438.278	908.75
438.5	889.75
438.721	984.75
438.943	929.75
439.165	738.75
439.386	663.75
439.608	673.75
439.829	653.75
440.05	703.75
440.272	746.75
440.493	724.75
440.715	669.75
440.936	642.75
441.158	618.75
441.379	617.75
441.6	635.75
441.822	682.75
442.043	722.75
442.264	797.75
442.486	865.75
442.707	747.75
442.928	676.75
443.149	696.75
443.371	714.75
443.592	749.75
443.813	860.75
444.034	952.75
444.255	781.75
444.476	702.75
444.698	687.75
444.919	672.75
445.14	783.75
445.361	755.75
445.582	698.75
445.803	791.75
446.024	923.75
446.245	927.75
446.466	839.75
446.687	703.75
446.908	660.75
447.129	614.75
447.35	603.75
447.571	610.75
447.792	601.75
448.013	596.75
448.234	612.75
448.455	676.75
448.675	854.75
448.896	954.75
449.117	817.75
449.338	778.75
449.559	902.75
449.779	1029.75
450	827.75
450.221	667.75
450.442	627.75
450.662	596.75
450.883	587.75
451.104	609.75
451.324	617.75
451.545	585.75
451.766	557.75
451.986	530.75
452.207	546.75
452.428	547.75
452.648	560.75
452.869	558.75
453.089	565.75
453.31	584.75
453.53	531.75
453.751	552.75
453.971	538.75
454.192	556.75
454.412	543.75
454.633	563.75
454.853	558.75
455.073	527.75
455.294	588.75
455.514	649.75
455.734	632.75
455.955	549.75
456.175	527.75
456.395	516.75
456.616	496.75
456.836	490.75
457.056	519.75
457.276	510.75
457.497	537.75
457.717	479.75
457.937	541.75
458.157	539.75
458.377	554.75
458.598	564.75
458.818	594.75
459.038	737.75
459.258	727.75
459.478	639.75
459.698	598.75
459.918	580.75
460.138	577.75
460.358	576.75
460.578	579.75
460.798	602.75
461.018	605.75
461.238	582.75
461.458	590.75
461.678	581.75
461.898	602.75
462.118	594.75
462.338	618.75
462.558	609.75
462.777	610.75
462.997	631.75
463.217	631.75
463.437	668.75
463.657	628.75
463.876	611.75
464.096	659.75
464.316	650.75
464.536	658.75
464.755	641.75
464.975	650.75
465.195	663.75
465.414	759.75
465.634	687.75
465.854	641.75
466.073	599.75
466.293	561.75
466.512	575.75
466.732	564.75
466.951	559.75
467.171	564.75
467.391	568.75
467.61	562.75
467.829	573.75
468.049	572.75
468.268	560.75
468.488	547.75
468.707	548.75
468.927	532.75
469.146	543.75
469.365	559.75
469.585	541.75
469.804	569.75
470.023	552.75
470.243	579.75
470.462	554.75
470.681	602.75
470.901	596.75
471.12	550.75
471.339	559.75
471.558	570.75
471.777	577.75
471.997	569.75
472.216	556.75
472.435	542.75
472.654	543.75
472.873	544.75
473.092	547.75
473.311	545.75
473.53	583.75
473.749	579.75
473.968	611.75
474.187	726.75
474.406	757.75
474.625	632.75
474.844	588.75
475.063	593.75
475.282	579.75
475.501	561.75
475.72	591.75
475.939	588.75
476.158	583.75
476.377	569.75
476.596	599.75
476.814	608.75
477.033	616.75
477.252	604.75
477.471	620.75
477.69	616.75
477.908	628.75
478.127	603.75
478.346	637.75
478.564	641.75
478.783	633.75
479.002	633.75
479.22	649.75
479.439	672.75
479.658	689.75
479.876	685.75
480.095	704.75
480.313	721.75
480.532	691.75
480.751	711.75
480.969	703.75
481.188	694.75
481.406	724.75
481.624	687.75
481.843	683.75
482.061	673.75
482.28	659.75
482.498	658.75
482.717	660.75
482.935	665.75
483.153	660.75
483.372	665.75
483.59	665.75
483.808	661.75
484.027	663.75
484.245	683.75
484.463	672.75
484.681	676.75
484.9	679.75
485.118	668.75
485.336	699.75
485.554	723.75
485.772	696.75
485.99	675.75
486.209	686.75
486.427	709.75
486.645	722.75
486.863	727.75
487.081	724.75
487.299	748.75
487.517	731.75
487.735	735.75
487.953	736.75
488.171	732.75
488.389	707.75
488.607	740.75
488.825	719.75
489.043	734.75
489.261	713.75
489.479	736.75
489.696	736.75
489.914	735.75
490.132	729.75
490.35	749.75
490.568	756.75
490.786	743.75
491.003	769.75
491.221	781.75
491.439	802.75
491.657	779.75
491.874	824.75
492.092	777.75
492.31	797.75
492.527	818.75
492.745	807.75
492.963	812.75
493.18	812.75
493.398	831.75
493.615	850.75
493.833	822.75
494.05	864.75
494.268	838.75
494.485	831.75
494.703	817.75
494.92	837.75
495.138	854.75
495.355	850.75
495.573	856.75
495.79	839.75
496.008	848.75
496.225	846.75
496.442	843.75
496.66	860.75
496.877	868.75
497.094	888.75
497.312	886.75
497.529	870.75
497.746	913.75
497.963	903.75
498.181	938.75
498.398	976.75
498.615	960.75
498.832	980.75
499.049	985.75
499.267	1023.75
499.484	1043.75
499.701	1084.75
499.918	1111.75
500.135	1171.75
500.352	1233.75
500.569	1236.75
500.786	1220.75
501.003	1219.75
501.22	1195.75
501.437	1177.75
501.654	1130.75
501.871	1103.75
502.088	1066.75
502.305	1051.75
502.522	1007.75
502.739	973.75
502.956	955.75
503.172	968.75
503.389	943.75
503.606	925.75
503.823	910.75
504.04	899.75
504.256	869.75
504.473	876.75
504.69	897.75
504.907	877.75
505.123	872.75
505.34	857.75
505.557	856.75
505.773	832.75
505.99	810.75
506.207	824.75
506.423	844.75
506.64	817.75
506.856	815.75
507.073	791.75
507.289	803.75
507.506	773.75
507.722	796.75
507.939	832.75
508.155	791.75
508.372	823.75
508.588	805.75
508.805	802.75
509.021	782.75
509.238	778.75
509.454	810.75
509.67	792.75
509.887	781.75
510.103	767.75
510.319	799.75
510.536	885.75
510.752	1439.75
510.968	1185.75
511.184	779.75
511.401	773.75
511.617	747.75
511.833	723.75
512.049	740.75
512.265	735.75
512.481	726.75
512.698	731.75
512.914	743.75
513.13	693.75
513.346	739.75
513.562	733.75
513.778	731.75
513.994	732.75
514.21	752.75
514.426	776.75
514.642	793.75
514.858	858.75
515.074	894.75
515.29	1055.75
515.506	1416.75
515.721	1243.75
515.937	887.75
516.153	816.75
516.369	819.75
516.585	767.75
516.801	762.75
517.016	793.75
517.232	794.75
517.448	790.75
517.664	789.75
517.879	779.75
518.095	769.75
518.311	787.75
518.527	751.75
518.742	751.75
518.958	760.75
519.173	752.75
519.389	721.75
519.605	731.75
519.82	725.75
520.036	765.75
520.251	759.75
520.467	807.75
520.682	778.75
520.898	827.75
521.113	849.75
521.329	869.75
521.544	980.75
521.76	1139.75
521.975	1896.75
522.19	1860.75
522.406	1110.75
522.621	856.75
522.836	771.75
523.052	723.75
523.267	726.75
523.482	702.75
523.698	681.75
523.913	711.75
524.128	683.75
524.343	688.75
524.559	647.75
524.774	621.75
524.989	635.75
525.204	647.75
525.419	640.75
525.634	653.75
525.849	631.75
526.064	611.75
526.28	617.75
526.495	621.75
526.71	623.75
526.925	639.75
527.14	625.75
527.355	629.75
527.57	618.75
527.785	600.75
527.999	610.75
528.214	607.75
528.429	618.75
528.644	603.75
528.859	620.75
529.074	627.75
529.289	635.75
529.503	709.75
529.718	707.75
529.933	651.75
530.148	625.75
530.363	600.75
530.577	609.75
530.792	618.75
531.007	612.75
531.221	596.75
531.436	603.75
531.651	591.75
531.865	611.75
532.08	598.75
532.295	591.75
532.509	597.75
532.724	585.75
532.938	601.75
533.153	595.75
533.367	571.75
533.582	599.75
533.796	581.75
534.011	569.75
534.225	593.75
534.44	562.75
534.654	555.75
534.868	566.75
535.083	567.75
535.297	585.75
535.511	593.75
535.726	586.75
535.94	597.75
536.154	591.75
536.369	569.75
536.583	563.75
536.797	577.75
537.011	546.75
537.225	547.75
537.44	560.75
537.654	549.75
537.868	544.75
538.082	566.75
538.296	575.75
538.51	572.75
538.724	557.75
538.938	554.75
539.153	551.75
539.367	568.75
539.581	550.75
539.795	555.75
540.009	572.75
540.222	543.75
540.436	551.75
540.65	575.75
540.864	540.75
541.078	572.75
541.292	569.75
541.506	563.75
541.72	547.75
541.934	537.75
542.147	538.75
542.361	541.75
542.575	539.75
542.789	546.75
543.002	514.75
543.216	553.75
543.43	556.75
543.644	535.75
543.857	547.75
544.071	554.75
544.285	572.75
544.498	555.75
544.712	559.75
544.925	545.75
545.139	535.75
545.352	535.75
545.566	536.75
545.779	555.75
545.993	540.75
546.206	535.75
546.42	526.75
546.633	549.75
546.847	517.75
547.06	522.75
547.274	522.75
547.487	530.75
547.7	532.75
547.914	492.75
548.127	538.75
548.34	544.75
548.554	512.75
548.767	549.75
548.98	534.75
549.193	516.75
549.407	516.75
549.62	511.75
549.833	532.75
550.046	544.75
550.259	529.75
550.473	532.75
550.686	548.75
550.899	522.75
551.112	524.75
551.325	516.75
551.538	510.75
551.751	541.75
551.964	531.75
552.177	543.75
552.39	524.75
552.603	519.75
552.816	537.75
553.029	523.75
553.242	533.75
553.455	536.75
553.667	531.75
553.88	535.75
554.093	543.75
554.306	533.75
554.519	510.75
554.732	499.75
554.944	517.75
555.157	524.75
555.37	520.75
555.583	482.75
555.795	500.75
556.008	493.75
556.221	504.75
556.433	496.75
556.646	482.75
556.859	479.75
557.071	477.75
557.284	490.75
557.496	469.75
557.709	479.75
557.921	463.75
558.134	460.75
558.346	471.75
558.559	462.75
558.771	456.75
558.984	481.75
559.196	469.75
559.409	458.75
559.621	465.75
559.833	455.75
560.046	469.75
560.258	466.75
560.47	473.75
560.683	459.75
560.895	468.75
561.107	460.75
561.32	459.75
561.532	479.75
561.744	469.75
561.956	458.75
562.168	471.75
562.381	442.75
562.593	480.75
562.805	472.75
563.017	469.75
563.229	456.75
563.441	462.75
563.653	484.75
563.865	472.75
564.077	480.75
564.289	472.75
564.501	492.75
564.713	495.75
564.925	513.75
565.137	480.75
565.349	520.75
565.561	490.75
565.773	502.75
565.985	528.75
566.197	519.75
566.408	543.75
566.62	566.75
566.832	563.75
567.044	599.75
567.255	600.75
567.467	600.75
567.679	576.75
567.891	605.75
568.102	604.75
568.314	587.75
568.526	574.75
568.737	545.75
568.949	543.75
569.161	544.75
569.372	498.75
569.584	510.75
569.795	507.75
570.007	483.75
570.218	535.75
570.43	501.75
570.641	480.75
570.853	459.75
571.064	449.75
571.276	443.75
571.487	447.75
571.698	443.75
571.91	465.75
572.121	424.75
572.333	413.75
572.544	423.75
572.755	424.75
572.966	424.75
573.178	390.75
573.389	414.75
573.6	421.75
573.811	427.75
574.023	433.75
574.234	418.75
574.445	409.75
574.656	399.75
574.867	401.75
575.078	396.75
575.289	379.75
575.501	380.75
575.712	397.75
575.923	385.75
576.134	404.75
576.345	387.75
576.556	395.75
576.767	403.75
576.978	393.75
577.188	367.75
577.399	385.75
577.61	393.75
577.821	394.75
578.032	392.75
578.243	447.75
578.454	650.75
578.665	499.75
578.875	390.75
579.086	387.75
579.297	378.75
579.508	381.75
579.718	391.75
579.929	385.75
580.14	380.75
580.35	389.75
580.561	376.75
580.772	364.75
580.982	367.75
581.193	359.75
581.403	362.75
581.614	361.75
581.825	375.75
582.035	343.75
582.246	360.75
582.456	366.75
582.667	362.75
582.877	377.75
583.087	388.75
583.298	367.75
583.508	353.75
583.719	367.75
583.929	369.75
584.139	360.75
584.35	354.75
584.56	363.75
584.77	346.75
584.981	355.75
585.191	345.75
585.401	360.75
585.611	364.75
585.821	357.75
586.032	346.75
586.242	341.75
586.452	353.75
586.662	350.75
586.872	357.75
587.082	337.75
587.292	341.75
587.502	321.75
587.713	357.75
587.923	359.75
588.133	348.75
588.343	372.75
588.553	354.75
588.762	343.75
588.972	341.75
589.182	355.75
589.392	352.75
589.602	336.75
589.812	359.75
590.022	355.75
590.232	336.75
590.441	347.75
590.651	327.75
590.861	338.75
591.071	353.75
591.281	340.75
591.49	351.75
591.7	357.75
591.91	358.75
592.119	367.75
592.329	354.75
592.539	367.75
592.748	352.75
592.958	369.75
593.167	364.75
593.377	391.75
593.587	371.75
593.796	370.75
594.006	374.75
594.215	368.75
594.424	360.75
594.634	351.75
594.843	367.75
595.053	351.75
595.262	345.75
595.472	347.75
595.681	357.75
595.89	354.75
596.1	327.75
596.309	339.75
596.518	328.75
596.727	333.75
596.937	315.75
597.146	343.75
597.355	323.75
597.564	317.75
597.774	333.75
597.983	328.75
598.192	324.75
598.401	330.75
598.61	316.75
598.819	314.75
599.028	309.75
599.237	321.75
599.446	312.75
599.655	305.75
599.864	315.75
600.073	296.75
600.282	301.75
600.491	309.75
600.7	289.75
600.909	275.75
601.118	303.75
601.327	289.75
601.536	296.75
601.745	286.75
601.953	295.75
602.162	291.75
602.371	292.75
602.58	297.75
602.789	311.75
602.997	284.75
603.206	292.75
603.415	286.75
603.623	305.75
603.832	293.75
604.041	299.75
604.249	287.75
604.458	265.75
604.666	277.75
604.875	275.75
605.084	290.75
605.292	292.75
605.501	289.75
605.709	282.75
605.918	273.75
606.126	279.75
606.334	297.75
606.543	289.75
606.751	280.75
606.96	282.75
607.168	285.75
607.376	296.75
607.585	277.75
607.793	272.75
608.001	279.75
608.21	291.75
608.418	277.75
608.626	285.75
608.834	282.75
609.043	271.75
609.251	282.75
609.459	274.75
609.667	271.75
609.875	263.75
610.083	271.75
610.291	275.75
610.499	269.75
610.707	283.75
610.916	274.75
611.124	278.75
611.332	282.75
611.54	278.75
611.748	292.75
611.955	265.75
612.163	285.75
612.371	289.75
612.579	268.75
612.787	263.75
612.995	264.75
613.203	282.75
613.411	267.75
613.618	281.75
613.826	276.75
614.034	255.75
614.242	280.75
614.449	265.75
614.657	286.75
614.865	269.75
615.072	273.75
615.28	279.75
615.488	260.75
615.695	249.75
615.903	262.75
616.111	255.75
616.318	269.75
616.526	260.75
616.733	273.75
616.941	274.75
617.148	277.75
617.356	257.75
617.563	267.75
617.771	262.75
617.978	268.75
618.185	258.75
618.393	265.75
618.6	275.75
618.807	269.75
619.015	263.75
619.222	268.75
619.429	263.75
619.637	268.75
619.844	280.75
620.051	258.75
620.258	253.75
620.466	232.75
620.673	255.75
620.88	242.75
621.087	256.75
621.294	264.75
621.501	247.75
621.708	252.75
621.915	261.75
622.122	246.75
622.329	234.75
622.536	243.75
622.743	249.75
622.95	259.75
623.157	254.75
623.364	256.75
623.571	245.75
623.778	267.75
623.985	256.75
624.192	245.75
624.399	232.75
624.606	253.75
624.812	244.75
625.019	237.75
625.226	243.75
625.433	244.75
625.639	241.75
625.846	220.75
626.053	217.75
626.259	239.75
626.466	239.75
626.673	232.75
626.879	226.75
627.086	221.75
627.293	233.75
627.499	217.75
627.706	228.75
627.912	231.75
628.119	224.75
628.325	216.75
628.532	217.75
628.738	227.75
628.945	245.75
629.151	238.75
629.357	206.75
629.564	217.75
629.77	232.75
629.976	227.75
630.183	204.75
630.389	219.75
630.595	206.75
630.802	223.75
631.008	223.75
631.214	223.75
631.42	218.75
631.627	221.75
631.833	230.75
632.039	226.75
632.245	212.75
632.451	207.75
632.657	210.75
632.863	211.75
633.069	212.75
633.275	214.75
633.481	230.75
633.688	201.75
633.893	219.75
634.099	215.75
634.305	218.75
634.511	201.75
634.717	198.75
634.923	189.75
635.129	199.75
635.335	201.75
635.541	204.75
635.747	195.75
635.952	204.75
636.158	196.75
636.364	197.75
636.57	202.75
636.775	212.75
636.981	206.75
637.187	194.75
637.392	201.75
637.598	210.75
637.804	195.75
638.009	197.75
638.215	207.75
638.421	205.75
638.626	197.75
638.832	186.75
639.037	205.75
639.243	207.75
639.448	186.75
639.654	205.75
639.859	189.75
640.065	196.75
640.27	184.75
640.475	183.75
640.681	176.75
640.886	223.75
641.091	207.75
641.297	197.75
641.502	184.75
641.707	194.75
641.913	181.75
642.118	191.75
642.323	179.75
642.528	192.75
642.733	187.75
642.939	180.75
643.144	189.75
643.349	197.75
643.554	202.75
643.759	192.75
643.964	179.75
644.169	170.75
644.374	184.75
644.579	197.75
644.784	185.75
644.989	193.75
645.194	160.75
645.399	186.75
645.604	181.75
645.809	190.75
646.014	167.75
646.219	181.75
646.423	181.75
646.628	185.75
646.833	180.75
647.038	201.75
647.243	183.75
647.447	199.75
647.652	178.75
647.857	191.75
648.062	179.75
648.266	183.75
648.471	193.75
648.676	188.75
648.88	191.75
649.085	190.75
649.289	181.75
649.494	192.75
649.698	214.75
649.903	215.75
650.107	188.75
650.312	193.75
650.516	175.75
650.721	161.75
650.925	165.75
651.13	164.75
651.334	165.75
651.539	183.75
651.743	168.75
651.947	152.75
652.152	158.75
652.356	169.75
652.56	164.75
652.764	156.75
652.969	155.75
653.173	145.75
653.377	148.75
653.581	152.75
653.785	159.75
653.99	148.75
654.194	148.75
654.398	137.75
654.602	135.75
654.806	123.75
655.01	147.75
655.214	149.75
655.418	141.75
655.622	137.75
655.826	148.75
656.03	143.75
656.234	141.75
656.438	144.75
656.642	160.75
656.846	152.75
657.049	138.75
657.253	133.75
657.457	123.75
657.661	115.75
657.865	121.75
658.068	125.75
658.272	111.75
658.476	102.75
658.68	112.75
658.883	113.75
659.087	108.75
659.291	111.75
659.494	108.75
659.698	108.75
659.901	94.75
660.105	86.75
660.309	90.75
660.512	104.75
660.716	100.75
660.919	113.75
661.123	109.75
661.326	99.75
661.53	78.75
661.733	89.75
661.936	81.75
662.14	83.75
662.343	84.75
662.546	90.75
662.75	86.75
662.953	85.75
663.156	91.75
663.36	104.75
663.563	74.75
663.766	68.75
663.969	84.75
664.173	81.75
664.376	100.75
664.579	86.75
664.782	82.75
664.985	79.75
665.188	74.75
665.391	92.75
665.594	81.75
665.797	84.75
666	82.75
666.203	85.75
666.406	80.75
666.609	66.75
666.812	86.75
667.015	77.75
667.218	87.75
667.421	77.75
667.624	77.75
667.827	90.75
668.03	79.75
668.232	88.75
668.435	83.75
668.638	90.75
668.841	85.75
669.043	76.75
669.246	74.75
669.449	68.75
669.651	88.75
669.854	73.75
670.057	92.75
670.259	75.75
670.462	83.75
670.665	89.75
670.867	83.75
671.07	85.75
671.272	84.75
671.475	77.75
671.677	87.75
671.88	85.75
672.082	78.75
672.284	76.75
672.487	76.75
672.689	84.75
672.892	84.75
