Data from 1988.PennyLincolnUp.Lamp.En5.5.200Scan.071819.P2_HRD10591_17-21-35-972.txt Node
Date: Thu Jul 18 17:21:35 EDT 2019
User: cochatt
Spectrometer: HR+D1059
Trigger mode: 1
Integration Time (sec): 1.000000E-1
Scans to average: 1
Electric dark correction enabled: true
Nonlinearity correction enabled: false
Boxcar width: 0
XAxis mode: Wavelengths
Number of Pixels in Spectrum: 2048
>>>>>Begin Spectral Data<<<<<
223.165	-16.31
223.4	-16.31
223.635	-16.31
223.869	-21.31
224.104	-18.31
224.338	-9.31
224.573	-21.31
224.808	-10.31
225.042	2.69
225.277	-3.31
225.511	-5.31
225.746	-2.31
225.98	6.69
226.215	2.69
226.449	12.69
226.683	26.69
226.918	25.69
227.152	30.69
227.387	32.69
227.621	36.69
227.856	43.69
228.09	51.69
228.324	58.69
228.559	49.69
228.793	82.69
229.027	96.69
229.262	111.69
229.496	114.69
229.73	118.69
229.964	168.69
230.199	161.69
230.433	123.69
230.667	118.69
230.901	108.69
231.136	108.69
231.37	129.69
231.604	120.69
231.838	114.69
232.072	137.69
232.306	113.69
232.541	112.69
232.775	112.69
233.009	121.69
233.243	124.69
233.477	114.69
233.711	134.69
233.945	113.69
234.179	122.69
234.413	123.69
234.647	123.69
234.881	128.69
235.115	113.69
235.349	129.69
235.583	119.69
235.817	128.69
236.051	137.69
236.285	136.69
236.519	125.69
236.753	141.69
236.987	158.69
237.221	197.69
237.455	274.69
237.689	212.69
237.922	148.69
238.156	138.69
238.39	135.69
238.624	152.69
238.858	122.69
239.091	126.69
239.325	130.69
239.559	146.69
239.793	132.69
240.027	143.69
240.26	153.69
240.494	167.69
240.728	146.69
240.961	151.69
241.195	148.69
241.429	144.69
241.662	127.69
241.896	146.69
242.13	140.69
242.363	144.69
242.597	148.69
242.83	144.69
243.064	163.69
243.298	144.69
243.531	140.69
243.765	135.69
243.998	160.69
244.232	153.69
244.465	160.69
244.699	146.69
244.932	146.69
245.166	148.69
245.399	159.69
245.633	170.69
245.866	153.69
246.099	150.69
246.333	160.69
246.566	169.69
246.8	158.69
247.033	174.69
247.266	183.69
247.5	183.69
247.733	182.69
247.966	182.69
248.2	180.69
248.433	202.69
248.666	180.69
248.899	208.69
249.133	222.69
249.366	226.69
249.599	215.69
249.832	196.69
250.066	207.69
250.299	210.69
250.532	213.69
250.765	208.69
250.998	230.69
251.231	246.69
251.465	239.69
251.698	222.69
251.931	219.69
252.164	215.69
252.397	194.69
252.63	222.69
252.863	235.69
253.096	231.69
253.329	246.69
253.562	240.69
253.795	235.69
254.028	226.69
254.261	239.69
254.494	250.69
254.727	273.69
254.96	306.69
255.193	298.69
255.426	268.69
255.659	240.69
255.892	260.69
256.124	235.69
256.357	241.69
256.59	224.69
256.823	228.69
257.056	230.69
257.289	211.69
257.521	216.69
257.754	252.69
257.987	229.69
258.22	229.69
258.452	227.69
258.685	219.69
258.918	217.69
259.151	249.69
259.383	232.69
259.616	249.69
259.849	249.69
260.081	238.69
260.314	257.69
260.547	272.69
260.779	259.69
261.012	259.69
261.244	259.69
261.477	250.69
261.71	229.69
261.942	238.69
262.175	263.69
262.407	255.69
262.64	240.69
262.872	231.69
263.105	241.69
263.337	225.69
263.57	224.69
263.802	218.69
264.035	215.69
264.267	234.69
264.499	227.69
264.732	221.69
264.964	231.69
265.197	231.69
265.429	240.69
265.661	235.69
265.894	242.69
266.126	244.69
266.358	225.69
266.591	250.69
266.823	247.69
267.055	251.69
267.287	252.69
267.52	241.69
267.752	233.69
267.984	260.69
268.216	253.69
268.448	260.69
268.681	263.69
268.913	268.69
269.145	294.69
269.377	306.69
269.609	302.69
269.841	295.69
270.073	317.69
270.306	320.69
270.538	348.69
270.77	347.69
271.002	330.69
271.234	318.69
271.466	345.69
271.698	332.69
271.93	337.69
272.162	331.69
272.394	324.69
272.626	338.69
272.858	334.69
273.09	308.69
273.322	292.69
273.553	292.69
273.785	294.69
274.017	266.69
274.249	296.69
274.481	291.69
274.713	267.69
274.945	286.69
275.176	291.69
275.408	270.69
275.64	297.69
275.872	299.69
276.104	312.69
276.335	290.69
276.567	298.69
276.799	311.69
277.031	331.69
277.262	343.69
277.494	376.69
277.726	339.69
277.957	316.69
278.189	297.69
278.421	281.69
278.652	303.69
278.884	284.69
279.115	308.69
279.347	279.69
279.579	289.69
279.81	291.69
280.042	293.69
280.273	305.69
280.505	302.69
280.736	284.69
280.968	294.69
281.199	305.69
281.431	306.69
281.662	297.69
281.894	294.69
282.125	296.69
282.356	314.69
282.588	330.69
282.819	337.69
283.051	314.69
283.282	295.69
283.513	284.69
283.745	297.69
283.976	311.69
284.207	297.69
284.439	310.69
284.67	321.69
284.901	329.69
285.132	326.69
285.364	298.69
285.595	319.69
285.826	294.69
286.057	312.69
286.288	305.69
286.52	286.69
286.751	306.69
286.982	322.69
287.213	324.69
287.444	309.69
287.675	314.69
287.906	335.69
288.138	331.69
288.369	342.69
288.6	326.69
288.831	321.69
289.062	326.69
289.293	320.69
289.524	328.69
289.755	313.69
289.986	320.69
290.217	316.69
290.448	314.69
290.679	303.69
290.91	320.69
291.141	333.69
291.371	334.69
291.602	310.69
291.833	303.69
292.064	312.69
292.295	323.69
292.526	328.69
292.757	315.69
292.987	318.69
293.218	326.69
293.449	324.69
293.68	328.69
293.91	308.69
294.141	340.69
294.372	315.69
294.603	323.69
294.833	330.69
295.064	318.69
295.295	327.69
295.525	330.69
295.756	320.69
295.987	330.69
296.217	352.69
296.448	366.69
296.679	340.69
296.909	336.69
297.14	325.69
297.37	329.69
297.601	351.69
297.831	325.69
298.062	329.69
298.292	319.69
298.523	344.69
298.753	354.69
298.984	338.69
299.214	348.69
299.445	344.69
299.675	342.69
299.905	332.69
300.136	340.69
300.366	345.69
300.597	349.69
300.827	346.69
301.057	360.69
301.288	379.69
301.518	371.69
301.748	352.69
301.979	359.69
302.209	357.69
302.439	373.69
302.669	374.69
302.9	373.69
303.13	376.69
303.36	347.69
303.59	357.69
303.82	375.69
304.051	378.69
304.281	358.69
304.511	375.69
304.741	374.69
304.971	371.69
305.201	386.69
305.431	371.69
305.661	364.69
305.891	356.69
306.121	366.69
306.352	361.69
306.582	359.69
306.812	357.69
307.042	367.69
307.272	360.69
307.502	386.69
307.731	376.69
307.961	373.69
308.191	400.69
308.421	368.69
308.651	373.69
308.881	374.69
309.111	375.69
309.341	389.69
309.571	404.69
309.8	417.69
310.03	391.69
310.26	420.69
310.49	424.69
310.72	432.69
310.949	440.69
311.179	423.69
311.409	417.69
311.639	441.69
311.868	455.69
312.098	435.69
312.328	427.69
312.557	456.69
312.787	470.69
313.017	464.69
313.246	422.69
313.476	435.69
313.706	418.69
313.935	414.69
314.165	442.69
314.394	459.69
314.624	470.69
314.853	446.69
315.083	432.69
315.312	439.69
315.542	427.69
315.771	426.69
316.001	403.69
316.23	439.69
316.46	421.69
316.689	434.69
316.919	446.69
317.148	449.69
317.377	435.69
317.607	420.69
317.836	443.69
318.065	414.69
318.295	442.69
318.524	432.69
318.753	425.69
318.983	442.69
319.212	432.69
319.441	436.69
319.67	431.69
319.9	426.69
320.129	434.69
320.358	451.69
320.587	434.69
320.816	459.69
321.046	447.69
321.275	474.69
321.504	456.69
321.733	451.69
321.962	459.69
322.191	467.69
322.42	480.69
322.649	483.69
322.878	520.69
323.108	529.69
323.337	555.69
323.566	584.69
323.795	609.69
324.024	678.69
324.253	787.69
324.482	1163.69
324.71	1811.69
324.939	2682.69
325.168	2306.69
325.397	1160.69
325.626	795.69
325.855	673.69
326.084	581.69
326.313	552.69
326.542	588.69
326.77	608.69
326.999	754.69
327.228	1018.69
327.457	1591.69
327.686	2024.69
327.914	1344.69
328.143	840.69
328.372	724.69
328.6	676.69
328.829	635.69
329.058	655.69
329.287	676.69
329.515	608.69
329.744	573.69
329.972	574.69
330.201	612.69
330.43	634.69
330.658	645.69
330.887	709.69
331.115	662.69
331.344	594.69
331.572	564.69
331.801	553.69
332.03	566.69
332.258	545.69
332.486	523.69
332.715	533.69
332.943	516.69
333.172	526.69
333.4	501.69
333.629	534.69
333.857	549.69
334.085	554.69
334.314	562.69
334.542	568.69
334.771	583.69
334.999	544.69
335.227	548.69
335.455	535.69
335.684	507.69
335.912	520.69
336.14	488.69
336.369	511.69
336.597	517.69
336.825	540.69
337.053	507.69
337.281	509.69
337.51	506.69
337.738	498.69
337.966	500.69
338.194	517.69
338.422	515.69
338.65	494.69
338.878	501.69
339.106	498.69
339.334	499.69
339.562	482.69
339.79	512.69
340.018	501.69
340.246	490.69
340.474	520.69
340.702	518.69
340.93	516.69
341.158	509.69
341.386	482.69
341.614	495.69
341.842	496.69
342.07	510.69
342.298	490.69
342.526	498.69
342.754	480.69
342.981	471.69
343.209	463.69
343.437	469.69
343.665	506.69
343.893	483.69
344.12	508.69
344.348	520.69
344.576	508.69
344.804	519.69
345.031	526.69
345.259	510.69
345.487	528.69
345.714	517.69
345.942	459.69
346.17	487.69
346.397	492.69
346.625	483.69
346.853	492.69
347.08	479.69
347.308	488.69
347.535	515.69
347.763	503.69
347.99	481.69
348.218	489.69
348.445	487.69
348.673	512.69
348.9	479.69
349.128	467.69
349.355	457.69
349.583	481.69
349.81	454.69
350.037	494.69
350.265	474.69
350.492	472.69
350.72	482.69
350.947	459.69
351.174	507.69
351.402	481.69
351.629	480.69
351.856	486.69
352.083	483.69
352.311	491.69
352.538	497.69
352.765	490.69
352.992	487.69
353.22	486.69
353.447	464.69
353.674	474.69
353.901	469.69
354.128	441.69
354.355	448.69
354.583	464.69
354.81	456.69
355.037	461.69
355.264	459.69
355.491	436.69
355.718	447.69
355.945	434.69
356.172	445.69
356.399	441.69
356.626	446.69
356.853	432.69
357.08	451.69
357.307	443.69
357.534	456.69
357.761	449.69
357.988	460.69
358.215	455.69
358.441	434.69
358.668	430.69
358.895	464.69
359.122	487.69
359.349	468.69
359.576	467.69
359.802	491.69
360.029	521.69
360.256	545.69
360.483	531.69
360.709	496.69
360.936	469.69
361.163	479.69
361.39	502.69
361.616	482.69
361.843	473.69
362.07	470.69
362.296	473.69
362.523	489.69
362.749	479.69
362.976	486.69
363.203	467.69
363.429	472.69
363.656	448.69
363.882	462.69
364.109	467.69
364.335	457.69
364.562	466.69
364.788	478.69
365.015	475.69
365.241	476.69
365.468	457.69
365.694	495.69
365.92	472.69
366.147	477.69
366.373	474.69
366.599	461.69
366.826	462.69
367.052	451.69
367.278	456.69
367.505	454.69
367.731	470.69
367.957	477.69
368.184	465.69
368.41	477.69
368.636	489.69
368.862	476.69
369.089	463.69
369.315	472.69
369.541	460.69
369.767	466.69
369.993	464.69
370.219	456.69
370.445	465.69
370.672	472.69
370.898	466.69
371.124	473.69
371.35	464.69
371.576	466.69
371.802	456.69
372.028	464.69
372.254	475.69
372.48	487.69
372.706	480.69
372.932	462.69
373.158	459.69
373.384	471.69
373.61	464.69
373.835	492.69
374.061	476.69
374.287	470.69
374.513	472.69
374.739	498.69
374.965	505.69
375.191	467.69
375.416	487.69
375.642	496.69
375.868	494.69
376.094	477.69
376.319	461.69
376.545	468.69
376.771	469.69
376.997	454.69
377.222	462.69
377.448	446.69
377.674	478.69
377.899	460.69
378.125	483.69
378.35	469.69
378.576	449.69
378.802	480.69
379.027	466.69
379.253	464.69
379.478	449.69
379.704	467.69
379.929	468.69
380.155	480.69
380.38	440.69
380.606	462.69
380.831	455.69
381.057	491.69
381.282	471.69
381.507	475.69
381.733	470.69
381.958	461.69
382.184	465.69
382.409	466.69
382.634	498.69
382.86	466.69
383.085	475.69
383.31	477.69
383.535	490.69
383.761	464.69
383.986	464.69
384.211	488.69
384.436	522.69
384.662	506.69
384.887	490.69
385.112	509.69
385.337	496.69
385.562	528.69
385.787	515.69
386.013	548.69
386.238	534.69
386.463	492.69
386.688	542.69
386.913	530.69
387.138	533.69
387.363	515.69
387.588	524.69
387.813	508.69
388.038	516.69
388.263	516.69
388.488	535.69
388.713	503.69
388.938	500.69
389.163	537.69
389.387	532.69
389.612	525.69
389.837	546.69
390.062	510.69
390.287	527.69
390.512	509.69
390.736	520.69
390.961	507.69
391.186	520.69
391.411	534.69
391.636	523.69
391.86	530.69
392.085	539.69
392.31	539.69
392.534	549.69
392.759	540.69
392.984	525.69
393.208	534.69
393.433	510.69
393.658	530.69
393.882	505.69
394.107	530.69
394.331	528.69
394.556	514.69
394.78	531.69
395.005	528.69
395.229	554.69
395.454	532.69
395.678	552.69
395.903	561.69
396.127	574.69
396.352	563.69
396.576	571.69
396.801	532.69
397.025	542.69
397.249	544.69
397.474	550.69
397.698	564.69
397.922	578.69
398.147	597.69
398.371	592.69
398.595	588.69
398.82	604.69
399.044	613.69
399.268	620.69
399.492	637.69
399.717	677.69
399.941	752.69
400.165	747.69
400.389	786.69
400.613	700.69
400.837	628.69
401.062	638.69
401.286	604.69
401.51	602.69
401.734	601.69
401.958	598.69
402.182	629.69
402.406	612.69
402.63	616.69
402.854	602.69
403.078	615.69
403.302	629.69
403.526	650.69
403.75	624.69
403.974	633.69
404.198	640.69
404.422	613.69
404.645	636.69
404.869	625.69
405.093	682.69
405.317	699.69
405.541	748.69
405.765	687.69
405.988	672.69
406.212	677.69
406.436	684.69
406.66	711.69
406.883	683.69
407.107	688.69
407.331	766.69
407.555	838.69
407.778	831.69
408.002	775.69
408.226	736.69
408.449	690.69
408.673	692.69
408.896	714.69
409.12	795.69
409.344	748.69
409.567	670.69
409.791	653.69
410.014	639.69
410.238	647.69
410.461	626.69
410.685	647.69
410.908	653.69
411.132	693.69
411.355	750.69
411.578	693.69
411.802	660.69
412.025	633.69
412.249	623.69
412.472	629.69
412.695	665.69
412.919	657.69
413.142	627.69
413.365	628.69
413.589	625.69
413.812	595.69
414.035	609.69
414.258	587.69
414.482	570.69
414.705	602.69
414.928	602.69
415.151	595.69
415.374	597.69
415.597	582.69
415.821	587.69
416.044	594.69
416.267	598.69
416.49	600.69
416.713	608.69
416.936	563.69
417.159	592.69
417.382	612.69
417.605	582.69
417.828	626.69
418.051	619.69
418.274	608.69
418.497	607.69
418.72	596.69
418.943	601.69
419.166	630.69
419.389	620.69
419.611	624.69
419.834	618.69
420.057	640.69
420.28	646.69
420.503	614.69
420.726	622.69
420.948	640.69
421.171	674.69
421.394	737.69
421.617	644.69
421.839	618.69
422.062	629.69
422.285	646.69
422.507	734.69
422.73	806.69
422.953	778.69
423.175	706.69
423.398	651.69
423.621	642.69
423.843	674.69
424.066	679.69
424.288	662.69
424.511	699.69
424.733	756.69
424.956	857.69
425.178	835.69
425.401	784.69
425.623	843.69
425.846	742.69
426.068	659.69
426.291	674.69
426.513	663.69
426.735	692.69
426.958	719.69
427.18	835.69
427.402	1011.69
427.625	1139.69
427.847	948.69
428.069	776.69
428.292	738.69
428.514	676.69
428.736	651.69
428.958	649.69
429.181	613.69
429.403	612.69
429.625	640.69
429.847	635.69
430.069	746.69
430.292	766.69
430.514	652.69
430.736	620.69
430.958	633.69
431.18	598.69
431.402	610.69
431.624	591.69
431.846	565.69
432.068	583.69
432.29	583.69
432.512	591.69
432.734	612.69
432.956	593.69
433.178	606.69
433.4	632.69
433.622	612.69
433.844	586.69
434.066	579.69
434.287	586.69
434.509	574.69
434.731	569.69
434.953	624.69
435.175	635.69
435.397	658.69
435.618	666.69
435.84	726.69
436.062	834.69
436.284	915.69
436.505	770.69
436.727	695.69
436.949	640.69
437.17	658.69
437.392	626.69
437.614	649.69
437.835	690.69
438.057	802.69
438.278	918.69
438.5	914.69
438.721	1028.69
438.943	975.69
439.165	770.69
439.386	706.69
439.608	702.69
439.829	683.69
440.05	724.69
440.272	791.69
440.493	728.69
440.715	667.69
440.936	634.69
441.158	618.69
441.379	619.69
441.6	637.69
441.822	660.69
442.043	704.69
442.264	838.69
442.486	906.69
442.707	732.69
442.928	713.69
443.149	687.69
443.371	720.69
443.592	747.69
443.813	896.69
444.034	969.69
444.255	795.69
444.476	719.69
444.698	708.69
444.919	655.69
445.14	781.69
445.361	731.69
445.582	727.69
445.803	798.69
446.024	938.69
446.245	948.69
446.466	837.69
446.687	709.69
446.908	668.69
447.129	647.69
447.35	626.69
447.571	620.69
447.792	624.69
448.013	598.69
448.234	635.69
448.455	732.69
448.675	870.69
448.896	967.69
449.117	848.69
449.338	795.69
449.559	934.69
449.779	1029.69
450	851.69
450.221	695.69
450.442	650.69
450.662	650.69
450.883	633.69
451.104	639.69
451.324	622.69
451.545	550.69
451.766	563.69
451.986	568.69
452.207	530.69
452.428	576.69
452.648	558.69
452.869	567.69
453.089	539.69
453.31	570.69
453.53	560.69
453.751	555.69
453.971	552.69
454.192	577.69
454.412	568.69
454.633	545.69
454.853	544.69
455.073	579.69
455.294	584.69
455.514	672.69
455.734	665.69
455.955	572.69
456.175	536.69
456.395	550.69
456.616	536.69
456.836	512.69
457.056	519.69
457.276	533.69
457.497	512.69
457.717	538.69
457.937	534.69
458.157	560.69
458.377	546.69
458.598	570.69
458.818	649.69
459.038	739.69
459.258	778.69
459.478	660.69
459.698	608.69
459.918	599.69
460.138	602.69
460.358	593.69
460.578	597.69
460.798	608.69
461.018	615.69
461.238	635.69
461.458	584.69
461.678	581.69
461.898	608.69
462.118	603.69
462.338	622.69
462.558	634.69
462.777	619.69
462.997	648.69
463.217	644.69
463.437	660.69
463.657	651.69
463.876	667.69
464.096	667.69
464.316	613.69
464.536	647.69
464.755	644.69
464.975	649.69
465.195	682.69
465.414	783.69
465.634	693.69
465.854	647.69
466.073	622.69
466.293	589.69
466.512	594.69
466.732	555.69
466.951	561.69
467.171	560.69
467.391	582.69
467.61	596.69
467.829	604.69
468.049	585.69
468.268	572.69
468.488	561.69
468.707	551.69
468.927	577.69
469.146	554.69
469.365	563.69
469.585	560.69
469.804	577.69
470.023	606.69
470.243	580.69
470.462	564.69
470.681	614.69
470.901	608.69
471.12	570.69
471.339	594.69
471.558	569.69
471.777	569.69
471.997	570.69
472.216	570.69
472.435	570.69
472.654	570.69
472.873	569.69
473.092	585.69
473.311	559.69
473.53	591.69
473.749	575.69
473.968	650.69
474.187	754.69
474.406	812.69
474.625	656.69
474.844	620.69
475.063	585.69
475.282	586.69
475.501	560.69
475.72	588.69
475.939	588.69
476.158	585.69
476.377	609.69
476.596	605.69
476.814	642.69
477.033	636.69
477.252	626.69
477.471	612.69
477.69	634.69
477.908	638.69
478.127	629.69
478.346	642.69
478.564	643.69
478.783	646.69
479.002	652.69
479.22	671.69
479.439	657.69
479.658	700.69
479.876	690.69
480.095	704.69
480.313	740.69
480.532	721.69
480.751	689.69
480.969	731.69
481.188	742.69
481.406	791.69
481.624	719.69
481.843	686.69
482.061	688.69
482.28	698.69
482.498	713.69
482.717	689.69
482.935	682.69
483.153	671.69
483.372	687.69
483.59	650.69
483.808	671.69
484.027	674.69
484.245	687.69
484.463	681.69
484.681	680.69
484.9	716.69
485.118	683.69
485.336	702.69
485.554	727.69
485.772	735.69
485.99	726.69
486.209	712.69
486.427	728.69
486.645	708.69
486.863	746.69
487.081	738.69
487.299	728.69
487.517	754.69
487.735	762.69
487.953	755.69
488.171	726.69
488.389	720.69
488.607	730.69
488.825	720.69
489.043	760.69
489.261	755.69
489.479	765.69
489.696	729.69
489.914	776.69
490.132	750.69
490.35	796.69
490.568	774.69
490.786	771.69
491.003	798.69
491.221	819.69
491.439	818.69
491.657	823.69
491.874	835.69
492.092	810.69
492.31	838.69
492.527	846.69
492.745	836.69
492.963	848.69
493.18	872.69
493.398	874.69
493.615	845.69
493.833	865.69
494.05	881.69
494.268	882.69
494.485	861.69
494.703	900.69
494.92	857.69
495.138	832.69
495.355	875.69
495.573	916.69
495.79	880.69
496.008	882.69
496.225	876.69
496.442	899.69
496.66	882.69
496.877	900.69
497.094	896.69
497.312	905.69
497.529	915.69
497.746	931.69
497.963	935.69
498.181	994.69
498.398	980.69
498.615	1007.69
498.832	998.69
499.049	1008.69
499.267	1066.69
499.484	1088.69
499.701	1100.69
499.918	1166.69
500.135	1163.69
500.352	1256.69
500.569	1274.69
500.786	1309.69
501.003	1252.69
501.22	1222.69
501.437	1205.69
501.654	1136.69
501.871	1160.69
502.088	1101.69
502.305	1066.69
502.522	1058.69
502.739	1009.69
502.956	953.69
503.172	938.69
503.389	931.69
503.606	945.69
503.823	927.69
504.04	903.69
504.256	912.69
504.473	898.69
504.69	901.69
504.907	884.69
505.123	899.69
505.34	888.69
505.557	852.69
505.773	869.69
505.99	882.69
506.207	840.69
506.423	859.69
506.64	860.69
506.856	852.69
507.073	822.69
507.289	826.69
507.506	803.69
507.722	827.69
507.939	853.69
508.155	806.69
508.372	803.69
508.588	786.69
508.805	778.69
509.021	775.69
509.238	786.69
509.454	821.69
509.67	810.69
509.887	827.69
510.103	802.69
510.319	794.69
510.536	926.69
510.752	1409.69
510.968	1213.69
511.184	826.69
511.401	782.69
511.617	785.69
511.833	763.69
512.049	746.69
512.265	769.69
512.481	768.69
512.698	782.69
512.914	748.69
513.13	751.69
513.346	737.69
513.562	741.69
513.778	788.69
513.994	788.69
514.21	786.69
514.426	814.69
514.642	844.69
514.858	890.69
515.074	935.69
515.29	1068.69
515.506	1499.69
515.721	1272.69
515.937	910.69
516.153	864.69
516.369	846.69
516.585	798.69
516.801	792.69
517.016	810.69
517.232	823.69
517.448	762.69
517.664	802.69
517.879	800.69
518.095	809.69
518.311	777.69
518.527	751.69
518.742	778.69
518.958	772.69
519.173	730.69
519.389	771.69
519.605	806.69
519.82	784.69
520.036	796.69
520.251	808.69
520.467	819.69
520.682	817.69
520.898	821.69
521.113	867.69
521.329	926.69
521.544	998.69
521.76	1267.69
521.975	1908.69
522.19	1930.69
522.406	1094.69
522.621	847.69
522.836	795.69
523.052	735.69
523.267	732.69
523.482	722.69
523.698	691.69
523.913	714.69
524.128	705.69
524.343	690.69
524.559	673.69
524.774	637.69
524.989	633.69
525.204	653.69
525.419	691.69
525.634	644.69
525.849	658.69
526.064	659.69
526.28	627.69
526.495	603.69
526.71	610.69
526.925	624.69
527.14	605.69
527.355	624.69
527.57	615.69
527.785	638.69
527.999	605.69
528.214	622.69
528.429	613.69
528.644	613.69
528.859	615.69
529.074	640.69
529.289	669.69
529.503	750.69
529.718	750.69
529.933	657.69
530.148	638.69
530.363	630.69
530.577	620.69
530.792	606.69
531.007	605.69
531.221	608.69
531.436	611.69
531.651	601.69
531.865	585.69
532.08	596.69
532.295	596.69
532.509	598.69
532.724	595.69
532.938	622.69
533.153	592.69
533.367	605.69
533.582	567.69
533.796	582.69
534.011	579.69
534.225	574.69
534.44	591.69
534.654	603.69
534.868	587.69
535.083	591.69
535.297	549.69
535.511	585.69
535.726	594.69
535.94	598.69
536.154	594.69
536.369	593.69
536.583	560.69
536.797	558.69
537.011	567.69
537.225	569.69
537.44	558.69
537.654	584.69
537.868	546.69
538.082	544.69
538.296	578.69
538.51	560.69
538.724	581.69
538.938	565.69
539.153	558.69
539.367	593.69
539.581	589.69
539.795	586.69
540.009	547.69
540.222	541.69
540.436	549.69
540.65	585.69
540.864	580.69
541.078	597.69
541.292	594.69
541.506	571.69
541.72	563.69
541.934	564.69
542.147	561.69
542.361	572.69
542.575	527.69
542.789	552.69
543.002	543.69
543.216	554.69
543.43	534.69
543.644	567.69
543.857	544.69
544.071	571.69
544.285	556.69
544.498	555.69
544.712	554.69
544.925	551.69
545.139	544.69
545.352	553.69
545.566	531.69
545.779	558.69
545.993	549.69
546.206	546.69
546.42	538.69
546.633	539.69
546.847	542.69
547.06	520.69
547.274	550.69
547.487	548.69
547.7	527.69
547.914	523.69
548.127	536.69
548.34	551.69
548.554	548.69
548.767	542.69
548.98	531.69
549.193	532.69
549.407	524.69
549.62	521.69
549.833	510.69
550.046	531.69
550.259	536.69
550.473	526.69
550.686	514.69
550.899	530.69
551.112	523.69
551.325	521.69
551.538	529.69
551.751	534.69
551.964	537.69
552.177	530.69
552.39	531.69
552.603	537.69
552.816	562.69
553.029	544.69
553.242	550.69
553.455	554.69
553.667	566.69
553.88	558.69
554.093	532.69
554.306	550.69
554.519	540.69
554.732	542.69
554.944	538.69
555.157	531.69
555.37	520.69
555.583	515.69
555.795	520.69
556.008	497.69
556.221	483.69
556.433	480.69
556.646	478.69
556.859	486.69
557.071	484.69
557.284	479.69
557.496	481.69
557.709	482.69
557.921	463.69
558.134	472.69
558.346	475.69
558.559	474.69
558.771	475.69
558.984	480.69
559.196	473.69
559.409	471.69
559.621	473.69
559.833	473.69
560.046	473.69
560.258	478.69
560.47	482.69
560.683	452.69
560.895	466.69
561.107	476.69
561.32	465.69
561.532	474.69
561.744	468.69
561.956	481.69
562.168	467.69
562.381	469.69
562.593	476.69
562.805	486.69
563.017	484.69
563.229	482.69
563.441	483.69
563.653	500.69
563.865	486.69
564.077	486.69
564.289	481.69
564.501	508.69
564.713	506.69
564.925	526.69
565.137	520.69
565.349	494.69
565.561	506.69
565.773	528.69
565.985	530.69
566.197	555.69
566.408	559.69
566.62	536.69
566.832	588.69
567.044	582.69
567.255	594.69
567.467	576.69
567.679	610.69
567.891	590.69
568.102	593.69
568.314	583.69
568.526	581.69
568.737	562.69
568.949	545.69
569.161	528.69
569.372	527.69
569.584	482.69
569.795	505.69
570.007	506.69
570.218	527.69
570.43	518.69
570.641	463.69
570.853	474.69
571.064	455.69
571.276	450.69
571.487	457.69
571.698	434.69
571.91	454.69
572.121	437.69
572.333	451.69
572.544	445.69
572.755	436.69
572.966	448.69
573.178	418.69
573.389	407.69
573.6	427.69
573.811	428.69
574.023	418.69
574.234	409.69
574.445	424.69
574.656	400.69
574.867	400.69
575.078	423.69
575.289	422.69
575.501	405.69
575.712	394.69
575.923	406.69
576.134	410.69
576.345	387.69
576.556	400.69
576.767	413.69
576.978	389.69
577.188	408.69
577.399	386.69
577.61	387.69
577.821	423.69
578.032	411.69
578.243	431.69
578.454	675.69
578.665	506.69
578.875	420.69
579.086	382.69
579.297	402.69
579.508	375.69
579.718	376.69
579.929	376.69
580.14	377.69
580.35	366.69
580.561	402.69
580.772	364.69
580.982	364.69
581.193	353.69
581.403	364.69
581.614	364.69
581.825	368.69
582.035	347.69
582.246	370.69
582.456	370.69
582.667	367.69
582.877	357.69
583.087	359.69
583.298	368.69
583.508	358.69
583.719	349.69
583.929	380.69
584.139	361.69
584.35	352.69
584.56	353.69
584.77	352.69
584.981	358.69
585.191	372.69
585.401	366.69
585.611	354.69
585.821	348.69
586.032	363.69
586.242	341.69
586.452	366.69
586.662	357.69
586.872	341.69
587.082	338.69
587.292	375.69
587.502	351.69
587.713	352.69
587.923	360.69
588.133	357.69
588.343	356.69
588.553	344.69
588.762	370.69
588.972	351.69
589.182	346.69
589.392	363.69
589.602	354.69
589.812	347.69
590.022	339.69
590.232	346.69
590.441	352.69
590.651	361.69
590.861	348.69
591.071	346.69
591.281	350.69
591.49	350.69
591.7	371.69
591.91	374.69
592.119	370.69
592.329	347.69
592.539	370.69
592.748	362.69
592.958	359.69
593.167	382.69
593.377	368.69
593.587	384.69
593.796	366.69
594.006	359.69
594.215	362.69
594.424	352.69
594.634	366.69
594.843	363.69
595.053	360.69
595.262	351.69
595.472	361.69
595.681	357.69
595.89	350.69
596.1	332.69
596.309	354.69
596.518	340.69
596.727	351.69
596.937	337.69
597.146	338.69
597.355	315.69
597.564	308.69
597.774	310.69
597.983	316.69
598.192	316.69
598.401	310.69
598.61	312.69
598.819	313.69
599.028	308.69
599.237	322.69
599.446	328.69
599.655	315.69
599.864	332.69
600.073	318.69
600.282	312.69
600.491	306.69
600.7	307.69
600.909	300.69
601.118	313.69
601.327	301.69
601.536	291.69
601.745	310.69
601.953	292.69
602.162	293.69
602.371	307.69
602.58	312.69
602.789	301.69
602.997	296.69
603.206	301.69
603.415	291.69
603.623	308.69
603.832	294.69
604.041	296.69
604.249	295.69
604.458	291.69
604.666	288.69
604.875	302.69
605.084	286.69
605.292	290.69
605.501	275.69
605.709	284.69
605.918	279.69
606.126	291.69
606.334	273.69
606.543	292.69
606.751	283.69
606.96	283.69
607.168	285.69
607.376	290.69
607.585	284.69
607.793	290.69
608.001	272.69
608.21	287.69
608.418	277.69
608.626	279.69
608.834	281.69
609.043	284.69
609.251	294.69
609.459	291.69
609.667	284.69
609.875	276.69
610.083	273.69
610.291	279.69
610.499	299.69
610.707	283.69
610.916	298.69
611.124	294.69
611.332	294.69
611.54	306.69
611.748	302.69
611.955	279.69
612.163	276.69
612.371	267.69
612.579	265.69
612.787	290.69
612.995	256.69
613.203	291.69
613.411	275.69
613.618	283.69
613.826	271.69
614.034	278.69
614.242	283.69
614.449	262.69
614.657	273.69
614.865	275.69
615.072	278.69
615.28	274.69
615.488	272.69
615.695	278.69
615.903	266.69
616.111	268.69
616.318	287.69
616.526	286.69
616.733	280.69
616.941	279.69
617.148	281.69
617.356	249.69
617.563	267.69
617.771	267.69
617.978	262.69
618.185	276.69
618.393	260.69
618.6	286.69
618.807	261.69
619.015	267.69
619.222	260.69
619.429	252.69
619.637	258.69
619.844	289.69
620.051	247.69
620.258	258.69
620.466	262.69
620.673	248.69
620.88	243.69
621.087	265.69
621.294	259.69
621.501	240.69
621.708	256.69
621.915	268.69
622.122	256.69
622.329	262.69
622.536	257.69
622.743	261.69
622.95	254.69
623.157	250.69
623.364	258.69
623.571	250.69
623.778	219.69
623.985	245.69
624.192	260.69
624.399	252.69
624.606	251.69
624.812	231.69
625.019	241.69
625.226	245.69
625.433	233.69
625.639	233.69
625.846	224.69
626.053	241.69
626.259	236.69
626.466	233.69
626.673	253.69
626.879	232.69
627.086	238.69
627.293	234.69
627.499	232.69
627.706	224.69
627.912	223.69
628.119	227.69
628.325	225.69
628.532	220.69
628.738	225.69
628.945	235.69
629.151	232.69
629.357	221.69
629.564	229.69
629.77	215.69
629.976	223.69
630.183	216.69
630.389	232.69
630.595	223.69
630.802	213.69
631.008	226.69
631.214	222.69
631.42	224.69
631.627	227.69
631.833	227.69
632.039	220.69
632.245	217.69
632.451	207.69
632.657	228.69
632.863	214.69
633.069	213.69
633.275	213.69
633.481	202.69
633.688	210.69
633.893	203.69
634.099	213.69
634.305	218.69
634.511	227.69
634.717	210.69
634.923	191.69
635.129	198.69
635.335	215.69
635.541	195.69
635.747	230.69
635.952	189.69
636.158	196.69
636.364	210.69
636.57	211.69
636.775	209.69
636.981	212.69
637.187	194.69
637.392	206.69
637.598	199.69
637.804	183.69
638.009	209.69
638.215	189.69
638.421	210.69
638.626	212.69
638.832	200.69
639.037	186.69
639.243	196.69
639.448	194.69
639.654	190.69
639.859	214.69
640.065	212.69
640.27	203.69
640.475	196.69
640.681	181.69
640.886	201.69
641.091	204.69
641.297	204.69
641.502	195.69
641.707	200.69
641.913	203.69
642.118	194.69
642.323	185.69
642.528	200.69
642.733	177.69
642.939	178.69
643.144	193.69
643.349	199.69
643.554	186.69
643.759	193.69
643.964	177.69
644.169	180.69
644.374	183.69
644.579	184.69
644.784	192.69
644.989	205.69
645.194	182.69
645.399	196.69
645.604	177.69
645.809	182.69
646.014	194.69
646.219	181.69
646.423	184.69
646.628	183.69
646.833	176.69
647.038	176.69
647.243	191.69
647.447	176.69
647.652	182.69
647.857	183.69
648.062	186.69
648.266	174.69
648.471	183.69
648.676	179.69
648.88	167.69
649.085	188.69
649.289	188.69
649.494	204.69
649.698	206.69
649.903	204.69
650.107	187.69
650.312	184.69
650.516	179.69
650.721	166.69
650.925	177.69
651.13	175.69
651.334	185.69
651.539	177.69
651.743	154.69
651.947	154.69
652.152	163.69
652.356	152.69
652.56	160.69
652.764	176.69
652.969	166.69
653.173	146.69
653.377	151.69
653.581	133.69
653.785	138.69
653.99	146.69
654.194	143.69
654.398	151.69
654.602	148.69
654.806	148.69
655.01	168.69
655.214	154.69
655.418	158.69
655.622	144.69
655.826	156.69
656.03	134.69
656.234	152.69
656.438	145.69
656.642	134.69
656.846	148.69
657.049	126.69
657.253	124.69
657.457	125.69
657.661	138.69
657.865	132.69
658.068	130.69
658.272	116.69
658.476	93.69
658.68	103.69
658.883	112.69
659.087	103.69
659.291	105.69
659.494	83.69
659.698	81.69
659.901	78.69
660.105	104.69
660.309	104.69
660.512	92.69
660.716	91.69
660.919	84.69
661.123	98.69
661.326	99.69
661.53	94.69
661.733	88.69
661.936	80.69
662.14	85.69
662.343	88.69
662.546	92.69
662.75	82.69
662.953	96.69
663.156	88.69
663.36	98.69
663.563	75.69
663.766	75.69
663.969	95.69
664.173	80.69
664.376	68.69
664.579	75.69
664.782	67.69
664.985	92.69
665.188	84.69
665.391	74.69
665.594	77.69
665.797	86.69
666	89.69
666.203	69.69
666.406	75.69
666.609	82.69
666.812	87.69
667.015	93.69
667.218	91.69
667.421	85.69
667.624	77.69
667.827	91.69
668.03	69.69
668.232	80.69
668.435	78.69
668.638	82.69
668.841	81.69
669.043	85.69
669.246	84.69
669.449	86.69
669.651	75.69
669.854	86.69
670.057	92.69
670.259	82.69
670.462	86.69
670.665	97.69
670.867	78.69
671.07	80.69
671.272	87.69
671.475	92.69
671.677	92.69
671.88	92.69
672.082	81.69
672.284	91.69
672.487	91.69
672.689	75.69
672.892	89.69
