Data from 1988.PennyLincolnUp.Lamp.En5.5.200Scan.071819.P2_HRD10591_17-21-32-973.txt Node
Date: Thu Jul 18 17:21:32 EDT 2019
User: cochatt
Spectrometer: HR+D1059
Trigger mode: 1
Integration Time (sec): 1.000000E-1
Scans to average: 1
Electric dark correction enabled: true
Nonlinearity correction enabled: false
Boxcar width: 0
XAxis mode: Wavelengths
Number of Pixels in Spectrum: 2048
>>>>>Begin Spectral Data<<<<<
223.165	-5.31
223.4	-5.31
223.635	-5.31
223.869	-14.31
224.104	-18.31
224.338	-15.31
224.573	-19.31
224.808	-9.31
225.042	-12.31
225.277	-0.31
225.511	-0.31
225.746	3.69
225.98	8.69
226.215	7.69
226.449	22.69
226.683	18.69
226.918	16.69
227.152	16.69
227.387	40.69
227.621	41.69
227.856	34.69
228.09	60.69
228.324	54.69
228.559	55.69
228.793	73.69
229.027	110.69
229.262	120.69
229.496	120.69
229.73	153.69
229.964	174.69
230.199	135.69
230.433	121.69
230.667	131.69
230.901	109.69
231.136	127.69
231.37	108.69
231.604	128.69
231.838	116.69
232.072	106.69
232.306	126.69
232.541	102.69
232.775	134.69
233.009	131.69
233.243	124.69
233.477	114.69
233.711	121.69
233.945	120.69
234.179	106.69
234.413	116.69
234.647	126.69
234.881	120.69
235.115	132.69
235.349	114.69
235.583	124.69
235.817	130.69
236.051	142.69
236.285	133.69
236.519	125.69
236.753	132.69
236.987	151.69
237.221	196.69
237.455	290.69
237.689	207.69
237.922	154.69
238.156	138.69
238.39	137.69
238.624	126.69
238.858	144.69
239.091	126.69
239.325	133.69
239.559	140.69
239.793	118.69
240.027	134.69
240.26	160.69
240.494	163.69
240.728	167.69
240.961	170.69
241.195	164.69
241.429	138.69
241.662	151.69
241.896	149.69
242.13	137.69
242.363	149.69
242.597	139.69
242.83	153.69
243.064	154.69
243.298	148.69
243.531	145.69
243.765	149.69
243.998	150.69
244.232	151.69
244.465	156.69
244.699	167.69
244.932	155.69
245.166	154.69
245.399	152.69
245.633	163.69
245.866	158.69
246.099	141.69
246.333	158.69
246.566	159.69
246.8	153.69
247.033	154.69
247.266	167.69
247.5	186.69
247.733	181.69
247.966	176.69
248.2	185.69
248.433	186.69
248.666	192.69
248.899	205.69
249.133	221.69
249.366	224.69
249.599	225.69
249.832	202.69
250.066	198.69
250.299	216.69
250.532	195.69
250.765	226.69
250.998	250.69
251.231	260.69
251.465	222.69
251.698	234.69
251.931	206.69
252.164	207.69
252.397	208.69
252.63	220.69
252.863	210.69
253.096	239.69
253.329	231.69
253.562	230.69
253.795	238.69
254.028	237.69
254.261	237.69
254.494	259.69
254.727	268.69
254.96	300.69
255.193	285.69
255.426	271.69
255.659	239.69
255.892	243.69
256.124	235.69
256.357	237.69
256.59	239.69
256.823	232.69
257.056	237.69
257.289	219.69
257.521	228.69
257.754	223.69
257.987	236.69
258.22	235.69
258.452	224.69
258.685	207.69
258.918	234.69
259.151	240.69
259.383	233.69
259.616	219.69
259.849	258.69
260.081	261.69
260.314	286.69
260.547	288.69
260.779	272.69
261.012	271.69
261.244	253.69
261.477	241.69
261.71	239.69
261.942	230.69
262.175	276.69
262.407	250.69
262.64	236.69
262.872	240.69
263.105	236.69
263.337	245.69
263.57	246.69
263.802	232.69
264.035	220.69
264.267	251.69
264.499	235.69
264.732	229.69
264.964	236.69
265.197	249.69
265.429	234.69
265.661	218.69
265.894	236.69
266.126	262.69
266.358	234.69
266.591	242.69
266.823	235.69
267.055	258.69
267.287	248.69
267.52	244.69
267.752	259.69
267.984	243.69
268.216	247.69
268.448	269.69
268.681	254.69
268.913	275.69
269.145	291.69
269.377	314.69
269.609	299.69
269.841	306.69
270.073	304.69
270.306	315.69
270.538	342.69
270.77	338.69
271.002	335.69
271.234	318.69
271.466	343.69
271.698	318.69
271.93	335.69
272.162	364.69
272.394	341.69
272.626	334.69
272.858	311.69
273.09	311.69
273.322	292.69
273.553	295.69
273.785	293.69
274.017	316.69
274.249	312.69
274.481	277.69
274.713	282.69
274.945	306.69
275.176	322.69
275.408	272.69
275.64	290.69
275.872	275.69
276.104	300.69
276.335	298.69
276.567	301.69
276.799	322.69
277.031	329.69
277.262	354.69
277.494	351.69
277.726	318.69
277.957	312.69
278.189	299.69
278.421	311.69
278.652	303.69
278.884	298.69
279.115	285.69
279.347	296.69
279.579	279.69
279.81	289.69
280.042	276.69
280.273	298.69
280.505	298.69
280.736	293.69
280.968	303.69
281.199	287.69
281.431	294.69
281.662	304.69
281.894	298.69
282.125	299.69
282.356	327.69
282.588	362.69
282.819	377.69
283.051	319.69
283.282	288.69
283.513	312.69
283.745	299.69
283.976	308.69
284.207	295.69
284.439	311.69
284.67	314.69
284.901	305.69
285.132	313.69
285.364	307.69
285.595	323.69
285.826	315.69
286.057	301.69
286.288	314.69
286.52	317.69
286.751	309.69
286.982	320.69
287.213	313.69
287.444	320.69
287.675	319.69
287.906	329.69
288.138	334.69
288.369	325.69
288.6	326.69
288.831	340.69
289.062	332.69
289.293	331.69
289.524	314.69
289.755	322.69
289.986	332.69
290.217	317.69
290.448	316.69
290.679	336.69
290.91	335.69
291.141	323.69
291.371	315.69
291.602	320.69
291.833	317.69
292.064	306.69
292.295	325.69
292.526	338.69
292.757	320.69
292.987	319.69
293.218	346.69
293.449	328.69
293.68	325.69
293.91	326.69
294.141	345.69
294.372	335.69
294.603	329.69
294.833	324.69
295.064	332.69
295.295	340.69
295.525	334.69
295.756	335.69
295.987	343.69
296.217	359.69
296.448	378.69
296.679	338.69
296.909	321.69
297.14	325.69
297.37	343.69
297.601	328.69
297.831	339.69
298.062	330.69
298.292	348.69
298.523	364.69
298.753	343.69
298.984	337.69
299.214	358.69
299.445	357.69
299.675	370.69
299.905	350.69
300.136	348.69
300.366	350.69
300.597	340.69
300.827	355.69
301.057	355.69
301.288	382.69
301.518	378.69
301.748	381.69
301.979	372.69
302.209	379.69
302.439	390.69
302.669	360.69
302.9	388.69
303.13	368.69
303.36	378.69
303.59	390.69
303.82	386.69
304.051	385.69
304.281	375.69
304.511	370.69
304.741	365.69
304.971	361.69
305.201	367.69
305.431	357.69
305.661	370.69
305.891	382.69
306.121	375.69
306.352	389.69
306.582	381.69
306.812	365.69
307.042	375.69
307.272	384.69
307.502	362.69
307.731	375.69
307.961	363.69
308.191	364.69
308.421	363.69
308.651	391.69
308.881	380.69
309.111	382.69
309.341	411.69
309.571	404.69
309.8	416.69
310.03	442.69
310.26	429.69
310.49	426.69
310.72	426.69
310.949	437.69
311.179	471.69
311.409	439.69
311.639	439.69
311.868	416.69
312.098	427.69
312.328	458.69
312.557	456.69
312.787	446.69
313.017	481.69
313.246	442.69
313.476	408.69
313.706	431.69
313.935	425.69
314.165	446.69
314.394	449.69
314.624	461.69
314.853	442.69
315.083	429.69
315.312	421.69
315.542	429.69
315.771	427.69
316.001	420.69
316.23	431.69
316.46	420.69
316.689	431.69
316.919	416.69
317.148	452.69
317.377	438.69
317.607	454.69
317.836	434.69
318.065	437.69
318.295	444.69
318.524	410.69
318.753	428.69
318.983	412.69
319.212	445.69
319.441	458.69
319.67	451.69
319.9	422.69
320.129	452.69
320.358	419.69
320.587	438.69
320.816	459.69
321.046	457.69
321.275	456.69
321.504	468.69
321.733	442.69
321.962	481.69
322.191	469.69
322.42	502.69
322.649	515.69
322.878	518.69
323.108	541.69
323.337	551.69
323.566	576.69
323.795	612.69
324.024	667.69
324.253	822.69
324.482	1185.69
324.71	1862.69
324.939	2774.69
325.168	2354.69
325.397	1186.69
325.626	801.69
325.855	667.69
326.084	610.69
326.313	597.69
326.542	600.69
326.77	632.69
326.999	762.69
327.228	1068.69
327.457	1671.69
327.686	2058.69
327.914	1339.69
328.143	849.69
328.372	738.69
328.6	658.69
328.829	663.69
329.058	647.69
329.287	683.69
329.515	622.69
329.744	588.69
329.972	586.69
330.201	595.69
330.43	632.69
330.658	648.69
330.887	702.69
331.115	691.69
331.344	599.69
331.572	566.69
331.801	587.69
332.03	566.69
332.258	543.69
332.486	520.69
332.715	512.69
332.943	546.69
333.172	527.69
333.4	536.69
333.629	542.69
333.857	555.69
334.085	565.69
334.314	544.69
334.542	575.69
334.771	586.69
334.999	574.69
335.227	570.69
335.455	518.69
335.684	538.69
335.912	516.69
336.14	503.69
336.369	510.69
336.597	527.69
336.825	524.69
337.053	535.69
337.281	527.69
337.51	518.69
337.738	521.69
337.966	518.69
338.194	526.69
338.422	514.69
338.65	517.69
338.878	523.69
339.106	503.69
339.334	518.69
339.562	490.69
339.79	494.69
340.018	521.69
340.246	489.69
340.474	517.69
340.702	518.69
340.93	487.69
341.158	500.69
341.386	484.69
341.614	499.69
341.842	496.69
342.07	494.69
342.298	499.69
342.526	465.69
342.754	464.69
342.981	490.69
343.209	485.69
343.437	504.69
343.665	482.69
343.893	506.69
344.12	520.69
344.348	512.69
344.576	518.69
344.804	521.69
345.031	509.69
345.259	529.69
345.487	531.69
345.714	519.69
345.942	512.69
346.17	500.69
346.397	486.69
346.625	486.69
346.853	488.69
347.08	485.69
347.308	476.69
347.535	492.69
347.763	530.69
347.99	505.69
348.218	491.69
348.445	495.69
348.673	506.69
348.9	488.69
349.128	472.69
349.355	468.69
349.583	462.69
349.81	454.69
350.037	503.69
350.265	474.69
350.492	465.69
350.72	458.69
350.947	482.69
351.174	470.69
351.402	500.69
351.629	504.69
351.856	485.69
352.083	503.69
352.311	496.69
352.538	511.69
352.765	515.69
352.992	493.69
353.22	480.69
353.447	493.69
353.674	509.69
353.901	478.69
354.128	445.69
354.355	462.69
354.583	463.69
354.81	471.69
355.037	459.69
355.264	446.69
355.491	445.69
355.718	447.69
355.945	442.69
356.172	440.69
356.399	448.69
356.626	463.69
356.853	456.69
357.08	457.69
357.307	461.69
357.534	454.69
357.761	464.69
357.988	451.69
358.215	471.69
358.441	458.69
358.668	456.69
358.895	463.69
359.122	479.69
359.349	479.69
359.576	503.69
359.802	494.69
360.029	544.69
360.256	538.69
360.483	546.69
360.709	501.69
360.936	487.69
361.163	498.69
361.39	494.69
361.616	497.69
361.843	501.69
362.07	505.69
362.296	478.69
362.523	470.69
362.749	483.69
362.976	490.69
363.203	493.69
363.429	475.69
363.656	464.69
363.882	462.69
364.109	479.69
364.335	460.69
364.562	447.69
364.788	466.69
365.015	472.69
365.241	482.69
365.468	480.69
365.694	462.69
365.92	481.69
366.147	474.69
366.373	483.69
366.599	463.69
366.826	466.69
367.052	473.69
367.278	478.69
367.505	456.69
367.731	457.69
367.957	479.69
368.184	468.69
368.41	466.69
368.636	473.69
368.862	518.69
369.089	492.69
369.315	481.69
369.541	482.69
369.767	476.69
369.993	474.69
370.219	463.69
370.445	458.69
370.672	465.69
370.898	468.69
371.124	467.69
371.35	463.69
371.576	453.69
371.802	477.69
372.028	459.69
372.254	449.69
372.48	461.69
372.706	465.69
372.932	469.69
373.158	468.69
373.384	477.69
373.61	478.69
373.835	462.69
374.061	459.69
374.287	472.69
374.513	470.69
374.739	477.69
374.965	481.69
375.191	478.69
375.416	510.69
375.642	480.69
375.868	490.69
376.094	478.69
376.319	499.69
376.545	464.69
376.771	472.69
376.997	478.69
377.222	458.69
377.448	456.69
377.674	474.69
377.899	462.69
378.125	465.69
378.35	460.69
378.576	467.69
378.802	450.69
379.027	464.69
379.253	476.69
379.478	483.69
379.704	483.69
379.929	469.69
380.155	474.69
380.38	470.69
380.606	468.69
380.831	476.69
381.057	468.69
381.282	466.69
381.507	488.69
381.733	484.69
381.958	469.69
382.184	485.69
382.409	486.69
382.634	463.69
382.86	466.69
383.085	475.69
383.31	494.69
383.535	478.69
383.761	490.69
383.986	501.69
384.211	496.69
384.436	472.69
384.662	487.69
384.887	495.69
385.112	521.69
385.337	504.69
385.562	541.69
385.787	514.69
386.013	552.69
386.238	531.69
386.463	540.69
386.688	518.69
386.913	527.69
387.138	515.69
387.363	533.69
387.588	502.69
387.813	516.69
388.038	510.69
388.263	505.69
388.488	520.69
388.713	536.69
388.938	508.69
389.163	556.69
389.387	523.69
389.612	531.69
389.837	518.69
390.062	495.69
390.287	505.69
390.512	524.69
390.736	522.69
390.961	531.69
391.186	519.69
391.411	533.69
391.636	539.69
391.86	542.69
392.085	544.69
392.31	519.69
392.534	539.69
392.759	532.69
392.984	546.69
393.208	538.69
393.433	535.69
393.658	527.69
393.882	531.69
394.107	534.69
394.331	528.69
394.556	522.69
394.78	535.69
395.005	550.69
395.229	516.69
395.454	568.69
395.678	550.69
395.903	556.69
396.127	577.69
396.352	615.69
396.576	576.69
396.801	544.69
397.025	556.69
397.249	546.69
397.474	550.69
397.698	548.69
397.922	581.69
398.147	596.69
398.371	570.69
398.595	576.69
398.82	592.69
399.044	614.69
399.268	627.69
399.492	674.69
399.717	715.69
399.941	730.69
400.165	746.69
400.389	779.69
400.613	690.69
400.837	654.69
401.062	608.69
401.286	615.69
401.51	626.69
401.734	612.69
401.958	586.69
402.182	637.69
402.406	618.69
402.63	638.69
402.854	631.69
403.078	615.69
403.302	637.69
403.526	622.69
403.75	621.69
403.974	644.69
404.198	621.69
404.422	628.69
404.645	628.69
404.869	644.69
405.093	677.69
405.317	730.69
405.541	742.69
405.765	687.69
405.988	658.69
406.212	690.69
406.436	685.69
406.66	715.69
406.883	675.69
407.107	720.69
407.331	761.69
407.555	854.69
407.778	838.69
408.002	755.69
408.226	707.69
408.449	708.69
408.673	700.69
408.896	725.69
409.12	780.69
409.344	752.69
409.567	671.69
409.791	638.69
410.014	634.69
410.238	644.69
410.461	638.69
410.685	648.69
410.908	667.69
411.132	700.69
411.355	746.69
411.578	705.69
411.802	638.69
412.025	651.69
412.249	633.69
412.472	640.69
412.695	661.69
412.919	693.69
413.142	630.69
413.365	610.69
413.589	618.69
413.812	608.69
414.035	599.69
414.258	590.69
414.482	608.69
414.705	581.69
414.928	588.69
415.151	593.69
415.374	598.69
415.597	600.69
415.821	580.69
416.044	581.69
416.267	621.69
416.49	593.69
416.713	589.69
416.936	590.69
417.159	608.69
417.382	601.69
417.605	626.69
417.828	614.69
418.051	622.69
418.274	608.69
418.497	620.69
418.72	603.69
418.943	610.69
419.166	595.69
419.389	622.69
419.611	648.69
419.834	640.69
420.057	627.69
420.28	609.69
420.503	642.69
420.726	622.69
420.948	656.69
421.171	677.69
421.394	726.69
421.617	660.69
421.839	626.69
422.062	628.69
422.285	624.69
422.507	734.69
422.73	804.69
422.953	776.69
423.175	697.69
423.398	642.69
423.621	649.69
423.843	670.69
424.066	705.69
424.288	657.69
424.511	676.69
424.733	783.69
424.956	879.69
425.178	846.69
425.401	833.69
425.623	850.69
425.846	737.69
426.068	700.69
426.291	700.69
426.513	668.69
426.735	674.69
426.958	741.69
427.18	842.69
427.402	1021.69
427.625	1098.69
427.847	954.69
428.069	844.69
428.292	737.69
428.514	677.69
428.736	666.69
428.958	639.69
429.181	627.69
429.403	633.69
429.625	639.69
429.847	668.69
430.069	754.69
430.292	776.69
430.514	632.69
430.736	606.69
430.958	592.69
431.18	584.69
431.402	600.69
431.624	595.69
431.846	581.69
432.068	558.69
432.29	590.69
432.512	586.69
432.734	609.69
432.956	601.69
433.178	616.69
433.4	598.69
433.622	581.69
433.844	587.69
434.066	596.69
434.287	604.69
434.509	585.69
434.731	621.69
434.953	620.69
435.175	632.69
435.397	672.69
435.618	666.69
435.84	717.69
436.062	835.69
436.284	934.69
436.505	764.69
436.727	711.69
436.949	664.69
437.17	626.69
437.392	630.69
437.614	647.69
437.835	698.69
438.057	811.69
438.278	926.69
438.5	928.69
438.721	1015.69
438.943	957.69
439.165	766.69
439.386	716.69
439.608	693.69
439.829	714.69
440.05	730.69
440.272	792.69
440.493	738.69
440.715	662.69
440.936	639.69
441.158	632.69
441.379	650.69
441.6	646.69
441.822	654.69
442.043	730.69
442.264	806.69
442.486	918.69
442.707	741.69
442.928	692.69
443.149	694.69
443.371	724.69
443.592	770.69
443.813	920.69
444.034	975.69
444.255	797.69
444.476	694.69
444.698	684.69
444.919	698.69
445.14	757.69
445.361	734.69
445.582	735.69
445.803	805.69
446.024	969.69
446.245	956.69
446.466	873.69
446.687	738.69
446.908	702.69
447.129	637.69
447.35	619.69
447.571	624.69
447.792	621.69
448.013	628.69
448.234	648.69
448.455	697.69
448.675	858.69
448.896	996.69
449.117	842.69
449.338	781.69
449.559	920.69
449.779	1058.69
450	846.69
450.221	690.69
450.442	665.69
450.662	623.69
450.883	596.69
451.104	621.69
451.324	630.69
451.545	586.69
451.766	572.69
451.986	566.69
452.207	581.69
452.428	563.69
452.648	572.69
452.869	553.69
453.089	580.69
453.31	585.69
453.53	557.69
453.751	551.69
453.971	556.69
454.192	574.69
454.412	576.69
454.633	565.69
454.853	551.69
455.073	549.69
455.294	573.69
455.514	668.69
455.734	654.69
455.955	559.69
456.175	524.69
456.395	529.69
456.616	502.69
456.836	527.69
457.056	502.69
457.276	532.69
457.497	546.69
457.717	544.69
457.937	535.69
458.157	558.69
458.377	541.69
458.598	579.69
458.818	660.69
459.038	743.69
459.258	784.69
459.478	661.69
459.698	622.69
459.918	604.69
460.138	600.69
460.358	603.69
460.578	627.69
460.798	627.69
461.018	630.69
461.238	615.69
461.458	623.69
461.678	616.69
461.898	599.69
462.118	597.69
462.338	619.69
462.558	618.69
462.777	638.69
462.997	644.69
463.217	660.69
463.437	670.69
463.657	626.69
463.876	627.69
464.096	634.69
464.316	646.69
464.536	650.69
464.755	630.69
464.975	654.69
465.195	694.69
465.414	746.69
465.634	710.69
465.854	656.69
466.073	643.69
466.293	606.69
466.512	603.69
466.732	559.69
466.951	570.69
467.171	555.69
467.391	583.69
467.61	573.69
467.829	601.69
468.049	591.69
468.268	564.69
468.488	570.69
468.707	565.69
468.927	582.69
469.146	575.69
469.365	557.69
469.585	546.69
469.804	583.69
470.023	566.69
470.243	570.69
470.462	584.69
470.681	611.69
470.901	603.69
471.12	577.69
471.339	569.69
471.558	580.69
471.777	609.69
471.997	574.69
472.216	570.69
472.435	576.69
472.654	598.69
472.873	570.69
473.092	575.69
473.311	545.69
473.53	582.69
473.749	627.69
473.968	638.69
474.187	767.69
474.406	795.69
474.625	662.69
474.844	621.69
475.063	603.69
475.282	579.69
475.501	609.69
475.72	599.69
475.939	591.69
476.158	590.69
476.377	604.69
476.596	588.69
476.814	602.69
477.033	622.69
477.252	627.69
477.471	617.69
477.69	639.69
477.908	632.69
478.127	639.69
478.346	650.69
478.564	658.69
478.783	645.69
479.002	680.69
479.22	662.69
479.439	706.69
479.658	724.69
479.876	682.69
480.095	702.69
480.313	730.69
480.532	716.69
480.751	713.69
480.969	723.69
481.188	770.69
481.406	772.69
481.624	734.69
481.843	665.69
482.061	688.69
482.28	660.69
482.498	714.69
482.717	699.69
482.935	698.69
483.153	696.69
483.372	672.69
483.59	668.69
483.808	682.69
484.027	670.69
484.245	698.69
484.463	686.69
484.681	724.69
484.9	716.69
485.118	716.69
485.336	734.69
485.554	713.69
485.772	713.69
485.99	707.69
486.209	714.69
486.427	721.69
486.645	725.69
486.863	723.69
487.081	735.69
487.299	739.69
487.517	762.69
487.735	723.69
487.953	729.69
488.171	734.69
488.389	733.69
488.607	747.69
488.825	724.69
489.043	747.69
489.261	733.69
489.479	762.69
489.696	772.69
489.914	761.69
490.132	763.69
490.35	750.69
490.568	767.69
490.786	797.69
491.003	794.69
491.221	804.69
491.439	808.69
491.657	822.69
491.874	836.69
492.092	828.69
492.31	838.69
492.527	854.69
492.745	838.69
492.963	839.69
493.18	863.69
493.398	877.69
493.615	857.69
493.833	886.69
494.05	866.69
494.268	864.69
494.485	874.69
494.703	882.69
494.92	860.69
495.138	854.69
495.355	867.69
495.573	875.69
495.79	894.69
496.008	902.69
496.225	888.69
496.442	876.69
496.66	875.69
496.877	895.69
497.094	896.69
497.312	903.69
497.529	922.69
497.746	917.69
497.963	943.69
498.181	970.69
498.398	987.69
498.615	980.69
498.832	999.69
499.049	1028.69
499.267	1033.69
499.484	1079.69
499.701	1120.69
499.918	1158.69
500.135	1208.69
500.352	1241.69
500.569	1268.69
500.786	1230.69
501.003	1273.69
501.22	1215.69
501.437	1190.69
501.654	1170.69
501.871	1131.69
502.088	1099.69
502.305	1042.69
502.522	1005.69
502.739	998.69
502.956	970.69
503.172	949.69
503.389	935.69
503.606	944.69
503.823	939.69
504.04	923.69
504.256	918.69
504.473	892.69
504.69	902.69
504.907	892.69
505.123	873.69
505.34	877.69
505.557	878.69
505.773	840.69
505.99	872.69
506.207	862.69
506.423	848.69
506.64	833.69
506.856	856.69
507.073	822.69
507.289	818.69
507.506	829.69
507.722	829.69
507.939	862.69
508.155	845.69
508.372	819.69
508.588	809.69
508.805	796.69
509.021	826.69
509.238	824.69
509.454	814.69
509.67	825.69
509.887	799.69
510.103	779.69
510.319	800.69
510.536	918.69
510.752	1470.69
510.968	1259.69
511.184	851.69
511.401	804.69
511.617	787.69
511.833	772.69
512.049	754.69
512.265	775.69
512.481	744.69
512.698	754.69
512.914	778.69
513.13	759.69
513.346	734.69
513.562	738.69
513.778	779.69
513.994	772.69
514.21	806.69
514.426	820.69
514.642	858.69
514.858	887.69
515.074	914.69
515.29	1090.69
515.506	1556.69
515.721	1340.69
515.937	954.69
516.153	866.69
516.369	844.69
516.585	790.69
516.801	814.69
517.016	813.69
517.232	819.69
517.448	803.69
517.664	810.69
517.879	807.69
518.095	788.69
518.311	802.69
518.527	780.69
518.742	772.69
518.958	787.69
519.173	783.69
519.389	768.69
519.605	748.69
519.82	746.69
520.036	780.69
520.251	811.69
520.467	840.69
520.682	847.69
520.898	855.69
521.113	890.69
521.329	936.69
521.544	1022.69
521.76	1257.69
521.975	2007.69
522.19	2037.69
522.406	1138.69
522.621	866.69
522.836	801.69
523.052	776.69
523.267	741.69
523.482	746.69
523.698	713.69
523.913	710.69
524.128	686.69
524.343	666.69
524.559	671.69
524.774	668.69
524.989	667.69
525.204	700.69
525.419	682.69
525.634	649.69
525.849	648.69
526.064	641.69
526.28	624.69
526.495	648.69
526.71	646.69
526.925	636.69
527.14	631.69
527.355	654.69
527.57	612.69
527.785	618.69
527.999	612.69
528.214	635.69
528.429	632.69
528.644	607.69
528.859	638.69
529.074	638.69
529.289	664.69
529.503	766.69
529.718	723.69
529.933	658.69
530.148	642.69
530.363	646.69
530.577	630.69
530.792	612.69
531.007	600.69
531.221	606.69
531.436	614.69
531.651	588.69
531.865	611.69
532.08	600.69
532.295	605.69
532.509	602.69
532.724	611.69
532.938	599.69
533.153	588.69
533.367	610.69
533.582	607.69
533.796	577.69
534.011	589.69
534.225	600.69
534.44	568.69
534.654	605.69
534.868	600.69
535.083	582.69
535.297	582.69
535.511	588.69
535.726	613.69
535.94	610.69
536.154	583.69
536.369	605.69
536.583	572.69
536.797	588.69
537.011	584.69
537.225	559.69
537.44	559.69
537.654	582.69
537.868	566.69
538.082	595.69
538.296	582.69
538.51	566.69
538.724	563.69
538.938	574.69
539.153	550.69
539.367	606.69
539.581	587.69
539.795	578.69
540.009	574.69
540.222	568.69
540.436	579.69
540.65	558.69
540.864	571.69
541.078	582.69
541.292	592.69
541.506	578.69
541.72	574.69
541.934	573.69
542.147	562.69
542.361	559.69
542.575	564.69
542.789	551.69
543.002	572.69
543.216	571.69
543.43	566.69
543.644	545.69
543.857	581.69
544.071	575.69
544.285	568.69
544.498	574.69
544.712	534.69
544.925	551.69
545.139	546.69
545.352	535.69
545.566	559.69
545.779	563.69
545.993	564.69
546.206	557.69
546.42	520.69
546.633	552.69
546.847	540.69
547.06	555.69
547.274	522.69
547.487	536.69
547.7	529.69
547.914	536.69
548.127	533.69
548.34	512.69
548.554	530.69
548.767	537.69
548.98	544.69
549.193	552.69
549.407	526.69
549.62	527.69
549.833	553.69
550.046	530.69
550.259	520.69
550.473	526.69
550.686	539.69
550.899	543.69
551.112	517.69
551.325	557.69
551.538	528.69
551.751	551.69
551.964	552.69
552.177	534.69
552.39	543.69
552.603	520.69
552.816	552.69
553.029	556.69
553.242	534.69
553.455	547.69
553.667	552.69
553.88	562.69
554.093	544.69
554.306	530.69
554.519	539.69
554.732	548.69
554.944	528.69
555.157	532.69
555.37	534.69
555.583	492.69
555.795	506.69
556.008	515.69
556.221	501.69
556.433	504.69
556.646	509.69
556.859	492.69
557.071	490.69
557.284	510.69
557.496	491.69
557.709	490.69
557.921	510.69
558.134	485.69
558.346	480.69
558.559	508.69
558.771	498.69
558.984	460.69
559.196	471.69
559.409	482.69
559.621	474.69
559.833	464.69
560.046	489.69
560.258	500.69
560.47	460.69
560.683	495.69
560.895	489.69
561.107	475.69
561.32	483.69
561.532	470.69
561.744	482.69
561.956	456.69
562.168	482.69
562.381	498.69
562.593	485.69
562.805	469.69
563.017	471.69
563.229	490.69
563.441	492.69
563.653	477.69
563.865	460.69
564.077	482.69
564.289	500.69
564.501	492.69
564.713	503.69
564.925	504.69
565.137	534.69
565.349	500.69
565.561	515.69
565.773	537.69
565.985	516.69
566.197	534.69
566.408	564.69
566.62	557.69
566.832	570.69
567.044	592.69
567.255	576.69
567.467	607.69
567.679	605.69
567.891	611.69
568.102	637.69
568.314	610.69
568.526	586.69
568.737	587.69
568.949	555.69
569.161	530.69
569.372	523.69
569.584	514.69
569.795	499.69
570.007	492.69
570.218	543.69
570.43	527.69
570.641	471.69
570.853	463.69
571.064	460.69
571.276	469.69
571.487	442.69
571.698	457.69
571.91	446.69
572.121	446.69
572.333	434.69
572.544	450.69
572.755	428.69
572.966	430.69
573.178	446.69
573.389	426.69
573.6	439.69
573.811	406.69
574.023	399.69
574.234	432.69
574.445	407.69
574.656	420.69
574.867	415.69
575.078	428.69
575.289	410.69
575.501	425.69
575.712	402.69
575.923	408.69
576.134	398.69
576.345	407.69
576.556	402.69
576.767	408.69
576.978	398.69
577.188	389.69
577.399	381.69
577.61	389.69
577.821	409.69
578.032	399.69
578.243	428.69
578.454	692.69
578.665	516.69
578.875	404.69
579.086	393.69
579.297	386.69
579.508	399.69
579.718	414.69
579.929	367.69
580.14	382.69
580.35	372.69
580.561	376.69
580.772	374.69
580.982	361.69
581.193	386.69
581.403	379.69
581.614	384.69
581.825	374.69
582.035	374.69
582.246	379.69
582.456	374.69
582.667	378.69
582.877	361.69
583.087	386.69
583.298	355.69
583.508	357.69
583.719	353.69
583.929	362.69
584.139	364.69
584.35	372.69
584.56	377.69
584.77	353.69
584.981	351.69
585.191	362.69
585.401	359.69
585.611	353.69
585.821	358.69
586.032	355.69
586.242	350.69
586.452	376.69
586.662	365.69
586.872	354.69
587.082	345.69
587.292	367.69
587.502	354.69
587.713	351.69
587.923	331.69
588.133	355.69
588.343	357.69
588.553	365.69
588.762	356.69
588.972	352.69
589.182	361.69
589.392	361.69
589.602	349.69
589.812	339.69
590.022	363.69
590.232	346.69
590.441	351.69
590.651	361.69
590.861	340.69
591.071	355.69
591.281	347.69
591.49	364.69
591.7	363.69
591.91	359.69
592.119	339.69
592.329	364.69
592.539	375.69
592.748	372.69
592.958	373.69
593.167	380.69
593.377	386.69
593.587	401.69
593.796	372.69
594.006	366.69
594.215	374.69
594.424	392.69
594.634	381.69
594.843	366.69
595.053	386.69
595.262	367.69
595.472	363.69
595.681	348.69
595.89	347.69
596.1	343.69
596.309	340.69
596.518	375.69
596.727	318.69
596.937	338.69
597.146	322.69
597.355	330.69
597.564	332.69
597.774	316.69
597.983	318.69
598.192	333.69
598.401	322.69
598.61	315.69
598.819	313.69
599.028	322.69
599.237	308.69
599.446	323.69
599.655	325.69
599.864	321.69
600.073	314.69
600.282	286.69
600.491	320.69
600.7	310.69
600.909	311.69
601.118	293.69
601.327	301.69
601.536	292.69
601.745	322.69
601.953	305.69
602.162	315.69
602.371	308.69
602.58	291.69
602.789	315.69
602.997	307.69
603.206	293.69
603.415	316.69
603.623	300.69
603.832	318.69
604.041	302.69
604.249	286.69
604.458	292.69
604.666	282.69
604.875	297.69
605.084	299.69
605.292	282.69
605.501	299.69
605.709	287.69
605.918	309.69
606.126	291.69
606.334	291.69
606.543	283.69
606.751	303.69
606.96	281.69
607.168	278.69
607.376	285.69
607.585	312.69
607.793	295.69
608.001	291.69
608.21	261.69
608.418	280.69
608.626	294.69
608.834	282.69
609.043	290.69
609.251	280.69
609.459	278.69
609.667	295.69
609.875	301.69
610.083	265.69
610.291	285.69
610.499	285.69
610.707	265.69
610.916	276.69
611.124	286.69
611.332	288.69
611.54	290.69
611.748	286.69
611.955	283.69
612.163	273.69
612.371	290.69
612.579	290.69
612.787	282.69
612.995	286.69
613.203	264.69
613.411	278.69
613.618	283.69
613.826	280.69
614.034	266.69
614.242	282.69
614.449	280.69
614.657	278.69
614.865	268.69
615.072	290.69
615.28	270.69
615.488	268.69
615.695	282.69
615.903	275.69
616.111	261.69
616.318	273.69
616.526	280.69
616.733	284.69
616.941	272.69
617.148	272.69
617.356	292.69
617.563	263.69
617.771	264.69
617.978	253.69
618.185	256.69
618.393	272.69
618.6	264.69
618.807	264.69
619.015	268.69
619.222	243.69
619.429	259.69
619.637	292.69
619.844	273.69
620.051	264.69
620.258	259.69
620.466	270.69
620.673	245.69
620.88	231.69
621.087	253.69
621.294	258.69
621.501	256.69
621.708	246.69
621.915	243.69
622.122	254.69
622.329	265.69
622.536	255.69
622.743	260.69
622.95	266.69
623.157	254.69
623.364	247.69
623.571	256.69
623.778	250.69
623.985	250.69
624.192	268.69
624.399	254.69
624.606	256.69
624.812	259.69
625.019	254.69
625.226	236.69
625.433	254.69
625.639	243.69
625.846	227.69
626.053	242.69
626.259	231.69
626.466	254.69
626.673	247.69
626.879	231.69
627.086	237.69
627.293	243.69
627.499	226.69
627.706	229.69
627.912	226.69
628.119	219.69
628.325	226.69
628.532	231.69
628.738	230.69
628.945	230.69
629.151	232.69
629.357	240.69
629.564	232.69
629.77	248.69
629.976	228.69
630.183	230.69
630.389	226.69
630.595	202.69
630.802	220.69
631.008	227.69
631.214	230.69
631.42	235.69
631.627	213.69
631.833	218.69
632.039	226.69
632.245	204.69
632.451	207.69
632.657	206.69
632.863	202.69
633.069	207.69
633.275	229.69
633.481	234.69
633.688	220.69
633.893	211.69
634.099	212.69
634.305	226.69
634.511	207.69
634.717	194.69
634.923	220.69
635.129	211.69
635.335	214.69
635.541	199.69
635.747	214.69
635.952	208.69
636.158	199.69
636.364	204.69
636.57	214.69
636.775	214.69
636.981	206.69
637.187	196.69
637.392	219.69
637.598	214.69
637.804	203.69
638.009	201.69
638.215	219.69
638.421	199.69
638.626	198.69
638.832	200.69
639.037	200.69
639.243	187.69
639.448	207.69
639.654	191.69
639.859	202.69
640.065	192.69
640.27	204.69
640.475	208.69
640.681	200.69
640.886	207.69
641.091	209.69
641.297	212.69
641.502	196.69
641.707	192.69
641.913	178.69
642.118	195.69
642.323	206.69
642.528	199.69
642.733	197.69
642.939	186.69
643.144	199.69
643.349	184.69
643.554	202.69
643.759	186.69
643.964	190.69
644.169	199.69
644.374	193.69
644.579	202.69
644.784	201.69
644.989	184.69
645.194	182.69
645.399	183.69
645.604	179.69
645.809	191.69
646.014	204.69
646.219	195.69
646.423	191.69
646.628	188.69
646.833	190.69
647.038	202.69
647.243	186.69
647.447	182.69
647.652	194.69
647.857	182.69
648.062	187.69
648.266	197.69
648.471	172.69
648.676	174.69
648.88	201.69
649.085	194.69
649.289	174.69
649.494	200.69
649.698	216.69
649.903	197.69
650.107	215.69
650.312	176.69
650.516	183.69
650.721	183.69
650.925	172.69
651.13	168.69
651.334	181.69
651.539	161.69
651.743	162.69
651.947	167.69
652.152	166.69
652.356	153.69
652.56	162.69
652.764	163.69
652.969	173.69
653.173	154.69
653.377	163.69
653.581	143.69
653.785	158.69
653.99	148.69
654.194	148.69
654.398	138.69
654.602	156.69
654.806	148.69
655.01	149.69
655.214	158.69
655.418	151.69
655.622	145.69
655.826	147.69
656.03	158.69
656.234	159.69
656.438	159.69
656.642	142.69
656.846	139.69
657.049	152.69
657.253	142.69
657.457	127.69
657.661	118.69
657.865	129.69
658.068	122.69
658.272	118.69
658.476	120.69
658.68	111.69
658.883	102.69
659.087	98.69
659.291	121.69
659.494	98.69
659.698	104.69
659.901	100.69
660.105	108.69
660.309	101.69
660.512	97.69
660.716	100.69
660.919	104.69
661.123	104.69
661.326	104.69
661.53	87.69
661.733	104.69
661.936	105.69
662.14	86.69
662.343	82.69
662.546	82.69
662.75	91.69
662.953	93.69
663.156	91.69
663.36	97.69
663.563	86.69
663.766	87.69
663.969	95.69
664.173	94.69
664.376	83.69
664.579	87.69
664.782	80.69
664.985	87.69
665.188	87.69
665.391	88.69
665.594	84.69
665.797	86.69
666	94.69
666.203	83.69
666.406	87.69
666.609	92.69
666.812	73.69
667.015	88.69
667.218	93.69
667.421	70.69
667.624	88.69
667.827	76.69
668.03	70.69
668.232	69.69
668.435	84.69
668.638	94.69
668.841	91.69
669.043	70.69
669.246	86.69
669.449	81.69
669.651	78.69
669.854	80.69
670.057	83.69
670.259	82.69
670.462	84.69
670.665	78.69
670.867	86.69
671.07	81.69
671.272	88.69
671.475	77.69
671.677	86.69
671.88	75.69
672.082	89.69
672.284	86.69
672.487	102.69
672.689	86.69
672.892	86.69
