Data from 1988.PennyLincolnUp.Lamp.En5.5.200Scan.071819.P2_HRD10591_17-21-02-972.txt Node
Date: Thu Jul 18 17:21:02 EDT 2019
User: cochatt
Spectrometer: HR+D1059
Trigger mode: 1
Integration Time (sec): 1.000000E-1
Scans to average: 1
Electric dark correction enabled: true
Nonlinearity correction enabled: false
Boxcar width: 0
XAxis mode: Wavelengths
Number of Pixels in Spectrum: 2048
>>>>>Begin Spectral Data<<<<<
223.165	-22.19
223.4	-22.19
223.635	-22.19
223.869	-7.19
224.104	-35.19
224.338	-6.19
224.573	-19.19
224.808	-15.19
225.042	-13.19
225.277	3.81
225.511	-3.19
225.746	0.81
225.98	7.81
226.215	14.81
226.449	20.81
226.683	23.81
226.918	16.81
227.152	32.81
227.387	33.81
227.621	37.81
227.856	40.81
228.09	41.81
228.324	52.81
228.559	48.81
228.793	70.81
229.027	99.81
229.262	108.81
229.496	117.81
229.73	140.81
229.964	173.81
230.199	156.81
230.433	127.81
230.667	124.81
230.901	110.81
231.136	119.81
231.37	128.81
231.604	123.81
231.838	121.81
232.072	122.81
232.306	113.81
232.541	128.81
232.775	123.81
233.009	121.81
233.243	119.81
233.477	125.81
233.711	115.81
233.945	119.81
234.179	114.81
234.413	131.81
234.647	127.81
234.881	112.81
235.115	122.81
235.349	120.81
235.583	115.81
235.817	145.81
236.051	136.81
236.285	132.81
236.519	137.81
236.753	138.81
236.987	160.81
237.221	194.81
237.455	261.81
237.689	207.81
237.922	173.81
238.156	147.81
238.39	144.81
238.624	142.81
238.858	125.81
239.091	125.81
239.325	143.81
239.559	131.81
239.793	140.81
240.027	135.81
240.26	153.81
240.494	151.81
240.728	165.81
240.961	145.81
241.195	157.81
241.429	155.81
241.662	155.81
241.896	157.81
242.13	136.81
242.363	144.81
242.597	127.81
242.83	126.81
243.064	147.81
243.298	151.81
243.531	141.81
243.765	139.81
243.998	159.81
244.232	131.81
244.465	161.81
244.699	157.81
244.932	142.81
245.166	153.81
245.399	166.81
245.633	160.81
245.866	139.81
246.099	157.81
246.333	171.81
246.566	148.81
246.8	150.81
247.033	172.81
247.266	171.81
247.5	170.81
247.733	176.81
247.966	176.81
248.2	176.81
248.433	182.81
248.666	161.81
248.899	209.81
249.133	200.81
249.366	217.81
249.599	200.81
249.832	206.81
250.066	185.81
250.299	176.81
250.532	194.81
250.765	209.81
250.998	236.81
251.231	233.81
251.465	215.81
251.698	194.81
251.931	219.81
252.164	203.81
252.397	215.81
252.63	219.81
252.863	215.81
253.096	234.81
253.329	226.81
253.562	255.81
253.795	231.81
254.028	222.81
254.261	243.81
254.494	247.81
254.727	280.81
254.96	282.81
255.193	306.81
255.426	267.81
255.659	244.81
255.892	223.81
256.124	250.81
256.357	239.81
256.59	221.81
256.823	235.81
257.056	217.81
257.289	213.81
257.521	221.81
257.754	210.81
257.987	217.81
258.22	230.81
258.452	208.81
258.685	219.81
258.918	215.81
259.151	217.81
259.383	220.81
259.616	216.81
259.849	233.81
260.081	248.81
260.314	259.81
260.547	276.81
260.779	272.81
261.012	254.81
261.244	242.81
261.477	254.81
261.71	247.81
261.942	242.81
262.175	249.81
262.407	257.81
262.64	215.81
262.872	225.81
263.105	225.81
263.337	235.81
263.57	247.81
263.802	235.81
264.035	242.81
264.267	237.81
264.499	238.81
264.732	234.81
264.964	243.81
265.197	227.81
265.429	226.81
265.661	227.81
265.894	235.81
266.126	225.81
266.358	214.81
266.591	213.81
266.823	250.81
267.055	233.81
267.287	248.81
267.52	235.81
267.752	229.81
267.984	240.81
268.216	273.81
268.448	247.81
268.681	251.81
268.913	267.81
269.145	273.81
269.377	303.81
269.609	293.81
269.841	278.81
270.073	295.81
270.306	308.81
270.538	348.81
270.77	345.81
271.002	319.81
271.234	325.81
271.466	334.81
271.698	339.81
271.93	332.81
272.162	332.81
272.394	342.81
272.626	322.81
272.858	316.81
273.09	294.81
273.322	287.81
273.553	288.81
273.785	276.81
274.017	279.81
274.249	309.81
274.481	275.81
274.713	285.81
274.945	273.81
275.176	288.81
275.408	283.81
275.64	277.81
275.872	284.81
276.104	280.81
276.335	292.81
276.567	305.81
276.799	315.81
277.031	339.81
277.262	351.81
277.494	321.81
277.726	311.81
277.957	297.81
278.189	291.81
278.421	300.81
278.652	303.81
278.884	298.81
279.115	275.81
279.347	284.81
279.579	283.81
279.81	298.81
280.042	294.81
280.273	272.81
280.505	284.81
280.736	270.81
280.968	288.81
281.199	274.81
281.431	291.81
281.662	275.81
281.894	305.81
282.125	303.81
282.356	312.81
282.588	338.81
282.819	346.81
283.051	298.81
283.282	284.81
283.513	296.81
283.745	295.81
283.976	299.81
284.207	307.81
284.439	316.81
284.67	306.81
284.901	300.81
285.132	295.81
285.364	297.81
285.595	297.81
285.826	304.81
286.057	302.81
286.288	297.81
286.52	305.81
286.751	312.81
286.982	298.81
287.213	288.81
287.444	314.81
287.675	307.81
287.906	310.81
288.138	333.81
288.369	333.81
288.6	339.81
288.831	322.81
289.062	331.81
289.293	303.81
289.524	305.81
289.755	305.81
289.986	312.81
290.217	308.81
290.448	326.81
290.679	315.81
290.91	313.81
291.141	312.81
291.371	314.81
291.602	340.81
291.833	311.81
292.064	322.81
292.295	296.81
292.526	320.81
292.757	312.81
292.987	285.81
293.218	292.81
293.449	298.81
293.68	328.81
293.91	323.81
294.141	332.81
294.372	329.81
294.603	314.81
294.833	311.81
295.064	297.81
295.295	323.81
295.525	329.81
295.756	343.81
295.987	348.81
296.217	374.81
296.448	351.81
296.679	321.81
296.909	335.81
297.14	325.81
297.37	332.81
297.601	321.81
297.831	334.81
298.062	331.81
298.292	343.81
298.523	340.81
298.753	327.81
298.984	322.81
299.214	342.81
299.445	341.81
299.675	346.81
299.905	339.81
300.136	329.81
300.366	353.81
300.597	340.81
300.827	339.81
301.057	356.81
301.288	367.81
301.518	345.81
301.748	354.81
301.979	373.81
302.209	355.81
302.439	351.81
302.669	356.81
302.9	385.81
303.13	352.81
303.36	356.81
303.59	366.81
303.82	363.81
304.051	375.81
304.281	358.81
304.511	341.81
304.741	369.81
304.971	355.81
305.201	373.81
305.431	359.81
305.661	363.81
305.891	362.81
306.121	368.81
306.352	375.81
306.582	377.81
306.812	356.81
307.042	360.81
307.272	365.81
307.502	374.81
307.731	375.81
307.961	368.81
308.191	387.81
308.421	388.81
308.651	387.81
308.881	370.81
309.111	374.81
309.341	375.81
309.571	404.81
309.8	399.81
310.03	391.81
310.26	403.81
310.49	419.81
310.72	409.81
310.949	420.81
311.179	439.81
311.409	433.81
311.639	405.81
311.868	417.81
312.098	398.81
312.328	417.81
312.557	437.81
312.787	467.81
313.017	453.81
313.246	434.81
313.476	419.81
313.706	429.81
313.935	434.81
314.165	444.81
314.394	444.81
314.624	435.81
314.853	437.81
315.083	434.81
315.312	421.81
315.542	433.81
315.771	412.81
316.001	421.81
316.23	408.81
316.46	403.81
316.689	408.81
316.919	420.81
317.148	439.81
317.377	456.81
317.607	431.81
317.836	427.81
318.065	423.81
318.295	419.81
318.524	425.81
318.753	420.81
318.983	410.81
319.212	427.81
319.441	441.81
319.67	442.81
319.9	418.81
320.129	417.81
320.358	448.81
320.587	445.81
320.816	443.81
321.046	451.81
321.275	437.81
321.504	448.81
321.733	467.81
321.962	456.81
322.191	475.81
322.42	469.81
322.649	490.81
322.878	513.81
323.108	538.81
323.337	552.81
323.566	572.81
323.795	615.81
324.024	676.81
324.253	790.81
324.482	1148.81
324.71	1790.81
324.939	2735.81
325.168	2363.81
325.397	1173.81
325.626	777.81
325.855	631.81
326.084	592.81
326.313	571.81
326.542	598.81
326.77	651.81
326.999	738.81
327.228	1020.81
327.457	1637.81
327.686	1984.81
327.914	1289.81
328.143	819.81
328.372	713.81
328.6	667.81
328.829	627.81
329.058	635.81
329.287	643.81
329.515	597.81
329.744	576.81
329.972	544.81
330.201	578.81
330.43	591.81
330.658	635.81
330.887	655.81
331.115	649.81
331.344	591.81
331.572	547.81
331.801	554.81
332.03	545.81
332.258	514.81
332.486	511.81
332.715	533.81
332.943	507.81
333.172	515.81
333.4	529.81
333.629	526.81
333.857	531.81
334.085	561.81
334.314	540.81
334.542	523.81
334.771	552.81
334.999	512.81
335.227	532.81
335.455	548.81
335.684	498.81
335.912	522.81
336.14	514.81
336.369	499.81
336.597	501.81
336.825	520.81
337.053	503.81
337.281	471.81
337.51	484.81
337.738	511.81
337.966	492.81
338.194	524.81
338.422	486.81
338.65	506.81
338.878	487.81
339.106	476.81
339.334	462.81
339.562	494.81
339.79	479.81
340.018	467.81
340.246	496.81
340.474	505.81
340.702	488.81
340.93	476.81
341.158	473.81
341.386	495.81
341.614	502.81
341.842	507.81
342.07	477.81
342.298	480.81
342.526	456.81
342.754	474.81
342.981	473.81
343.209	488.81
343.437	476.81
343.665	462.81
343.893	495.81
344.12	512.81
344.348	514.81
344.576	480.81
344.804	481.81
345.031	522.81
345.259	506.81
345.487	496.81
345.714	489.81
345.942	475.81
346.17	499.81
346.397	474.81
346.625	461.81
346.853	488.81
347.08	469.81
347.308	493.81
347.535	482.81
347.763	479.81
347.99	481.81
348.218	495.81
348.445	499.81
348.673	487.81
348.9	485.81
349.128	469.81
349.355	473.81
349.583	458.81
349.81	438.81
350.037	444.81
350.265	456.81
350.492	473.81
350.72	469.81
350.947	466.81
351.174	476.81
351.402	456.81
351.629	467.81
351.856	489.81
352.083	486.81
352.311	512.81
352.538	502.81
352.765	508.81
352.992	467.81
353.22	472.81
353.447	481.81
353.674	475.81
353.901	458.81
354.128	430.81
354.355	424.81
354.583	435.81
354.81	465.81
355.037	442.81
355.264	447.81
355.491	447.81
355.718	436.81
355.945	420.81
356.172	449.81
356.399	439.81
356.626	449.81
356.853	428.81
357.08	446.81
357.307	446.81
357.534	440.81
357.761	465.81
357.988	472.81
358.215	432.81
358.441	449.81
358.668	420.81
358.895	456.81
359.122	457.81
359.349	466.81
359.576	471.81
359.802	489.81
360.029	520.81
360.256	546.81
360.483	519.81
360.709	485.81
360.936	495.81
361.163	473.81
361.39	497.81
361.616	489.81
361.843	490.81
362.07	473.81
362.296	468.81
362.523	481.81
362.749	463.81
362.976	465.81
363.203	445.81
363.429	461.81
363.656	458.81
363.882	480.81
364.109	434.81
364.335	433.81
364.562	463.81
364.788	453.81
365.015	455.81
365.241	458.81
365.468	462.81
365.694	473.81
365.92	457.81
366.147	452.81
366.373	469.81
366.599	453.81
366.826	449.81
367.052	447.81
367.278	456.81
367.505	459.81
367.731	476.81
367.957	454.81
368.184	451.81
368.41	452.81
368.636	451.81
368.862	501.81
369.089	463.81
369.315	447.81
369.541	460.81
369.767	461.81
369.993	461.81
370.219	447.81
370.445	445.81
370.672	438.81
370.898	466.81
371.124	463.81
371.35	437.81
371.576	464.81
371.802	465.81
372.028	456.81
372.254	461.81
372.48	463.81
372.706	447.81
372.932	465.81
373.158	449.81
373.384	465.81
373.61	466.81
373.835	469.81
374.061	466.81
374.287	470.81
374.513	452.81
374.739	477.81
374.965	484.81
375.191	475.81
375.416	459.81
375.642	474.81
375.868	463.81
376.094	439.81
376.319	447.81
376.545	437.81
376.771	466.81
376.997	460.81
377.222	474.81
377.448	459.81
377.674	473.81
377.899	453.81
378.125	452.81
378.35	458.81
378.576	468.81
378.802	452.81
379.027	441.81
379.253	471.81
379.478	452.81
379.704	460.81
379.929	444.81
380.155	459.81
380.38	486.81
380.606	465.81
380.831	468.81
381.057	465.81
381.282	477.81
381.507	468.81
381.733	462.81
381.958	470.81
382.184	471.81
382.409	480.81
382.634	485.81
382.86	473.81
383.085	466.81
383.31	481.81
383.535	487.81
383.761	499.81
383.986	476.81
384.211	480.81
384.436	479.81
384.662	489.81
384.887	519.81
385.112	470.81
385.337	504.81
385.562	512.81
385.787	516.81
386.013	511.81
386.238	507.81
386.463	514.81
386.688	515.81
386.913	481.81
387.138	495.81
387.363	518.81
387.588	489.81
387.813	492.81
388.038	486.81
388.263	504.81
388.488	502.81
388.713	498.81
388.938	511.81
389.163	510.81
389.387	515.81
389.612	516.81
389.837	515.81
390.062	523.81
390.287	497.81
390.512	488.81
390.736	498.81
390.961	506.81
391.186	515.81
391.411	518.81
391.636	515.81
391.86	521.81
392.085	535.81
392.31	545.81
392.534	523.81
392.759	514.81
392.984	501.81
393.208	524.81
393.433	521.81
393.658	521.81
393.882	525.81
394.107	515.81
394.331	520.81
394.556	536.81
394.78	525.81
395.005	537.81
395.229	528.81
395.454	510.81
395.678	516.81
395.903	535.81
396.127	567.81
396.352	560.81
396.576	556.81
396.801	543.81
397.025	550.81
397.249	539.81
397.474	548.81
397.698	575.81
397.922	585.81
398.147	587.81
398.371	586.81
398.595	584.81
398.82	602.81
399.044	612.81
399.268	608.81
399.492	634.81
399.717	681.81
399.941	712.81
400.165	721.81
400.389	739.81
400.613	675.81
400.837	628.81
401.062	601.81
401.286	608.81
401.51	580.81
401.734	567.81
401.958	624.81
402.182	593.81
402.406	607.81
402.63	611.81
402.854	596.81
403.078	611.81
403.302	617.81
403.526	618.81
403.75	610.81
403.974	619.81
404.198	624.81
404.422	608.81
404.645	633.81
404.869	614.81
405.093	659.81
405.317	681.81
405.541	707.81
405.765	673.81
405.988	657.81
406.212	653.81
406.436	678.81
406.66	708.81
406.883	697.81
407.107	700.81
407.331	741.81
407.555	841.81
407.778	847.81
408.002	751.81
408.226	700.81
408.449	675.81
408.673	705.81
408.896	714.81
409.12	780.81
409.344	699.81
409.567	661.81
409.791	633.81
410.014	620.81
410.238	626.81
410.461	619.81
410.685	629.81
410.908	639.81
411.132	701.81
411.355	727.81
411.578	713.81
411.802	639.81
412.025	628.81
412.249	618.81
412.472	649.81
412.695	649.81
412.919	653.81
413.142	620.81
413.365	590.81
413.589	610.81
413.812	567.81
414.035	601.81
414.258	592.81
414.482	590.81
414.705	603.81
414.928	580.81
415.151	596.81
415.374	591.81
415.597	565.81
415.821	584.81
416.044	561.81
416.267	584.81
416.49	610.81
416.713	593.81
416.936	581.81
417.159	585.81
417.382	588.81
417.605	597.81
417.828	597.81
418.051	612.81
418.274	605.81
418.497	575.81
418.72	580.81
418.943	578.81
419.166	611.81
419.389	627.81
419.611	614.81
419.834	599.81
420.057	590.81
420.28	618.81
420.503	617.81
420.726	607.81
420.948	613.81
421.171	674.81
421.394	711.81
421.617	634.81
421.839	636.81
422.062	627.81
422.285	630.81
422.507	716.81
422.73	789.81
422.953	759.81
423.175	677.81
423.398	641.81
423.621	625.81
423.843	660.81
424.066	664.81
424.288	667.81
424.511	678.81
424.733	744.81
424.956	841.81
425.178	836.81
425.401	795.81
425.623	840.81
425.846	718.81
426.068	675.81
426.291	638.81
426.513	675.81
426.735	668.81
426.958	716.81
427.18	821.81
427.402	988.81
427.625	1071.81
427.847	935.81
428.069	809.81
428.292	716.81
428.514	657.81
428.736	637.81
428.958	630.81
429.181	642.81
429.403	619.81
429.625	617.81
429.847	642.81
430.069	776.81
430.292	737.81
430.514	658.81
430.736	647.81
430.958	620.81
431.18	570.81
431.402	580.81
431.624	565.81
431.846	595.81
432.068	582.81
432.29	571.81
432.512	584.81
432.734	587.81
432.956	580.81
433.178	611.81
433.4	597.81
433.622	587.81
433.844	606.81
434.066	580.81
434.287	570.81
434.509	580.81
434.731	583.81
434.953	606.81
435.175	628.81
435.397	648.81
435.618	678.81
435.84	717.81
436.062	841.81
436.284	921.81
436.505	756.81
436.727	704.81
436.949	652.81
437.17	632.81
437.392	620.81
437.614	627.81
437.835	665.81
438.057	787.81
438.278	920.81
438.5	893.81
438.721	1003.81
438.943	969.81
439.165	760.81
439.386	707.81
439.608	659.81
439.829	691.81
440.05	695.81
440.272	747.81
440.493	717.81
440.715	667.81
440.936	658.81
441.158	645.81
441.379	624.81
441.6	649.81
441.822	659.81
442.043	725.81
442.264	817.81
442.486	857.81
442.707	737.81
442.928	671.81
443.149	681.81
443.371	699.81
443.592	771.81
443.813	868.81
444.034	950.81
444.255	783.81
444.476	709.81
444.698	685.81
444.919	675.81
445.14	768.81
445.361	754.81
445.582	710.81
445.803	771.81
446.024	923.81
446.245	951.81
446.466	862.81
446.687	720.81
446.908	675.81
447.129	644.81
447.35	627.81
447.571	618.81
447.792	602.81
448.013	590.81
448.234	645.81
448.455	685.81
448.675	828.81
448.896	971.81
449.117	823.81
449.338	789.81
449.559	923.81
449.779	1019.81
450	805.81
450.221	681.81
450.442	638.81
450.662	582.81
450.883	617.81
451.104	619.81
451.324	620.81
451.545	589.81
451.766	572.81
451.986	562.81
452.207	563.81
452.428	523.81
452.648	555.81
452.869	560.81
453.089	569.81
453.31	585.81
453.53	547.81
453.751	536.81
453.971	543.81
454.192	565.81
454.412	580.81
454.633	545.81
454.853	533.81
455.073	532.81
455.294	571.81
455.514	652.81
455.734	634.81
455.955	565.81
456.175	508.81
456.395	528.81
456.616	518.81
456.836	511.81
457.056	500.81
457.276	499.81
457.497	518.81
457.717	535.81
457.937	565.81
458.157	533.81
458.377	545.81
458.598	571.81
458.818	640.81
459.038	723.81
459.258	748.81
459.478	660.81
459.698	607.81
459.918	583.81
460.138	577.81
460.358	589.81
460.578	585.81
460.798	593.81
461.018	595.81
461.238	607.81
461.458	607.81
461.678	604.81
461.898	593.81
462.118	632.81
462.338	621.81
462.558	604.81
462.777	626.81
462.997	644.81
463.217	657.81
463.437	646.81
463.657	650.81
463.876	634.81
464.096	646.81
464.316	621.81
464.536	625.81
464.755	627.81
464.975	633.81
465.195	676.81
465.414	770.81
465.634	701.81
465.854	634.81
466.073	623.81
466.293	602.81
466.512	581.81
466.732	578.81
466.951	548.81
467.171	564.81
467.391	575.81
467.61	576.81
467.829	583.81
468.049	550.81
468.268	551.81
468.488	546.81
468.707	556.81
468.927	551.81
469.146	553.81
469.365	553.81
469.585	549.81
469.804	541.81
470.023	586.81
470.243	573.81
470.462	588.81
470.681	593.81
470.901	573.81
471.12	576.81
471.339	597.81
471.558	573.81
471.777	591.81
471.997	564.81
472.216	591.81
472.435	579.81
472.654	550.81
472.873	549.81
473.092	571.81
473.311	576.81
473.53	583.81
473.749	605.81
473.968	628.81
474.187	753.81
474.406	793.81
474.625	637.81
474.844	615.81
475.063	562.81
475.282	585.81
475.501	585.81
475.72	587.81
475.939	578.81
476.158	567.81
476.377	595.81
476.596	580.81
476.814	610.81
477.033	608.81
477.252	590.81
477.471	626.81
477.69	583.81
477.908	630.81
478.127	637.81
478.346	633.81
478.564	640.81
478.783	638.81
479.002	662.81
479.22	659.81
479.439	664.81
479.658	681.81
479.876	682.81
480.095	696.81
480.313	724.81
480.532	725.81
480.751	714.81
480.969	712.81
481.188	714.81
481.406	744.81
481.624	704.81
481.843	691.81
482.061	696.81
482.28	674.81
482.498	665.81
482.717	718.81
482.935	668.81
483.153	672.81
483.372	677.81
483.59	660.81
483.808	679.81
484.027	665.81
484.245	681.81
484.463	668.81
484.681	706.81
484.9	685.81
485.118	676.81
485.336	704.81
485.554	695.81
485.772	694.81
485.99	707.81
486.209	688.81
486.427	707.81
486.645	728.81
486.863	743.81
487.081	744.81
487.299	756.81
487.517	729.81
487.735	707.81
487.953	753.81
488.171	718.81
488.389	725.81
488.607	734.81
488.825	728.81
489.043	754.81
489.261	724.81
489.479	739.81
489.696	745.81
489.914	736.81
490.132	725.81
490.35	771.81
490.568	755.81
490.786	780.81
491.003	799.81
491.221	821.81
491.439	795.81
491.657	811.81
491.874	812.81
492.092	822.81
492.31	835.81
492.527	829.81
492.745	828.81
492.963	849.81
493.18	835.81
493.398	831.81
493.615	851.81
493.833	841.81
494.05	873.81
494.268	855.81
494.485	860.81
494.703	880.81
494.92	879.81
495.138	854.81
495.355	857.81
495.573	855.81
495.79	835.81
496.008	879.81
496.225	881.81
496.442	857.81
496.66	887.81
496.877	863.81
497.094	867.81
497.312	877.81
497.529	914.81
497.746	887.81
497.963	911.81
498.181	928.81
498.398	955.81
498.615	1004.81
498.832	1004.81
499.049	1024.81
499.267	1038.81
499.484	1029.81
499.701	1095.81
499.918	1126.81
500.135	1167.81
500.352	1201.81
500.569	1245.81
500.786	1240.81
501.003	1232.81
501.22	1195.81
501.437	1164.81
501.654	1141.81
501.871	1111.81
502.088	1087.81
502.305	1045.81
502.522	1011.81
502.739	984.81
502.956	955.81
503.172	955.81
503.389	899.81
503.606	917.81
503.823	890.81
504.04	913.81
504.256	899.81
504.473	874.81
504.69	874.81
504.907	896.81
505.123	882.81
505.34	855.81
505.557	820.81
505.773	842.81
505.99	832.81
506.207	838.81
506.423	836.81
506.64	824.81
506.856	807.81
507.073	819.81
507.289	806.81
507.506	817.81
507.722	808.81
507.939	837.81
508.155	805.81
508.372	816.81
508.588	793.81
508.805	793.81
509.021	811.81
509.238	793.81
509.454	792.81
509.67	786.81
509.887	786.81
510.103	780.81
510.319	786.81
510.536	905.81
510.752	1399.81
510.968	1185.81
511.184	819.81
511.401	783.81
511.617	769.81
511.833	751.81
512.049	726.81
512.265	751.81
512.481	732.81
512.698	743.81
512.914	748.81
513.13	731.81
513.346	744.81
513.562	744.81
513.778	725.81
513.994	756.81
514.21	783.81
514.426	783.81
514.642	836.81
514.858	860.81
515.074	903.81
515.29	1059.81
515.506	1493.81
515.721	1267.81
515.937	895.81
516.153	867.81
516.369	803.81
516.585	799.81
516.801	793.81
517.016	799.81
517.232	806.81
517.448	782.81
517.664	788.81
517.879	791.81
518.095	806.81
518.311	792.81
518.527	765.81
518.742	773.81
518.958	752.81
519.173	768.81
519.389	762.81
519.605	758.81
519.82	760.81
520.036	775.81
520.251	811.81
520.467	798.81
520.682	801.81
520.898	819.81
521.113	823.81
521.329	903.81
521.544	988.81
521.76	1245.81
521.975	1924.81
522.19	1957.81
522.406	1137.81
522.621	853.81
522.836	781.81
523.052	755.81
523.267	707.81
523.482	681.81
523.698	705.81
523.913	699.81
524.128	705.81
524.343	696.81
524.559	692.81
524.774	647.81
524.989	646.81
525.204	666.81
525.419	661.81
525.634	647.81
525.849	641.81
526.064	628.81
526.28	643.81
526.495	617.81
526.71	625.81
526.925	635.81
527.14	604.81
527.355	616.81
527.57	641.81
527.785	608.81
527.999	616.81
528.214	627.81
528.429	631.81
528.644	610.81
528.859	612.81
529.074	646.81
529.289	616.81
529.503	722.81
529.718	711.81
529.933	655.81
530.148	640.81
530.363	645.81
530.577	606.81
530.792	612.81
531.007	582.81
531.221	595.81
531.436	616.81
531.651	614.81
531.865	591.81
532.08	600.81
532.295	611.81
532.509	606.81
532.724	593.81
532.938	583.81
533.153	585.81
533.367	579.81
533.582	570.81
533.796	561.81
534.011	573.81
534.225	589.81
534.44	570.81
534.654	593.81
534.868	581.81
535.083	583.81
535.297	569.81
535.511	568.81
535.726	582.81
535.94	577.81
536.154	577.81
536.369	586.81
536.583	565.81
536.797	583.81
537.011	573.81
537.225	571.81
537.44	561.81
537.654	576.81
537.868	543.81
538.082	556.81
538.296	556.81
538.51	542.81
538.724	578.81
538.938	573.81
539.153	542.81
539.367	552.81
539.581	568.81
539.795	547.81
540.009	566.81
540.222	557.81
540.436	542.81
540.65	577.81
540.864	555.81
541.078	571.81
541.292	583.81
541.506	552.81
541.72	548.81
541.934	559.81
542.147	540.81
542.361	550.81
542.575	577.81
542.789	549.81
543.002	556.81
543.216	567.81
543.43	552.81
543.644	545.81
543.857	550.81
544.071	534.81
544.285	560.81
544.498	548.81
544.712	545.81
544.925	535.81
545.139	549.81
545.352	539.81
545.566	537.81
545.779	537.81
545.993	538.81
546.206	556.81
546.42	533.81
546.633	543.81
546.847	529.81
547.06	536.81
547.274	545.81
547.487	547.81
547.7	527.81
547.914	512.81
548.127	532.81
548.34	545.81
548.554	540.81
548.767	533.81
548.98	534.81
549.193	535.81
549.407	531.81
549.62	526.81
549.833	537.81
550.046	536.81
550.259	529.81
550.473	530.81
550.686	542.81
550.899	527.81
551.112	501.81
551.325	506.81
551.538	513.81
551.751	517.81
551.964	494.81
552.177	514.81
552.39	531.81
552.603	515.81
552.816	554.81
553.029	512.81
553.242	531.81
553.455	529.81
553.667	539.81
553.88	555.81
554.093	557.81
554.306	514.81
554.519	537.81
554.732	507.81
554.944	530.81
555.157	531.81
555.37	511.81
555.583	516.81
555.795	524.81
556.008	503.81
556.221	491.81
556.433	496.81
556.646	452.81
556.859	500.81
557.071	505.81
557.284	491.81
557.496	476.81
557.709	478.81
557.921	480.81
558.134	443.81
558.346	465.81
558.559	466.81
558.771	484.81
558.984	474.81
559.196	469.81
559.409	467.81
559.621	462.81
559.833	456.81
560.046	455.81
560.258	461.81
560.47	474.81
560.683	473.81
560.895	468.81
561.107	464.81
561.32	485.81
561.532	461.81
561.744	472.81
561.956	481.81
562.168	464.81
562.381	461.81
562.593	469.81
562.805	493.81
563.017	473.81
563.229	486.81
563.441	491.81
563.653	484.81
563.865	474.81
564.077	477.81
564.289	477.81
564.501	495.81
564.713	480.81
564.925	513.81
565.137	493.81
565.349	507.81
565.561	517.81
565.773	515.81
565.985	491.81
566.197	514.81
566.408	554.81
566.62	540.81
566.832	555.81
567.044	579.81
567.255	567.81
567.467	590.81
567.679	594.81
567.891	609.81
568.102	609.81
568.314	584.81
568.526	593.81
568.737	547.81
568.949	537.81
569.161	497.81
569.372	490.81
569.584	498.81
569.795	498.81
570.007	493.81
570.218	500.81
570.43	509.81
570.641	469.81
570.853	471.81
571.064	469.81
571.276	468.81
571.487	448.81
571.698	423.81
571.91	435.81
572.121	439.81
572.333	432.81
572.544	418.81
572.755	403.81
572.966	409.81
573.178	446.81
573.389	431.81
573.6	406.81
573.811	411.81
574.023	411.81
574.234	412.81
574.445	395.81
574.656	381.81
574.867	411.81
575.078	407.81
575.289	388.81
575.501	393.81
575.712	410.81
575.923	380.81
576.134	401.81
576.345	391.81
576.556	383.81
576.767	406.81
576.978	383.81
577.188	405.81
577.399	387.81
577.61	385.81
577.821	396.81
578.032	401.81
578.243	415.81
578.454	647.81
578.665	511.81
578.875	395.81
579.086	373.81
579.297	389.81
579.508	383.81
579.718	372.81
579.929	378.81
580.14	362.81
580.35	364.81
580.561	376.81
580.772	359.81
580.982	373.81
581.193	365.81
581.403	351.81
581.614	355.81
581.825	361.81
582.035	375.81
582.246	353.81
582.456	379.81
582.667	375.81
582.877	373.81
583.087	351.81
583.298	375.81
583.508	365.81
583.719	364.81
583.929	369.81
584.139	356.81
584.35	349.81
584.56	362.81
584.77	352.81
584.981	369.81
585.191	354.81
585.401	334.81
585.611	355.81
585.821	356.81
586.032	358.81
586.242	361.81
586.452	355.81
586.662	353.81
586.872	372.81
587.082	348.81
587.292	347.81
587.502	330.81
587.713	334.81
587.923	350.81
588.133	362.81
588.343	345.81
588.553	351.81
588.762	354.81
588.972	338.81
589.182	357.81
589.392	347.81
589.602	338.81
589.812	359.81
590.022	350.81
590.232	349.81
590.441	343.81
590.651	355.81
590.861	361.81
591.071	354.81
591.281	353.81
591.49	356.81
591.7	348.81
591.91	357.81
592.119	361.81
592.329	357.81
592.539	369.81
592.748	369.81
592.958	351.81
593.167	362.81
593.377	358.81
593.587	374.81
593.796	373.81
594.006	379.81
594.215	369.81
594.424	344.81
594.634	367.81
594.843	359.81
595.053	349.81
595.262	359.81
595.472	340.81
595.681	353.81
595.89	330.81
596.1	337.81
596.309	348.81
596.518	332.81
596.727	322.81
596.937	343.81
597.146	306.81
597.355	315.81
597.564	323.81
597.774	325.81
597.983	316.81
598.192	322.81
598.401	312.81
598.61	313.81
598.819	323.81
599.028	319.81
599.237	310.81
599.446	300.81
599.655	287.81
599.864	309.81
600.073	292.81
600.282	282.81
600.491	305.81
600.7	304.81
600.909	309.81
601.118	317.81
601.327	294.81
601.536	280.81
601.745	316.81
601.953	306.81
602.162	286.81
602.371	307.81
602.58	295.81
602.789	279.81
602.997	293.81
603.206	298.81
603.415	289.81
603.623	293.81
603.832	306.81
604.041	296.81
604.249	288.81
604.458	287.81
604.666	280.81
604.875	281.81
605.084	283.81
605.292	305.81
605.501	296.81
605.709	285.81
605.918	284.81
606.126	286.81
606.334	284.81
606.543	293.81
606.751	284.81
606.96	277.81
607.168	283.81
607.376	274.81
607.585	274.81
607.793	279.81
608.001	287.81
608.21	273.81
608.418	275.81
608.626	268.81
608.834	283.81
609.043	268.81
609.251	281.81
609.459	273.81
609.667	312.81
609.875	283.81
610.083	275.81
610.291	284.81
610.499	271.81
610.707	267.81
610.916	297.81
611.124	271.81
611.332	291.81
611.54	287.81
611.748	273.81
611.955	275.81
612.163	277.81
612.371	277.81
612.579	273.81
612.787	285.81
612.995	261.81
613.203	266.81
613.411	257.81
613.618	268.81
613.826	249.81
614.034	288.81
614.242	275.81
614.449	261.81
614.657	258.81
614.865	272.81
615.072	265.81
615.28	275.81
615.488	261.81
615.695	280.81
615.903	270.81
616.111	275.81
616.318	284.81
616.526	257.81
616.733	274.81
616.941	258.81
617.148	270.81
617.356	275.81
617.563	251.81
617.771	271.81
617.978	263.81
618.185	275.81
618.393	253.81
618.6	264.81
618.807	258.81
619.015	269.81
619.222	241.81
619.429	269.81
619.637	267.81
619.844	276.81
620.051	260.81
620.258	253.81
620.466	258.81
620.673	259.81
620.88	240.81
621.087	253.81
621.294	251.81
621.501	265.81
621.708	248.81
621.915	244.81
622.122	256.81
622.329	248.81
622.536	264.81
622.743	251.81
622.95	237.81
623.157	255.81
623.364	244.81
623.571	271.81
623.778	244.81
623.985	248.81
624.192	243.81
624.399	234.81
624.606	236.81
624.812	246.81
625.019	233.81
625.226	233.81
625.433	234.81
625.639	240.81
625.846	236.81
626.053	223.81
626.259	249.81
626.466	239.81
626.673	226.81
626.879	221.81
627.086	218.81
627.293	229.81
627.499	222.81
627.706	224.81
627.912	225.81
628.119	226.81
628.325	236.81
628.532	234.81
628.738	239.81
628.945	220.81
629.151	233.81
629.357	220.81
629.564	210.81
629.77	235.81
629.976	216.81
630.183	235.81
630.389	207.81
630.595	218.81
630.802	208.81
631.008	215.81
631.214	230.81
631.42	204.81
631.627	191.81
631.833	206.81
632.039	200.81
632.245	208.81
632.451	219.81
632.657	209.81
632.863	216.81
633.069	213.81
633.275	210.81
633.481	221.81
633.688	210.81
633.893	211.81
634.099	218.81
634.305	212.81
634.511	196.81
634.717	209.81
634.923	203.81
635.129	193.81
635.335	200.81
635.541	200.81
635.747	212.81
635.952	210.81
636.158	202.81
636.364	207.81
636.57	198.81
636.775	197.81
636.981	182.81
637.187	191.81
637.392	194.81
637.598	211.81
637.804	197.81
638.009	210.81
638.215	200.81
638.421	199.81
638.626	195.81
638.832	203.81
639.037	197.81
639.243	187.81
639.448	192.81
639.654	195.81
639.859	183.81
640.065	195.81
640.27	199.81
640.475	198.81
640.681	194.81
640.886	191.81
641.091	189.81
641.297	184.81
641.502	172.81
641.707	179.81
641.913	210.81
642.118	168.81
642.323	191.81
642.528	196.81
642.733	180.81
642.939	187.81
643.144	178.81
643.349	194.81
643.554	172.81
643.759	167.81
643.964	171.81
644.169	177.81
644.374	179.81
644.579	187.81
644.784	182.81
644.989	182.81
645.194	185.81
645.399	163.81
645.604	174.81
645.809	180.81
646.014	193.81
646.219	181.81
646.423	195.81
646.628	172.81
646.833	179.81
647.038	175.81
647.243	178.81
647.447	197.81
647.652	171.81
647.857	177.81
648.062	208.81
648.266	194.81
648.471	191.81
648.676	192.81
648.88	186.81
649.085	191.81
649.289	187.81
649.494	206.81
649.698	223.81
649.903	210.81
650.107	202.81
650.312	195.81
650.516	182.81
650.721	186.81
650.925	169.81
651.13	177.81
651.334	166.81
651.539	157.81
651.743	160.81
651.947	161.81
652.152	164.81
652.356	167.81
652.56	158.81
652.764	169.81
652.969	151.81
653.173	146.81
653.377	168.81
653.581	158.81
653.785	161.81
653.99	145.81
654.194	147.81
654.398	137.81
654.602	145.81
654.806	138.81
655.01	153.81
655.214	156.81
655.418	146.81
655.622	131.81
655.826	143.81
656.03	141.81
656.234	129.81
656.438	159.81
656.642	147.81
656.846	138.81
657.049	140.81
657.253	140.81
657.457	146.81
657.661	116.81
657.865	125.81
658.068	106.81
658.272	113.81
658.476	91.81
658.68	118.81
658.883	101.81
659.087	96.81
659.291	108.81
659.494	103.81
659.698	87.81
659.901	100.81
660.105	97.81
660.309	89.81
660.512	115.81
660.716	104.81
660.919	99.81
661.123	97.81
661.326	88.81
661.53	83.81
661.733	82.81
661.936	85.81
662.14	83.81
662.343	90.81
662.546	69.81
662.75	83.81
662.953	79.81
663.156	92.81
663.36	89.81
663.563	94.81
663.766	67.81
663.969	77.81
664.173	98.81
664.376	71.81
664.579	87.81
664.782	92.81
664.985	90.81
665.188	95.81
665.391	85.81
665.594	83.81
665.797	100.81
666	72.81
666.203	72.81
666.406	79.81
666.609	69.81
666.812	92.81
667.015	91.81
667.218	89.81
667.421	97.81
667.624	73.81
667.827	78.81
668.03	93.81
668.232	76.81
668.435	87.81
668.638	88.81
668.841	83.81
669.043	78.81
669.246	90.81
669.449	78.81
669.651	83.81
669.854	88.81
670.057	87.81
670.259	90.81
670.462	77.81
670.665	88.81
670.867	82.81
671.07	91.81
671.272	100.81
671.475	90.81
671.677	80.81
671.88	80.81
672.082	66.81
672.284	84.81
672.487	83.81
672.689	85.81
672.892	75.81
