Data from 1988.PennyLincolnUp.Lamp.En5.5.200Scan.071819.P2_HRD10591_17-20-35-972.txt Node
Date: Thu Jul 18 17:20:35 EDT 2019
User: cochatt
Spectrometer: HR+D1059
Trigger mode: 1
Integration Time (sec): 1.000000E-1
Scans to average: 1
Electric dark correction enabled: true
Nonlinearity correction enabled: false
Boxcar width: 0
XAxis mode: Wavelengths
Number of Pixels in Spectrum: 2048
>>>>>Begin Spectral Data<<<<<
223.165	-9.94
223.4	-9.94
223.635	-9.94
223.869	-13.94
224.104	-17.94
224.338	-20.94
224.573	-28.94
224.808	-1.94
225.042	2.06
225.277	2.06
225.511	-3.94
225.746	20.06
225.98	-2.94
226.215	8.06
226.449	4.06
226.683	3.06
226.918	23.06
227.152	38.06
227.387	31.06
227.621	17.06
227.856	45.06
228.09	42.06
228.324	41.06
228.559	54.06
228.793	83.06
229.027	99.06
229.262	112.06
229.496	102.06
229.73	145.06
229.964	163.06
230.199	148.06
230.433	120.06
230.667	117.06
230.901	119.06
231.136	118.06
231.37	130.06
231.604	120.06
231.838	127.06
232.072	124.06
232.306	126.06
232.541	101.06
232.775	124.06
233.009	119.06
233.243	108.06
233.477	124.06
233.711	134.06
233.945	133.06
234.179	114.06
234.413	130.06
234.647	129.06
234.881	127.06
235.115	116.06
235.349	130.06
235.583	125.06
235.817	134.06
236.051	152.06
236.285	135.06
236.519	132.06
236.753	139.06
236.987	150.06
237.221	213.06
237.455	265.06
237.689	203.06
237.922	158.06
238.156	137.06
238.39	129.06
238.624	141.06
238.858	131.06
239.091	125.06
239.325	129.06
239.559	136.06
239.793	143.06
240.027	153.06
240.26	163.06
240.494	182.06
240.728	170.06
240.961	156.06
241.195	143.06
241.429	136.06
241.662	148.06
241.896	130.06
242.13	145.06
242.363	138.06
242.597	145.06
242.83	148.06
243.064	140.06
243.298	148.06
243.531	152.06
243.765	142.06
243.998	148.06
244.232	148.06
244.465	164.06
244.699	153.06
244.932	159.06
245.166	155.06
245.399	158.06
245.633	153.06
245.866	152.06
246.099	154.06
246.333	142.06
246.566	156.06
246.8	168.06
247.033	174.06
247.266	174.06
247.5	196.06
247.733	188.06
247.966	194.06
248.2	181.06
248.433	180.06
248.666	177.06
248.899	197.06
249.133	228.06
249.366	227.06
249.599	234.06
249.832	187.06
250.066	190.06
250.299	185.06
250.532	202.06
250.765	195.06
250.998	241.06
251.231	252.06
251.465	228.06
251.698	221.06
251.931	205.06
252.164	204.06
252.397	219.06
252.63	231.06
252.863	218.06
253.096	224.06
253.329	251.06
253.562	240.06
253.795	245.06
254.028	248.06
254.261	225.06
254.494	230.06
254.727	278.06
254.96	301.06
255.193	294.06
255.426	264.06
255.659	242.06
255.892	243.06
256.124	259.06
256.357	237.06
256.59	230.06
256.823	214.06
257.056	232.06
257.289	222.06
257.521	224.06
257.754	238.06
257.987	236.06
258.22	225.06
258.452	241.06
258.685	229.06
258.918	221.06
259.151	249.06
259.383	237.06
259.616	241.06
259.849	258.06
260.081	245.06
260.314	264.06
260.547	266.06
260.779	267.06
261.012	262.06
261.244	253.06
261.477	245.06
261.71	247.06
261.942	234.06
262.175	258.06
262.407	249.06
262.64	222.06
262.872	224.06
263.105	221.06
263.337	235.06
263.57	245.06
263.802	229.06
264.035	240.06
264.267	224.06
264.499	221.06
264.732	224.06
264.964	222.06
265.197	224.06
265.429	242.06
265.661	225.06
265.894	228.06
266.126	237.06
266.358	231.06
266.591	255.06
266.823	247.06
267.055	244.06
267.287	250.06
267.52	233.06
267.752	236.06
267.984	250.06
268.216	250.06
268.448	223.06
268.681	253.06
268.913	274.06
269.145	259.06
269.377	302.06
269.609	304.06
269.841	306.06
270.073	310.06
270.306	329.06
270.538	355.06
270.77	330.06
271.002	322.06
271.234	341.06
271.466	326.06
271.698	339.06
271.93	326.06
272.162	334.06
272.394	353.06
272.626	337.06
272.858	338.06
273.09	305.06
273.322	295.06
273.553	270.06
273.785	299.06
274.017	295.06
274.249	292.06
274.481	278.06
274.713	284.06
274.945	290.06
275.176	284.06
275.408	281.06
275.64	279.06
275.872	288.06
276.104	284.06
276.335	275.06
276.567	299.06
276.799	315.06
277.031	329.06
277.262	331.06
277.494	322.06
277.726	325.06
277.957	301.06
278.189	314.06
278.421	291.06
278.652	306.06
278.884	298.06
279.115	288.06
279.347	297.06
279.579	308.06
279.81	297.06
280.042	292.06
280.273	288.06
280.505	281.06
280.736	289.06
280.968	282.06
281.199	307.06
281.431	298.06
281.662	307.06
281.894	301.06
282.125	308.06
282.356	328.06
282.588	333.06
282.819	352.06
283.051	315.06
283.282	311.06
283.513	305.06
283.745	288.06
283.976	302.06
284.207	307.06
284.439	284.06
284.67	299.06
284.901	296.06
285.132	296.06
285.364	309.06
285.595	319.06
285.826	307.06
286.057	304.06
286.288	306.06
286.52	309.06
286.751	298.06
286.982	306.06
287.213	309.06
287.444	320.06
287.675	306.06
287.906	330.06
288.138	309.06
288.369	332.06
288.6	329.06
288.831	324.06
289.062	314.06
289.293	329.06
289.524	355.06
289.755	324.06
289.986	347.06
290.217	315.06
290.448	316.06
290.679	318.06
290.91	315.06
291.141	315.06
291.371	308.06
291.602	316.06
291.833	307.06
292.064	337.06
292.295	314.06
292.526	326.06
292.757	313.06
292.987	314.06
293.218	311.06
293.449	314.06
293.68	331.06
293.91	326.06
294.141	334.06
294.372	314.06
294.603	324.06
294.833	321.06
295.064	328.06
295.295	341.06
295.525	333.06
295.756	330.06
295.987	342.06
296.217	355.06
296.448	380.06
296.679	333.06
296.909	344.06
297.14	325.06
297.37	332.06
297.601	326.06
297.831	330.06
298.062	345.06
298.292	329.06
298.523	354.06
298.753	357.06
298.984	334.06
299.214	331.06
299.445	370.06
299.675	360.06
299.905	347.06
300.136	337.06
300.366	350.06
300.597	346.06
300.827	360.06
301.057	350.06
301.288	359.06
301.518	372.06
301.748	363.06
301.979	359.06
302.209	373.06
302.439	373.06
302.669	378.06
302.9	362.06
303.13	359.06
303.36	358.06
303.59	355.06
303.82	368.06
304.051	386.06
304.281	357.06
304.511	364.06
304.741	372.06
304.971	371.06
305.201	343.06
305.431	348.06
305.661	372.06
305.891	382.06
306.121	366.06
306.352	377.06
306.582	392.06
306.812	361.06
307.042	362.06
307.272	375.06
307.502	365.06
307.731	388.06
307.961	388.06
308.191	354.06
308.421	382.06
308.651	384.06
308.881	361.06
309.111	365.06
309.341	375.06
309.571	386.06
309.8	393.06
310.03	415.06
310.26	422.06
310.49	410.06
310.72	422.06
310.949	430.06
311.179	452.06
311.409	430.06
311.639	422.06
311.868	436.06
312.098	411.06
312.328	445.06
312.557	458.06
312.787	489.06
313.017	476.06
313.246	425.06
313.476	429.06
313.706	438.06
313.935	428.06
314.165	456.06
314.394	454.06
314.624	456.06
314.853	454.06
315.083	434.06
315.312	435.06
315.542	401.06
315.771	420.06
316.001	428.06
316.23	438.06
316.46	428.06
316.689	430.06
316.919	439.06
317.148	448.06
317.377	448.06
317.607	420.06
317.836	417.06
318.065	424.06
318.295	400.06
318.524	422.06
318.753	432.06
318.983	420.06
319.212	449.06
319.441	450.06
319.67	445.06
319.9	408.06
320.129	432.06
320.358	424.06
320.587	449.06
320.816	439.06
321.046	451.06
321.275	450.06
321.504	440.06
321.733	450.06
321.962	471.06
322.191	481.06
322.42	467.06
322.649	510.06
322.878	532.06
323.108	542.06
323.337	557.06
323.566	571.06
323.795	605.06
324.024	662.06
324.253	807.06
324.482	1148.06
324.71	1829.06
324.939	2700.06
325.168	2320.06
325.397	1164.06
325.626	776.06
325.855	647.06
326.084	588.06
326.313	589.06
326.542	581.06
326.77	651.06
326.999	724.06
327.228	1028.06
327.457	1612.06
327.686	1976.06
327.914	1300.06
328.143	841.06
328.372	720.06
328.6	681.06
328.829	657.06
329.058	682.06
329.287	681.06
329.515	633.06
329.744	568.06
329.972	546.06
330.201	561.06
330.43	606.06
330.658	633.06
330.887	690.06
331.115	691.06
331.344	595.06
331.572	553.06
331.801	549.06
332.03	559.06
332.258	535.06
332.486	530.06
332.715	513.06
332.943	534.06
333.172	510.06
333.4	512.06
333.629	522.06
333.857	550.06
334.085	556.06
334.314	547.06
334.542	548.06
334.771	555.06
334.999	544.06
335.227	543.06
335.455	519.06
335.684	513.06
335.912	501.06
336.14	502.06
336.369	511.06
336.597	526.06
336.825	525.06
337.053	510.06
337.281	498.06
337.51	490.06
337.738	497.06
337.966	523.06
338.194	525.06
338.422	487.06
338.65	510.06
338.878	498.06
339.106	497.06
339.334	483.06
339.562	500.06
339.79	498.06
340.018	510.06
340.246	522.06
340.474	497.06
340.702	512.06
340.93	507.06
341.158	482.06
341.386	502.06
341.614	520.06
341.842	488.06
342.07	478.06
342.298	484.06
342.526	494.06
342.754	456.06
342.981	466.06
343.209	492.06
343.437	493.06
343.665	510.06
343.893	506.06
344.12	497.06
344.348	514.06
344.576	484.06
344.804	506.06
345.031	484.06
345.259	526.06
345.487	508.06
345.714	512.06
345.942	477.06
346.17	492.06
346.397	473.06
346.625	469.06
346.853	471.06
347.08	485.06
347.308	486.06
347.535	481.06
347.763	475.06
347.99	486.06
348.218	481.06
348.445	510.06
348.673	493.06
348.9	504.06
349.128	479.06
349.355	479.06
349.583	442.06
349.81	467.06
350.037	456.06
350.265	469.06
350.492	472.06
350.72	456.06
350.947	489.06
351.174	484.06
351.402	494.06
351.629	482.06
351.856	493.06
352.083	503.06
352.311	514.06
352.538	504.06
352.765	498.06
352.992	471.06
353.22	493.06
353.447	474.06
353.674	463.06
353.901	469.06
354.128	454.06
354.355	452.06
354.583	457.06
354.81	436.06
355.037	430.06
355.264	439.06
355.491	438.06
355.718	466.06
355.945	426.06
356.172	436.06
356.399	444.06
356.626	456.06
356.853	458.06
357.08	452.06
357.307	477.06
357.534	455.06
357.761	440.06
357.988	461.06
358.215	441.06
358.441	457.06
358.668	460.06
358.895	454.06
359.122	458.06
359.349	481.06
359.576	500.06
359.802	490.06
360.029	518.06
360.256	536.06
360.483	518.06
360.709	485.06
360.936	496.06
361.163	466.06
361.39	478.06
361.616	479.06
361.843	483.06
362.07	491.06
362.296	472.06
362.523	508.06
362.749	480.06
362.976	466.06
363.203	466.06
363.429	472.06
363.656	444.06
363.882	460.06
364.109	470.06
364.335	472.06
364.562	456.06
364.788	469.06
365.015	459.06
365.241	478.06
365.468	467.06
365.694	472.06
365.92	488.06
366.147	484.06
366.373	474.06
366.599	466.06
366.826	462.06
367.052	448.06
367.278	466.06
367.505	461.06
367.731	466.06
367.957	472.06
368.184	480.06
368.41	478.06
368.636	462.06
368.862	480.06
369.089	452.06
369.315	457.06
369.541	492.06
369.767	473.06
369.993	457.06
370.219	457.06
370.445	462.06
370.672	466.06
370.898	433.06
371.124	472.06
371.35	454.06
371.576	476.06
371.802	455.06
372.028	459.06
372.254	473.06
372.48	456.06
372.706	468.06
372.932	462.06
373.158	477.06
373.384	474.06
373.61	477.06
373.835	438.06
374.061	475.06
374.287	480.06
374.513	488.06
374.739	485.06
374.965	466.06
375.191	471.06
375.416	483.06
375.642	478.06
375.868	464.06
376.094	493.06
376.319	473.06
376.545	464.06
376.771	464.06
376.997	457.06
377.222	465.06
377.448	478.06
377.674	455.06
377.899	462.06
378.125	470.06
378.35	456.06
378.576	468.06
378.802	449.06
379.027	461.06
379.253	469.06
379.478	463.06
379.704	453.06
379.929	463.06
380.155	474.06
380.38	473.06
380.606	494.06
380.831	477.06
381.057	490.06
381.282	464.06
381.507	481.06
381.733	468.06
381.958	455.06
382.184	473.06
382.409	481.06
382.634	497.06
382.86	482.06
383.085	477.06
383.31	478.06
383.535	506.06
383.761	474.06
383.986	489.06
384.211	500.06
384.436	506.06
384.662	504.06
384.887	501.06
385.112	478.06
385.337	516.06
385.562	530.06
385.787	516.06
386.013	537.06
386.238	502.06
386.463	519.06
386.688	530.06
386.913	508.06
387.138	506.06
387.363	515.06
387.588	538.06
387.813	537.06
388.038	540.06
388.263	533.06
388.488	532.06
388.713	509.06
388.938	520.06
389.163	540.06
389.387	534.06
389.612	521.06
389.837	514.06
390.062	518.06
390.287	526.06
390.512	509.06
390.736	525.06
390.961	510.06
391.186	529.06
391.411	535.06
391.636	517.06
391.86	518.06
392.085	533.06
392.31	564.06
392.534	534.06
392.759	533.06
392.984	546.06
393.208	508.06
393.433	550.06
393.658	533.06
393.882	534.06
394.107	513.06
394.331	554.06
394.556	516.06
394.78	527.06
395.005	539.06
395.229	530.06
395.454	541.06
395.678	550.06
395.903	554.06
396.127	602.06
396.352	576.06
396.576	554.06
396.801	550.06
397.025	545.06
397.249	558.06
397.474	560.06
397.698	560.06
397.922	586.06
398.147	592.06
398.371	628.06
398.595	600.06
398.82	580.06
399.044	608.06
399.268	648.06
399.492	673.06
399.717	710.06
399.941	744.06
400.165	748.06
400.389	762.06
400.613	701.06
400.837	643.06
401.062	621.06
401.286	608.06
401.51	618.06
401.734	619.06
401.958	607.06
402.182	633.06
402.406	614.06
402.63	630.06
402.854	637.06
403.078	622.06
403.302	615.06
403.526	635.06
403.75	613.06
403.974	619.06
404.198	602.06
404.422	639.06
404.645	650.06
404.869	645.06
405.093	658.06
405.317	676.06
405.541	719.06
405.765	695.06
405.988	666.06
406.212	674.06
406.436	676.06
406.66	691.06
406.883	678.06
407.107	720.06
407.331	752.06
407.555	854.06
407.778	832.06
408.002	768.06
408.226	728.06
408.449	702.06
408.673	694.06
408.896	758.06
409.12	780.06
409.344	744.06
409.567	668.06
409.791	654.06
410.014	634.06
410.238	629.06
410.461	635.06
410.685	636.06
410.908	648.06
411.132	723.06
411.355	752.06
411.578	720.06
411.802	629.06
412.025	613.06
412.249	631.06
412.472	616.06
412.695	665.06
412.919	638.06
413.142	628.06
413.365	613.06
413.589	635.06
413.812	587.06
414.035	600.06
414.258	602.06
414.482	603.06
414.705	603.06
414.928	603.06
415.151	580.06
415.374	597.06
415.597	597.06
415.821	609.06
416.044	585.06
416.267	601.06
416.49	584.06
416.713	599.06
416.936	593.06
417.159	554.06
417.382	586.06
417.605	613.06
417.828	618.06
418.051	629.06
418.274	612.06
418.497	605.06
418.72	607.06
418.943	610.06
419.166	616.06
419.389	653.06
419.611	635.06
419.834	637.06
420.057	642.06
420.28	586.06
420.503	611.06
420.726	626.06
420.948	642.06
421.171	694.06
421.394	720.06
421.617	618.06
421.839	626.06
422.062	636.06
422.285	640.06
422.507	714.06
422.73	805.06
422.953	754.06
423.175	695.06
423.398	641.06
423.621	636.06
423.843	661.06
424.066	684.06
424.288	670.06
424.511	694.06
424.733	757.06
424.956	866.06
425.178	831.06
425.401	802.06
425.623	853.06
425.846	696.06
426.068	668.06
426.291	666.06
426.513	674.06
426.735	683.06
426.958	718.06
427.18	831.06
427.402	994.06
427.625	1045.06
427.847	941.06
428.069	828.06
428.292	724.06
428.514	666.06
428.736	659.06
428.958	652.06
429.181	618.06
429.403	617.06
429.625	654.06
429.847	692.06
430.069	759.06
430.292	769.06
430.514	647.06
430.736	635.06
430.958	620.06
431.18	600.06
431.402	592.06
431.624	581.06
431.846	603.06
432.068	583.06
432.29	585.06
432.512	589.06
432.734	593.06
432.956	596.06
433.178	606.06
433.4	624.06
433.622	596.06
433.844	584.06
434.066	606.06
434.287	584.06
434.509	600.06
434.731	594.06
434.953	618.06
435.175	654.06
435.397	678.06
435.618	677.06
435.84	728.06
436.062	834.06
436.284	934.06
436.505	794.06
436.727	708.06
436.949	649.06
437.17	636.06
437.392	608.06
437.614	648.06
437.835	690.06
438.057	801.06
438.278	932.06
438.5	898.06
438.721	1025.06
438.943	972.06
439.165	773.06
439.386	677.06
439.608	682.06
439.829	676.06
440.05	727.06
440.272	771.06
440.493	715.06
440.715	653.06
440.936	621.06
441.158	632.06
441.379	620.06
441.6	652.06
441.822	665.06
442.043	755.06
442.264	836.06
442.486	911.06
442.707	737.06
442.928	691.06
443.149	694.06
443.371	723.06
443.592	786.06
443.813	874.06
444.034	965.06
444.255	811.06
444.476	724.06
444.698	690.06
444.919	701.06
445.14	805.06
445.361	770.06
445.582	746.06
445.803	801.06
446.024	931.06
446.245	937.06
446.466	865.06
446.687	730.06
446.908	673.06
447.129	649.06
447.35	641.06
447.571	608.06
447.792	608.06
448.013	624.06
448.234	656.06
448.455	711.06
448.675	865.06
448.896	968.06
449.117	827.06
449.338	799.06
449.559	932.06
449.779	1058.06
450	830.06
450.221	680.06
450.442	636.06
450.662	620.06
450.883	660.06
451.104	648.06
451.324	624.06
451.545	592.06
451.766	592.06
451.986	561.06
452.207	529.06
452.428	556.06
452.648	570.06
452.869	565.06
453.089	563.06
453.31	593.06
453.53	564.06
453.751	555.06
453.971	557.06
454.192	589.06
454.412	566.06
454.633	545.06
454.853	566.06
455.073	566.06
455.294	593.06
455.514	671.06
455.734	650.06
455.955	565.06
456.175	526.06
456.395	518.06
456.616	516.06
456.836	518.06
457.056	522.06
457.276	543.06
457.497	539.06
457.717	547.06
457.937	536.06
458.157	517.06
458.377	552.06
458.598	599.06
458.818	612.06
459.038	730.06
459.258	734.06
459.478	695.06
459.698	613.06
459.918	610.06
460.138	570.06
460.358	597.06
460.578	603.06
460.798	611.06
461.018	635.06
461.238	637.06
461.458	595.06
461.678	600.06
461.898	619.06
462.118	615.06
462.338	607.06
462.558	636.06
462.777	617.06
462.997	632.06
463.217	651.06
463.437	674.06
463.657	654.06
463.876	651.06
464.096	651.06
464.316	667.06
464.536	664.06
464.755	650.06
464.975	672.06
465.195	696.06
465.414	788.06
465.634	686.06
465.854	646.06
466.073	641.06
466.293	601.06
466.512	594.06
466.732	574.06
466.951	561.06
467.171	567.06
467.391	558.06
467.61	576.06
467.829	584.06
468.049	587.06
468.268	570.06
468.488	561.06
468.707	568.06
468.927	552.06
469.146	540.06
469.365	566.06
469.585	553.06
469.804	594.06
470.023	578.06
470.243	588.06
470.462	581.06
470.681	594.06
470.901	610.06
471.12	596.06
471.339	583.06
471.558	579.06
471.777	578.06
471.997	563.06
472.216	568.06
472.435	583.06
472.654	561.06
472.873	558.06
473.092	591.06
473.311	583.06
473.53	568.06
473.749	586.06
473.968	627.06
474.187	741.06
474.406	770.06
474.625	642.06
474.844	605.06
475.063	614.06
475.282	596.06
475.501	577.06
475.72	617.06
475.939	572.06
476.158	586.06
476.377	606.06
476.596	584.06
476.814	611.06
477.033	619.06
477.252	618.06
477.471	610.06
477.69	624.06
477.908	625.06
478.127	649.06
478.346	657.06
478.564	644.06
478.783	667.06
479.002	645.06
479.22	668.06
479.439	688.06
479.658	719.06
479.876	715.06
480.095	733.06
480.313	730.06
480.532	734.06
480.751	725.06
480.969	728.06
481.188	717.06
481.406	730.06
481.624	667.06
481.843	691.06
482.061	697.06
482.28	713.06
482.498	690.06
482.717	684.06
482.935	666.06
483.153	664.06
483.372	678.06
483.59	674.06
483.808	655.06
484.027	677.06
484.245	683.06
484.463	675.06
484.681	713.06
484.9	710.06
485.118	685.06
485.336	706.06
485.554	690.06
485.772	718.06
485.99	699.06
486.209	704.06
486.427	734.06
486.645	724.06
486.863	744.06
487.081	746.06
487.299	718.06
487.517	739.06
487.735	734.06
487.953	748.06
488.171	740.06
488.389	746.06
488.607	767.06
488.825	717.06
489.043	716.06
489.261	736.06
489.479	763.06
489.696	722.06
489.914	733.06
490.132	769.06
490.35	767.06
490.568	782.06
490.786	789.06
491.003	791.06
491.221	781.06
491.439	803.06
491.657	838.06
491.874	826.06
492.092	834.06
492.31	830.06
492.527	829.06
492.745	831.06
492.963	869.06
493.18	844.06
493.398	860.06
493.615	849.06
493.833	901.06
494.05	874.06
494.268	847.06
494.485	860.06
494.703	849.06
494.92	858.06
495.138	862.06
495.355	893.06
495.573	877.06
495.79	873.06
496.008	864.06
496.225	875.06
496.442	889.06
496.66	862.06
496.877	881.06
497.094	887.06
497.312	906.06
497.529	919.06
497.746	944.06
497.963	904.06
498.181	932.06
498.398	935.06
498.615	1001.06
498.832	1000.06
499.049	1045.06
499.267	1052.06
499.484	1088.06
499.701	1094.06
499.918	1117.06
500.135	1208.06
500.352	1252.06
500.569	1230.06
500.786	1267.06
501.003	1259.06
501.22	1238.06
501.437	1198.06
501.654	1160.06
501.871	1144.06
502.088	1089.06
502.305	1048.06
502.522	1026.06
502.739	1004.06
502.956	956.06
503.172	954.06
503.389	955.06
503.606	917.06
503.823	932.06
504.04	921.06
504.256	881.06
504.473	905.06
504.69	882.06
504.907	897.06
505.123	893.06
505.34	856.06
505.557	850.06
505.773	863.06
505.99	844.06
506.207	842.06
506.423	871.06
506.64	825.06
506.856	820.06
507.073	832.06
507.289	818.06
507.506	794.06
507.722	857.06
507.939	826.06
508.155	822.06
508.372	806.06
508.588	819.06
508.805	796.06
509.021	785.06
509.238	826.06
509.454	808.06
509.67	802.06
509.887	796.06
510.103	803.06
510.319	798.06
510.536	908.06
510.752	1436.06
510.968	1240.06
511.184	832.06
511.401	796.06
511.617	768.06
511.833	752.06
512.049	753.06
512.265	778.06
512.481	757.06
512.698	738.06
512.914	741.06
513.13	744.06
513.346	744.06
513.562	746.06
513.778	755.06
513.994	756.06
514.21	801.06
514.426	834.06
514.642	830.06
514.858	882.06
515.074	928.06
515.29	1080.06
515.506	1562.06
515.721	1296.06
515.937	929.06
516.153	833.06
516.369	826.06
516.585	808.06
516.801	793.06
517.016	794.06
517.232	800.06
517.448	783.06
517.664	785.06
517.879	805.06
518.095	792.06
518.311	799.06
518.527	798.06
518.742	808.06
518.958	755.06
519.173	788.06
519.389	779.06
519.605	757.06
519.82	772.06
520.036	770.06
520.251	813.06
520.467	829.06
520.682	830.06
520.898	861.06
521.113	854.06
521.329	914.06
521.544	1014.06
521.76	1255.06
521.975	1963.06
522.19	1933.06
522.406	1132.06
522.621	867.06
522.836	777.06
523.052	752.06
523.267	731.06
523.482	723.06
523.698	725.06
523.913	696.06
524.128	694.06
524.343	672.06
524.559	668.06
524.774	654.06
524.989	668.06
525.204	668.06
525.419	662.06
525.634	660.06
525.849	642.06
526.064	654.06
526.28	641.06
526.495	623.06
526.71	624.06
526.925	616.06
527.14	627.06
527.355	626.06
527.57	602.06
527.785	601.06
527.999	637.06
528.214	614.06
528.429	622.06
528.644	629.06
528.859	640.06
529.074	632.06
529.289	633.06
529.503	722.06
529.718	712.06
529.933	654.06
530.148	650.06
530.363	621.06
530.577	616.06
530.792	613.06
531.007	620.06
531.221	595.06
531.436	595.06
531.651	615.06
531.865	599.06
532.08	611.06
532.295	601.06
532.509	602.06
532.724	601.06
532.938	606.06
533.153	612.06
533.367	602.06
533.582	590.06
533.796	594.06
534.011	560.06
534.225	588.06
534.44	595.06
534.654	582.06
534.868	570.06
535.083	587.06
535.297	574.06
535.511	599.06
535.726	611.06
535.94	601.06
536.154	576.06
536.369	572.06
536.583	573.06
536.797	576.06
537.011	577.06
537.225	576.06
537.44	563.06
537.654	570.06
537.868	568.06
538.082	560.06
538.296	591.06
538.51	573.06
538.724	582.06
538.938	590.06
539.153	551.06
539.367	560.06
539.581	560.06
539.795	550.06
540.009	569.06
540.222	566.06
540.436	564.06
540.65	565.06
540.864	561.06
541.078	573.06
541.292	591.06
541.506	578.06
541.72	589.06
541.934	568.06
542.147	576.06
542.361	561.06
542.575	545.06
542.789	540.06
543.002	554.06
543.216	557.06
543.43	565.06
543.644	562.06
543.857	547.06
544.071	540.06
544.285	565.06
544.498	544.06
544.712	544.06
544.925	553.06
545.139	551.06
545.352	547.06
545.566	562.06
545.779	534.06
545.993	540.06
546.206	530.06
546.42	534.06
546.633	541.06
546.847	538.06
547.06	525.06
547.274	547.06
547.487	543.06
547.7	534.06
547.914	534.06
548.127	537.06
548.34	535.06
548.554	544.06
548.767	532.06
548.98	524.06
549.193	527.06
549.407	542.06
549.62	530.06
549.833	546.06
550.046	545.06
550.259	514.06
550.473	528.06
550.686	534.06
550.899	504.06
551.112	511.06
551.325	539.06
551.538	528.06
551.751	516.06
551.964	532.06
552.177	516.06
552.39	538.06
552.603	540.06
552.816	517.06
553.029	550.06
553.242	537.06
553.455	553.06
553.667	555.06
553.88	569.06
554.093	540.06
554.306	537.06
554.519	523.06
554.732	533.06
554.944	518.06
555.157	523.06
555.37	500.06
555.583	522.06
555.795	539.06
556.008	520.06
556.221	471.06
556.433	521.06
556.646	502.06
556.859	501.06
557.071	499.06
557.284	485.06
557.496	488.06
557.709	490.06
557.921	479.06
558.134	476.06
558.346	456.06
558.559	476.06
558.771	500.06
558.984	480.06
559.196	448.06
559.409	473.06
559.621	462.06
559.833	496.06
560.046	465.06
560.258	468.06
560.47	488.06
560.683	471.06
560.895	469.06
561.107	473.06
561.32	454.06
561.532	456.06
561.744	478.06
561.956	484.06
562.168	486.06
562.381	451.06
562.593	478.06
562.805	486.06
563.017	467.06
563.229	486.06
563.441	470.06
563.653	489.06
563.865	472.06
564.077	479.06
564.289	511.06
564.501	471.06
564.713	511.06
564.925	514.06
565.137	537.06
565.349	522.06
565.561	518.06
565.773	525.06
565.985	520.06
566.197	532.06
566.408	552.06
566.62	566.06
566.832	575.06
567.044	586.06
567.255	563.06
567.467	609.06
567.679	595.06
567.891	592.06
568.102	614.06
568.314	606.06
568.526	555.06
568.737	551.06
568.949	516.06
569.161	520.06
569.372	514.06
569.584	514.06
569.795	499.06
570.007	510.06
570.218	523.06
570.43	522.06
570.641	491.06
570.853	458.06
571.064	476.06
571.276	466.06
571.487	470.06
571.698	443.06
571.91	446.06
572.121	433.06
572.333	427.06
572.544	434.06
572.755	425.06
572.966	420.06
573.178	408.06
573.389	420.06
573.6	407.06
573.811	436.06
574.023	419.06
574.234	388.06
574.445	423.06
574.656	414.06
574.867	408.06
575.078	402.06
575.289	418.06
575.501	400.06
575.712	413.06
575.923	397.06
576.134	407.06
576.345	404.06
576.556	392.06
576.767	397.06
576.978	408.06
577.188	398.06
577.399	421.06
577.61	401.06
577.821	389.06
578.032	399.06
578.243	438.06
578.454	672.06
578.665	504.06
578.875	414.06
579.086	389.06
579.297	400.06
579.508	386.06
579.718	390.06
579.929	396.06
580.14	362.06
580.35	381.06
580.561	379.06
580.772	365.06
580.982	365.06
581.193	365.06
581.403	374.06
581.614	373.06
581.825	369.06
582.035	381.06
582.246	371.06
582.456	358.06
582.667	360.06
582.877	359.06
583.087	354.06
583.298	369.06
583.508	346.06
583.719	356.06
583.929	378.06
584.139	365.06
584.35	341.06
584.56	344.06
584.77	357.06
584.981	371.06
585.191	362.06
585.401	356.06
585.611	368.06
585.821	354.06
586.032	362.06
586.242	364.06
586.452	355.06
586.662	370.06
586.872	374.06
587.082	362.06
587.292	347.06
587.502	340.06
587.713	344.06
587.923	359.06
588.133	356.06
588.343	379.06
588.553	365.06
588.762	363.06
588.972	370.06
589.182	353.06
589.392	358.06
589.602	346.06
589.812	362.06
590.022	351.06
590.232	336.06
590.441	351.06
590.651	344.06
590.861	332.06
591.071	353.06
591.281	353.06
591.49	356.06
591.7	346.06
591.91	377.06
592.119	352.06
592.329	361.06
592.539	352.06
592.748	357.06
592.958	369.06
593.167	388.06
593.377	387.06
593.587	381.06
593.796	389.06
594.006	378.06
594.215	377.06
594.424	371.06
594.634	370.06
594.843	372.06
595.053	363.06
595.262	351.06
595.472	359.06
595.681	335.06
595.89	340.06
596.1	346.06
596.309	345.06
596.518	338.06
596.727	339.06
596.937	337.06
597.146	321.06
597.355	324.06
597.564	316.06
597.774	322.06
597.983	317.06
598.192	335.06
598.401	330.06
598.61	308.06
598.819	312.06
599.028	311.06
599.237	314.06
599.446	316.06
599.655	312.06
599.864	321.06
600.073	300.06
600.282	300.06
600.491	308.06
600.7	306.06
600.909	303.06
601.118	315.06
601.327	306.06
601.536	293.06
601.745	300.06
601.953	308.06
602.162	316.06
602.371	301.06
602.58	292.06
602.789	296.06
602.997	309.06
603.206	306.06
603.415	311.06
603.623	295.06
603.832	305.06
604.041	307.06
604.249	292.06
604.458	294.06
604.666	283.06
604.875	288.06
605.084	289.06
605.292	302.06
605.501	304.06
605.709	296.06
605.918	298.06
606.126	292.06
606.334	292.06
606.543	283.06
606.751	288.06
606.96	277.06
607.168	283.06
607.376	283.06
607.585	292.06
607.793	300.06
608.001	264.06
608.21	280.06
608.418	284.06
608.626	277.06
608.834	282.06
609.043	284.06
609.251	283.06
609.459	298.06
609.667	302.06
609.875	289.06
610.083	273.06
610.291	264.06
610.499	282.06
610.707	268.06
610.916	286.06
611.124	277.06
611.332	276.06
611.54	280.06
611.748	276.06
611.955	277.06
612.163	277.06
612.371	271.06
612.579	271.06
612.787	271.06
612.995	258.06
613.203	300.06
613.411	286.06
613.618	267.06
613.826	269.06
614.034	273.06
614.242	271.06
614.449	280.06
614.657	268.06
614.865	273.06
615.072	290.06
615.28	268.06
615.488	277.06
615.695	252.06
615.903	260.06
616.111	272.06
616.318	296.06
616.526	293.06
616.733	283.06
616.941	286.06
617.148	286.06
617.356	277.06
617.563	264.06
617.771	270.06
617.978	269.06
618.185	271.06
618.393	265.06
618.6	278.06
618.807	280.06
619.015	283.06
619.222	269.06
619.429	248.06
619.637	289.06
619.844	286.06
620.051	264.06
620.258	276.06
620.466	258.06
620.673	249.06
620.88	244.06
621.087	274.06
621.294	272.06
621.501	233.06
621.708	244.06
621.915	274.06
622.122	253.06
622.329	246.06
622.536	267.06
622.743	260.06
622.95	259.06
623.157	256.06
623.364	260.06
623.571	257.06
623.778	236.06
623.985	230.06
624.192	271.06
624.399	258.06
624.606	246.06
624.812	231.06
625.019	245.06
625.226	248.06
625.433	243.06
625.639	243.06
625.846	244.06
626.053	227.06
626.259	230.06
626.466	234.06
626.673	262.06
626.879	248.06
627.086	254.06
627.293	225.06
627.499	228.06
627.706	227.06
627.912	236.06
628.119	242.06
628.325	243.06
628.532	227.06
628.738	239.06
628.945	221.06
629.151	233.06
629.357	227.06
629.564	229.06
629.77	236.06
629.976	219.06
630.183	227.06
630.389	208.06
630.595	220.06
630.802	223.06
631.008	226.06
631.214	226.06
631.42	226.06
631.627	222.06
631.833	235.06
632.039	211.06
632.245	219.06
632.451	205.06
632.657	195.06
632.863	212.06
633.069	212.06
633.275	209.06
633.481	208.06
633.688	195.06
633.893	202.06
634.099	205.06
634.305	212.06
634.511	218.06
634.717	209.06
634.923	213.06
635.129	209.06
635.335	207.06
635.541	209.06
635.747	204.06
635.952	206.06
636.158	209.06
636.364	211.06
636.57	213.06
636.775	198.06
636.981	194.06
637.187	213.06
637.392	225.06
637.598	199.06
637.804	192.06
638.009	203.06
638.215	204.06
638.421	206.06
638.626	192.06
638.832	197.06
639.037	187.06
639.243	191.06
639.448	200.06
639.654	193.06
639.859	187.06
640.065	206.06
640.27	210.06
640.475	200.06
640.681	196.06
640.886	209.06
641.091	196.06
641.297	178.06
641.502	188.06
641.707	202.06
641.913	185.06
642.118	183.06
642.323	195.06
642.528	194.06
642.733	198.06
642.939	199.06
643.144	189.06
643.349	187.06
643.554	178.06
643.759	185.06
643.964	186.06
644.169	183.06
644.374	195.06
644.579	188.06
644.784	198.06
644.989	192.06
645.194	192.06
645.399	189.06
645.604	184.06
645.809	192.06
646.014	165.06
646.219	194.06
646.423	189.06
646.628	190.06
646.833	192.06
647.038	200.06
647.243	190.06
647.447	201.06
647.652	187.06
647.857	186.06
648.062	184.06
648.266	184.06
648.471	190.06
648.676	193.06
648.88	188.06
649.085	190.06
649.289	180.06
649.494	198.06
649.698	228.06
649.903	206.06
650.107	195.06
650.312	197.06
650.516	172.06
650.721	168.06
650.925	178.06
651.13	180.06
651.334	180.06
651.539	160.06
651.743	161.06
651.947	162.06
652.152	168.06
652.356	158.06
652.56	166.06
652.764	165.06
652.969	158.06
653.173	166.06
653.377	145.06
653.581	162.06
653.785	169.06
653.99	153.06
654.194	146.06
654.398	156.06
654.602	160.06
654.806	141.06
655.01	155.06
655.214	160.06
655.418	154.06
655.622	141.06
655.826	145.06
656.03	153.06
656.234	146.06
656.438	159.06
656.642	141.06
656.846	144.06
657.049	146.06
657.253	130.06
657.457	122.06
657.661	138.06
657.865	121.06
658.068	105.06
658.272	122.06
658.476	121.06
658.68	105.06
658.883	113.06
659.087	112.06
659.291	114.06
659.494	100.06
659.698	94.06
659.901	99.06
660.105	96.06
660.309	103.06
660.512	97.06
660.716	82.06
660.919	91.06
661.123	86.06
661.326	86.06
661.53	96.06
661.733	92.06
661.936	91.06
662.14	78.06
662.343	78.06
662.546	86.06
662.75	96.06
662.953	98.06
663.156	82.06
663.36	83.06
663.563	88.06
663.766	83.06
663.969	83.06
664.173	92.06
664.376	79.06
664.579	85.06
664.782	89.06
664.985	82.06
665.188	78.06
665.391	97.06
665.594	89.06
665.797	96.06
666	84.06
666.203	92.06
666.406	79.06
666.609	84.06
666.812	85.06
667.015	80.06
667.218	87.06
667.421	78.06
667.624	87.06
667.827	87.06
668.03	82.06
668.232	77.06
668.435	84.06
668.638	70.06
668.841	76.06
669.043	73.06
669.246	81.06
669.449	81.06
669.651	86.06
669.854	87.06
670.057	77.06
670.259	76.06
670.462	72.06
670.665	79.06
670.867	68.06
671.07	79.06
671.272	82.06
671.475	98.06
671.677	96.06
671.88	81.06
672.082	83.06
672.284	86.06
672.487	87.06
672.689	74.06
672.892	84.06
