Data from 1988.PennyLincolnUp.Lamp.En5.5.200Scan.071819.P2_HRD10591_17-18-52-971.txt Node
Date: Thu Jul 18 17:18:52 EDT 2019
User: cochatt
Spectrometer: HR+D1059
Trigger mode: 1
Integration Time (sec): 1.000000E-1
Scans to average: 1
Electric dark correction enabled: true
Nonlinearity correction enabled: false
Boxcar width: 0
XAxis mode: Wavelengths
Number of Pixels in Spectrum: 2048
>>>>>Begin Spectral Data<<<<<
223.165	-13.62
223.4	-13.62
223.635	-13.62
223.869	1.38
224.104	-13.62
224.338	-10.62
224.573	-19.62
224.808	-20.62
225.042	-8.62
225.277	-10.62
225.511	4.38
225.746	-1.62
225.98	4.38
226.215	22.38
226.449	16.38
226.683	16.38
226.918	13.38
227.152	20.38
227.387	33.38
227.621	37.38
227.856	38.38
228.09	43.38
228.324	48.38
228.559	57.38
228.793	67.38
229.027	101.38
229.262	103.38
229.496	108.38
229.73	131.38
229.964	154.38
230.199	123.38
230.433	109.38
230.667	120.38
230.901	92.38
231.136	103.38
231.37	105.38
231.604	115.38
231.838	113.38
232.072	108.38
232.306	118.38
232.541	107.38
232.775	91.38
233.009	101.38
233.243	119.38
233.477	116.38
233.711	120.38
233.945	102.38
234.179	123.38
234.413	116.38
234.647	118.38
234.881	129.38
235.115	97.38
235.349	126.38
235.583	113.38
235.817	109.38
236.051	122.38
236.285	112.38
236.519	113.38
236.753	129.38
236.987	145.38
237.221	173.38
237.455	222.38
237.689	176.38
237.922	143.38
238.156	124.38
238.39	120.38
238.624	121.38
238.858	124.38
239.091	119.38
239.325	123.38
239.559	118.38
239.793	132.38
240.027	127.38
240.26	134.38
240.494	166.38
240.728	158.38
240.961	144.38
241.195	138.38
241.429	148.38
241.662	124.38
241.896	132.38
242.13	145.38
242.363	125.38
242.597	133.38
242.83	129.38
243.064	138.38
243.298	140.38
243.531	139.38
243.765	150.38
243.998	122.38
244.232	160.38
244.465	140.38
244.699	145.38
244.932	136.38
245.166	145.38
245.399	134.38
245.633	140.38
245.866	155.38
246.099	160.38
246.333	143.38
246.566	138.38
246.8	166.38
247.033	148.38
247.266	162.38
247.5	155.38
247.733	140.38
247.966	167.38
248.2	163.38
248.433	171.38
248.666	163.38
248.899	176.38
249.133	184.38
249.366	185.38
249.599	181.38
249.832	181.38
250.066	172.38
250.299	178.38
250.532	182.38
250.765	184.38
250.998	195.38
251.231	213.38
251.465	201.38
251.698	211.38
251.931	184.38
252.164	194.38
252.397	183.38
252.63	189.38
252.863	193.38
253.096	219.38
253.329	215.38
253.562	202.38
253.795	212.38
254.028	209.38
254.261	234.38
254.494	206.38
254.727	244.38
254.96	252.38
255.193	262.38
255.426	252.38
255.659	207.38
255.892	230.38
256.124	208.38
256.357	205.38
256.59	199.38
256.823	211.38
257.056	205.38
257.289	190.38
257.521	211.38
257.754	214.38
257.987	196.38
258.22	204.38
258.452	182.38
258.685	209.38
258.918	197.38
259.151	188.38
259.383	200.38
259.616	210.38
259.849	212.38
260.081	227.38
260.314	234.38
260.547	235.38
260.779	225.38
261.012	214.38
261.244	208.38
261.477	210.38
261.71	210.38
261.942	221.38
262.175	227.38
262.407	240.38
262.64	214.38
262.872	218.38
263.105	202.38
263.337	198.38
263.57	199.38
263.802	196.38
264.035	202.38
264.267	206.38
264.499	195.38
264.732	195.38
264.964	219.38
265.197	220.38
265.429	207.38
265.661	204.38
265.894	204.38
266.126	213.38
266.358	219.38
266.591	212.38
266.823	197.38
267.055	204.38
267.287	230.38
267.52	214.38
267.752	225.38
267.984	237.38
268.216	230.38
268.448	216.38
268.681	227.38
268.913	226.38
269.145	230.38
269.377	261.38
269.609	256.38
269.841	270.38
270.073	263.38
270.306	276.38
270.538	283.38
270.77	294.38
271.002	284.38
271.234	267.38
271.466	289.38
271.698	284.38
271.93	288.38
272.162	310.38
272.394	301.38
272.626	274.38
272.858	272.38
273.09	265.38
273.322	276.38
273.553	258.38
273.785	268.38
274.017	267.38
274.249	247.38
274.481	247.38
274.713	272.38
274.945	258.38
275.176	240.38
275.408	258.38
275.64	274.38
275.872	250.38
276.104	272.38
276.335	250.38
276.567	272.38
276.799	284.38
277.031	287.38
277.262	301.38
277.494	325.38
277.726	297.38
277.957	271.38
278.189	258.38
278.421	260.38
278.652	277.38
278.884	268.38
279.115	265.38
279.347	254.38
279.579	256.38
279.81	264.38
280.042	277.38
280.273	265.38
280.505	256.38
280.736	270.38
280.968	265.38
281.199	262.38
281.431	269.38
281.662	268.38
281.894	258.38
282.125	260.38
282.356	269.38
282.588	296.38
282.819	302.38
283.051	277.38
283.282	267.38
283.513	260.38
283.745	264.38
283.976	282.38
284.207	274.38
284.439	277.38
284.67	295.38
284.901	283.38
285.132	277.38
285.364	271.38
285.595	278.38
285.826	275.38
286.057	281.38
286.288	265.38
286.52	285.38
286.751	285.38
286.982	281.38
287.213	285.38
287.444	274.38
287.675	288.38
287.906	301.38
288.138	285.38
288.369	294.38
288.6	284.38
288.831	301.38
289.062	276.38
289.293	285.38
289.524	275.38
289.755	284.38
289.986	281.38
290.217	284.38
290.448	270.38
290.679	288.38
290.91	275.38
291.141	272.38
291.371	308.38
291.602	296.38
291.833	286.38
292.064	296.38
292.295	300.38
292.526	291.38
292.757	277.38
292.987	294.38
293.218	293.38
293.449	303.38
293.68	268.38
293.91	280.38
294.141	307.38
294.372	298.38
294.603	297.38
294.833	297.38
295.064	307.38
295.295	288.38
295.525	282.38
295.756	311.38
295.987	300.38
296.217	314.38
296.448	314.38
296.679	315.38
296.909	287.38
297.14	292.38
297.37	304.38
297.601	288.38
297.831	289.38
298.062	304.38
298.292	294.38
298.523	313.38
298.753	312.38
298.984	328.38
299.214	293.38
299.445	293.38
299.675	291.38
299.905	315.38
300.136	333.38
300.366	315.38
300.597	313.38
300.827	314.38
301.057	331.38
301.288	323.38
301.518	309.38
301.748	335.38
301.979	334.38
302.209	316.38
302.439	330.38
302.669	331.38
302.9	301.38
303.13	324.38
303.36	330.38
303.59	336.38
303.82	327.38
304.051	367.38
304.281	335.38
304.511	309.38
304.741	321.38
304.971	315.38
305.201	341.38
305.431	328.38
305.661	344.38
305.891	327.38
306.121	340.38
306.352	344.38
306.582	337.38
306.812	341.38
307.042	330.38
307.272	308.38
307.502	318.38
307.731	348.38
307.961	323.38
308.191	324.38
308.421	352.38
308.651	334.38
308.881	342.38
309.111	347.38
309.341	338.38
309.571	358.38
309.8	372.38
310.03	353.38
310.26	357.38
310.49	369.38
310.72	373.38
310.949	375.38
311.179	376.38
311.409	374.38
311.639	379.38
311.868	390.38
312.098	369.38
312.328	384.38
312.557	396.38
312.787	395.38
313.017	412.38
313.246	396.38
313.476	351.38
313.706	375.38
313.935	404.38
314.165	406.38
314.394	418.38
314.624	400.38
314.853	399.38
315.083	378.38
315.312	389.38
315.542	364.38
315.771	364.38
316.001	373.38
316.23	370.38
316.46	369.38
316.689	386.38
316.919	386.38
317.148	373.38
317.377	360.38
317.607	380.38
317.836	370.38
318.065	382.38
318.295	379.38
318.524	370.38
318.753	381.38
318.983	397.38
319.212	377.38
319.441	376.38
319.67	378.38
319.9	396.38
320.129	377.38
320.358	390.38
320.587	376.38
320.816	384.38
321.046	392.38
321.275	393.38
321.504	415.38
321.733	402.38
321.962	419.38
322.191	406.38
322.42	438.38
322.649	452.38
322.878	438.38
323.108	472.38
323.337	486.38
323.566	480.38
323.795	511.38
324.024	549.38
324.253	661.38
324.482	920.38
324.71	1463.38
324.939	2090.38
325.168	1767.38
325.397	919.38
325.626	636.38
325.855	540.38
326.084	539.38
326.313	487.38
326.542	504.38
326.77	541.38
326.999	610.38
327.228	887.38
327.457	1293.38
327.686	1537.38
327.914	1048.38
328.143	672.38
328.372	585.38
328.6	553.38
328.829	543.38
329.058	566.38
329.287	547.38
329.515	519.38
329.744	484.38
329.972	468.38
330.201	484.38
330.43	509.38
330.658	527.38
330.887	569.38
331.115	576.38
331.344	506.38
331.572	488.38
331.801	486.38
332.03	508.38
332.258	488.38
332.486	467.38
332.715	433.38
332.943	437.38
333.172	460.38
333.4	469.38
333.629	474.38
333.857	462.38
334.085	472.38
334.314	466.38
334.542	459.38
334.771	469.38
334.999	462.38
335.227	470.38
335.455	457.38
335.684	453.38
335.912	449.38
336.14	449.38
336.369	452.38
336.597	451.38
336.825	438.38
337.053	452.38
337.281	446.38
337.51	441.38
337.738	442.38
337.966	445.38
338.194	443.38
338.422	452.38
338.65	423.38
338.878	430.38
339.106	437.38
339.334	448.38
339.562	441.38
339.79	444.38
340.018	443.38
340.246	437.38
340.474	426.38
340.702	426.38
340.93	437.38
341.158	416.38
341.386	440.38
341.614	428.38
341.842	427.38
342.07	438.38
342.298	418.38
342.526	428.38
342.754	415.38
342.981	422.38
343.209	415.38
343.437	416.38
343.665	436.38
343.893	429.38
344.12	459.38
344.348	449.38
344.576	457.38
344.804	469.38
345.031	450.38
345.259	446.38
345.487	443.38
345.714	416.38
345.942	440.38
346.17	425.38
346.397	411.38
346.625	421.38
346.853	418.38
347.08	419.38
347.308	409.38
347.535	424.38
347.763	461.38
347.99	455.38
348.218	435.38
348.445	434.38
348.673	423.38
348.9	433.38
349.128	433.38
349.355	430.38
349.583	416.38
349.81	412.38
350.037	428.38
350.265	417.38
350.492	395.38
350.72	413.38
350.947	398.38
351.174	416.38
351.402	428.38
351.629	414.38
351.856	429.38
352.083	428.38
352.311	430.38
352.538	435.38
352.765	432.38
352.992	422.38
353.22	415.38
353.447	420.38
353.674	393.38
353.901	401.38
354.128	395.38
354.355	392.38
354.583	396.38
354.81	396.38
355.037	381.38
355.264	384.38
355.491	393.38
355.718	391.38
355.945	395.38
356.172	395.38
356.399	395.38
356.626	380.38
356.853	399.38
357.08	405.38
357.307	389.38
357.534	377.38
357.761	422.38
357.988	405.38
358.215	405.38
358.441	395.38
358.668	371.38
358.895	402.38
359.122	392.38
359.349	416.38
359.576	412.38
359.802	433.38
360.029	458.38
360.256	462.38
360.483	440.38
360.709	416.38
360.936	421.38
361.163	442.38
361.39	426.38
361.616	407.38
361.843	414.38
362.07	419.38
362.296	412.38
362.523	407.38
362.749	429.38
362.976	416.38
363.203	399.38
363.429	386.38
363.656	403.38
363.882	413.38
364.109	405.38
364.335	422.38
364.562	407.38
364.788	397.38
365.015	397.38
365.241	401.38
365.468	414.38
365.694	407.38
365.92	384.38
366.147	402.38
366.373	409.38
366.599	393.38
366.826	418.38
367.052	400.38
367.278	406.38
367.505	418.38
367.731	415.38
367.957	382.38
368.184	399.38
368.41	407.38
368.636	416.38
368.862	417.38
369.089	432.38
369.315	414.38
369.541	421.38
369.767	390.38
369.993	410.38
370.219	412.38
370.445	397.38
370.672	415.38
370.898	397.38
371.124	393.38
371.35	405.38
371.576	389.38
371.802	434.38
372.028	423.38
372.254	403.38
372.48	411.38
372.706	422.38
372.932	403.38
373.158	416.38
373.384	432.38
373.61	398.38
373.835	417.38
374.061	424.38
374.287	426.38
374.513	397.38
374.739	424.38
374.965	399.38
375.191	411.38
375.416	438.38
375.642	398.38
375.868	406.38
376.094	409.38
376.319	395.38
376.545	434.38
376.771	408.38
376.997	395.38
377.222	399.38
377.448	387.38
377.674	412.38
377.899	390.38
378.125	410.38
378.35	401.38
378.576	394.38
378.802	388.38
379.027	384.38
379.253	409.38
379.478	393.38
379.704	393.38
379.929	397.38
380.155	411.38
380.38	404.38
380.606	418.38
380.831	414.38
381.057	405.38
381.282	407.38
381.507	425.38
381.733	411.38
381.958	421.38
382.184	420.38
382.409	416.38
382.634	425.38
382.86	411.38
383.085	433.38
383.31	419.38
383.535	432.38
383.761	417.38
383.986	434.38
384.211	424.38
384.436	418.38
384.662	443.38
384.887	441.38
385.112	434.38
385.337	439.38
385.562	442.38
385.787	448.38
386.013	448.38
386.238	469.38
386.463	467.38
386.688	470.38
386.913	442.38
387.138	455.38
387.363	469.38
387.588	463.38
387.813	447.38
388.038	439.38
388.263	438.38
388.488	444.38
388.713	442.38
388.938	452.38
389.163	439.38
389.387	440.38
389.612	439.38
389.837	445.38
390.062	456.38
390.287	457.38
390.512	453.38
390.736	442.38
390.961	440.38
391.186	445.38
391.411	454.38
391.636	458.38
391.86	467.38
392.085	467.38
392.31	453.38
392.534	459.38
392.759	461.38
392.984	454.38
393.208	420.38
393.433	455.38
393.658	450.38
393.882	464.38
394.107	454.38
394.331	448.38
394.556	442.38
394.78	450.38
395.005	445.38
395.229	452.38
395.454	456.38
395.678	478.38
395.903	488.38
396.127	494.38
396.352	499.38
396.576	468.38
396.801	461.38
397.025	460.38
397.249	499.38
397.474	494.38
397.698	492.38
397.922	500.38
398.147	506.38
398.371	521.38
398.595	504.38
398.82	496.38
399.044	521.38
399.268	528.38
399.492	547.38
399.717	594.38
399.941	644.38
400.165	635.38
400.389	632.38
400.613	593.38
400.837	552.38
401.062	550.38
401.286	515.38
401.51	512.38
401.734	503.38
401.958	533.38
402.182	517.38
402.406	524.38
402.63	537.38
402.854	534.38
403.078	510.38
403.302	524.38
403.526	548.38
403.75	522.38
403.974	527.38
404.198	530.38
404.422	533.38
404.645	536.38
404.869	549.38
405.093	554.38
405.317	563.38
405.541	589.38
405.765	562.38
405.988	551.38
406.212	554.38
406.436	567.38
406.66	606.38
406.883	562.38
407.107	605.38
407.331	644.38
407.555	701.38
407.778	685.38
408.002	648.38
408.226	618.38
408.449	574.38
408.673	588.38
408.896	598.38
409.12	644.38
409.344	604.38
409.567	556.38
409.791	545.38
410.014	550.38
410.238	548.38
410.461	522.38
410.685	555.38
410.908	548.38
411.132	590.38
411.355	621.38
411.578	588.38
411.802	555.38
412.025	544.38
412.249	525.38
412.472	530.38
412.695	554.38
412.919	538.38
413.142	517.38
413.365	514.38
413.589	524.38
413.812	491.38
414.035	506.38
414.258	500.38
414.482	527.38
414.705	501.38
414.928	492.38
415.151	519.38
415.374	505.38
415.597	478.38
415.821	500.38
416.044	493.38
416.267	516.38
416.49	501.38
416.713	512.38
416.936	493.38
417.159	516.38
417.382	478.38
417.605	504.38
417.828	501.38
418.051	516.38
418.274	516.38
418.497	502.38
418.72	506.38
418.943	491.38
419.166	501.38
419.389	528.38
419.611	524.38
419.834	534.38
420.057	542.38
420.28	534.38
420.503	516.38
420.726	529.38
420.948	526.38
421.171	564.38
421.394	624.38
421.617	561.38
421.839	522.38
422.062	517.38
422.285	538.38
422.507	606.38
422.73	691.38
422.953	653.38
423.175	571.38
423.398	544.38
423.621	521.38
423.843	558.38
424.066	555.38
424.288	562.38
424.511	558.38
424.733	643.38
424.956	716.38
425.178	682.38
425.401	672.38
425.623	714.38
425.846	615.38
426.068	567.38
426.291	568.38
426.513	557.38
426.735	569.38
426.958	625.38
427.18	664.38
427.402	825.38
427.625	882.38
427.847	776.38
428.069	642.38
428.292	598.38
428.514	535.38
428.736	544.38
428.958	541.38
429.181	497.38
429.403	498.38
429.625	515.38
429.847	548.38
430.069	628.38
430.292	614.38
430.514	524.38
430.736	564.38
430.958	507.38
431.18	494.38
431.402	504.38
431.624	513.38
431.846	479.38
432.068	494.38
432.29	497.38
432.512	488.38
432.734	523.38
432.956	509.38
433.178	489.38
433.4	512.38
433.622	506.38
433.844	512.38
434.066	526.38
434.287	495.38
434.509	514.38
434.731	522.38
434.953	503.38
435.175	550.38
435.397	559.38
435.618	558.38
435.84	612.38
436.062	683.38
436.284	740.38
436.505	647.38
436.727	577.38
436.949	526.38
437.17	520.38
437.392	531.38
437.614	514.38
437.835	540.38
438.057	662.38
438.278	721.38
438.5	742.38
438.721	836.38
438.943	795.38
439.165	645.38
439.386	578.38
439.608	581.38
439.829	555.38
440.05	588.38
440.272	635.38
440.493	590.38
440.715	579.38
440.936	533.38
441.158	525.38
441.379	516.38
441.6	532.38
441.822	554.38
442.043	585.38
442.264	680.38
442.486	719.38
442.707	633.38
442.928	571.38
443.149	567.38
443.371	601.38
443.592	619.38
443.813	738.38
444.034	808.38
444.255	645.38
444.476	598.38
444.698	584.38
444.919	580.38
445.14	653.38
445.361	632.38
445.582	619.38
445.803	674.38
446.024	765.38
446.245	753.38
446.466	700.38
446.687	610.38
446.908	585.38
447.129	533.38
447.35	517.38
447.571	502.38
447.792	511.38
448.013	524.38
448.234	558.38
448.455	589.38
448.675	705.38
448.896	824.38
449.117	684.38
449.338	640.38
449.559	780.38
449.779	852.38
450	706.38
450.221	584.38
450.442	519.38
450.662	518.38
450.883	538.38
451.104	533.38
451.324	510.38
451.545	501.38
451.766	498.38
451.986	466.38
452.207	474.38
452.428	460.38
452.648	454.38
452.869	468.38
453.089	483.38
453.31	508.38
453.53	479.38
453.751	488.38
453.971	480.38
454.192	476.38
454.412	486.38
454.633	468.38
454.853	456.38
455.073	467.38
455.294	505.38
455.514	565.38
455.734	546.38
455.955	477.38
456.175	440.38
456.395	465.38
456.616	452.38
456.836	459.38
457.056	445.38
457.276	426.38
457.497	438.38
457.717	447.38
457.937	475.38
458.157	429.38
458.377	468.38
458.598	490.38
458.818	518.38
459.038	593.38
459.258	611.38
459.478	540.38
459.698	515.38
459.918	473.38
460.138	492.38
460.358	508.38
460.578	520.38
460.798	520.38
461.018	528.38
461.238	502.38
461.458	496.38
461.678	517.38
461.898	511.38
462.118	520.38
462.338	546.38
462.558	536.38
462.777	545.38
462.997	540.38
463.217	559.38
463.437	553.38
463.657	566.38
463.876	541.38
464.096	556.38
464.316	559.38
464.536	572.38
464.755	537.38
464.975	552.38
465.195	586.38
465.414	639.38
465.634	594.38
465.854	540.38
466.073	512.38
466.293	514.38
466.512	469.38
466.732	471.38
466.951	484.38
467.171	483.38
467.391	474.38
467.61	496.38
467.829	487.38
468.049	494.38
468.268	480.38
468.488	480.38
468.707	477.38
468.927	458.38
469.146	463.38
469.365	468.38
469.585	473.38
469.804	474.38
470.023	483.38
470.243	488.38
470.462	488.38
470.681	496.38
470.901	500.38
471.12	504.38
471.339	473.38
471.558	486.38
471.777	483.38
471.997	468.38
472.216	464.38
472.435	482.38
472.654	500.38
472.873	488.38
473.092	474.38
473.311	469.38
473.53	486.38
473.749	487.38
473.968	530.38
474.187	628.38
474.406	657.38
474.625	555.38
474.844	504.38
475.063	507.38
475.282	502.38
475.501	505.38
475.72	492.38
475.939	501.38
476.158	497.38
476.377	491.38
476.596	496.38
476.814	514.38
477.033	513.38
477.252	530.38
477.471	530.38
477.69	514.38
477.908	506.38
478.127	560.38
478.346	544.38
478.564	570.38
478.783	537.38
479.002	547.38
479.22	576.38
479.439	602.38
479.658	606.38
479.876	582.38
480.095	602.38
480.313	613.38
480.532	616.38
480.751	582.38
480.969	591.38
481.188	609.38
481.406	598.38
481.624	590.38
481.843	573.38
482.061	562.38
482.28	576.38
482.498	556.38
482.717	588.38
482.935	567.38
483.153	572.38
483.372	581.38
483.59	570.38
483.808	544.38
484.027	587.38
484.245	580.38
484.463	587.38
484.681	581.38
484.9	581.38
485.118	586.38
485.336	602.38
485.554	602.38
485.772	613.38
485.99	583.38
486.209	600.38
486.427	586.38
486.645	595.38
486.863	617.38
487.081	636.38
487.299	606.38
487.517	604.38
487.735	633.38
487.953	630.38
488.171	613.38
488.389	603.38
488.607	598.38
488.825	634.38
489.043	631.38
489.261	632.38
489.479	625.38
489.696	637.38
489.914	609.38
490.132	634.38
490.35	637.38
490.568	650.38
490.786	650.38
491.003	678.38
491.221	679.38
491.439	681.38
491.657	699.38
491.874	674.38
492.092	694.38
492.31	672.38
492.527	696.38
492.745	701.38
492.963	694.38
493.18	705.38
493.398	697.38
493.615	701.38
493.833	738.38
494.05	694.38
494.268	694.38
494.485	684.38
494.703	695.38
494.92	712.38
495.138	747.38
495.355	721.38
495.573	698.38
495.79	729.38
496.008	719.38
496.225	717.38
496.442	729.38
496.66	740.38
496.877	711.38
497.094	723.38
497.312	731.38
497.529	763.38
497.746	762.38
497.963	764.38
498.181	796.38
498.398	793.38
498.615	825.38
498.832	836.38
499.049	845.38
499.267	876.38
499.484	886.38
499.701	937.38
499.918	929.38
500.135	993.38
500.352	1025.38
500.569	1034.38
500.786	1031.38
501.003	1014.38
501.22	1032.38
501.437	977.38
501.654	952.38
501.871	942.38
502.088	901.38
502.305	896.38
502.522	852.38
502.739	845.38
502.956	810.38
503.172	789.38
503.389	802.38
503.606	760.38
503.823	763.38
504.04	765.38
504.256	761.38
504.473	746.38
504.69	750.38
504.907	733.38
505.123	737.38
505.34	721.38
505.557	704.38
505.773	698.38
505.99	695.38
506.207	710.38
506.423	717.38
506.64	685.38
506.856	687.38
507.073	676.38
507.289	681.38
507.506	690.38
507.722	693.38
507.939	698.38
508.155	705.38
508.372	676.38
508.588	664.38
508.805	665.38
509.021	638.38
509.238	667.38
509.454	674.38
509.67	674.38
509.887	667.38
510.103	660.38
510.319	660.38
510.536	752.38
510.752	1180.38
510.968	1003.38
511.184	668.38
511.401	647.38
511.617	652.38
511.833	623.38
512.049	618.38
512.265	622.38
512.481	595.38
512.698	626.38
512.914	617.38
513.13	630.38
513.346	626.38
513.562	619.38
513.778	608.38
513.994	632.38
514.21	646.38
514.426	650.38
514.642	694.38
514.858	742.38
515.074	771.38
515.29	888.38
515.506	1212.38
515.721	1056.38
515.937	772.38
516.153	683.38
516.369	668.38
516.585	657.38
516.801	637.38
517.016	627.38
517.232	663.38
517.448	672.38
517.664	672.38
517.879	653.38
518.095	683.38
518.311	668.38
518.527	603.38
518.742	648.38
518.958	647.38
519.173	634.38
519.389	649.38
519.605	625.38
519.82	634.38
520.036	645.38
520.251	659.38
520.467	697.38
520.682	679.38
520.898	699.38
521.113	722.38
521.329	730.38
521.544	798.38
521.76	963.38
521.975	1572.38
522.19	1590.38
522.406	926.38
522.621	696.38
522.836	633.38
523.052	636.38
523.267	615.38
523.482	611.38
523.698	582.38
523.913	580.38
524.128	587.38
524.343	585.38
524.559	574.38
524.774	576.38
524.989	575.38
525.204	551.38
525.419	551.38
525.634	556.38
525.849	544.38
526.064	541.38
526.28	540.38
526.495	507.38
526.71	515.38
526.925	529.38
527.14	521.38
527.355	543.38
527.57	525.38
527.785	514.38
527.999	531.38
528.214	537.38
528.429	524.38
528.644	528.38
528.859	530.38
529.074	546.38
529.289	558.38
529.503	632.38
529.718	594.38
529.933	554.38
530.148	543.38
530.363	555.38
530.577	524.38
530.792	509.38
531.007	531.38
531.221	505.38
531.436	500.38
531.651	480.38
531.865	535.38
532.08	511.38
532.295	528.38
532.509	487.38
532.724	493.38
532.938	506.38
533.153	519.38
533.367	514.38
533.582	519.38
533.796	506.38
534.011	508.38
534.225	513.38
534.44	484.38
534.654	485.38
534.868	487.38
535.083	512.38
535.297	474.38
535.511	489.38
535.726	497.38
535.94	494.38
536.154	509.38
536.369	489.38
536.583	513.38
536.797	494.38
537.011	484.38
537.225	487.38
537.44	483.38
537.654	498.38
537.868	480.38
538.082	499.38
538.296	485.38
538.51	485.38
538.724	515.38
538.938	476.38
539.153	476.38
539.367	509.38
539.581	483.38
539.795	465.38
540.009	456.38
540.222	486.38
540.436	500.38
540.65	496.38
540.864	473.38
541.078	483.38
541.292	463.38
541.506	504.38
541.72	470.38
541.934	466.38
542.147	493.38
542.361	472.38
542.575	466.38
542.789	465.38
543.002	469.38
543.216	472.38
543.43	498.38
543.644	478.38
543.857	468.38
544.071	484.38
544.285	494.38
544.498	483.38
544.712	479.38
544.925	489.38
545.139	478.38
545.352	466.38
545.566	467.38
545.779	473.38
545.993	450.38
546.206	459.38
546.42	466.38
546.633	460.38
546.847	478.38
547.06	448.38
547.274	470.38
547.487	462.38
547.7	468.38
547.914	460.38
548.127	468.38
548.34	476.38
548.554	469.38
548.767	463.38
548.98	454.38
549.193	448.38
549.407	450.38
549.62	448.38
549.833	450.38
550.046	456.38
550.259	445.38
550.473	463.38
550.686	474.38
550.899	461.38
551.112	456.38
551.325	468.38
551.538	466.38
551.751	457.38
551.964	458.38
552.177	441.38
552.39	452.38
552.603	446.38
552.816	452.38
553.029	442.38
553.242	462.38
553.455	441.38
553.667	454.38
553.88	466.38
554.093	451.38
554.306	472.38
554.519	463.38
554.732	440.38
554.944	426.38
555.157	445.38
555.37	429.38
555.583	438.38
555.795	440.38
556.008	426.38
556.221	436.38
556.433	430.38
556.646	433.38
556.859	414.38
557.071	410.38
557.284	428.38
557.496	406.38
557.709	431.38
557.921	425.38
558.134	415.38
558.346	402.38
558.559	416.38
558.771	403.38
558.984	393.38
559.196	400.38
559.409	412.38
559.621	418.38
559.833	424.38
560.046	415.38
560.258	399.38
560.47	436.38
560.683	408.38
560.895	388.38
561.107	390.38
561.32	398.38
561.532	411.38
561.744	431.38
561.956	410.38
562.168	418.38
562.381	392.38
562.593	412.38
562.805	423.38
563.017	420.38
563.229	392.38
563.441	410.38
563.653	412.38
563.865	404.38
564.077	390.38
564.289	435.38
564.501	422.38
564.713	436.38
564.925	405.38
565.137	442.38
565.349	411.38
565.561	434.38
565.773	421.38
565.985	452.38
566.197	485.38
566.408	471.38
566.62	493.38
566.832	507.38
567.044	500.38
567.255	496.38
567.467	506.38
567.679	511.38
567.891	496.38
568.102	509.38
568.314	502.38
568.526	496.38
568.737	474.38
568.949	460.38
569.161	455.38
569.372	434.38
569.584	438.38
569.795	426.38
570.007	410.38
570.218	468.38
570.43	454.38
570.641	396.38
570.853	402.38
571.064	394.38
571.276	404.38
571.487	388.38
571.698	394.38
571.91	390.38
572.121	383.38
572.333	383.38
572.544	370.38
572.755	366.38
572.966	368.38
573.178	372.38
573.389	357.38
573.6	360.38
573.811	352.38
574.023	339.38
574.234	340.38
574.445	374.38
574.656	349.38
574.867	357.38
575.078	337.38
575.289	351.38
575.501	334.38
575.712	333.38
575.923	345.38
576.134	355.38
576.345	346.38
576.556	334.38
576.767	360.38
576.978	351.38
577.188	330.38
577.399	348.38
577.61	332.38
577.821	325.38
578.032	341.38
578.243	377.38
578.454	560.38
578.665	439.38
578.875	355.38
579.086	343.38
579.297	338.38
579.508	334.38
579.718	322.38
579.929	327.38
580.14	341.38
580.35	327.38
580.561	286.38
580.772	317.38
580.982	324.38
581.193	332.38
581.403	331.38
581.614	318.38
581.825	310.38
582.035	330.38
582.246	302.38
582.456	320.38
582.667	318.38
582.877	308.38
583.087	317.38
583.298	304.38
583.508	304.38
583.719	320.38
583.929	305.38
584.139	296.38
584.35	321.38
584.56	320.38
584.77	302.38
584.981	316.38
585.191	317.38
585.401	333.38
585.611	297.38
585.821	311.38
586.032	317.38
586.242	306.38
586.452	316.38
586.662	310.38
586.872	322.38
587.082	312.38
587.292	316.38
587.502	314.38
587.713	314.38
587.923	282.38
588.133	304.38
588.343	314.38
588.553	297.38
588.762	320.38
588.972	301.38
589.182	320.38
589.392	324.38
589.602	312.38
589.812	301.38
590.022	306.38
590.232	293.38
590.441	291.38
590.651	314.38
590.861	320.38
591.071	305.38
591.281	297.38
591.49	317.38
591.7	316.38
591.91	321.38
592.119	317.38
592.329	307.38
592.539	328.38
592.748	311.38
592.958	305.38
593.167	312.38
593.377	309.38
593.587	323.38
593.796	321.38
594.006	326.38
594.215	334.38
594.424	327.38
594.634	314.38
594.843	322.38
595.053	319.38
595.262	303.38
595.472	315.38
595.681	303.38
595.89	290.38
596.1	285.38
596.309	307.38
596.518	307.38
596.727	281.38
596.937	281.38
597.146	292.38
597.355	285.38
597.564	277.38
597.774	275.38
597.983	285.38
598.192	274.38
598.401	261.38
598.61	270.38
598.819	266.38
599.028	268.38
599.237	274.38
599.446	281.38
599.655	285.38
599.864	282.38
600.073	285.38
600.282	264.38
600.491	270.38
600.7	269.38
600.909	269.38
601.118	268.38
601.327	265.38
601.536	265.38
601.745	275.38
601.953	264.38
602.162	253.38
602.371	273.38
602.58	266.38
602.789	237.38
602.997	285.38
603.206	285.38
603.415	263.38
603.623	268.38
603.832	260.38
604.041	268.38
604.249	238.38
604.458	248.38
604.666	252.38
604.875	248.38
605.084	260.38
605.292	249.38
605.501	258.38
605.709	234.38
605.918	255.38
606.126	252.38
606.334	258.38
606.543	264.38
606.751	253.38
606.96	240.38
607.168	233.38
607.376	257.38
607.585	249.38
607.793	238.38
608.001	260.38
608.21	254.38
608.418	257.38
608.626	258.38
608.834	265.38
609.043	254.38
609.251	268.38
609.459	249.38
609.667	255.38
609.875	246.38
610.083	243.38
610.291	248.38
610.499	252.38
610.707	219.38
610.916	229.38
611.124	246.38
611.332	269.38
611.54	248.38
611.748	261.38
611.955	244.38
612.163	230.38
612.371	250.38
612.579	229.38
612.787	240.38
612.995	222.38
613.203	221.38
613.411	249.38
613.618	245.38
613.826	247.38
614.034	246.38
614.242	248.38
614.449	244.38
614.657	237.38
614.865	230.38
615.072	220.38
615.28	233.38
615.488	223.38
615.695	247.38
615.903	248.38
616.111	241.38
616.318	245.38
616.526	236.38
616.733	244.38
616.941	244.38
617.148	240.38
617.356	232.38
617.563	227.38
617.771	227.38
617.978	216.38
618.185	230.38
618.393	225.38
618.6	226.38
618.807	251.38
619.015	231.38
619.222	223.38
619.429	245.38
619.637	240.38
619.844	222.38
620.051	230.38
620.258	250.38
620.466	229.38
620.673	234.38
620.88	228.38
621.087	237.38
621.294	236.38
621.501	226.38
621.708	232.38
621.915	231.38
622.122	245.38
622.329	241.38
622.536	224.38
622.743	208.38
622.95	234.38
623.157	219.38
623.364	225.38
623.571	228.38
623.778	220.38
623.985	218.38
624.192	216.38
624.399	206.38
624.606	211.38
624.812	230.38
625.019	231.38
625.226	195.38
625.433	205.38
625.639	216.38
625.846	211.38
626.053	246.38
626.259	233.38
626.466	212.38
626.673	211.38
626.879	228.38
627.086	205.38
627.293	219.38
627.499	196.38
627.706	201.38
627.912	203.38
628.119	192.38
628.325	196.38
628.532	207.38
628.738	208.38
628.945	213.38
629.151	194.38
629.357	191.38
629.564	208.38
629.77	191.38
629.976	200.38
630.183	190.38
630.389	200.38
630.595	203.38
630.802	196.38
631.008	202.38
631.214	201.38
631.42	213.38
631.627	196.38
631.833	190.38
632.039	192.38
632.245	204.38
632.451	199.38
632.657	206.38
632.863	185.38
633.069	196.38
633.275	206.38
633.481	199.38
633.688	192.38
633.893	204.38
634.099	192.38
634.305	184.38
634.511	197.38
634.717	200.38
634.923	187.38
635.129	187.38
635.335	193.38
635.541	180.38
635.747	180.38
635.952	180.38
636.158	194.38
636.364	161.38
636.57	183.38
636.775	192.38
636.981	187.38
637.187	184.38
637.392	186.38
637.598	180.38
637.804	190.38
638.009	203.38
638.215	182.38
638.421	197.38
638.626	173.38
638.832	161.38
639.037	172.38
639.243	181.38
639.448	175.38
639.654	213.38
639.859	170.38
640.065	174.38
640.27	173.38
640.475	174.38
640.681	185.38
640.886	182.38
641.091	174.38
641.297	176.38
641.502	184.38
641.707	154.38
641.913	171.38
642.118	170.38
642.323	173.38
642.528	168.38
642.733	175.38
642.939	171.38
643.144	172.38
643.349	168.38
643.554	173.38
643.759	166.38
643.964	177.38
644.169	164.38
644.374	178.38
644.579	188.38
644.784	181.38
644.989	177.38
645.194	153.38
645.399	184.38
645.604	158.38
645.809	160.38
646.014	172.38
646.219	155.38
646.423	168.38
646.628	160.38
646.833	167.38
647.038	163.38
647.243	160.38
647.447	166.38
647.652	179.38
647.857	173.38
648.062	178.38
648.266	166.38
648.471	164.38
648.676	171.38
648.88	161.38
649.085	163.38
649.289	178.38
649.494	169.38
649.698	186.38
649.903	189.38
650.107	176.38
650.312	160.38
650.516	149.38
650.721	163.38
650.925	157.38
651.13	164.38
651.334	160.38
651.539	156.38
651.743	139.38
651.947	158.38
652.152	157.38
652.356	147.38
652.56	145.38
652.764	145.38
652.969	136.38
653.173	147.38
653.377	142.38
653.581	142.38
653.785	136.38
653.99	126.38
654.194	120.38
654.398	134.38
654.602	134.38
654.806	147.38
655.01	142.38
655.214	139.38
655.418	144.38
655.622	128.38
655.826	136.38
656.03	147.38
656.234	132.38
656.438	150.38
656.642	130.38
656.846	133.38
657.049	138.38
657.253	139.38
657.457	122.38
657.661	115.38
657.865	116.38
658.068	105.38
658.272	104.38
658.476	122.38
658.68	109.38
658.883	110.38
659.087	100.38
659.291	114.38
659.494	110.38
659.698	96.38
659.901	107.38
660.105	93.38
660.309	100.38
660.512	88.38
660.716	82.38
660.919	94.38
661.123	107.38
661.326	89.38
661.53	85.38
661.733	96.38
661.936	87.38
662.14	91.38
662.343	94.38
662.546	88.38
662.75	90.38
662.953	90.38
663.156	77.38
663.36	83.38
663.563	84.38
663.766	85.38
663.969	70.38
664.173	83.38
664.376	94.38
664.579	81.38
664.782	79.38
664.985	96.38
665.188	76.38
665.391	83.38
665.594	87.38
665.797	77.38
666	92.38
666.203	92.38
666.406	81.38
666.609	78.38
666.812	81.38
667.015	88.38
667.218	98.38
667.421	76.38
667.624	82.38
667.827	86.38
668.03	76.38
668.232	78.38
668.435	86.38
668.638	78.38
668.841	89.38
669.043	69.38
669.246	77.38
669.449	85.38
669.651	73.38
669.854	73.38
670.057	86.38
670.259	81.38
670.462	85.38
670.665	73.38
670.867	85.38
671.07	84.38
671.272	75.38
671.475	80.38
671.677	91.38
671.88	80.38
672.082	76.38
672.284	91.38
672.487	87.38
672.689	79.38
672.892	77.38
