Data from 1988.PennyLincolnUp.Lamp.En5.5.200Scan.071819.P2_HRD10591_17-20-27-972.txt Node
Date: Thu Jul 18 17:20:27 EDT 2019
User: cochatt
Spectrometer: HR+D1059
Trigger mode: 1
Integration Time (sec): 1.000000E-1
Scans to average: 1
Electric dark correction enabled: true
Nonlinearity correction enabled: false
Boxcar width: 0
XAxis mode: Wavelengths
Number of Pixels in Spectrum: 2048
>>>>>Begin Spectral Data<<<<<
223.165	-13.19
223.4	-13.19
223.635	-13.19
223.869	-9.19
224.104	-7.19
224.338	-15.19
224.573	-29.19
224.808	-10.19
225.042	-0.19
225.277	-13.19
225.511	-8.19
225.746	2.81
225.98	7.81
226.215	3.81
226.449	16.81
226.683	12.81
226.918	27.81
227.152	33.81
227.387	38.81
227.621	39.81
227.856	42.81
228.09	37.81
228.324	50.81
228.559	47.81
228.793	69.81
229.027	109.81
229.262	105.81
229.496	121.81
229.73	147.81
229.964	186.81
230.199	147.81
230.433	111.81
230.667	114.81
230.901	125.81
231.136	110.81
231.37	112.81
231.604	115.81
231.838	117.81
232.072	112.81
232.306	114.81
232.541	133.81
232.775	115.81
233.009	116.81
233.243	125.81
233.477	113.81
233.711	124.81
233.945	126.81
234.179	121.81
234.413	105.81
234.647	127.81
234.881	135.81
235.115	124.81
235.349	136.81
235.583	114.81
235.817	127.81
236.051	123.81
236.285	131.81
236.519	123.81
236.753	136.81
236.987	151.81
237.221	197.81
237.455	261.81
237.689	203.81
237.922	161.81
238.156	134.81
238.39	143.81
238.624	125.81
238.858	124.81
239.091	151.81
239.325	131.81
239.559	140.81
239.793	133.81
240.027	148.81
240.26	161.81
240.494	171.81
240.728	168.81
240.961	178.81
241.195	153.81
241.429	134.81
241.662	154.81
241.896	136.81
242.13	156.81
242.363	141.81
242.597	125.81
242.83	134.81
243.064	148.81
243.298	155.81
243.531	157.81
243.765	146.81
243.998	154.81
244.232	149.81
244.465	141.81
244.699	162.81
244.932	152.81
245.166	137.81
245.399	149.81
245.633	161.81
245.866	155.81
246.099	151.81
246.333	156.81
246.566	155.81
246.8	160.81
247.033	183.81
247.266	171.81
247.5	156.81
247.733	177.81
247.966	177.81
248.2	171.81
248.433	181.81
248.666	186.81
248.899	198.81
249.133	218.81
249.366	226.81
249.599	201.81
249.832	192.81
250.066	167.81
250.299	176.81
250.532	209.81
250.765	231.81
250.998	220.81
251.231	236.81
251.465	229.81
251.698	218.81
251.931	209.81
252.164	205.81
252.397	199.81
252.63	201.81
252.863	212.81
253.096	218.81
253.329	251.81
253.562	234.81
253.795	227.81
254.028	214.81
254.261	207.81
254.494	243.81
254.727	279.81
254.96	307.81
255.193	281.81
255.426	273.81
255.659	251.81
255.892	245.81
256.124	227.81
256.357	239.81
256.59	214.81
256.823	221.81
257.056	228.81
257.289	213.81
257.521	215.81
257.754	222.81
257.987	227.81
258.22	218.81
258.452	215.81
258.685	217.81
258.918	218.81
259.151	218.81
259.383	232.81
259.616	230.81
259.849	229.81
260.081	239.81
260.314	262.81
260.547	268.81
260.779	251.81
261.012	259.81
261.244	239.81
261.477	231.81
261.71	212.81
261.942	247.81
262.175	253.81
262.407	251.81
262.64	234.81
262.872	211.81
263.105	232.81
263.337	230.81
263.57	223.81
263.802	220.81
264.035	217.81
264.267	210.81
264.499	231.81
264.732	215.81
264.964	229.81
265.197	232.81
265.429	230.81
265.661	216.81
265.894	227.81
266.126	229.81
266.358	223.81
266.591	226.81
266.823	258.81
267.055	246.81
267.287	248.81
267.52	239.81
267.752	251.81
267.984	220.81
268.216	262.81
268.448	247.81
268.681	242.81
268.913	274.81
269.145	286.81
269.377	294.81
269.609	294.81
269.841	286.81
270.073	284.81
270.306	314.81
270.538	313.81
270.77	323.81
271.002	316.81
271.234	327.81
271.466	313.81
271.698	330.81
271.93	344.81
272.162	335.81
272.394	348.81
272.626	327.81
272.858	294.81
273.09	296.81
273.322	286.81
273.553	275.81
273.785	280.81
274.017	267.81
274.249	273.81
274.481	277.81
274.713	273.81
274.945	287.81
275.176	279.81
275.408	284.81
275.64	276.81
275.872	292.81
276.104	274.81
276.335	280.81
276.567	299.81
276.799	296.81
277.031	328.81
277.262	344.81
277.494	329.81
277.726	317.81
277.957	321.81
278.189	305.81
278.421	272.81
278.652	287.81
278.884	269.81
279.115	300.81
279.347	287.81
279.579	271.81
279.81	275.81
280.042	281.81
280.273	261.81
280.505	273.81
280.736	272.81
280.968	305.81
281.199	303.81
281.431	290.81
281.662	291.81
281.894	278.81
282.125	292.81
282.356	302.81
282.588	331.81
282.819	337.81
283.051	289.81
283.282	292.81
283.513	290.81
283.745	315.81
283.976	294.81
284.207	292.81
284.439	320.81
284.67	305.81
284.901	284.81
285.132	307.81
285.364	314.81
285.595	298.81
285.826	284.81
286.057	308.81
286.288	307.81
286.52	288.81
286.751	307.81
286.982	313.81
287.213	316.81
287.444	312.81
287.675	305.81
287.906	308.81
288.138	304.81
288.369	326.81
288.6	309.81
288.831	312.81
289.062	313.81
289.293	308.81
289.524	308.81
289.755	306.81
289.986	309.81
290.217	301.81
290.448	312.81
290.679	339.81
290.91	312.81
291.141	300.81
291.371	304.81
291.602	313.81
291.833	311.81
292.064	306.81
292.295	309.81
292.526	311.81
292.757	307.81
292.987	325.81
293.218	299.81
293.449	314.81
293.68	311.81
293.91	300.81
294.141	323.81
294.372	303.81
294.603	317.81
294.833	321.81
295.064	309.81
295.295	312.81
295.525	328.81
295.756	344.81
295.987	336.81
296.217	359.81
296.448	350.81
296.679	335.81
296.909	307.81
297.14	321.81
297.37	321.81
297.601	333.81
297.831	324.81
298.062	328.81
298.292	312.81
298.523	336.81
298.753	328.81
298.984	335.81
299.214	330.81
299.445	321.81
299.675	352.81
299.905	346.81
300.136	335.81
300.366	348.81
300.597	344.81
300.827	355.81
301.057	342.81
301.288	360.81
301.518	355.81
301.748	363.81
301.979	336.81
302.209	374.81
302.439	364.81
302.669	352.81
302.9	354.81
303.13	351.81
303.36	357.81
303.59	356.81
303.82	373.81
304.051	363.81
304.281	354.81
304.511	342.81
304.741	333.81
304.971	380.81
305.201	373.81
305.431	354.81
305.661	354.81
305.891	358.81
306.121	364.81
306.352	367.81
306.582	359.81
306.812	357.81
307.042	378.81
307.272	369.81
307.502	379.81
307.731	371.81
307.961	341.81
308.191	355.81
308.421	369.81
308.651	371.81
308.881	376.81
309.111	367.81
309.341	371.81
309.571	377.81
309.8	385.81
310.03	389.81
310.26	385.81
310.49	394.81
310.72	393.81
310.949	443.81
311.179	436.81
311.409	433.81
311.639	410.81
311.868	412.81
312.098	419.81
312.328	433.81
312.557	427.81
312.787	440.81
313.017	452.81
313.246	429.81
313.476	411.81
313.706	420.81
313.935	428.81
314.165	451.81
314.394	444.81
314.624	435.81
314.853	440.81
315.083	437.81
315.312	411.81
315.542	416.81
315.771	405.81
316.001	415.81
316.23	409.81
316.46	405.81
316.689	411.81
316.919	413.81
317.148	411.81
317.377	437.81
317.607	431.81
317.836	425.81
318.065	444.81
318.295	405.81
318.524	412.81
318.753	418.81
318.983	397.81
319.212	412.81
319.441	428.81
319.67	458.81
319.9	429.81
320.129	439.81
320.358	421.81
320.587	426.81
320.816	437.81
321.046	437.81
321.275	449.81
321.504	443.81
321.733	439.81
321.962	439.81
322.191	458.81
322.42	476.81
322.649	496.81
322.878	500.81
323.108	497.81
323.337	523.81
323.566	576.81
323.795	593.81
324.024	624.81
324.253	779.81
324.482	1123.81
324.71	1748.81
324.939	2506.81
325.168	2152.81
325.397	1120.81
325.626	760.81
325.855	624.81
326.084	592.81
326.313	553.81
326.542	574.81
326.77	632.81
326.999	705.81
327.228	985.81
327.457	1558.81
327.686	1917.81
327.914	1239.81
328.143	806.81
328.372	703.81
328.6	635.81
328.829	631.81
329.058	640.81
329.287	654.81
329.515	598.81
329.744	560.81
329.972	547.81
330.201	561.81
330.43	595.81
330.658	627.81
330.887	669.81
331.115	664.81
331.344	594.81
331.572	551.81
331.801	559.81
332.03	541.81
332.258	521.81
332.486	527.81
332.715	497.81
332.943	477.81
333.172	493.81
333.4	496.81
333.629	511.81
333.857	517.81
334.085	527.81
334.314	511.81
334.542	529.81
334.771	528.81
334.999	517.81
335.227	520.81
335.455	490.81
335.684	500.81
335.912	497.81
336.14	490.81
336.369	480.81
336.597	514.81
336.825	507.81
337.053	513.81
337.281	495.81
337.51	470.81
337.738	487.81
337.966	472.81
338.194	503.81
338.422	504.81
338.65	501.81
338.878	497.81
339.106	466.81
339.334	485.81
339.562	492.81
339.79	467.81
340.018	477.81
340.246	499.81
340.474	479.81
340.702	489.81
340.93	477.81
341.158	482.81
341.386	480.81
341.614	479.81
341.842	517.81
342.07	476.81
342.298	468.81
342.526	461.81
342.754	480.81
342.981	480.81
343.209	491.81
343.437	479.81
343.665	486.81
343.893	487.81
344.12	481.81
344.348	472.81
344.576	461.81
344.804	481.81
345.031	507.81
345.259	503.81
345.487	508.81
345.714	499.81
345.942	461.81
346.17	462.81
346.397	482.81
346.625	488.81
346.853	474.81
347.08	462.81
347.308	475.81
347.535	503.81
347.763	479.81
347.99	484.81
348.218	479.81
348.445	471.81
348.673	481.81
348.9	465.81
349.128	448.81
349.355	457.81
349.583	432.81
349.81	428.81
350.037	455.81
350.265	433.81
350.492	433.81
350.72	476.81
350.947	479.81
351.174	452.81
351.402	475.81
351.629	469.81
351.856	473.81
352.083	488.81
352.311	492.81
352.538	496.81
352.765	484.81
352.992	491.81
353.22	473.81
353.447	456.81
353.674	486.81
353.901	457.81
354.128	458.81
354.355	429.81
354.583	422.81
354.81	447.81
355.037	420.81
355.264	429.81
355.491	441.81
355.718	426.81
355.945	425.81
356.172	435.81
356.399	433.81
356.626	445.81
356.853	423.81
357.08	438.81
357.307	449.81
357.534	441.81
357.761	438.81
357.988	435.81
358.215	450.81
358.441	439.81
358.668	434.81
358.895	436.81
359.122	450.81
359.349	465.81
359.576	449.81
359.802	512.81
360.029	529.81
360.256	545.81
360.483	531.81
360.709	477.81
360.936	492.81
361.163	471.81
361.39	458.81
361.616	493.81
361.843	452.81
362.07	455.81
362.296	478.81
362.523	458.81
362.749	465.81
362.976	453.81
363.203	456.81
363.429	433.81
363.656	454.81
363.882	442.81
364.109	443.81
364.335	448.81
364.562	454.81
364.788	444.81
365.015	454.81
365.241	441.81
365.468	439.81
365.694	446.81
365.92	465.81
366.147	481.81
366.373	448.81
366.599	433.81
366.826	444.81
367.052	432.81
367.278	444.81
367.505	459.81
367.731	459.81
367.957	476.81
368.184	468.81
368.41	464.81
368.636	464.81
368.862	471.81
369.089	480.81
369.315	459.81
369.541	464.81
369.767	449.81
369.993	451.81
370.219	469.81
370.445	453.81
370.672	449.81
370.898	459.81
371.124	448.81
371.35	454.81
371.576	437.81
371.802	433.81
372.028	444.81
372.254	426.81
372.48	444.81
372.706	472.81
372.932	477.81
373.158	466.81
373.384	474.81
373.61	465.81
373.835	457.81
374.061	474.81
374.287	455.81
374.513	472.81
374.739	453.81
374.965	460.81
375.191	448.81
375.416	457.81
375.642	471.81
375.868	443.81
376.094	435.81
376.319	465.81
376.545	460.81
376.771	450.81
376.997	448.81
377.222	456.81
377.448	454.81
377.674	444.81
377.899	449.81
378.125	462.81
378.35	459.81
378.576	433.81
378.802	436.81
379.027	446.81
379.253	486.81
379.478	459.81
379.704	481.81
379.929	449.81
380.155	471.81
380.38	466.81
380.606	452.81
380.831	457.81
381.057	471.81
381.282	449.81
381.507	460.81
381.733	465.81
381.958	452.81
382.184	473.81
382.409	480.81
382.634	472.81
382.86	475.81
383.085	476.81
383.31	467.81
383.535	492.81
383.761	468.81
383.986	469.81
384.211	499.81
384.436	488.81
384.662	501.81
384.887	480.81
385.112	483.81
385.337	498.81
385.562	482.81
385.787	507.81
386.013	507.81
386.238	493.81
386.463	515.81
386.688	488.81
386.913	492.81
387.138	480.81
387.363	510.81
387.588	499.81
387.813	501.81
388.038	488.81
388.263	503.81
388.488	503.81
388.713	523.81
388.938	499.81
389.163	509.81
389.387	499.81
389.612	499.81
389.837	489.81
390.062	494.81
390.287	506.81
390.512	521.81
390.736	513.81
390.961	491.81
391.186	509.81
391.411	518.81
391.636	526.81
391.86	497.81
392.085	536.81
392.31	517.81
392.534	512.81
392.759	523.81
392.984	517.81
393.208	496.81
393.433	511.81
393.658	516.81
393.882	490.81
394.107	525.81
394.331	552.81
394.556	519.81
394.78	526.81
395.005	521.81
395.229	514.81
395.454	526.81
395.678	549.81
395.903	571.81
396.127	583.81
396.352	565.81
396.576	526.81
396.801	528.81
397.025	536.81
397.249	536.81
397.474	544.81
397.698	540.81
397.922	554.81
398.147	577.81
398.371	592.81
398.595	589.81
398.82	578.81
399.044	586.81
399.268	601.81
399.492	630.81
399.717	674.81
399.941	687.81
400.165	725.81
400.389	740.81
400.613	676.81
400.837	624.81
401.062	623.81
401.286	602.81
401.51	604.81
401.734	576.81
401.958	600.81
402.182	616.81
402.406	587.81
402.63	591.81
402.854	589.81
403.078	605.81
403.302	600.81
403.526	622.81
403.75	630.81
403.974	620.81
404.198	614.81
404.422	605.81
404.645	615.81
404.869	629.81
405.093	650.81
405.317	671.81
405.541	688.81
405.765	637.81
405.988	641.81
406.212	665.81
406.436	672.81
406.66	697.81
406.883	657.81
407.107	695.81
407.331	733.81
407.555	815.81
407.778	810.81
408.002	744.81
408.226	677.81
408.449	671.81
408.673	675.81
408.896	733.81
409.12	767.81
409.344	692.81
409.567	652.81
409.791	633.81
410.014	612.81
410.238	608.81
410.461	603.81
410.685	625.81
410.908	634.81
411.132	684.81
411.355	729.81
411.578	668.81
411.802	649.81
412.025	613.81
412.249	610.81
412.472	616.81
412.695	622.81
412.919	625.81
413.142	604.81
413.365	595.81
413.589	594.81
413.812	599.81
414.035	569.81
414.258	570.81
414.482	563.81
414.705	573.81
414.928	576.81
415.151	573.81
415.374	572.81
415.597	586.81
415.821	554.81
416.044	597.81
416.267	584.81
416.49	582.81
416.713	563.81
416.936	569.81
417.159	569.81
417.382	600.81
417.605	576.81
417.828	590.81
418.051	604.81
418.274	599.81
418.497	565.81
418.72	571.81
418.943	588.81
419.166	581.81
419.389	618.81
419.611	634.81
419.834	612.81
420.057	613.81
420.28	596.81
420.503	595.81
420.726	612.81
420.948	636.81
421.171	641.81
421.394	711.81
421.617	607.81
421.839	626.81
422.062	627.81
422.285	644.81
422.507	709.81
422.73	788.81
422.953	769.81
423.175	652.81
423.398	641.81
423.621	609.81
423.843	684.81
424.066	660.81
424.288	641.81
424.511	670.81
424.733	747.81
424.956	839.81
425.178	818.81
425.401	817.81
425.623	813.81
425.846	711.81
426.068	673.81
426.291	634.81
426.513	649.81
426.735	682.81
426.958	713.81
427.18	818.81
427.402	953.81
427.625	1059.81
427.847	917.81
428.069	775.81
428.292	707.81
428.514	650.81
428.736	626.81
428.958	612.81
429.181	595.81
429.403	597.81
429.625	653.81
429.847	636.81
430.069	733.81
430.292	696.81
430.514	618.81
430.736	616.81
430.958	596.81
431.18	598.81
431.402	599.81
431.624	568.81
431.846	573.81
432.068	543.81
432.29	555.81
432.512	576.81
432.734	587.81
432.956	567.81
433.178	601.81
433.4	606.81
433.622	567.81
433.844	586.81
434.066	584.81
434.287	587.81
434.509	592.81
434.731	616.81
434.953	600.81
435.175	591.81
435.397	641.81
435.618	650.81
435.84	708.81
436.062	864.81
436.284	928.81
436.505	736.81
436.727	692.81
436.949	615.81
437.17	622.81
437.392	601.81
437.614	626.81
437.835	687.81
438.057	787.81
438.278	897.81
438.5	880.81
438.721	980.81
438.943	963.81
439.165	747.81
439.386	675.81
439.608	669.81
439.829	675.81
440.05	723.81
440.272	768.81
440.493	720.81
440.715	643.81
440.936	635.81
441.158	635.81
441.379	629.81
441.6	629.81
441.822	643.81
442.043	716.81
442.264	807.81
442.486	843.81
442.707	707.81
442.928	683.81
443.149	702.81
443.371	705.81
443.592	769.81
443.813	866.81
444.034	950.81
444.255	771.81
444.476	705.81
444.698	672.81
444.919	659.81
445.14	812.81
445.361	735.81
445.582	708.81
445.803	788.81
446.024	931.81
446.245	926.81
446.466	856.81
446.687	693.81
446.908	654.81
447.129	608.81
447.35	607.81
447.571	632.81
447.792	562.81
448.013	611.81
448.234	639.81
448.455	669.81
448.675	827.81
448.896	964.81
449.117	817.81
449.338	764.81
449.559	897.81
449.779	1005.81
450	793.81
450.221	681.81
450.442	626.81
450.662	595.81
450.883	587.81
451.104	631.81
451.324	609.81
451.545	589.81
451.766	543.81
451.986	546.81
452.207	553.81
452.428	542.81
452.648	545.81
452.869	570.81
453.089	551.81
453.31	559.81
453.53	561.81
453.751	528.81
453.971	553.81
454.192	567.81
454.412	566.81
454.633	533.81
454.853	522.81
455.073	533.81
455.294	571.81
455.514	646.81
455.734	622.81
455.955	541.81
456.175	531.81
456.395	513.81
456.616	529.81
456.836	516.81
457.056	523.81
457.276	509.81
457.497	535.81
457.717	529.81
457.937	518.81
458.157	514.81
458.377	538.81
458.598	570.81
458.818	616.81
459.038	705.81
459.258	741.81
459.478	660.81
459.698	596.81
459.918	588.81
460.138	579.81
460.358	603.81
460.578	600.81
460.798	603.81
461.018	595.81
461.238	578.81
461.458	597.81
461.678	582.81
461.898	586.81
462.118	609.81
462.338	599.81
462.558	601.81
462.777	625.81
462.997	619.81
463.217	654.81
463.437	646.81
463.657	641.81
463.876	617.81
464.096	635.81
464.316	624.81
464.536	615.81
464.755	629.81
464.975	675.81
465.195	680.81
465.414	770.81
465.634	682.81
465.854	635.81
466.073	608.81
466.293	587.81
466.512	580.81
466.732	574.81
466.951	581.81
467.171	562.81
467.391	597.81
467.61	572.81
467.829	589.81
468.049	572.81
468.268	546.81
468.488	549.81
468.707	547.81
468.927	541.81
469.146	521.81
469.365	543.81
469.585	541.81
469.804	562.81
470.023	577.81
470.243	551.81
470.462	580.81
470.681	584.81
470.901	612.81
471.12	559.81
471.339	569.81
471.558	559.81
471.777	571.81
471.997	557.81
472.216	518.81
472.435	560.81
472.654	530.81
472.873	571.81
473.092	538.81
473.311	547.81
473.53	563.81
473.749	571.81
473.968	632.81
474.187	727.81
474.406	756.81
474.625	628.81
474.844	610.81
475.063	562.81
475.282	563.81
475.501	572.81
475.72	569.81
475.939	569.81
476.158	582.81
476.377	581.81
476.596	601.81
476.814	604.81
477.033	601.81
477.252	600.81
477.471	596.81
477.69	597.81
477.908	605.81
478.127	633.81
478.346	625.81
478.564	639.81
478.783	631.81
479.002	650.81
479.22	663.81
479.439	651.81
479.658	689.81
479.876	690.81
480.095	697.81
480.313	715.81
480.532	707.81
480.751	679.81
480.969	696.81
481.188	705.81
481.406	726.81
481.624	700.81
481.843	652.81
482.061	671.81
482.28	655.81
482.498	660.81
482.717	643.81
482.935	671.81
483.153	653.81
483.372	640.81
483.59	666.81
483.808	657.81
484.027	634.81
484.245	639.81
484.463	649.81
484.681	671.81
484.9	684.81
485.118	691.81
485.336	684.81
485.554	675.81
485.772	725.81
485.99	689.81
486.209	684.81
486.427	688.81
486.645	702.81
486.863	751.81
487.081	708.81
487.299	725.81
487.517	704.81
487.735	721.81
487.953	703.81
488.171	740.81
488.389	708.81
488.607	716.81
488.825	689.81
489.043	740.81
489.261	725.81
489.479	720.81
489.696	731.81
489.914	727.81
490.132	746.81
490.35	731.81
490.568	764.81
490.786	775.81
491.003	781.81
491.221	779.81
491.439	818.81
491.657	791.81
491.874	800.81
492.092	797.81
492.31	815.81
492.527	789.81
492.745	821.81
492.963	817.81
493.18	833.81
493.398	828.81
493.615	817.81
493.833	844.81
494.05	842.81
494.268	842.81
494.485	856.81
494.703	846.81
494.92	872.81
495.138	869.81
495.355	859.81
495.573	853.81
495.79	847.81
496.008	852.81
496.225	834.81
496.442	845.81
496.66	879.81
496.877	835.81
497.094	866.81
497.312	865.81
497.529	893.81
497.746	905.81
497.963	883.81
498.181	938.81
498.398	921.81
498.615	946.81
498.832	990.81
499.049	1016.81
499.267	995.81
499.484	1051.81
499.701	1076.81
499.918	1119.81
500.135	1148.81
500.352	1229.81
500.569	1225.81
500.786	1231.81
501.003	1220.81
501.22	1199.81
501.437	1183.81
501.654	1077.81
501.871	1084.81
502.088	1050.81
502.305	1035.81
502.522	1038.81
502.739	989.81
502.956	946.81
503.172	958.81
503.389	919.81
503.606	919.81
503.823	914.81
504.04	896.81
504.256	875.81
504.473	865.81
504.69	890.81
504.907	863.81
505.123	861.81
505.34	861.81
505.557	835.81
505.773	815.81
505.99	840.81
506.207	817.81
506.423	827.81
506.64	839.81
506.856	821.81
507.073	801.81
507.289	791.81
507.506	789.81
507.722	817.81
507.939	848.81
508.155	798.81
508.372	780.81
508.588	760.81
508.805	789.81
509.021	792.81
509.238	801.81
509.454	796.81
509.67	778.81
509.887	768.81
510.103	770.81
510.319	794.81
510.536	887.81
510.752	1414.81
510.968	1185.81
511.184	794.81
511.401	747.81
511.617	748.81
511.833	747.81
512.049	717.81
512.265	716.81
512.481	730.81
512.698	733.81
512.914	700.81
513.13	754.81
513.346	705.81
513.562	717.81
513.778	751.81
513.994	745.81
514.21	737.81
514.426	784.81
514.642	818.81
514.858	863.81
515.074	878.81
515.29	1051.81
515.506	1488.81
515.721	1271.81
515.937	904.81
516.153	801.81
516.369	795.81
516.585	807.81
516.801	778.81
517.016	757.81
517.232	789.81
517.448	772.81
517.664	783.81
517.879	780.81
518.095	763.81
518.311	759.81
518.527	737.81
518.742	751.81
518.958	726.81
519.173	732.81
519.389	741.81
519.605	732.81
519.82	733.81
520.036	766.81
520.251	767.81
520.467	807.81
520.682	810.81
520.898	812.81
521.113	833.81
521.329	890.81
521.544	968.81
521.76	1191.81
521.975	1892.81
522.19	1903.81
522.406	1071.81
522.621	858.81
522.836	758.81
523.052	749.81
523.267	697.81
523.482	733.81
523.698	675.81
523.913	691.81
524.128	694.81
524.343	655.81
524.559	659.81
524.774	635.81
524.989	640.81
525.204	663.81
525.419	646.81
525.634	659.81
525.849	626.81
526.064	645.81
526.28	605.81
526.495	601.81
526.71	614.81
526.925	608.81
527.14	602.81
527.355	624.81
527.57	613.81
527.785	595.81
527.999	597.81
528.214	619.81
528.429	615.81
528.644	606.81
528.859	599.81
529.074	603.81
529.289	637.81
529.503	700.81
529.718	684.81
529.933	649.81
530.148	633.81
530.363	624.81
530.577	597.81
530.792	614.81
531.007	588.81
531.221	600.81
531.436	584.81
531.651	604.81
531.865	611.81
532.08	596.81
532.295	566.81
532.509	581.81
532.724	586.81
532.938	587.81
533.153	594.81
533.367	594.81
533.582	564.81
533.796	579.81
534.011	571.81
534.225	579.81
534.44	588.81
534.654	559.81
534.868	570.81
535.083	567.81
535.297	578.81
535.511	570.81
535.726	577.81
535.94	583.81
536.154	585.81
536.369	593.81
536.583	551.81
536.797	569.81
537.011	556.81
537.225	553.81
537.44	549.81
537.654	561.81
537.868	546.81
538.082	526.81
538.296	538.81
538.51	550.81
538.724	572.81
538.938	561.81
539.153	564.81
539.367	577.81
539.581	593.81
539.795	555.81
540.009	565.81
540.222	543.81
540.436	552.81
540.65	561.81
540.864	569.81
541.078	579.81
541.292	554.81
541.506	562.81
541.72	527.81
541.934	552.81
542.147	554.81
542.361	538.81
542.575	546.81
542.789	533.81
543.002	543.81
543.216	541.81
543.43	568.81
543.644	531.81
543.857	539.81
544.071	541.81
544.285	546.81
544.498	538.81
544.712	533.81
544.925	540.81
545.139	539.81
545.352	538.81
545.566	532.81
545.779	544.81
545.993	547.81
546.206	529.81
546.42	525.81
546.633	541.81
546.847	515.81
547.06	534.81
547.274	513.81
547.487	534.81
547.7	526.81
547.914	520.81
548.127	517.81
548.34	542.81
548.554	528.81
548.767	530.81
548.98	530.81
549.193	511.81
549.407	516.81
549.62	531.81
549.833	539.81
550.046	535.81
550.259	523.81
550.473	515.81
550.686	516.81
550.899	505.81
551.112	510.81
551.325	530.81
551.538	507.81
551.751	520.81
551.964	535.81
552.177	524.81
552.39	538.81
552.603	545.81
552.816	527.81
553.029	525.81
553.242	531.81
553.455	519.81
553.667	532.81
553.88	546.81
554.093	520.81
554.306	523.81
554.519	529.81
554.732	521.81
554.944	508.81
555.157	516.81
555.37	476.81
555.583	476.81
555.795	508.81
556.008	488.81
556.221	476.81
556.433	499.81
556.646	489.81
556.859	469.81
557.071	468.81
557.284	460.81
557.496	467.81
557.709	509.81
557.921	488.81
558.134	441.81
558.346	477.81
558.559	482.81
558.771	484.81
558.984	466.81
559.196	457.81
559.409	460.81
559.621	465.81
559.833	472.81
560.046	450.81
560.258	462.81
560.47	463.81
560.683	476.81
560.895	464.81
561.107	454.81
561.32	439.81
561.532	453.81
561.744	466.81
561.956	458.81
562.168	470.81
562.381	454.81
562.593	470.81
562.805	489.81
563.017	455.81
563.229	487.81
563.441	460.81
563.653	483.81
563.865	475.81
564.077	490.81
564.289	498.81
564.501	488.81
564.713	481.81
564.925	510.81
565.137	487.81
565.349	511.81
565.561	513.81
565.773	514.81
565.985	521.81
566.197	527.81
566.408	539.81
566.62	572.81
566.832	587.81
567.044	573.81
567.255	573.81
567.467	589.81
567.679	582.81
567.891	577.81
568.102	598.81
568.314	580.81
568.526	555.81
568.737	551.81
568.949	535.81
569.161	516.81
569.372	490.81
569.584	475.81
569.795	496.81
570.007	473.81
570.218	541.81
570.43	500.81
570.641	449.81
570.853	461.81
571.064	472.81
571.276	459.81
571.487	452.81
571.698	423.81
571.91	419.81
572.121	440.81
572.333	448.81
572.544	435.81
572.755	420.81
572.966	417.81
573.178	416.81
573.389	431.81
573.6	410.81
573.811	414.81
574.023	405.81
574.234	407.81
574.445	417.81
574.656	403.81
574.867	395.81
575.078	394.81
575.289	405.81
575.501	407.81
575.712	377.81
575.923	398.81
576.134	387.81
576.345	393.81
576.556	410.81
576.767	383.81
576.978	384.81
577.188	376.81
577.399	389.81
577.61	405.81
577.821	371.81
578.032	405.81
578.243	428.81
578.454	676.81
578.665	503.81
578.875	412.81
579.086	399.81
579.297	372.81
579.508	385.81
579.718	356.81
579.929	383.81
580.14	385.81
580.35	380.81
580.561	378.81
580.772	355.81
580.982	377.81
581.193	359.81
581.403	356.81
581.614	366.81
581.825	371.81
582.035	366.81
582.246	372.81
582.456	367.81
582.667	352.81
582.877	354.81
583.087	356.81
583.298	359.81
583.508	348.81
583.719	355.81
583.929	379.81
584.139	354.81
584.35	367.81
584.56	357.81
584.77	369.81
584.981	333.81
585.191	369.81
585.401	347.81
585.611	349.81
585.821	365.81
586.032	371.81
586.242	355.81
586.452	354.81
586.662	349.81
586.872	358.81
587.082	329.81
587.292	343.81
587.502	360.81
587.713	332.81
587.923	351.81
588.133	340.81
588.343	341.81
588.553	333.81
588.762	349.81
588.972	316.81
589.182	337.81
589.392	331.81
589.602	345.81
589.812	335.81
590.022	350.81
590.232	325.81
590.441	343.81
590.651	352.81
590.861	341.81
591.071	350.81
591.281	328.81
591.49	325.81
591.7	338.81
591.91	351.81
592.119	347.81
592.329	353.81
592.539	348.81
592.748	373.81
592.958	374.81
593.167	356.81
593.377	345.81
593.587	387.81
593.796	348.81
594.006	354.81
594.215	372.81
594.424	351.81
594.634	341.81
594.843	361.81
595.053	362.81
595.262	345.81
595.472	341.81
595.681	341.81
595.89	352.81
596.1	359.81
596.309	330.81
596.518	330.81
596.727	328.81
596.937	329.81
597.146	318.81
597.355	326.81
597.564	308.81
597.774	314.81
597.983	320.81
598.192	301.81
598.401	311.81
598.61	314.81
598.819	311.81
599.028	313.81
599.237	305.81
599.446	312.81
599.655	289.81
599.864	309.81
600.073	299.81
600.282	293.81
600.491	295.81
600.7	301.81
600.909	315.81
601.118	305.81
601.327	308.81
601.536	300.81
601.745	307.81
601.953	291.81
602.162	280.81
602.371	308.81
602.58	284.81
602.789	275.81
602.997	278.81
603.206	282.81
603.415	288.81
603.623	292.81
603.832	285.81
604.041	293.81
604.249	282.81
604.458	276.81
604.666	280.81
604.875	280.81
605.084	281.81
605.292	281.81
605.501	290.81
605.709	310.81
605.918	283.81
606.126	291.81
606.334	279.81
606.543	283.81
606.751	283.81
606.96	277.81
607.168	308.81
607.376	271.81
607.585	279.81
607.793	280.81
608.001	286.81
608.21	273.81
608.418	273.81
608.626	273.81
608.834	276.81
609.043	268.81
609.251	265.81
609.459	279.81
609.667	269.81
609.875	284.81
610.083	276.81
610.291	275.81
610.499	267.81
610.707	274.81
610.916	267.81
611.124	279.81
611.332	290.81
611.54	305.81
611.748	288.81
611.955	253.81
612.163	274.81
612.371	280.81
612.579	275.81
612.787	283.81
612.995	264.81
613.203	279.81
613.411	264.81
613.618	262.81
613.826	263.81
614.034	260.81
614.242	278.81
614.449	261.81
614.657	270.81
614.865	250.81
615.072	276.81
615.28	271.81
615.488	269.81
615.695	274.81
615.903	283.81
616.111	269.81
616.318	277.81
616.526	264.81
616.733	285.81
616.941	259.81
617.148	247.81
617.356	260.81
617.563	243.81
617.771	258.81
617.978	248.81
618.185	284.81
618.393	264.81
618.6	259.81
618.807	259.81
619.015	265.81
619.222	228.81
619.429	271.81
619.637	260.81
619.844	259.81
620.051	248.81
620.258	255.81
620.466	265.81
620.673	239.81
620.88	244.81
621.087	220.81
621.294	262.81
621.501	232.81
621.708	260.81
621.915	245.81
622.122	244.81
622.329	248.81
622.536	255.81
622.743	249.81
622.95	240.81
623.157	230.81
623.364	237.81
623.571	253.81
623.778	246.81
623.985	235.81
624.192	255.81
624.399	262.81
624.606	249.81
624.812	245.81
625.019	251.81
625.226	262.81
625.433	233.81
625.639	242.81
625.846	234.81
626.053	231.81
626.259	239.81
626.466	266.81
626.673	229.81
626.879	220.81
627.086	220.81
627.293	220.81
627.499	234.81
627.706	248.81
627.912	221.81
628.119	216.81
628.325	227.81
628.532	220.81
628.738	224.81
628.945	212.81
629.151	227.81
629.357	234.81
629.564	244.81
629.77	231.81
629.976	223.81
630.183	230.81
630.389	220.81
630.595	229.81
630.802	219.81
631.008	216.81
631.214	224.81
631.42	206.81
631.627	228.81
631.833	232.81
632.039	203.81
632.245	220.81
632.451	201.81
632.657	213.81
632.863	215.81
633.069	215.81
633.275	218.81
633.481	188.81
633.688	189.81
633.893	217.81
634.099	203.81
634.305	216.81
634.511	197.81
634.717	201.81
634.923	205.81
635.129	187.81
635.335	217.81
635.541	215.81
635.747	201.81
635.952	209.81
636.158	199.81
636.364	219.81
636.57	200.81
636.775	207.81
636.981	205.81
637.187	209.81
637.392	202.81
637.598	191.81
637.804	207.81
638.009	183.81
638.215	200.81
638.421	222.81
638.626	185.81
638.832	214.81
639.037	198.81
639.243	200.81
639.448	208.81
639.654	204.81
639.859	200.81
640.065	185.81
640.27	205.81
640.475	200.81
640.681	197.81
640.886	180.81
641.091	191.81
641.297	198.81
641.502	187.81
641.707	179.81
641.913	176.81
642.118	182.81
642.323	181.81
642.528	198.81
642.733	194.81
642.939	187.81
643.144	181.81
643.349	204.81
643.554	184.81
643.759	185.81
643.964	166.81
644.169	177.81
644.374	179.81
644.579	176.81
644.784	188.81
644.989	183.81
645.194	180.81
645.399	175.81
645.604	171.81
645.809	191.81
646.014	177.81
646.219	183.81
646.423	178.81
646.628	191.81
646.833	175.81
647.038	183.81
647.243	193.81
647.447	172.81
647.652	183.81
647.857	179.81
648.062	163.81
648.266	179.81
648.471	188.81
648.676	189.81
648.88	193.81
649.085	203.81
649.289	172.81
649.494	184.81
649.698	204.81
649.903	195.81
650.107	202.81
650.312	184.81
650.516	183.81
650.721	163.81
650.925	181.81
651.13	175.81
651.334	173.81
651.539	157.81
651.743	154.81
651.947	158.81
652.152	164.81
652.356	161.81
652.56	153.81
652.764	143.81
652.969	141.81
653.173	159.81
653.377	144.81
653.581	147.81
653.785	168.81
653.99	147.81
654.194	143.81
654.398	154.81
654.602	143.81
654.806	140.81
655.01	155.81
655.214	156.81
655.418	150.81
655.622	135.81
655.826	137.81
656.03	147.81
656.234	142.81
656.438	148.81
656.642	147.81
656.846	127.81
657.049	136.81
657.253	133.81
657.457	131.81
657.661	134.81
657.865	121.81
658.068	125.81
658.272	118.81
658.476	119.81
658.68	117.81
658.883	109.81
659.087	114.81
659.291	111.81
659.494	104.81
659.698	87.81
659.901	101.81
660.105	100.81
660.309	91.81
660.512	99.81
660.716	96.81
660.919	89.81
661.123	87.81
661.326	89.81
661.53	88.81
661.733	82.81
661.936	85.81
662.14	83.81
662.343	88.81
662.546	87.81
662.75	92.81
662.953	84.81
663.156	73.81
663.36	77.81
663.563	92.81
663.766	72.81
663.969	91.81
664.173	85.81
664.376	85.81
664.579	92.81
664.782	84.81
664.985	73.81
665.188	90.81
665.391	77.81
665.594	98.81
665.797	89.81
666	87.81
666.203	83.81
666.406	73.81
666.609	74.81
666.812	75.81
667.015	71.81
667.218	87.81
667.421	90.81
667.624	80.81
667.827	77.81
668.03	91.81
668.232	71.81
668.435	84.81
668.638	80.81
668.841	83.81
669.043	89.81
669.246	79.81
669.449	90.81
669.651	77.81
669.854	86.81
670.057	86.81
670.259	85.81
670.462	73.81
670.665	88.81
670.867	71.81
671.07	86.81
671.272	90.81
671.475	92.81
671.677	71.81
671.88	76.81
672.082	99.81
672.284	76.81
672.487	80.81
672.689	98.81
672.892	76.81
