Data from 1988.PennyLincolnUp.Lamp.En5.5.200Scan.071819.P2_HRD10591_17-21-24-972.txt Node
Date: Thu Jul 18 17:21:24 EDT 2019
User: cochatt
Spectrometer: HR+D1059
Trigger mode: 1
Integration Time (sec): 1.000000E-1
Scans to average: 1
Electric dark correction enabled: true
Nonlinearity correction enabled: false
Boxcar width: 0
XAxis mode: Wavelengths
Number of Pixels in Spectrum: 2048
>>>>>Begin Spectral Data<<<<<
223.165	-20.12
223.4	-20.12
223.635	-20.12
223.869	-21.12
224.104	-17.12
224.338	-15.12
224.573	-15.12
224.808	-23.12
225.042	1.88
225.277	4.88
225.511	-7.12
225.746	-7.12
225.98	10.88
226.215	13.88
226.449	8.88
226.683	24.88
226.918	24.88
227.152	35.88
227.387	22.88
227.621	30.88
227.856	44.88
228.09	44.88
228.324	48.88
228.559	53.88
228.793	77.88
229.027	106.88
229.262	100.88
229.496	130.88
229.73	142.88
229.964	156.88
230.199	152.88
230.433	132.88
230.667	120.88
230.901	124.88
231.136	126.88
231.37	105.88
231.604	103.88
231.838	134.88
232.072	119.88
232.306	123.88
232.541	135.88
232.775	122.88
233.009	124.88
233.243	124.88
233.477	122.88
233.711	123.88
233.945	121.88
234.179	129.88
234.413	128.88
234.647	118.88
234.881	108.88
235.115	123.88
235.349	124.88
235.583	129.88
235.817	122.88
236.051	139.88
236.285	132.88
236.519	139.88
236.753	136.88
236.987	150.88
237.221	208.88
237.455	271.88
237.689	206.88
237.922	160.88
238.156	144.88
238.39	150.88
238.624	132.88
238.858	128.88
239.091	132.88
239.325	139.88
239.559	130.88
239.793	138.88
240.027	134.88
240.26	156.88
240.494	181.88
240.728	167.88
240.961	163.88
241.195	153.88
241.429	173.88
241.662	138.88
241.896	141.88
242.13	153.88
242.363	146.88
242.597	148.88
242.83	139.88
243.064	145.88
243.298	144.88
243.531	151.88
243.765	154.88
243.998	171.88
244.232	166.88
244.465	155.88
244.699	160.88
244.932	165.88
245.166	169.88
245.399	165.88
245.633	151.88
245.866	168.88
246.099	154.88
246.333	148.88
246.566	149.88
246.8	171.88
247.033	169.88
247.266	157.88
247.5	170.88
247.733	182.88
247.966	186.88
248.2	184.88
248.433	189.88
248.666	185.88
248.899	189.88
249.133	216.88
249.366	224.88
249.599	206.88
249.832	202.88
250.066	187.88
250.299	180.88
250.532	200.88
250.765	228.88
250.998	236.88
251.231	233.88
251.465	223.88
251.698	230.88
251.931	233.88
252.164	210.88
252.397	211.88
252.63	210.88
252.863	227.88
253.096	228.88
253.329	246.88
253.562	262.88
253.795	235.88
254.028	240.88
254.261	235.88
254.494	245.88
254.727	266.88
254.96	322.88
255.193	297.88
255.426	284.88
255.659	268.88
255.892	247.88
256.124	248.88
256.357	244.88
256.59	242.88
256.823	251.88
257.056	220.88
257.289	229.88
257.521	233.88
257.754	225.88
257.987	217.88
258.22	226.88
258.452	248.88
258.685	231.88
258.918	223.88
259.151	238.88
259.383	263.88
259.616	246.88
259.849	251.88
260.081	264.88
260.314	270.88
260.547	282.88
260.779	256.88
261.012	250.88
261.244	255.88
261.477	259.88
261.71	246.88
261.942	253.88
262.175	250.88
262.407	267.88
262.64	241.88
262.872	240.88
263.105	227.88
263.337	238.88
263.57	219.88
263.802	236.88
264.035	244.88
264.267	246.88
264.499	222.88
264.732	229.88
264.964	229.88
265.197	228.88
265.429	233.88
265.661	211.88
265.894	225.88
266.126	214.88
266.358	222.88
266.591	228.88
266.823	255.88
267.055	256.88
267.287	241.88
267.52	253.88
267.752	230.88
267.984	255.88
268.216	261.88
268.448	258.88
268.681	255.88
268.913	280.88
269.145	293.88
269.377	291.88
269.609	292.88
269.841	290.88
270.073	301.88
270.306	310.88
270.538	351.88
270.77	360.88
271.002	326.88
271.234	325.88
271.466	329.88
271.698	331.88
271.93	343.88
272.162	364.88
272.394	341.88
272.626	332.88
272.858	320.88
273.09	314.88
273.322	315.88
273.553	280.88
273.785	283.88
274.017	275.88
274.249	288.88
274.481	294.88
274.713	303.88
274.945	306.88
275.176	288.88
275.408	292.88
275.64	290.88
275.872	291.88
276.104	289.88
276.335	297.88
276.567	300.88
276.799	313.88
277.031	332.88
277.262	337.88
277.494	358.88
277.726	318.88
277.957	300.88
278.189	312.88
278.421	301.88
278.652	312.88
278.884	304.88
279.115	284.88
279.347	296.88
279.579	305.88
279.81	304.88
280.042	301.88
280.273	294.88
280.505	280.88
280.736	286.88
280.968	290.88
281.199	304.88
281.431	293.88
281.662	293.88
281.894	305.88
282.125	306.88
282.356	322.88
282.588	342.88
282.819	338.88
283.051	321.88
283.282	318.88
283.513	316.88
283.745	323.88
283.976	313.88
284.207	295.88
284.439	324.88
284.67	313.88
284.901	301.88
285.132	315.88
285.364	305.88
285.595	316.88
285.826	309.88
286.057	300.88
286.288	304.88
286.52	308.88
286.751	306.88
286.982	315.88
287.213	322.88
287.444	319.88
287.675	323.88
287.906	338.88
288.138	340.88
288.369	339.88
288.6	345.88
288.831	328.88
289.062	337.88
289.293	326.88
289.524	293.88
289.755	313.88
289.986	332.88
290.217	332.88
290.448	321.88
290.679	305.88
290.91	329.88
291.141	320.88
291.371	315.88
291.602	334.88
291.833	312.88
292.064	325.88
292.295	323.88
292.526	328.88
292.757	322.88
292.987	321.88
293.218	321.88
293.449	330.88
293.68	325.88
293.91	326.88
294.141	321.88
294.372	327.88
294.603	309.88
294.833	316.88
295.064	334.88
295.295	323.88
295.525	336.88
295.756	352.88
295.987	336.88
296.217	368.88
296.448	400.88
296.679	328.88
296.909	321.88
297.14	336.88
297.37	333.88
297.601	324.88
297.831	341.88
298.062	336.88
298.292	365.88
298.523	341.88
298.753	345.88
298.984	327.88
299.214	361.88
299.445	339.88
299.675	365.88
299.905	359.88
300.136	368.88
300.366	369.88
300.597	363.88
300.827	364.88
301.057	350.88
301.288	350.88
301.518	368.88
301.748	344.88
301.979	368.88
302.209	374.88
302.439	365.88
302.669	382.88
302.9	382.88
303.13	362.88
303.36	370.88
303.59	371.88
303.82	396.88
304.051	377.88
304.281	389.88
304.511	374.88
304.741	387.88
304.971	378.88
305.201	361.88
305.431	389.88
305.661	371.88
305.891	370.88
306.121	371.88
306.352	366.88
306.582	380.88
306.812	364.88
307.042	373.88
307.272	379.88
307.502	377.88
307.731	385.88
307.961	370.88
308.191	379.88
308.421	380.88
308.651	392.88
308.881	368.88
309.111	397.88
309.341	397.88
309.571	421.88
309.8	377.88
310.03	423.88
310.26	430.88
310.49	434.88
310.72	419.88
310.949	438.88
311.179	460.88
311.409	448.88
311.639	443.88
311.868	435.88
312.098	441.88
312.328	439.88
312.557	465.88
312.787	468.88
313.017	461.88
313.246	438.88
313.476	464.88
313.706	414.88
313.935	435.88
314.165	435.88
314.394	456.88
314.624	454.88
314.853	437.88
315.083	434.88
315.312	438.88
315.542	448.88
315.771	431.88
316.001	430.88
316.23	431.88
316.46	435.88
316.689	449.88
316.919	432.88
317.148	453.88
317.377	434.88
317.607	428.88
317.836	440.88
318.065	429.88
318.295	416.88
318.524	416.88
318.753	404.88
318.983	424.88
319.212	437.88
319.441	438.88
319.67	451.88
319.9	430.88
320.129	429.88
320.358	444.88
320.587	464.88
320.816	455.88
321.046	475.88
321.275	483.88
321.504	474.88
321.733	468.88
321.962	474.88
322.191	489.88
322.42	492.88
322.649	520.88
322.878	508.88
323.108	552.88
323.337	549.88
323.566	573.88
323.795	606.88
324.024	682.88
324.253	831.88
324.482	1175.88
324.71	1845.88
324.939	2772.88
325.168	2340.88
325.397	1164.88
325.626	809.88
325.855	668.88
326.084	610.88
326.313	585.88
326.542	597.88
326.77	637.88
326.999	737.88
327.228	1048.88
327.457	1635.88
327.686	2094.88
327.914	1314.88
328.143	845.88
328.372	728.88
328.6	687.88
328.829	648.88
329.058	661.88
329.287	682.88
329.515	619.88
329.744	573.88
329.972	572.88
330.201	580.88
330.43	587.88
330.658	657.88
330.887	692.88
331.115	706.88
331.344	618.88
331.572	579.88
331.801	574.88
332.03	584.88
332.258	544.88
332.486	523.88
332.715	498.88
332.943	514.88
333.172	538.88
333.4	516.88
333.629	543.88
333.857	564.88
334.085	545.88
334.314	536.88
334.542	558.88
334.771	584.88
334.999	554.88
335.227	532.88
335.455	574.88
335.684	517.88
335.912	501.88
336.14	504.88
336.369	522.88
336.597	526.88
336.825	538.88
337.053	518.88
337.281	525.88
337.51	508.88
337.738	513.88
337.966	490.88
338.194	514.88
338.422	509.88
338.65	494.88
338.878	504.88
339.106	524.88
339.334	501.88
339.562	508.88
339.79	511.88
340.018	509.88
340.246	512.88
340.474	492.88
340.702	499.88
340.93	499.88
341.158	504.88
341.386	504.88
341.614	513.88
341.842	531.88
342.07	493.88
342.298	491.88
342.526	461.88
342.754	486.88
342.981	476.88
343.209	474.88
343.437	485.88
343.665	492.88
343.893	500.88
344.12	490.88
344.348	518.88
344.576	498.88
344.804	511.88
345.031	543.88
345.259	547.88
345.487	545.88
345.714	499.88
345.942	491.88
346.17	489.88
346.397	492.88
346.625	488.88
346.853	484.88
347.08	486.88
347.308	499.88
347.535	504.88
347.763	501.88
347.99	508.88
348.218	510.88
348.445	522.88
348.673	492.88
348.9	488.88
349.128	485.88
349.355	491.88
349.583	487.88
349.81	477.88
350.037	486.88
350.265	483.88
350.492	466.88
350.72	484.88
350.947	477.88
351.174	482.88
351.402	488.88
351.629	492.88
351.856	499.88
352.083	488.88
352.311	499.88
352.538	504.88
352.765	501.88
352.992	486.88
353.22	496.88
353.447	472.88
353.674	493.88
353.901	474.88
354.128	458.88
354.355	456.88
354.583	467.88
354.81	447.88
355.037	453.88
355.264	456.88
355.491	450.88
355.718	440.88
355.945	441.88
356.172	446.88
356.399	463.88
356.626	475.88
356.853	464.88
357.08	471.88
357.307	460.88
357.534	463.88
357.761	433.88
357.988	441.88
358.215	464.88
358.441	468.88
358.668	442.88
358.895	463.88
359.122	473.88
359.349	480.88
359.576	480.88
359.802	524.88
360.029	540.88
360.256	573.88
360.483	545.88
360.709	510.88
360.936	488.88
361.163	481.88
361.39	500.88
361.616	480.88
361.843	482.88
362.07	478.88
362.296	478.88
362.523	486.88
362.749	495.88
362.976	490.88
363.203	473.88
363.429	468.88
363.656	478.88
363.882	458.88
364.109	466.88
364.335	474.88
364.562	465.88
364.788	477.88
365.015	490.88
365.241	468.88
365.468	474.88
365.694	465.88
365.92	468.88
366.147	461.88
366.373	481.88
366.599	470.88
366.826	474.88
367.052	452.88
367.278	468.88
367.505	480.88
367.731	462.88
367.957	474.88
368.184	489.88
368.41	467.88
368.636	496.88
368.862	504.88
369.089	478.88
369.315	468.88
369.541	458.88
369.767	460.88
369.993	464.88
370.219	481.88
370.445	468.88
370.672	459.88
370.898	491.88
371.124	467.88
371.35	471.88
371.576	471.88
371.802	467.88
372.028	465.88
372.254	483.88
372.48	458.88
372.706	480.88
372.932	460.88
373.158	482.88
373.384	471.88
373.61	466.88
373.835	461.88
374.061	466.88
374.287	466.88
374.513	478.88
374.739	481.88
374.965	457.88
375.191	498.88
375.416	488.88
375.642	469.88
375.868	480.88
376.094	477.88
376.319	482.88
376.545	484.88
376.771	473.88
376.997	485.88
377.222	485.88
377.448	478.88
377.674	484.88
377.899	485.88
378.125	477.88
378.35	451.88
378.576	461.88
378.802	474.88
379.027	472.88
379.253	474.88
379.478	457.88
379.704	500.88
379.929	482.88
380.155	484.88
380.38	469.88
380.606	486.88
380.831	481.88
381.057	463.88
381.282	489.88
381.507	474.88
381.733	484.88
381.958	466.88
382.184	477.88
382.409	496.88
382.634	489.88
382.86	496.88
383.085	485.88
383.31	506.88
383.535	496.88
383.761	483.88
383.986	477.88
384.211	487.88
384.436	496.88
384.662	522.88
384.887	508.88
385.112	491.88
385.337	516.88
385.562	525.88
385.787	543.88
386.013	544.88
386.238	531.88
386.463	534.88
386.688	523.88
386.913	513.88
387.138	516.88
387.363	524.88
387.588	484.88
387.813	515.88
388.038	519.88
388.263	527.88
388.488	515.88
388.713	536.88
388.938	532.88
389.163	535.88
389.387	537.88
389.612	533.88
389.837	515.88
390.062	510.88
390.287	543.88
390.512	524.88
390.736	538.88
390.961	549.88
391.186	535.88
391.411	525.88
391.636	545.88
391.86	560.88
392.085	548.88
392.31	552.88
392.534	533.88
392.759	531.88
392.984	534.88
393.208	542.88
393.433	533.88
393.658	545.88
393.882	526.88
394.107	553.88
394.331	527.88
394.556	532.88
394.78	537.88
395.005	549.88
395.229	533.88
395.454	560.88
395.678	545.88
395.903	560.88
396.127	580.88
396.352	599.88
396.576	581.88
396.801	553.88
397.025	547.88
397.249	563.88
397.474	578.88
397.698	601.88
397.922	590.88
398.147	605.88
398.371	624.88
398.595	596.88
398.82	588.88
399.044	618.88
399.268	629.88
399.492	675.88
399.717	722.88
399.941	749.88
400.165	735.88
400.389	779.88
400.613	715.88
400.837	650.88
401.062	632.88
401.286	620.88
401.51	634.88
401.734	598.88
401.958	620.88
402.182	625.88
402.406	632.88
402.63	630.88
402.854	636.88
403.078	628.88
403.302	609.88
403.526	635.88
403.75	655.88
403.974	651.88
404.198	642.88
404.422	620.88
404.645	658.88
404.869	621.88
405.093	686.88
405.317	715.88
405.541	752.88
405.765	684.88
405.988	658.88
406.212	664.88
406.436	703.88
406.66	714.88
406.883	676.88
407.107	716.88
407.331	756.88
407.555	870.88
407.778	846.88
408.002	762.88
408.226	708.88
408.449	700.88
408.673	706.88
408.896	768.88
409.12	790.88
409.344	761.88
409.567	656.88
409.791	669.88
410.014	642.88
410.238	644.88
410.461	639.88
410.685	646.88
410.908	676.88
411.132	706.88
411.355	766.88
411.578	720.88
411.802	640.88
412.025	642.88
412.249	618.88
412.472	644.88
412.695	660.88
412.919	686.88
413.142	664.88
413.365	614.88
413.589	622.88
413.812	597.88
414.035	607.88
414.258	608.88
414.482	573.88
414.705	597.88
414.928	582.88
415.151	615.88
415.374	603.88
415.597	602.88
415.821	588.88
416.044	606.88
416.267	630.88
416.49	605.88
416.713	616.88
416.936	602.88
417.159	584.88
417.382	608.88
417.605	600.88
417.828	614.88
418.051	641.88
418.274	616.88
418.497	596.88
418.72	620.88
418.943	611.88
419.166	616.88
419.389	676.88
419.611	644.88
419.834	644.88
420.057	642.88
420.28	637.88
420.503	601.88
420.726	617.88
420.948	645.88
421.171	671.88
421.394	730.88
421.617	656.88
421.839	613.88
422.062	637.88
422.285	652.88
422.507	712.88
422.73	822.88
422.953	760.88
423.175	696.88
423.398	652.88
423.621	652.88
423.843	661.88
424.066	682.88
424.288	678.88
424.511	721.88
424.733	782.88
424.956	865.88
425.178	821.88
425.401	818.88
425.623	860.88
425.846	770.88
426.068	684.88
426.291	691.88
426.513	671.88
426.735	693.88
426.958	752.88
427.18	858.88
427.402	999.88
427.625	1111.88
427.847	977.88
428.069	827.88
428.292	737.88
428.514	684.88
428.736	661.88
428.958	653.88
429.181	625.88
429.403	625.88
429.625	669.88
429.847	681.88
430.069	759.88
430.292	760.88
430.514	656.88
430.736	638.88
430.958	617.88
431.18	616.88
431.402	578.88
431.624	571.88
431.846	595.88
432.068	585.88
432.29	579.88
432.512	587.88
432.734	604.88
432.956	599.88
433.178	631.88
433.4	627.88
433.622	603.88
433.844	606.88
434.066	614.88
434.287	621.88
434.509	592.88
434.731	611.88
434.953	638.88
435.175	644.88
435.397	654.88
435.618	686.88
435.84	728.88
436.062	869.88
436.284	940.88
436.505	789.88
436.727	716.88
436.949	634.88
437.17	640.88
437.392	630.88
437.614	642.88
437.835	701.88
438.057	818.88
438.278	947.88
438.5	912.88
438.721	1014.88
438.943	956.88
439.165	762.88
439.386	709.88
439.608	704.88
439.829	699.88
440.05	718.88
440.272	794.88
440.493	730.88
440.715	665.88
440.936	642.88
441.158	660.88
441.379	645.88
441.6	641.88
441.822	637.88
442.043	702.88
442.264	868.88
442.486	894.88
442.707	714.88
442.928	713.88
443.149	695.88
443.371	753.88
443.592	788.88
443.813	914.88
444.034	992.88
444.255	800.88
444.476	727.88
444.698	694.88
444.919	682.88
445.14	797.88
445.361	778.88
445.582	725.88
445.803	813.88
446.024	932.88
446.245	987.88
446.466	845.88
446.687	725.88
446.908	701.88
447.129	644.88
447.35	634.88
447.571	620.88
447.792	613.88
448.013	618.88
448.234	648.88
448.455	700.88
448.675	857.88
448.896	1016.88
449.117	854.88
449.338	800.88
449.559	930.88
449.779	1080.88
450	843.88
450.221	716.88
450.442	660.88
450.662	616.88
450.883	629.88
451.104	641.88
451.324	632.88
451.545	616.88
451.766	557.88
451.986	561.88
452.207	553.88
452.428	551.88
452.648	570.88
452.869	569.88
453.089	564.88
453.31	584.88
453.53	574.88
453.751	565.88
453.971	566.88
454.192	626.88
454.412	571.88
454.633	564.88
454.853	544.88
455.073	560.88
455.294	601.88
455.514	679.88
455.734	652.88
455.955	593.88
456.175	552.88
456.395	530.88
456.616	524.88
456.836	552.88
457.056	520.88
457.276	538.88
457.497	552.88
457.717	525.88
457.937	539.88
458.157	561.88
458.377	562.88
458.598	589.88
458.818	637.88
459.038	747.88
459.258	767.88
459.478	648.88
459.698	601.88
459.918	609.88
460.138	619.88
460.358	616.88
460.578	612.88
460.798	630.88
461.018	626.88
461.238	605.88
461.458	608.88
461.678	600.88
461.898	615.88
462.118	619.88
462.338	613.88
462.558	636.88
462.777	640.88
462.997	665.88
463.217	668.88
463.437	668.88
463.657	661.88
463.876	670.88
464.096	681.88
464.316	648.88
464.536	670.88
464.755	668.88
464.975	665.88
465.195	711.88
465.414	751.88
465.634	694.88
465.854	627.88
466.073	640.88
466.293	631.88
466.512	585.88
466.732	576.88
466.951	576.88
467.171	590.88
467.391	574.88
467.61	587.88
467.829	621.88
468.049	615.88
468.268	584.88
468.488	548.88
468.707	575.88
468.927	571.88
469.146	546.88
469.365	557.88
469.585	549.88
469.804	566.88
470.023	590.88
470.243	580.88
470.462	595.88
470.681	602.88
470.901	633.88
471.12	596.88
471.339	598.88
471.558	593.88
471.777	578.88
471.997	564.88
472.216	582.88
472.435	609.88
472.654	606.88
472.873	581.88
473.092	587.88
473.311	587.88
473.53	590.88
473.749	610.88
473.968	649.88
474.187	757.88
474.406	811.88
474.625	640.88
474.844	608.88
475.063	594.88
475.282	578.88
475.501	583.88
475.72	602.88
475.939	624.88
476.158	624.88
476.377	616.88
476.596	556.88
476.814	612.88
477.033	606.88
477.252	613.88
477.471	621.88
477.69	614.88
477.908	636.88
478.127	654.88
478.346	618.88
478.564	672.88
478.783	669.88
479.002	668.88
479.22	667.88
479.439	677.88
479.658	707.88
479.876	699.88
480.095	708.88
480.313	756.88
480.532	721.88
480.751	736.88
480.969	729.88
481.188	756.88
481.406	757.88
481.624	738.88
481.843	709.88
482.061	691.88
482.28	706.88
482.498	692.88
482.717	645.88
482.935	686.88
483.153	680.88
483.372	697.88
483.59	703.88
483.808	701.88
484.027	699.88
484.245	716.88
484.463	724.88
484.681	694.88
484.9	705.88
485.118	706.88
485.336	704.88
485.554	722.88
485.772	714.88
485.99	722.88
486.209	718.88
486.427	729.88
486.645	732.88
486.863	756.88
487.081	726.88
487.299	739.88
487.517	759.88
487.735	727.88
487.953	742.88
488.171	740.88
488.389	743.88
488.607	743.88
488.825	748.88
489.043	762.88
489.261	751.88
489.479	751.88
489.696	749.88
489.914	784.88
490.132	758.88
490.35	780.88
490.568	816.88
490.786	814.88
491.003	776.88
491.221	819.88
491.439	825.88
491.657	851.88
491.874	841.88
492.092	832.88
492.31	875.88
492.527	841.88
492.745	871.88
492.963	858.88
493.18	854.88
493.398	859.88
493.615	884.88
493.833	866.88
494.05	886.88
494.268	904.88
494.485	864.88
494.703	862.88
494.92	884.88
495.138	861.88
495.355	864.88
495.573	900.88
495.79	909.88
496.008	893.88
496.225	866.88
496.442	888.88
496.66	890.88
496.877	914.88
497.094	896.88
497.312	890.88
497.529	913.88
497.746	952.88
497.963	952.88
498.181	981.88
498.398	958.88
498.615	1002.88
498.832	1039.88
499.049	1045.88
499.267	1060.88
499.484	1086.88
499.701	1114.88
499.918	1172.88
500.135	1240.88
500.352	1264.88
500.569	1279.88
500.786	1302.88
501.003	1286.88
501.22	1222.88
501.437	1201.88
501.654	1153.88
501.871	1122.88
502.088	1104.88
502.305	1064.88
502.522	1024.88
502.739	1014.88
502.956	971.88
503.172	977.88
503.389	933.88
503.606	965.88
503.823	920.88
504.04	905.88
504.256	902.88
504.473	894.88
504.69	909.88
504.907	916.88
505.123	886.88
505.34	881.88
505.557	873.88
505.773	839.88
505.99	871.88
506.207	857.88
506.423	870.88
506.64	862.88
506.856	827.88
507.073	841.88
507.289	830.88
507.506	816.88
507.722	858.88
507.939	887.88
508.155	862.88
508.372	822.88
508.588	813.88
508.805	821.88
509.021	803.88
509.238	835.88
509.454	827.88
509.67	821.88
509.887	845.88
510.103	817.88
510.319	814.88
510.536	916.88
510.752	1481.88
510.968	1242.88
511.184	823.88
511.401	806.88
511.617	813.88
511.833	768.88
512.049	752.88
512.265	768.88
512.481	755.88
512.698	739.88
512.914	768.88
513.13	769.88
513.346	755.88
513.562	760.88
513.778	743.88
513.994	768.88
514.21	764.88
514.426	792.88
514.642	867.88
514.858	894.88
515.074	954.88
515.29	1078.88
515.506	1534.88
515.721	1301.88
515.937	908.88
516.153	856.88
516.369	797.88
516.585	809.88
516.801	808.88
517.016	788.88
517.232	811.88
517.448	833.88
517.664	782.88
517.879	789.88
518.095	795.88
518.311	787.88
518.527	794.88
518.742	788.88
518.958	799.88
519.173	784.88
519.389	795.88
519.605	760.88
519.82	738.88
520.036	783.88
520.251	812.88
520.467	841.88
520.682	834.88
520.898	833.88
521.113	855.88
521.329	932.88
521.544	995.88
521.76	1212.88
521.975	2015.88
522.19	2010.88
522.406	1109.88
522.621	894.88
522.836	833.88
523.052	762.88
523.267	722.88
523.482	698.88
523.698	711.88
523.913	706.88
524.128	712.88
524.343	708.88
524.559	674.88
524.774	683.88
524.989	684.88
525.204	670.88
525.419	673.88
525.634	676.88
525.849	670.88
526.064	648.88
526.28	650.88
526.495	655.88
526.71	664.88
526.925	641.88
527.14	615.88
527.355	646.88
527.57	656.88
527.785	635.88
527.999	637.88
528.214	626.88
528.429	635.88
528.644	639.88
528.859	633.88
529.074	634.88
529.289	665.88
529.503	759.88
529.718	724.88
529.933	679.88
530.148	658.88
530.363	624.88
530.577	628.88
530.792	617.88
531.007	617.88
531.221	621.88
531.436	601.88
531.651	597.88
531.865	584.88
532.08	605.88
532.295	598.88
532.509	611.88
532.724	604.88
532.938	600.88
533.153	590.88
533.367	616.88
533.582	616.88
533.796	595.88
534.011	601.88
534.225	587.88
534.44	595.88
534.654	581.88
534.868	580.88
535.083	580.88
535.297	577.88
535.511	596.88
535.726	622.88
535.94	606.88
536.154	589.88
536.369	593.88
536.583	587.88
536.797	592.88
537.011	573.88
537.225	586.88
537.44	591.88
537.654	566.88
537.868	566.88
538.082	585.88
538.296	564.88
538.51	571.88
538.724	590.88
538.938	594.88
539.153	566.88
539.367	580.88
539.581	597.88
539.795	555.88
540.009	558.88
540.222	566.88
540.436	562.88
540.65	574.88
540.864	572.88
541.078	597.88
541.292	581.88
541.506	573.88
541.72	562.88
541.934	562.88
542.147	571.88
542.361	567.88
542.575	571.88
542.789	570.88
543.002	555.88
543.216	597.88
543.43	565.88
543.644	604.88
543.857	580.88
544.071	555.88
544.285	585.88
544.498	566.88
544.712	548.88
544.925	553.88
545.139	538.88
545.352	551.88
545.566	550.88
545.779	553.88
545.993	541.88
546.206	572.88
546.42	576.88
546.633	547.88
546.847	532.88
547.06	538.88
547.274	522.88
547.487	553.88
547.7	541.88
547.914	534.88
548.127	532.88
548.34	541.88
548.554	544.88
548.767	551.88
548.98	539.88
549.193	539.88
549.407	538.88
549.62	530.88
549.833	553.88
550.046	561.88
550.259	527.88
550.473	538.88
550.686	538.88
550.899	551.88
551.112	519.88
551.325	508.88
551.538	547.88
551.751	545.88
551.964	524.88
552.177	528.88
552.39	532.88
552.603	534.88
552.816	531.88
553.029	564.88
553.242	544.88
553.455	570.88
553.667	548.88
553.88	564.88
554.093	570.88
554.306	546.88
554.519	540.88
554.732	545.88
554.944	530.88
555.157	511.88
555.37	533.88
555.583	536.88
555.795	523.88
556.008	493.88
556.221	500.88
556.433	493.88
556.646	491.88
556.859	481.88
557.071	504.88
557.284	492.88
557.496	501.88
557.709	506.88
557.921	466.88
558.134	473.88
558.346	477.88
558.559	486.88
558.771	499.88
558.984	468.88
559.196	462.88
559.409	489.88
559.621	493.88
559.833	486.88
560.046	491.88
560.258	485.88
560.47	476.88
560.683	471.88
560.895	471.88
561.107	462.88
561.32	471.88
561.532	484.88
561.744	480.88
561.956	493.88
562.168	496.88
562.381	479.88
562.593	468.88
562.805	472.88
563.017	492.88
563.229	466.88
563.441	493.88
563.653	484.88
563.865	497.88
564.077	516.88
564.289	512.88
564.501	497.88
564.713	513.88
564.925	508.88
565.137	531.88
565.349	526.88
565.561	540.88
565.773	536.88
565.985	549.88
566.197	562.88
566.408	573.88
566.62	595.88
566.832	580.88
567.044	589.88
567.255	604.88
567.467	607.88
567.679	641.88
567.891	603.88
568.102	606.88
568.314	608.88
568.526	604.88
568.737	547.88
568.949	547.88
569.161	538.88
569.372	547.88
569.584	514.88
569.795	514.88
570.007	485.88
570.218	549.88
570.43	542.88
570.641	476.88
570.853	454.88
571.064	468.88
571.276	462.88
571.487	446.88
571.698	444.88
571.91	449.88
572.121	433.88
572.333	446.88
572.544	446.88
572.755	440.88
572.966	444.88
573.178	419.88
573.389	432.88
573.6	445.88
573.811	418.88
574.023	418.88
574.234	421.88
574.445	408.88
574.656	417.88
574.867	382.88
575.078	409.88
575.289	433.88
575.501	414.88
575.712	406.88
575.923	394.88
576.134	392.88
576.345	398.88
576.556	396.88
576.767	403.88
576.978	424.88
577.188	403.88
577.399	412.88
577.61	386.88
577.821	388.88
578.032	395.88
578.243	433.88
578.454	672.88
578.665	527.88
578.875	415.88
579.086	402.88
579.297	396.88
579.508	382.88
579.718	393.88
579.929	390.88
580.14	370.88
580.35	387.88
580.561	390.88
580.772	371.88
580.982	371.88
581.193	381.88
581.403	375.88
581.614	387.88
581.825	392.88
582.035	365.88
582.246	368.88
582.456	359.88
582.667	374.88
582.877	365.88
583.087	375.88
583.298	376.88
583.508	366.88
583.719	369.88
583.929	377.88
584.139	359.88
584.35	351.88
584.56	364.88
584.77	360.88
584.981	372.88
585.191	368.88
585.401	365.88
585.611	381.88
585.821	365.88
586.032	360.88
586.242	371.88
586.452	356.88
586.662	370.88
586.872	372.88
587.082	355.88
587.292	349.88
587.502	362.88
587.713	348.88
587.923	353.88
588.133	355.88
588.343	353.88
588.553	345.88
588.762	352.88
588.972	366.88
589.182	370.88
589.392	370.88
589.602	363.88
589.812	381.88
590.022	358.88
590.232	343.88
590.441	371.88
590.651	368.88
590.861	350.88
591.071	345.88
591.281	360.88
591.49	354.88
591.7	347.88
591.91	368.88
592.119	344.88
592.329	378.88
592.539	374.88
592.748	369.88
592.958	389.88
593.167	372.88
593.377	377.88
593.587	393.88
593.796	364.88
594.006	377.88
594.215	380.88
594.424	383.88
594.634	372.88
594.843	359.88
595.053	370.88
595.262	370.88
595.472	344.88
595.681	370.88
595.89	347.88
596.1	359.88
596.309	342.88
596.518	353.88
596.727	350.88
596.937	333.88
597.146	333.88
597.355	344.88
597.564	336.88
597.774	316.88
597.983	316.88
598.192	332.88
598.401	307.88
598.61	322.88
598.819	313.88
599.028	338.88
599.237	305.88
599.446	299.88
599.655	318.88
599.864	310.88
600.073	307.88
600.282	308.88
600.491	304.88
600.7	319.88
600.909	298.88
601.118	302.88
601.327	318.88
601.536	307.88
601.745	322.88
601.953	305.88
602.162	312.88
602.371	316.88
602.58	309.88
602.789	320.88
602.997	298.88
603.206	295.88
603.415	302.88
603.623	295.88
603.832	315.88
604.041	305.88
604.249	295.88
604.458	294.88
604.666	292.88
604.875	304.88
605.084	314.88
605.292	289.88
605.501	285.88
605.709	299.88
605.918	291.88
606.126	288.88
606.334	300.88
606.543	288.88
606.751	295.88
606.96	291.88
607.168	279.88
607.376	287.88
607.585	285.88
607.793	271.88
608.001	291.88
608.21	274.88
608.418	296.88
608.626	284.88
608.834	291.88
609.043	281.88
609.251	269.88
609.459	283.88
609.667	278.88
609.875	274.88
610.083	284.88
610.291	286.88
610.499	280.88
610.707	288.88
610.916	264.88
611.124	265.88
611.332	298.88
611.54	311.88
611.748	283.88
611.955	296.88
612.163	281.88
612.371	286.88
612.579	301.88
612.787	281.88
612.995	270.88
613.203	263.88
613.411	256.88
613.618	263.88
613.826	285.88
614.034	285.88
614.242	276.88
614.449	282.88
614.657	300.88
614.865	266.88
615.072	275.88
615.28	289.88
615.488	287.88
615.695	289.88
615.903	265.88
616.111	276.88
616.318	281.88
616.526	285.88
616.733	260.88
616.941	264.88
617.148	269.88
617.356	289.88
617.563	281.88
617.771	263.88
617.978	264.88
618.185	257.88
618.393	273.88
618.6	276.88
618.807	252.88
619.015	277.88
619.222	261.88
619.429	256.88
619.637	276.88
619.844	254.88
620.051	261.88
620.258	260.88
620.466	250.88
620.673	256.88
620.88	260.88
621.087	255.88
621.294	241.88
621.501	226.88
621.708	243.88
621.915	254.88
622.122	260.88
622.329	271.88
622.536	252.88
622.743	266.88
622.95	248.88
623.157	240.88
623.364	258.88
623.571	261.88
623.778	253.88
623.985	257.88
624.192	248.88
624.399	251.88
624.606	245.88
624.812	237.88
625.019	247.88
625.226	251.88
625.433	243.88
625.639	264.88
625.846	250.88
626.053	242.88
626.259	260.88
626.466	240.88
626.673	229.88
626.879	252.88
627.086	225.88
627.293	232.88
627.499	235.88
627.706	233.88
627.912	241.88
628.119	216.88
628.325	237.88
628.532	252.88
628.738	240.88
628.945	237.88
629.151	223.88
629.357	238.88
629.564	249.88
629.77	217.88
629.976	229.88
630.183	229.88
630.389	216.88
630.595	230.88
630.802	228.88
631.008	218.88
631.214	236.88
631.42	235.88
631.627	224.88
631.833	226.88
632.039	210.88
632.245	215.88
632.451	208.88
632.657	211.88
632.863	212.88
633.069	206.88
633.275	217.88
633.481	206.88
633.688	223.88
633.893	222.88
634.099	217.88
634.305	216.88
634.511	223.88
634.717	216.88
634.923	197.88
635.129	213.88
635.335	226.88
635.541	220.88
635.747	192.88
635.952	204.88
636.158	200.88
636.364	217.88
636.57	205.88
636.775	201.88
636.981	199.88
637.187	208.88
637.392	209.88
637.598	187.88
637.804	207.88
638.009	200.88
638.215	218.88
638.421	202.88
638.626	197.88
638.832	214.88
639.037	193.88
639.243	206.88
639.448	198.88
639.654	200.88
639.859	200.88
640.065	192.88
640.27	192.88
640.475	183.88
640.681	197.88
640.886	178.88
641.091	195.88
641.297	213.88
641.502	187.88
641.707	204.88
641.913	193.88
642.118	186.88
642.323	178.88
642.528	205.88
642.733	181.88
642.939	194.88
643.144	185.88
643.349	195.88
643.554	206.88
643.759	196.88
643.964	182.88
644.169	175.88
644.374	185.88
644.579	204.88
644.784	172.88
644.989	189.88
645.194	191.88
645.399	195.88
645.604	177.88
645.809	183.88
646.014	195.88
646.219	181.88
646.423	201.88
646.628	182.88
646.833	190.88
647.038	202.88
647.243	190.88
647.447	179.88
647.652	196.88
647.857	182.88
648.062	183.88
648.266	197.88
648.471	191.88
648.676	195.88
648.88	181.88
649.085	177.88
649.289	182.88
649.494	196.88
649.698	210.88
649.903	194.88
650.107	186.88
650.312	191.88
650.516	190.88
650.721	190.88
650.925	167.88
651.13	176.88
651.334	184.88
651.539	165.88
651.743	165.88
651.947	161.88
652.152	172.88
652.356	144.88
652.56	168.88
652.764	167.88
652.969	158.88
653.173	149.88
653.377	158.88
653.581	154.88
653.785	142.88
653.99	151.88
654.194	148.88
654.398	151.88
654.602	144.88
654.806	148.88
655.01	147.88
655.214	165.88
655.418	160.88
655.622	146.88
655.826	136.88
656.03	137.88
656.234	141.88
656.438	152.88
656.642	148.88
656.846	142.88
657.049	145.88
657.253	139.88
657.457	131.88
657.661	129.88
657.865	117.88
658.068	113.88
658.272	132.88
658.476	100.88
658.68	110.88
658.883	113.88
659.087	120.88
659.291	107.88
659.494	107.88
659.698	102.88
659.901	89.88
660.105	99.88
660.309	100.88
660.512	103.88
660.716	89.88
660.919	89.88
661.123	104.88
661.326	87.88
661.53	87.88
661.733	94.88
661.936	91.88
662.14	83.88
662.343	89.88
662.546	104.88
662.75	86.88
662.953	97.88
663.156	86.88
663.36	95.88
663.563	85.88
663.766	88.88
663.969	79.88
664.173	89.88
664.376	77.88
664.579	94.88
664.782	85.88
664.985	87.88
665.188	98.88
665.391	92.88
665.594	73.88
665.797	67.88
666	81.88
666.203	87.88
666.406	88.88
666.609	78.88
666.812	80.88
667.015	85.88
667.218	79.88
667.421	82.88
667.624	82.88
667.827	81.88
668.03	93.88
668.232	85.88
668.435	86.88
668.638	86.88
668.841	95.88
669.043	82.88
669.246	88.88
669.449	86.88
669.651	85.88
669.854	90.88
670.057	79.88
670.259	81.88
670.462	98.88
670.665	79.88
670.867	78.88
671.07	64.88
671.272	92.88
671.475	84.88
671.677	97.88
671.88	93.88
672.082	70.88
672.284	86.88
672.487	91.88
672.689	86.88
672.892	78.88
