Data from 1988.PennyLincolnUp.Lamp.En5.5.200Scan.071819.P2_HRD10591_17-20-57-971.txt Node
Date: Thu Jul 18 17:20:57 EDT 2019
User: cochatt
Spectrometer: HR+D1059
Trigger mode: 1
Integration Time (sec): 1.000000E-1
Scans to average: 1
Electric dark correction enabled: true
Nonlinearity correction enabled: false
Boxcar width: 0
XAxis mode: Wavelengths
Number of Pixels in Spectrum: 2048
>>>>>Begin Spectral Data<<<<<
223.165	-14.12
223.4	-14.12
223.635	-14.12
223.869	-16.12
224.104	-22.12
224.338	-14.12
224.573	-14.12
224.808	1.88
225.042	-18.12
225.277	-15.12
225.511	-0.12
225.746	10.88
225.98	2.88
226.215	17.88
226.449	18.88
226.683	4.88
226.918	34.88
227.152	21.88
227.387	22.88
227.621	32.88
227.856	32.88
228.09	46.88
228.324	40.88
228.559	38.88
228.793	59.88
229.027	103.88
229.262	112.88
229.496	117.88
229.73	137.88
229.964	182.88
230.199	153.88
230.433	122.88
230.667	114.88
230.901	115.88
231.136	104.88
231.37	112.88
231.604	120.88
231.838	109.88
232.072	123.88
232.306	117.88
232.541	123.88
232.775	122.88
233.009	103.88
233.243	98.88
233.477	129.88
233.711	117.88
233.945	126.88
234.179	136.88
234.413	127.88
234.647	137.88
234.881	111.88
235.115	117.88
235.349	115.88
235.583	117.88
235.817	118.88
236.051	125.88
236.285	120.88
236.519	141.88
236.753	131.88
236.987	157.88
237.221	196.88
237.455	272.88
237.689	208.88
237.922	137.88
238.156	126.88
238.39	127.88
238.624	130.88
238.858	124.88
239.091	129.88
239.325	130.88
239.559	129.88
239.793	135.88
240.027	128.88
240.26	156.88
240.494	163.88
240.728	161.88
240.961	163.88
241.195	152.88
241.429	141.88
241.662	135.88
241.896	146.88
242.13	141.88
242.363	138.88
242.597	138.88
242.83	140.88
243.064	142.88
243.298	151.88
243.531	138.88
243.765	149.88
243.998	145.88
244.232	147.88
244.465	146.88
244.699	153.88
244.932	158.88
245.166	155.88
245.399	152.88
245.633	157.88
245.866	156.88
246.099	158.88
246.333	170.88
246.566	160.88
246.8	168.88
247.033	161.88
247.266	170.88
247.5	174.88
247.733	179.88
247.966	183.88
248.2	186.88
248.433	165.88
248.666	178.88
248.899	177.88
249.133	205.88
249.366	202.88
249.599	213.88
249.832	204.88
250.066	202.88
250.299	184.88
250.532	210.88
250.765	199.88
250.998	241.88
251.231	233.88
251.465	223.88
251.698	226.88
251.931	203.88
252.164	208.88
252.397	213.88
252.63	217.88
252.863	216.88
253.096	213.88
253.329	230.88
253.562	233.88
253.795	217.88
254.028	241.88
254.261	224.88
254.494	254.88
254.727	274.88
254.96	279.88
255.193	285.88
255.426	274.88
255.659	247.88
255.892	244.88
256.124	215.88
256.357	223.88
256.59	222.88
256.823	232.88
257.056	222.88
257.289	219.88
257.521	227.88
257.754	230.88
257.987	225.88
258.22	247.88
258.452	231.88
258.685	217.88
258.918	219.88
259.151	208.88
259.383	232.88
259.616	234.88
259.849	231.88
260.081	257.88
260.314	275.88
260.547	268.88
260.779	251.88
261.012	241.88
261.244	233.88
261.477	244.88
261.71	234.88
261.942	228.88
262.175	250.88
262.407	243.88
262.64	236.88
262.872	223.88
263.105	228.88
263.337	241.88
263.57	239.88
263.802	226.88
264.035	221.88
264.267	212.88
264.499	234.88
264.732	221.88
264.964	228.88
265.197	213.88
265.429	229.88
265.661	218.88
265.894	228.88
266.126	229.88
266.358	228.88
266.591	232.88
266.823	223.88
267.055	256.88
267.287	239.88
267.52	270.88
267.752	244.88
267.984	232.88
268.216	242.88
268.448	233.88
268.681	245.88
268.913	270.88
269.145	277.88
269.377	272.88
269.609	290.88
269.841	282.88
270.073	287.88
270.306	308.88
270.538	337.88
270.77	348.88
271.002	315.88
271.234	308.88
271.466	329.88
271.698	328.88
271.93	345.88
272.162	333.88
272.394	354.88
272.626	324.88
272.858	325.88
273.09	288.88
273.322	295.88
273.553	288.88
273.785	266.88
274.017	294.88
274.249	273.88
274.481	275.88
274.713	281.88
274.945	297.88
275.176	301.88
275.408	294.88
275.64	277.88
275.872	293.88
276.104	288.88
276.335	279.88
276.567	284.88
276.799	327.88
277.031	330.88
277.262	341.88
277.494	321.88
277.726	326.88
277.957	327.88
278.189	294.88
278.421	293.88
278.652	292.88
278.884	298.88
279.115	305.88
279.347	278.88
279.579	293.88
279.81	294.88
280.042	264.88
280.273	285.88
280.505	273.88
280.736	307.88
280.968	282.88
281.199	282.88
281.431	281.88
281.662	268.88
281.894	294.88
282.125	295.88
282.356	311.88
282.588	306.88
282.819	306.88
283.051	310.88
283.282	278.88
283.513	288.88
283.745	294.88
283.976	303.88
284.207	316.88
284.439	299.88
284.67	305.88
284.901	291.88
285.132	286.88
285.364	279.88
285.595	293.88
285.826	292.88
286.057	295.88
286.288	303.88
286.52	317.88
286.751	304.88
286.982	318.88
287.213	301.88
287.444	317.88
287.675	307.88
287.906	303.88
288.138	320.88
288.369	335.88
288.6	321.88
288.831	321.88
289.062	315.88
289.293	328.88
289.524	318.88
289.755	304.88
289.986	313.88
290.217	321.88
290.448	318.88
290.679	312.88
290.91	312.88
291.141	305.88
291.371	325.88
291.602	309.88
291.833	329.88
292.064	306.88
292.295	309.88
292.526	320.88
292.757	311.88
292.987	313.88
293.218	307.88
293.449	315.88
293.68	320.88
293.91	327.88
294.141	321.88
294.372	318.88
294.603	322.88
294.833	323.88
295.064	310.88
295.295	317.88
295.525	312.88
295.756	329.88
295.987	337.88
296.217	343.88
296.448	355.88
296.679	347.88
296.909	321.88
297.14	306.88
297.37	317.88
297.601	323.88
297.831	320.88
298.062	335.88
298.292	344.88
298.523	331.88
298.753	336.88
298.984	344.88
299.214	324.88
299.445	342.88
299.675	360.88
299.905	345.88
300.136	326.88
300.366	336.88
300.597	350.88
300.827	347.88
301.057	356.88
301.288	371.88
301.518	349.88
301.748	344.88
301.979	369.88
302.209	369.88
302.439	356.88
302.669	357.88
302.9	358.88
303.13	373.88
303.36	362.88
303.59	365.88
303.82	357.88
304.051	367.88
304.281	359.88
304.511	345.88
304.741	341.88
304.971	368.88
305.201	365.88
305.431	370.88
305.661	381.88
305.891	353.88
306.121	357.88
306.352	353.88
306.582	354.88
306.812	356.88
307.042	359.88
307.272	363.88
307.502	381.88
307.731	361.88
307.961	367.88
308.191	371.88
308.421	363.88
308.651	375.88
308.881	377.88
309.111	374.88
309.341	359.88
309.571	403.88
309.8	391.88
310.03	431.88
310.26	426.88
310.49	396.88
310.72	422.88
310.949	434.88
311.179	441.88
311.409	423.88
311.639	421.88
311.868	423.88
312.098	411.88
312.328	438.88
312.557	452.88
312.787	460.88
313.017	439.88
313.246	432.88
313.476	411.88
313.706	431.88
313.935	411.88
314.165	431.88
314.394	439.88
314.624	429.88
314.853	426.88
315.083	421.88
315.312	417.88
315.542	431.88
315.771	413.88
316.001	407.88
316.23	422.88
316.46	415.88
316.689	420.88
316.919	439.88
317.148	424.88
317.377	425.88
317.607	417.88
317.836	410.88
318.065	425.88
318.295	418.88
318.524	422.88
318.753	419.88
318.983	432.88
319.212	404.88
319.441	442.88
319.67	425.88
319.9	444.88
320.129	434.88
320.358	424.88
320.587	430.88
320.816	460.88
321.046	434.88
321.275	447.88
321.504	433.88
321.733	434.88
321.962	458.88
322.191	459.88
322.42	472.88
322.649	493.88
322.878	496.88
323.108	522.88
323.337	536.88
323.566	570.88
323.795	590.88
324.024	653.88
324.253	785.88
324.482	1100.88
324.71	1729.88
324.939	2563.88
325.168	2276.88
325.397	1103.88
325.626	739.88
325.855	633.88
326.084	583.88
326.313	560.88
326.542	569.88
326.77	612.88
326.999	739.88
327.228	1015.88
327.457	1602.88
327.686	1973.88
327.914	1280.88
328.143	807.88
328.372	685.88
328.6	699.88
328.829	631.88
329.058	654.88
329.287	665.88
329.515	618.88
329.744	562.88
329.972	544.88
330.201	577.88
330.43	596.88
330.658	616.88
330.887	671.88
331.115	677.88
331.344	590.88
331.572	557.88
331.801	538.88
332.03	554.88
332.258	537.88
332.486	513.88
332.715	483.88
332.943	509.88
333.172	513.88
333.4	520.88
333.629	523.88
333.857	537.88
334.085	519.88
334.314	534.88
334.542	539.88
334.771	553.88
334.999	522.88
335.227	524.88
335.455	527.88
335.684	505.88
335.912	521.88
336.14	501.88
336.369	500.88
336.597	527.88
336.825	531.88
337.053	523.88
337.281	505.88
337.51	500.88
337.738	505.88
337.966	489.88
338.194	512.88
338.422	496.88
338.65	485.88
338.878	478.88
339.106	475.88
339.334	485.88
339.562	470.88
339.79	476.88
340.018	464.88
340.246	501.88
340.474	501.88
340.702	495.88
340.93	501.88
341.158	490.88
341.386	499.88
341.614	486.88
341.842	495.88
342.07	497.88
342.298	454.88
342.526	475.88
342.754	496.88
342.981	469.88
343.209	490.88
343.437	479.88
343.665	503.88
343.893	470.88
344.12	485.88
344.348	517.88
344.576	512.88
344.804	516.88
345.031	531.88
345.259	520.88
345.487	512.88
345.714	503.88
345.942	487.88
346.17	495.88
346.397	470.88
346.625	445.88
346.853	465.88
347.08	451.88
347.308	477.88
347.535	475.88
347.763	482.88
347.99	482.88
348.218	514.88
348.445	483.88
348.673	515.88
348.9	486.88
349.128	452.88
349.355	459.88
349.583	465.88
349.81	449.88
350.037	466.88
350.265	448.88
350.492	449.88
350.72	455.88
350.947	478.88
351.174	475.88
351.402	479.88
351.629	461.88
351.856	515.88
352.083	526.88
352.311	475.88
352.538	500.88
352.765	498.88
352.992	503.88
353.22	470.88
353.447	456.88
353.674	475.88
353.901	455.88
354.128	441.88
354.355	431.88
354.583	457.88
354.81	458.88
355.037	456.88
355.264	450.88
355.491	438.88
355.718	429.88
355.945	440.88
356.172	438.88
356.399	430.88
356.626	449.88
356.853	442.88
357.08	450.88
357.307	449.88
357.534	444.88
357.761	426.88
357.988	453.88
358.215	447.88
358.441	419.88
358.668	430.88
358.895	446.88
359.122	462.88
359.349	470.88
359.576	470.88
359.802	508.88
360.029	532.88
360.256	533.88
360.483	512.88
360.709	481.88
360.936	494.88
361.163	473.88
361.39	480.88
361.616	482.88
361.843	462.88
362.07	484.88
362.296	459.88
362.523	467.88
362.749	476.88
362.976	457.88
363.203	469.88
363.429	435.88
363.656	467.88
363.882	457.88
364.109	457.88
364.335	451.88
364.562	457.88
364.788	462.88
365.015	458.88
365.241	441.88
365.468	456.88
365.694	466.88
365.92	487.88
366.147	443.88
366.373	454.88
366.599	461.88
366.826	453.88
367.052	481.88
367.278	456.88
367.505	471.88
367.731	453.88
367.957	462.88
368.184	437.88
368.41	473.88
368.636	489.88
368.862	475.88
369.089	468.88
369.315	489.88
369.541	460.88
369.767	433.88
369.993	472.88
370.219	470.88
370.445	470.88
370.672	465.88
370.898	458.88
371.124	454.88
371.35	468.88
371.576	459.88
371.802	449.88
372.028	446.88
372.254	447.88
372.48	449.88
372.706	449.88
372.932	462.88
373.158	461.88
373.384	470.88
373.61	484.88
373.835	471.88
374.061	481.88
374.287	493.88
374.513	479.88
374.739	482.88
374.965	494.88
375.191	489.88
375.416	474.88
375.642	455.88
375.868	436.88
376.094	473.88
376.319	472.88
376.545	450.88
376.771	455.88
376.997	473.88
377.222	465.88
377.448	460.88
377.674	467.88
377.899	464.88
378.125	447.88
378.35	442.88
378.576	467.88
378.802	443.88
379.027	450.88
379.253	464.88
379.478	451.88
379.704	437.88
379.929	458.88
380.155	447.88
380.38	471.88
380.606	464.88
380.831	451.88
381.057	477.88
381.282	486.88
381.507	460.88
381.733	465.88
381.958	477.88
382.184	467.88
382.409	476.88
382.634	481.88
382.86	506.88
383.085	457.88
383.31	479.88
383.535	497.88
383.761	484.88
383.986	469.88
384.211	487.88
384.436	505.88
384.662	495.88
384.887	499.88
385.112	490.88
385.337	509.88
385.562	516.88
385.787	505.88
386.013	509.88
386.238	513.88
386.463	508.88
386.688	496.88
386.913	527.88
387.138	489.88
387.363	516.88
387.588	510.88
387.813	527.88
388.038	495.88
388.263	489.88
388.488	521.88
388.713	507.88
388.938	521.88
389.163	505.88
389.387	498.88
389.612	505.88
389.837	536.88
390.062	517.88
390.287	513.88
390.512	514.88
390.736	509.88
390.961	530.88
391.186	502.88
391.411	523.88
391.636	531.88
391.86	522.88
392.085	533.88
392.31	511.88
392.534	514.88
392.759	531.88
392.984	525.88
393.208	518.88
393.433	530.88
393.658	537.88
393.882	518.88
394.107	535.88
394.331	499.88
394.556	513.88
394.78	526.88
395.005	529.88
395.229	522.88
395.454	525.88
395.678	533.88
395.903	562.88
396.127	548.88
396.352	577.88
396.576	548.88
396.801	563.88
397.025	544.88
397.249	551.88
397.474	545.88
397.698	565.88
397.922	566.88
398.147	597.88
398.371	580.88
398.595	581.88
398.82	581.88
399.044	603.88
399.268	615.88
399.492	664.88
399.717	709.88
399.941	701.88
400.165	732.88
400.389	763.88
400.613	681.88
400.837	666.88
401.062	609.88
401.286	621.88
401.51	608.88
401.734	614.88
401.958	602.88
402.182	593.88
402.406	609.88
402.63	614.88
402.854	616.88
403.078	600.88
403.302	644.88
403.526	621.88
403.75	628.88
403.974	594.88
404.198	601.88
404.422	619.88
404.645	613.88
404.869	627.88
405.093	677.88
405.317	706.88
405.541	713.88
405.765	664.88
405.988	640.88
406.212	645.88
406.436	675.88
406.66	705.88
406.883	682.88
407.107	709.88
407.331	751.88
407.555	834.88
407.778	826.88
408.002	771.88
408.226	713.88
408.449	697.88
408.673	693.88
408.896	738.88
409.12	773.88
409.344	731.88
409.567	669.88
409.791	646.88
410.014	639.88
410.238	646.88
410.461	631.88
410.685	631.88
410.908	687.88
411.132	715.88
411.355	732.88
411.578	693.88
411.802	647.88
412.025	626.88
412.249	617.88
412.472	650.88
412.695	678.88
412.919	637.88
413.142	613.88
413.365	605.88
413.589	580.88
413.812	575.88
414.035	593.88
414.258	596.88
414.482	600.88
414.705	592.88
414.928	590.88
415.151	592.88
415.374	595.88
415.597	602.88
415.821	576.88
416.044	607.88
416.267	608.88
416.49	573.88
416.713	568.88
416.936	596.88
417.159	584.88
417.382	606.88
417.605	590.88
417.828	576.88
418.051	610.88
418.274	602.88
418.497	596.88
418.72	588.88
418.943	592.88
419.166	598.88
419.389	637.88
419.611	625.88
419.834	611.88
420.057	618.88
420.28	606.88
420.503	598.88
420.726	603.88
420.948	610.88
421.171	661.88
421.394	693.88
421.617	636.88
421.839	618.88
422.062	633.88
422.285	632.88
422.507	684.88
422.73	823.88
422.953	767.88
423.175	673.88
423.398	647.88
423.621	634.88
423.843	691.88
424.066	673.88
424.288	659.88
424.511	695.88
424.733	755.88
424.956	826.88
425.178	822.88
425.401	807.88
425.623	824.88
425.846	694.88
426.068	663.88
426.291	637.88
426.513	644.88
426.735	658.88
426.958	735.88
427.18	823.88
427.402	983.88
427.625	1080.88
427.847	950.88
428.069	786.88
428.292	711.88
428.514	690.88
428.736	619.88
428.958	624.88
429.181	616.88
429.403	603.88
429.625	632.88
429.847	664.88
430.069	741.88
430.292	761.88
430.514	649.88
430.736	625.88
430.958	634.88
431.18	607.88
431.402	580.88
431.624	564.88
431.846	575.88
432.068	558.88
432.29	583.88
432.512	601.88
432.734	581.88
432.956	589.88
433.178	605.88
433.4	614.88
433.622	586.88
433.844	587.88
434.066	588.88
434.287	564.88
434.509	582.88
434.731	609.88
434.953	615.88
435.175	613.88
435.397	664.88
435.618	695.88
435.84	724.88
436.062	842.88
436.284	913.88
436.505	736.88
436.727	691.88
436.949	655.88
437.17	629.88
437.392	627.88
437.614	646.88
437.835	676.88
438.057	799.88
438.278	910.88
438.5	901.88
438.721	991.88
438.943	932.88
439.165	740.88
439.386	692.88
439.608	665.88
439.829	699.88
440.05	702.88
440.272	752.88
440.493	706.88
440.715	653.88
440.936	644.88
441.158	658.88
441.379	602.88
441.6	642.88
441.822	647.88
442.043	706.88
442.264	799.88
442.486	854.88
442.707	732.88
442.928	695.88
443.149	686.88
443.371	719.88
443.592	768.88
443.813	891.88
444.034	959.88
444.255	787.88
444.476	695.88
444.698	672.88
444.919	674.88
445.14	791.88
445.361	737.88
445.582	715.88
445.803	811.88
446.024	929.88
446.245	928.88
446.466	849.88
446.687	730.88
446.908	680.88
447.129	614.88
447.35	626.88
447.571	621.88
447.792	591.88
448.013	616.88
448.234	632.88
448.455	669.88
448.675	826.88
448.896	985.88
449.117	823.88
449.338	788.88
449.559	889.88
449.779	1037.88
450	841.88
450.221	696.88
450.442	652.88
450.662	632.88
450.883	616.88
451.104	618.88
451.324	599.88
451.545	575.88
451.766	574.88
451.986	565.88
452.207	546.88
452.428	557.88
452.648	564.88
452.869	532.88
453.089	560.88
453.31	575.88
453.53	567.88
453.751	561.88
453.971	573.88
454.192	564.88
454.412	567.88
454.633	536.88
454.853	559.88
455.073	542.88
455.294	574.88
455.514	667.88
455.734	675.88
455.955	566.88
456.175	541.88
456.395	524.88
456.616	512.88
456.836	509.88
457.056	530.88
457.276	516.88
457.497	537.88
457.717	523.88
457.937	522.88
458.157	535.88
458.377	576.88
458.598	559.88
458.818	625.88
459.038	719.88
459.258	761.88
459.478	634.88
459.698	616.88
459.918	602.88
460.138	575.88
460.358	586.88
460.578	586.88
460.798	611.88
461.018	615.88
461.238	602.88
461.458	600.88
461.678	594.88
461.898	609.88
462.118	591.88
462.338	626.88
462.558	591.88
462.777	608.88
462.997	628.88
463.217	640.88
463.437	657.88
463.657	619.88
463.876	639.88
464.096	626.88
464.316	643.88
464.536	650.88
464.755	641.88
464.975	623.88
465.195	677.88
465.414	787.88
465.634	697.88
465.854	636.88
466.073	598.88
466.293	586.88
466.512	569.88
466.732	559.88
466.951	584.88
467.171	593.88
467.391	563.88
467.61	575.88
467.829	574.88
468.049	594.88
468.268	568.88
468.488	545.88
468.707	568.88
468.927	559.88
469.146	569.88
469.365	547.88
469.585	567.88
469.804	575.88
470.023	594.88
470.243	569.88
470.462	570.88
470.681	617.88
470.901	607.88
471.12	587.88
471.339	579.88
471.558	587.88
471.777	568.88
471.997	545.88
472.216	543.88
472.435	579.88
472.654	586.88
472.873	569.88
473.092	566.88
473.311	541.88
473.53	567.88
473.749	577.88
473.968	626.88
474.187	730.88
474.406	772.88
474.625	622.88
474.844	603.88
475.063	614.88
475.282	569.88
475.501	588.88
475.72	577.88
475.939	587.88
476.158	595.88
476.377	593.88
476.596	602.88
476.814	583.88
477.033	606.88
477.252	641.88
477.471	579.88
477.69	610.88
477.908	624.88
478.127	631.88
478.346	625.88
478.564	634.88
478.783	652.88
479.002	645.88
479.22	683.88
479.439	688.88
479.658	690.88
479.876	707.88
480.095	711.88
480.313	739.88
480.532	702.88
480.751	720.88
480.969	700.88
481.188	721.88
481.406	721.88
481.624	717.88
481.843	676.88
482.061	670.88
482.28	686.88
482.498	681.88
482.717	681.88
482.935	689.88
483.153	685.88
483.372	683.88
483.59	695.88
483.808	659.88
484.027	678.88
484.245	711.88
484.463	679.88
484.681	682.88
484.9	691.88
485.118	675.88
485.336	690.88
485.554	707.88
485.772	698.88
485.99	697.88
486.209	691.88
486.427	697.88
486.645	713.88
486.863	730.88
487.081	735.88
487.299	744.88
487.517	725.88
487.735	716.88
487.953	744.88
488.171	741.88
488.389	714.88
488.607	727.88
488.825	735.88
489.043	712.88
489.261	742.88
489.479	713.88
489.696	749.88
489.914	759.88
490.132	761.88
490.35	745.88
490.568	753.88
490.786	770.88
491.003	753.88
491.221	783.88
491.439	802.88
491.657	818.88
491.874	833.88
492.092	818.88
492.31	843.88
492.527	831.88
492.745	834.88
492.963	843.88
493.18	843.88
493.398	838.88
493.615	846.88
493.833	835.88
494.05	875.88
494.268	858.88
494.485	849.88
494.703	839.88
494.92	830.88
495.138	867.88
495.355	848.88
495.573	896.88
495.79	880.88
496.008	854.88
496.225	834.88
496.442	866.88
496.66	871.88
496.877	873.88
497.094	876.88
497.312	881.88
497.529	907.88
497.746	889.88
497.963	925.88
498.181	955.88
498.398	970.88
498.615	956.88
498.832	993.88
499.049	1006.88
499.267	1024.88
499.484	1053.88
499.701	1092.88
499.918	1165.88
500.135	1163.88
500.352	1226.88
500.569	1232.88
500.786	1216.88
501.003	1213.88
501.22	1189.88
501.437	1159.88
501.654	1115.88
501.871	1142.88
502.088	1077.88
502.305	1015.88
502.522	988.88
502.739	980.88
502.956	955.88
503.172	951.88
503.389	911.88
503.606	913.88
503.823	901.88
504.04	922.88
504.256	890.88
504.473	893.88
504.69	907.88
504.907	905.88
505.123	868.88
505.34	845.88
505.557	837.88
505.773	844.88
505.99	869.88
506.207	839.88
506.423	837.88
506.64	839.88
506.856	825.88
507.073	800.88
507.289	817.88
507.506	811.88
507.722	836.88
507.939	839.88
508.155	816.88
508.372	778.88
508.588	771.88
508.805	777.88
509.021	780.88
509.238	769.88
509.454	805.88
509.67	782.88
509.887	777.88
510.103	797.88
510.319	784.88
510.536	874.88
510.752	1404.88
510.968	1194.88
511.184	819.88
511.401	759.88
511.617	753.88
511.833	719.88
512.049	743.88
512.265	712.88
512.481	730.88
512.698	741.88
512.914	736.88
513.13	747.88
513.346	711.88
513.562	723.88
513.778	751.88
513.994	768.88
514.21	750.88
514.426	783.88
514.642	838.88
514.858	864.88
515.074	920.88
515.29	1049.88
515.506	1477.88
515.721	1237.88
515.937	888.88
516.153	832.88
516.369	836.88
516.585	772.88
516.801	768.88
517.016	781.88
517.232	794.88
517.448	824.88
517.664	797.88
517.879	798.88
518.095	798.88
518.311	764.88
518.527	767.88
518.742	791.88
518.958	761.88
519.173	773.88
519.389	737.88
519.605	730.88
519.82	737.88
520.036	803.88
520.251	808.88
520.467	833.88
520.682	823.88
520.898	799.88
521.113	843.88
521.329	856.88
521.544	987.88
521.76	1188.88
521.975	1864.88
522.19	1887.88
522.406	1098.88
522.621	848.88
522.836	759.88
523.052	741.88
523.267	713.88
523.482	691.88
523.698	680.88
523.913	703.88
524.128	679.88
524.343	661.88
524.559	661.88
524.774	657.88
524.989	659.88
525.204	658.88
525.419	665.88
525.634	633.88
525.849	649.88
526.064	651.88
526.28	658.88
526.495	619.88
526.71	606.88
526.925	613.88
527.14	602.88
527.355	616.88
527.57	632.88
527.785	610.88
527.999	603.88
528.214	618.88
528.429	608.88
528.644	602.88
528.859	631.88
529.074	614.88
529.289	638.88
529.503	713.88
529.718	703.88
529.933	663.88
530.148	652.88
530.363	631.88
530.577	618.88
530.792	581.88
531.007	605.88
531.221	607.88
531.436	625.88
531.651	549.88
531.865	583.88
532.08	609.88
532.295	612.88
532.509	573.88
532.724	580.88
532.938	577.88
533.153	612.88
533.367	580.88
533.582	575.88
533.796	585.88
534.011	597.88
534.225	566.88
534.44	567.88
534.654	573.88
534.868	588.88
535.083	595.88
535.297	570.88
535.511	592.88
535.726	583.88
535.94	583.88
536.154	597.88
536.369	619.88
536.583	573.88
536.797	584.88
537.011	570.88
537.225	550.88
537.44	563.88
537.654	568.88
537.868	570.88
538.082	546.88
538.296	558.88
538.51	571.88
538.724	576.88
538.938	543.88
539.153	555.88
539.367	580.88
539.581	553.88
539.795	557.88
540.009	549.88
540.222	572.88
540.436	557.88
540.65	552.88
540.864	546.88
541.078	565.88
541.292	576.88
541.506	530.88
541.72	557.88
541.934	577.88
542.147	552.88
542.361	544.88
542.575	554.88
542.789	534.88
543.002	527.88
543.216	578.88
543.43	564.88
543.644	561.88
543.857	537.88
544.071	536.88
544.285	551.88
544.498	551.88
544.712	561.88
544.925	544.88
545.139	547.88
545.352	533.88
545.566	543.88
545.779	529.88
545.993	521.88
546.206	557.88
546.42	544.88
546.633	545.88
546.847	538.88
547.06	512.88
547.274	519.88
547.487	525.88
547.7	537.88
547.914	520.88
548.127	519.88
548.34	504.88
548.554	538.88
548.767	522.88
548.98	517.88
549.193	525.88
549.407	512.88
549.62	545.88
549.833	493.88
550.046	502.88
550.259	541.88
550.473	529.88
550.686	516.88
550.899	541.88
551.112	515.88
551.325	516.88
551.538	521.88
551.751	519.88
551.964	506.88
552.177	523.88
552.39	540.88
552.603	532.88
552.816	534.88
553.029	529.88
553.242	529.88
553.455	542.88
553.667	539.88
553.88	542.88
554.093	562.88
554.306	551.88
554.519	541.88
554.732	527.88
554.944	519.88
555.157	532.88
555.37	551.88
555.583	479.88
555.795	502.88
556.008	512.88
556.221	493.88
556.433	480.88
556.646	490.88
556.859	496.88
557.071	479.88
557.284	458.88
557.496	488.88
557.709	467.88
557.921	469.88
558.134	470.88
558.346	484.88
558.559	472.88
558.771	461.88
558.984	463.88
559.196	465.88
559.409	465.88
559.621	489.88
559.833	467.88
560.046	465.88
560.258	473.88
560.47	454.88
560.683	482.88
560.895	460.88
561.107	463.88
561.32	472.88
561.532	481.88
561.744	467.88
561.956	469.88
562.168	475.88
562.381	474.88
562.593	470.88
562.805	474.88
563.017	467.88
563.229	470.88
563.441	465.88
563.653	493.88
563.865	473.88
564.077	478.88
564.289	491.88
564.501	481.88
564.713	498.88
564.925	458.88
565.137	499.88
565.349	515.88
565.561	528.88
565.773	524.88
565.985	541.88
566.197	516.88
566.408	517.88
566.62	538.88
566.832	559.88
567.044	575.88
567.255	577.88
567.467	593.88
567.679	598.88
567.891	629.88
568.102	600.88
568.314	594.88
568.526	586.88
568.737	546.88
568.949	546.88
569.161	508.88
569.372	526.88
569.584	507.88
569.795	499.88
570.007	489.88
570.218	512.88
570.43	526.88
570.641	479.88
570.853	462.88
571.064	457.88
571.276	446.88
571.487	451.88
571.698	455.88
571.91	432.88
572.121	442.88
572.333	442.88
572.544	422.88
572.755	439.88
572.966	430.88
573.178	421.88
573.389	434.88
573.6	408.88
573.811	422.88
574.023	391.88
574.234	413.88
574.445	407.88
574.656	412.88
574.867	407.88
575.078	413.88
575.289	404.88
575.501	408.88
575.712	399.88
575.923	382.88
576.134	410.88
576.345	400.88
576.556	397.88
576.767	396.88
576.978	379.88
577.188	388.88
577.399	376.88
577.61	389.88
577.821	390.88
578.032	400.88
578.243	423.88
578.454	646.88
578.665	520.88
578.875	418.88
579.086	393.88
579.297	374.88
579.508	388.88
579.718	382.88
579.929	387.88
580.14	385.88
580.35	362.88
580.561	379.88
580.772	375.88
580.982	369.88
581.193	365.88
581.403	371.88
581.614	371.88
581.825	375.88
582.035	362.88
582.246	383.88
582.456	353.88
582.667	381.88
582.877	362.88
583.087	361.88
583.298	362.88
583.508	351.88
583.719	367.88
583.929	353.88
584.139	346.88
584.35	372.88
584.56	367.88
584.77	369.88
584.981	342.88
585.191	351.88
585.401	359.88
585.611	371.88
585.821	353.88
586.032	353.88
586.242	346.88
586.452	348.88
586.662	358.88
586.872	330.88
587.082	341.88
587.292	353.88
587.502	361.88
587.713	342.88
587.923	349.88
588.133	349.88
588.343	343.88
588.553	370.88
588.762	346.88
588.972	341.88
589.182	341.88
589.392	340.88
589.602	339.88
589.812	343.88
590.022	348.88
590.232	334.88
590.441	352.88
590.651	345.88
590.861	343.88
591.071	352.88
591.281	351.88
591.49	355.88
591.7	347.88
591.91	341.88
592.119	345.88
592.329	355.88
592.539	374.88
592.748	363.88
592.958	370.88
593.167	377.88
593.377	373.88
593.587	386.88
593.796	366.88
594.006	373.88
594.215	381.88
594.424	351.88
594.634	362.88
594.843	361.88
595.053	358.88
595.262	373.88
595.472	357.88
595.681	339.88
595.89	343.88
596.1	343.88
596.309	320.88
596.518	311.88
596.727	332.88
596.937	345.88
597.146	316.88
597.355	318.88
597.564	306.88
597.774	333.88
597.983	326.88
598.192	316.88
598.401	315.88
598.61	303.88
598.819	311.88
599.028	315.88
599.237	315.88
599.446	320.88
599.655	311.88
599.864	288.88
600.073	299.88
600.282	301.88
600.491	294.88
600.7	293.88
600.909	301.88
601.118	296.88
601.327	307.88
601.536	291.88
601.745	301.88
601.953	303.88
602.162	277.88
602.371	316.88
602.58	301.88
602.789	298.88
602.997	294.88
603.206	272.88
603.415	284.88
603.623	269.88
603.832	287.88
604.041	263.88
604.249	267.88
604.458	296.88
604.666	289.88
604.875	306.88
605.084	289.88
605.292	285.88
605.501	295.88
605.709	277.88
605.918	278.88
606.126	276.88
606.334	277.88
606.543	290.88
606.751	274.88
606.96	268.88
607.168	280.88
607.376	289.88
607.585	295.88
607.793	294.88
608.001	268.88
608.21	277.88
608.418	275.88
608.626	287.88
608.834	271.88
609.043	267.88
609.251	267.88
609.459	282.88
609.667	302.88
609.875	275.88
610.083	280.88
610.291	269.88
610.499	259.88
610.707	277.88
610.916	277.88
611.124	282.88
611.332	289.88
611.54	288.88
611.748	273.88
611.955	278.88
612.163	265.88
612.371	276.88
612.579	258.88
612.787	269.88
612.995	271.88
613.203	262.88
613.411	272.88
613.618	261.88
613.826	295.88
614.034	279.88
614.242	272.88
614.449	271.88
614.657	276.88
614.865	296.88
615.072	265.88
615.28	262.88
615.488	254.88
615.695	258.88
615.903	277.88
616.111	257.88
616.318	276.88
616.526	278.88
616.733	282.88
616.941	250.88
617.148	275.88
617.356	260.88
617.563	269.88
617.771	276.88
617.978	266.88
618.185	243.88
618.393	274.88
618.6	281.88
618.807	242.88
619.015	257.88
619.222	261.88
619.429	277.88
619.637	263.88
619.844	253.88
620.051	246.88
620.258	248.88
620.466	247.88
620.673	242.88
620.88	245.88
621.087	240.88
621.294	254.88
621.501	243.88
621.708	237.88
621.915	253.88
622.122	265.88
622.329	249.88
622.536	249.88
622.743	227.88
622.95	229.88
623.157	254.88
623.364	255.88
623.571	248.88
623.778	247.88
623.985	243.88
624.192	243.88
624.399	242.88
624.606	243.88
624.812	225.88
625.019	243.88
625.226	242.88
625.433	242.88
625.639	246.88
625.846	214.88
626.053	237.88
626.259	233.88
626.466	228.88
626.673	225.88
626.879	226.88
627.086	225.88
627.293	222.88
627.499	226.88
627.706	253.88
627.912	261.88
628.119	231.88
628.325	232.88
628.532	232.88
628.738	244.88
628.945	232.88
629.151	226.88
629.357	218.88
629.564	222.88
629.77	235.88
629.976	217.88
630.183	231.88
630.389	222.88
630.595	245.88
630.802	205.88
631.008	231.88
631.214	213.88
631.42	223.88
631.627	223.88
631.833	218.88
632.039	217.88
632.245	204.88
632.451	218.88
632.657	216.88
632.863	214.88
633.069	215.88
633.275	205.88
633.481	205.88
633.688	210.88
633.893	218.88
634.099	213.88
634.305	198.88
634.511	202.88
634.717	214.88
634.923	191.88
635.129	194.88
635.335	191.88
635.541	190.88
635.747	208.88
635.952	180.88
636.158	212.88
636.364	212.88
636.57	210.88
636.775	178.88
636.981	195.88
637.187	196.88
637.392	200.88
637.598	194.88
637.804	221.88
638.009	184.88
638.215	205.88
638.421	206.88
638.626	194.88
638.832	189.88
639.037	199.88
639.243	187.88
639.448	190.88
639.654	179.88
639.859	196.88
640.065	202.88
640.27	191.88
640.475	183.88
640.681	167.88
640.886	191.88
641.091	185.88
641.297	183.88
641.502	185.88
641.707	194.88
641.913	188.88
642.118	185.88
642.323	187.88
642.528	212.88
642.733	181.88
642.939	177.88
643.144	179.88
643.349	193.88
643.554	190.88
643.759	176.88
643.964	170.88
644.169	184.88
644.374	178.88
644.579	184.88
644.784	193.88
644.989	173.88
645.194	181.88
645.399	193.88
645.604	182.88
645.809	190.88
646.014	179.88
646.219	163.88
646.423	194.88
646.628	171.88
646.833	192.88
647.038	172.88
647.243	179.88
647.447	177.88
647.652	183.88
647.857	181.88
648.062	191.88
648.266	179.88
648.471	192.88
648.676	168.88
648.88	179.88
649.085	182.88
649.289	183.88
649.494	191.88
649.698	209.88
649.903	183.88
650.107	198.88
650.312	183.88
650.516	186.88
650.721	175.88
650.925	173.88
651.13	167.88
651.334	178.88
651.539	169.88
651.743	166.88
651.947	176.88
652.152	157.88
652.356	164.88
652.56	157.88
652.764	151.88
652.969	135.88
653.173	139.88
653.377	147.88
653.581	154.88
653.785	162.88
653.99	152.88
654.194	129.88
654.398	149.88
654.602	167.88
654.806	152.88
655.01	143.88
655.214	143.88
655.418	147.88
655.622	149.88
655.826	152.88
656.03	144.88
656.234	137.88
656.438	146.88
656.642	140.88
656.846	137.88
657.049	130.88
657.253	129.88
657.457	135.88
657.661	123.88
657.865	122.88
658.068	122.88
658.272	124.88
658.476	100.88
658.68	110.88
658.883	97.88
659.087	102.88
659.291	98.88
659.494	106.88
659.698	98.88
659.901	101.88
660.105	98.88
660.309	96.88
660.512	104.88
660.716	107.88
660.919	99.88
661.123	89.88
661.326	86.88
661.53	89.88
661.733	105.88
661.936	94.88
662.14	88.88
662.343	84.88
662.546	97.88
662.75	71.88
662.953	88.88
663.156	84.88
663.36	84.88
663.563	87.88
663.766	83.88
663.969	88.88
664.173	72.88
664.376	92.88
664.579	77.88
664.782	63.88
664.985	91.88
665.188	77.88
665.391	73.88
665.594	91.88
665.797	81.88
666	85.88
666.203	85.88
666.406	80.88
666.609	72.88
666.812	90.88
667.015	83.88
667.218	79.88
667.421	63.88
667.624	80.88
667.827	94.88
668.03	81.88
668.232	79.88
668.435	69.88
668.638	84.88
668.841	75.88
669.043	76.88
669.246	79.88
669.449	80.88
669.651	81.88
669.854	80.88
670.057	73.88
670.259	88.88
670.462	84.88
670.665	82.88
670.867	83.88
671.07	87.88
671.272	71.88
671.475	83.88
671.677	70.88
671.88	76.88
672.082	76.88
672.284	75.88
672.487	90.88
672.689	71.88
672.892	79.88
