Data from 1988.PennyLincolnUp.Lamp.En5.5.200Scan.071819.P2_HRD10591_17-18-59-971.txt Node
Date: Thu Jul 18 17:18:59 EDT 2019
User: cochatt
Spectrometer: HR+D1059
Trigger mode: 1
Integration Time (sec): 1.000000E-1
Scans to average: 1
Electric dark correction enabled: true
Nonlinearity correction enabled: false
Boxcar width: 0
XAxis mode: Wavelengths
Number of Pixels in Spectrum: 2048
>>>>>Begin Spectral Data<<<<<
223.165	-9.31
223.4	-9.31
223.635	-9.31
223.869	-7.31
224.104	-21.31
224.338	-11.31
224.573	-30.31
224.808	-11.31
225.042	-3.31
225.277	1.69
225.511	-5.31
225.746	4.69
225.98	-7.31
226.215	3.69
226.449	17.69
226.683	25.69
226.918	29.69
227.152	23.69
227.387	34.69
227.621	21.69
227.856	41.69
228.09	28.69
228.324	48.69
228.559	55.69
228.793	70.69
229.027	93.69
229.262	91.69
229.496	113.69
229.73	126.69
229.964	148.69
230.199	117.69
230.433	109.69
230.667	102.69
230.901	118.69
231.136	101.69
231.37	108.69
231.604	98.69
231.838	120.69
232.072	93.69
232.306	124.69
232.541	96.69
232.775	103.69
233.009	102.69
233.243	111.69
233.477	111.69
233.711	114.69
233.945	117.69
234.179	95.69
234.413	116.69
234.647	107.69
234.881	110.69
235.115	113.69
235.349	119.69
235.583	125.69
235.817	111.69
236.051	139.69
236.285	125.69
236.519	120.69
236.753	130.69
236.987	138.69
237.221	174.69
237.455	241.69
237.689	190.69
237.922	144.69
238.156	130.69
238.39	141.69
238.624	110.69
238.858	116.69
239.091	124.69
239.325	121.69
239.559	117.69
239.793	134.69
240.027	122.69
240.26	151.69
240.494	154.69
240.728	153.69
240.961	166.69
241.195	133.69
241.429	123.69
241.662	142.69
241.896	141.69
242.13	133.69
242.363	122.69
242.597	137.69
242.83	133.69
243.064	144.69
243.298	132.69
243.531	134.69
243.765	151.69
243.998	130.69
244.232	133.69
244.465	150.69
244.699	153.69
244.932	138.69
245.166	147.69
245.399	148.69
245.633	152.69
245.866	140.69
246.099	141.69
246.333	153.69
246.566	142.69
246.8	125.69
247.033	152.69
247.266	153.69
247.5	153.69
247.733	160.69
247.966	165.69
248.2	160.69
248.433	159.69
248.666	155.69
248.899	165.69
249.133	197.69
249.366	196.69
249.599	186.69
249.832	174.69
250.066	169.69
250.299	174.69
250.532	186.69
250.765	188.69
250.998	203.69
251.231	211.69
251.465	201.69
251.698	197.69
251.931	196.69
252.164	195.69
252.397	189.69
252.63	198.69
252.863	201.69
253.096	209.69
253.329	200.69
253.562	210.69
253.795	206.69
254.028	222.69
254.261	208.69
254.494	223.69
254.727	233.69
254.96	271.69
255.193	252.69
255.426	242.69
255.659	231.69
255.892	213.69
256.124	190.69
256.357	206.69
256.59	213.69
256.823	204.69
257.056	202.69
257.289	180.69
257.521	201.69
257.754	206.69
257.987	216.69
258.22	188.69
258.452	192.69
258.685	207.69
258.918	201.69
259.151	199.69
259.383	213.69
259.616	199.69
259.849	216.69
260.081	229.69
260.314	241.69
260.547	254.69
260.779	218.69
261.012	232.69
261.244	217.69
261.477	217.69
261.71	212.69
261.942	215.69
262.175	202.69
262.407	220.69
262.64	211.69
262.872	218.69
263.105	194.69
263.337	203.69
263.57	200.69
263.802	202.69
264.035	203.69
264.267	194.69
264.499	210.69
264.732	207.69
264.964	201.69
265.197	201.69
265.429	199.69
265.661	205.69
265.894	207.69
266.126	219.69
266.358	216.69
266.591	212.69
266.823	213.69
267.055	226.69
267.287	221.69
267.52	217.69
267.752	239.69
267.984	222.69
268.216	231.69
268.448	222.69
268.681	233.69
268.913	243.69
269.145	256.69
269.377	261.69
269.609	257.69
269.841	274.69
270.073	257.69
270.306	273.69
270.538	295.69
270.77	292.69
271.002	282.69
271.234	277.69
271.466	279.69
271.698	304.69
271.93	287.69
272.162	294.69
272.394	297.69
272.626	296.69
272.858	292.69
273.09	282.69
273.322	259.69
273.553	235.69
273.785	254.69
274.017	245.69
274.249	256.69
274.481	266.69
274.713	268.69
274.945	261.69
275.176	270.69
275.408	245.69
275.64	253.69
275.872	253.69
276.104	266.69
276.335	250.69
276.567	294.69
276.799	280.69
277.031	279.69
277.262	311.69
277.494	302.69
277.726	293.69
277.957	289.69
278.189	269.69
278.421	276.69
278.652	257.69
278.884	289.69
279.115	259.69
279.347	250.69
279.579	253.69
279.81	282.69
280.042	276.69
280.273	256.69
280.505	262.69
280.736	256.69
280.968	270.69
281.199	287.69
281.431	255.69
281.662	269.69
281.894	276.69
282.125	279.69
282.356	295.69
282.588	304.69
282.819	297.69
283.051	283.69
283.282	289.69
283.513	271.69
283.745	274.69
283.976	293.69
284.207	267.69
284.439	278.69
284.67	282.69
284.901	275.69
285.132	269.69
285.364	270.69
285.595	274.69
285.826	278.69
286.057	270.69
286.288	282.69
286.52	283.69
286.751	280.69
286.982	274.69
287.213	281.69
287.444	273.69
287.675	285.69
287.906	303.69
288.138	301.69
288.369	307.69
288.6	307.69
288.831	317.69
289.062	304.69
289.293	290.69
289.524	284.69
289.755	309.69
289.986	295.69
290.217	294.69
290.448	279.69
290.679	292.69
290.91	284.69
291.141	289.69
291.371	284.69
291.602	296.69
291.833	298.69
292.064	286.69
292.295	286.69
292.526	279.69
292.757	280.69
292.987	277.69
293.218	293.69
293.449	296.69
293.68	287.69
293.91	290.69
294.141	291.69
294.372	289.69
294.603	281.69
294.833	284.69
295.064	306.69
295.295	298.69
295.525	304.69
295.756	302.69
295.987	314.69
296.217	328.69
296.448	315.69
296.679	310.69
296.909	308.69
297.14	292.69
297.37	297.69
297.601	297.69
297.831	308.69
298.062	307.69
298.292	299.69
298.523	306.69
298.753	319.69
298.984	292.69
299.214	302.69
299.445	312.69
299.675	314.69
299.905	300.69
300.136	303.69
300.366	316.69
300.597	338.69
300.827	337.69
301.057	333.69
301.288	326.69
301.518	319.69
301.748	321.69
301.979	324.69
302.209	343.69
302.439	327.69
302.669	337.69
302.9	338.69
303.13	323.69
303.36	341.69
303.59	319.69
303.82	330.69
304.051	328.69
304.281	338.69
304.511	328.69
304.741	316.69
304.971	334.69
305.201	341.69
305.431	331.69
305.661	340.69
305.891	354.69
306.121	339.69
306.352	338.69
306.582	329.69
306.812	327.69
307.042	312.69
307.272	340.69
307.502	336.69
307.731	355.69
307.961	333.69
308.191	325.69
308.421	325.69
308.651	334.69
308.881	354.69
309.111	351.69
309.341	353.69
309.571	382.69
309.8	376.69
310.03	361.69
310.26	376.69
310.49	365.69
310.72	376.69
310.949	394.69
311.179	408.69
311.409	383.69
311.639	392.69
311.868	371.69
312.098	395.69
312.328	389.69
312.557	410.69
312.787	394.69
313.017	416.69
313.246	393.69
313.476	400.69
313.706	384.69
313.935	399.69
314.165	394.69
314.394	410.69
314.624	394.69
314.853	393.69
315.083	380.69
315.312	383.69
315.542	373.69
315.771	384.69
316.001	386.69
316.23	399.69
316.46	386.69
316.689	376.69
316.919	405.69
317.148	389.69
317.377	411.69
317.607	382.69
317.836	386.69
318.065	382.69
318.295	393.69
318.524	382.69
318.753	375.69
318.983	389.69
319.212	391.69
319.441	383.69
319.67	400.69
319.9	400.69
320.129	372.69
320.358	382.69
320.587	390.69
320.816	393.69
321.046	398.69
321.275	406.69
321.504	413.69
321.733	422.69
321.962	414.69
322.191	443.69
322.42	420.69
322.649	450.69
322.878	462.69
323.108	443.69
323.337	496.69
323.566	494.69
323.795	507.69
324.024	574.69
324.253	690.69
324.482	967.69
324.71	1505.69
324.939	2176.69
325.168	1850.69
325.397	969.69
325.626	652.69
325.855	556.69
326.084	515.69
326.313	493.69
326.542	509.69
326.77	548.69
326.999	661.69
327.228	871.69
327.457	1346.69
327.686	1656.69
327.914	1089.69
328.143	701.69
328.372	620.69
328.6	551.69
328.829	541.69
329.058	577.69
329.287	586.69
329.515	538.69
329.744	529.69
329.972	495.69
330.201	512.69
330.43	521.69
330.658	557.69
330.887	586.69
331.115	596.69
331.344	516.69
331.572	475.69
331.801	486.69
332.03	489.69
332.258	480.69
332.486	462.69
332.715	446.69
332.943	451.69
333.172	454.69
333.4	455.69
333.629	481.69
333.857	483.69
334.085	480.69
334.314	464.69
334.542	446.69
334.771	472.69
334.999	471.69
335.227	481.69
335.455	475.69
335.684	445.69
335.912	446.69
336.14	443.69
336.369	444.69
336.597	459.69
336.825	462.69
337.053	481.69
337.281	452.69
337.51	430.69
337.738	456.69
337.966	409.69
338.194	440.69
338.422	455.69
338.65	455.69
338.878	442.69
339.106	436.69
339.334	452.69
339.562	442.69
339.79	447.69
340.018	401.69
340.246	433.69
340.474	442.69
340.702	443.69
340.93	445.69
341.158	463.69
341.386	446.69
341.614	446.69
341.842	429.69
342.07	420.69
342.298	420.69
342.526	417.69
342.754	432.69
342.981	422.69
343.209	414.69
343.437	410.69
343.665	455.69
343.893	483.69
344.12	444.69
344.348	426.69
344.576	440.69
344.804	460.69
345.031	452.69
345.259	478.69
345.487	438.69
345.714	441.69
345.942	435.69
346.17	448.69
346.397	409.69
346.625	440.69
346.853	422.69
347.08	417.69
347.308	406.69
347.535	421.69
347.763	444.69
347.99	438.69
348.218	445.69
348.445	443.69
348.673	440.69
348.9	419.69
349.128	430.69
349.355	426.69
349.583	422.69
349.81	417.69
350.037	413.69
350.265	401.69
350.492	412.69
350.72	403.69
350.947	433.69
351.174	430.69
351.402	444.69
351.629	437.69
351.856	421.69
352.083	422.69
352.311	451.69
352.538	443.69
352.765	446.69
352.992	425.69
353.22	434.69
353.447	440.69
353.674	389.69
353.901	412.69
354.128	404.69
354.355	400.69
354.583	405.69
354.81	404.69
355.037	406.69
355.264	400.69
355.491	375.69
355.718	393.69
355.945	391.69
356.172	394.69
356.399	378.69
356.626	391.69
356.853	394.69
357.08	381.69
357.307	388.69
357.534	400.69
357.761	397.69
357.988	409.69
358.215	403.69
358.441	392.69
358.668	390.69
358.895	408.69
359.122	410.69
359.349	417.69
359.576	420.69
359.802	444.69
360.029	460.69
360.256	470.69
360.483	466.69
360.709	426.69
360.936	418.69
361.163	432.69
361.39	426.69
361.616	418.69
361.843	444.69
362.07	420.69
362.296	414.69
362.523	436.69
362.749	441.69
362.976	423.69
363.203	414.69
363.429	417.69
363.656	413.69
363.882	425.69
364.109	414.69
364.335	420.69
364.562	402.69
364.788	407.69
365.015	415.69
365.241	405.69
365.468	410.69
365.694	432.69
365.92	413.69
366.147	403.69
366.373	401.69
366.599	408.69
366.826	409.69
367.052	405.69
367.278	410.69
367.505	420.69
367.731	417.69
367.957	391.69
368.184	394.69
368.41	402.69
368.636	428.69
368.862	422.69
369.089	418.69
369.315	413.69
369.541	410.69
369.767	414.69
369.993	415.69
370.219	410.69
370.445	398.69
370.672	403.69
370.898	421.69
371.124	398.69
371.35	422.69
371.576	403.69
371.802	401.69
372.028	398.69
372.254	405.69
372.48	418.69
372.706	413.69
372.932	416.69
373.158	402.69
373.384	419.69
373.61	417.69
373.835	407.69
374.061	405.69
374.287	415.69
374.513	418.69
374.739	413.69
374.965	407.69
375.191	412.69
375.416	425.69
375.642	428.69
375.868	404.69
376.094	403.69
376.319	419.69
376.545	411.69
376.771	402.69
376.997	393.69
377.222	418.69
377.448	416.69
377.674	378.69
377.899	405.69
378.125	383.69
378.35	401.69
378.576	382.69
378.802	407.69
379.027	416.69
379.253	409.69
379.478	406.69
379.704	392.69
379.929	422.69
380.155	422.69
380.38	404.69
380.606	402.69
380.831	423.69
381.057	410.69
381.282	400.69
381.507	408.69
381.733	415.69
381.958	407.69
382.184	387.69
382.409	410.69
382.634	429.69
382.86	428.69
383.085	446.69
383.31	427.69
383.535	433.69
383.761	412.69
383.986	412.69
384.211	441.69
384.436	416.69
384.662	412.69
384.887	446.69
385.112	436.69
385.337	433.69
385.562	443.69
385.787	452.69
386.013	461.69
386.238	466.69
386.463	447.69
386.688	448.69
386.913	441.69
387.138	442.69
387.363	443.69
387.588	438.69
387.813	445.69
388.038	443.69
388.263	448.69
388.488	466.69
388.713	420.69
388.938	430.69
389.163	455.69
389.387	456.69
389.612	437.69
389.837	444.69
390.062	445.69
390.287	424.69
390.512	447.69
390.736	449.69
390.961	454.69
391.186	445.69
391.411	423.69
391.636	428.69
391.86	460.69
392.085	449.69
392.31	473.69
392.534	462.69
392.759	475.69
392.984	466.69
393.208	466.69
393.433	450.69
393.658	452.69
393.882	466.69
394.107	461.69
394.331	459.69
394.556	431.69
394.78	483.69
395.005	461.69
395.229	466.69
395.454	458.69
395.678	480.69
395.903	500.69
396.127	513.69
396.352	487.69
396.576	473.69
396.801	476.69
397.025	479.69
397.249	474.69
397.474	476.69
397.698	483.69
397.922	498.69
398.147	497.69
398.371	514.69
398.595	496.69
398.82	502.69
399.044	513.69
399.268	527.69
399.492	573.69
399.717	615.69
399.941	624.69
400.165	652.69
400.389	645.69
400.613	592.69
400.837	563.69
401.062	539.69
401.286	536.69
401.51	511.69
401.734	494.69
401.958	522.69
402.182	520.69
402.406	526.69
402.63	532.69
402.854	540.69
403.078	520.69
403.302	534.69
403.526	540.69
403.75	534.69
403.974	542.69
404.198	544.69
404.422	543.69
404.645	540.69
404.869	560.69
405.093	552.69
405.317	571.69
405.541	603.69
405.765	559.69
405.988	565.69
406.212	567.69
406.436	592.69
406.66	599.69
406.883	586.69
407.107	601.69
407.331	633.69
407.555	689.69
407.778	720.69
408.002	639.69
408.226	591.69
408.449	590.69
408.673	620.69
408.896	617.69
409.12	640.69
409.344	633.69
409.567	541.69
409.791	562.69
410.014	542.69
410.238	529.69
410.461	545.69
410.685	550.69
410.908	544.69
411.132	592.69
411.355	633.69
411.578	596.69
411.802	547.69
412.025	533.69
412.249	545.69
412.472	543.69
412.695	537.69
412.919	516.69
413.142	521.69
413.365	523.69
413.589	525.69
413.812	516.69
414.035	508.69
414.258	517.69
414.482	483.69
414.705	506.69
414.928	489.69
415.151	510.69
415.374	504.69
415.597	513.69
415.821	512.69
416.044	494.69
416.267	504.69
416.49	508.69
416.713	509.69
416.936	484.69
417.159	520.69
417.382	497.69
417.605	488.69
417.828	504.69
418.051	539.69
418.274	506.69
418.497	513.69
418.72	512.69
418.943	502.69
419.166	525.69
419.389	532.69
419.611	535.69
419.834	521.69
420.057	558.69
420.28	503.69
420.503	518.69
420.726	493.69
420.948	527.69
421.171	580.69
421.394	593.69
421.617	558.69
421.839	547.69
422.062	533.69
422.285	545.69
422.507	610.69
422.73	700.69
422.953	654.69
423.175	572.69
423.398	550.69
423.621	532.69
423.843	546.69
424.066	566.69
424.288	564.69
424.511	590.69
424.733	648.69
424.956	744.69
425.178	708.69
425.401	706.69
425.623	715.69
425.846	632.69
426.068	576.69
426.291	561.69
426.513	565.69
426.735	587.69
426.958	602.69
427.18	696.69
427.402	840.69
427.625	924.69
427.847	784.69
428.069	655.69
428.292	604.69
428.514	562.69
428.736	567.69
428.958	550.69
429.181	532.69
429.403	528.69
429.625	520.69
429.847	568.69
430.069	639.69
430.292	630.69
430.514	537.69
430.736	560.69
430.958	499.69
431.18	507.69
431.402	512.69
431.624	469.69
431.846	488.69
432.068	492.69
432.29	480.69
432.512	477.69
432.734	526.69
432.956	502.69
433.178	537.69
433.4	517.69
433.622	501.69
433.844	488.69
434.066	507.69
434.287	478.69
434.509	510.69
434.731	509.69
434.953	510.69
435.175	538.69
435.397	569.69
435.618	569.69
435.84	623.69
436.062	707.69
436.284	800.69
436.505	616.69
436.727	596.69
436.949	543.69
437.17	537.69
437.392	513.69
437.614	536.69
437.835	577.69
438.057	665.69
438.278	782.69
438.5	768.69
438.721	835.69
438.943	826.69
439.165	661.69
439.386	589.69
439.608	573.69
439.829	590.69
440.05	592.69
440.272	647.69
440.493	628.69
440.715	568.69
440.936	528.69
441.158	519.69
441.379	526.69
441.6	547.69
441.822	581.69
442.043	606.69
442.264	701.69
442.486	744.69
442.707	644.69
442.928	570.69
443.149	563.69
443.371	594.69
443.592	645.69
443.813	741.69
444.034	806.69
444.255	673.69
444.476	587.69
444.698	578.69
444.919	579.69
445.14	663.69
445.361	622.69
445.582	605.69
445.803	670.69
446.024	767.69
446.245	788.69
446.466	717.69
446.687	612.69
446.908	596.69
447.129	536.69
447.35	537.69
447.571	536.69
447.792	514.69
448.013	525.69
448.234	542.69
448.455	591.69
448.675	720.69
448.896	824.69
449.117	709.69
449.338	665.69
449.559	782.69
449.779	898.69
450	716.69
450.221	577.69
450.442	536.69
450.662	500.69
450.883	521.69
451.104	546.69
451.324	526.69
451.545	489.69
451.766	477.69
451.986	468.69
452.207	482.69
452.428	470.69
452.648	481.69
452.869	483.69
453.089	484.69
453.31	475.69
453.53	485.69
453.751	480.69
453.971	485.69
454.192	490.69
454.412	500.69
454.633	480.69
454.853	461.69
455.073	465.69
455.294	495.69
455.514	568.69
455.734	544.69
455.955	464.69
456.175	473.69
456.395	450.69
456.616	438.69
456.836	441.69
457.056	424.69
457.276	445.69
457.497	468.69
457.717	460.69
457.937	439.69
458.157	448.69
458.377	458.69
458.598	480.69
458.818	540.69
459.038	610.69
459.258	634.69
459.478	548.69
459.698	505.69
459.918	502.69
460.138	489.69
460.358	524.69
460.578	495.69
460.798	514.69
461.018	513.69
461.238	520.69
461.458	509.69
461.678	512.69
461.898	533.69
462.118	517.69
462.338	511.69
462.558	532.69
462.777	563.69
462.997	536.69
463.217	548.69
463.437	572.69
463.657	582.69
463.876	560.69
464.096	548.69
464.316	537.69
464.536	549.69
464.755	561.69
464.975	562.69
465.195	586.69
465.414	640.69
465.634	564.69
465.854	565.69
466.073	515.69
466.293	497.69
466.512	514.69
466.732	488.69
466.951	473.69
467.171	492.69
467.391	504.69
467.61	510.69
467.829	495.69
468.049	493.69
468.268	494.69
468.488	470.69
468.707	469.69
468.927	467.69
469.146	479.69
469.365	470.69
469.585	471.69
469.804	488.69
470.023	498.69
470.243	487.69
470.462	521.69
470.681	509.69
470.901	517.69
471.12	494.69
471.339	487.69
471.558	482.69
471.777	489.69
471.997	489.69
472.216	488.69
472.435	514.69
472.654	481.69
472.873	472.69
473.092	481.69
473.311	485.69
473.53	504.69
473.749	506.69
473.968	535.69
474.187	655.69
474.406	655.69
474.625	547.69
474.844	518.69
475.063	494.69
475.282	498.69
475.501	494.69
475.72	483.69
475.939	480.69
476.158	502.69
476.377	531.69
476.596	495.69
476.814	542.69
477.033	536.69
477.252	558.69
477.471	535.69
477.69	504.69
477.908	554.69
478.127	550.69
478.346	529.69
478.564	556.69
478.783	564.69
479.002	555.69
479.22	593.69
479.439	580.69
479.658	596.69
479.876	612.69
480.095	609.69
480.313	624.69
480.532	652.69
480.751	597.69
480.969	601.69
481.188	610.69
481.406	598.69
481.624	593.69
481.843	577.69
482.061	592.69
482.28	566.69
482.498	572.69
482.717	587.69
482.935	577.69
483.153	596.69
483.372	572.69
483.59	560.69
483.808	578.69
484.027	564.69
484.245	578.69
484.463	599.69
484.681	578.69
484.9	593.69
485.118	600.69
485.336	591.69
485.554	608.69
485.772	609.69
485.99	587.69
486.209	600.69
486.427	610.69
486.645	620.69
486.863	638.69
487.081	627.69
487.299	609.69
487.517	632.69
487.735	616.69
487.953	612.69
488.171	625.69
488.389	607.69
488.607	618.69
488.825	645.69
489.043	633.69
489.261	620.69
489.479	610.69
489.696	632.69
489.914	629.69
490.132	625.69
490.35	655.69
490.568	634.69
490.786	662.69
491.003	680.69
491.221	691.69
491.439	720.69
491.657	663.69
491.874	695.69
492.092	690.69
492.31	700.69
492.527	722.69
492.745	692.69
492.963	686.69
493.18	686.69
493.398	705.69
493.615	704.69
493.833	720.69
494.05	719.69
494.268	720.69
494.485	706.69
494.703	725.69
494.92	701.69
495.138	739.69
495.355	752.69
495.573	737.69
495.79	741.69
496.008	748.69
496.225	743.69
496.442	762.69
496.66	750.69
496.877	741.69
497.094	736.69
497.312	732.69
497.529	763.69
497.746	764.69
497.963	782.69
498.181	812.69
498.398	802.69
498.615	836.69
498.832	850.69
499.049	839.69
499.267	841.69
499.484	878.69
499.701	916.69
499.918	932.69
500.135	1009.69
500.352	1047.69
500.569	1063.69
500.786	1033.69
501.003	1018.69
501.22	1006.69
501.437	976.69
501.654	948.69
501.871	944.69
502.088	903.69
502.305	886.69
502.522	840.69
502.739	809.69
502.956	804.69
503.172	787.69
503.389	788.69
503.606	784.69
503.823	781.69
504.04	768.69
504.256	774.69
504.473	734.69
504.69	744.69
504.907	754.69
505.123	748.69
505.34	735.69
505.557	705.69
505.773	684.69
505.99	736.69
506.207	706.69
506.423	736.69
506.64	721.69
506.856	685.69
507.073	703.69
507.289	692.69
507.506	709.69
507.722	696.69
507.939	677.69
508.155	681.69
508.372	686.69
508.588	694.69
508.805	658.69
509.021	672.69
509.238	660.69
509.454	682.69
509.67	702.69
509.887	658.69
510.103	654.69
510.319	661.69
510.536	775.69
510.752	1236.69
510.968	1074.69
511.184	695.69
511.401	654.69
511.617	666.69
511.833	632.69
512.049	620.69
512.265	606.69
512.481	624.69
512.698	653.69
512.914	632.69
513.13	633.69
513.346	632.69
513.562	641.69
513.778	646.69
513.994	655.69
514.21	660.69
514.426	649.69
514.642	723.69
514.858	734.69
515.074	767.69
515.29	898.69
515.506	1300.69
515.721	1134.69
515.937	768.69
516.153	692.69
516.369	688.69
516.585	670.69
516.801	656.69
517.016	672.69
517.232	685.69
517.448	673.69
517.664	681.69
517.879	671.69
518.095	649.69
518.311	681.69
518.527	667.69
518.742	677.69
518.958	657.69
519.173	640.69
519.389	634.69
519.605	636.69
519.82	626.69
520.036	674.69
520.251	680.69
520.467	704.69
520.682	708.69
520.898	674.69
521.113	700.69
521.329	776.69
521.544	839.69
521.76	1027.69
521.975	1652.69
522.19	1663.69
522.406	945.69
522.621	722.69
522.836	656.69
523.052	649.69
523.267	616.69
523.482	595.69
523.698	590.69
523.913	597.69
524.128	587.69
524.343	562.69
524.559	558.69
524.774	581.69
524.989	570.69
525.204	574.69
525.419	562.69
525.634	535.69
525.849	542.69
526.064	551.69
526.28	541.69
526.495	515.69
526.71	546.69
526.925	540.69
527.14	532.69
527.355	537.69
527.57	537.69
527.785	520.69
527.999	511.69
528.214	520.69
528.429	516.69
528.644	519.69
528.859	534.69
529.074	536.69
529.289	560.69
529.503	621.69
529.718	620.69
529.933	574.69
530.148	548.69
530.363	517.69
530.577	518.69
530.792	482.69
531.007	508.69
531.221	528.69
531.436	508.69
531.651	521.69
531.865	507.69
532.08	518.69
532.295	503.69
532.509	513.69
532.724	487.69
532.938	528.69
533.153	506.69
533.367	494.69
533.582	498.69
533.796	519.69
534.011	506.69
534.225	494.69
534.44	493.69
534.654	502.69
534.868	483.69
535.083	488.69
535.297	488.69
535.511	525.69
535.726	509.69
535.94	516.69
536.154	504.69
536.369	505.69
536.583	486.69
536.797	457.69
537.011	501.69
537.225	468.69
537.44	477.69
537.654	484.69
537.868	488.69
538.082	487.69
538.296	485.69
538.51	473.69
538.724	488.69
538.938	482.69
539.153	484.69
539.367	501.69
539.581	490.69
539.795	499.69
540.009	463.69
540.222	464.69
540.436	502.69
540.65	493.69
540.864	474.69
541.078	482.69
541.292	492.69
541.506	468.69
541.72	489.69
541.934	485.69
542.147	486.69
542.361	470.69
542.575	466.69
542.789	481.69
543.002	480.69
543.216	476.69
543.43	478.69
543.644	456.69
543.857	511.69
544.071	489.69
544.285	485.69
544.498	458.69
544.712	467.69
544.925	470.69
545.139	480.69
545.352	472.69
545.566	455.69
545.779	481.69
545.993	486.69
546.206	478.69
546.42	471.69
546.633	463.69
546.847	476.69
547.06	459.69
547.274	444.69
547.487	469.69
547.7	459.69
547.914	456.69
548.127	454.69
548.34	446.69
548.554	440.69
548.767	461.69
548.98	448.69
549.193	464.69
549.407	462.69
549.62	471.69
549.833	446.69
550.046	434.69
550.259	459.69
550.473	456.69
550.686	437.69
550.899	448.69
551.112	442.69
551.325	428.69
551.538	462.69
551.751	433.69
551.964	455.69
552.177	464.69
552.39	447.69
552.603	466.69
552.816	457.69
553.029	462.69
553.242	485.69
553.455	445.69
553.667	484.69
553.88	478.69
554.093	483.69
554.306	451.69
554.519	450.69
554.732	453.69
554.944	444.69
555.157	444.69
555.37	440.69
555.583	414.69
555.795	455.69
556.008	415.69
556.221	418.69
556.433	434.69
556.646	431.69
556.859	415.69
557.071	416.69
557.284	406.69
557.496	431.69
557.709	421.69
557.921	415.69
558.134	408.69
558.346	418.69
558.559	415.69
558.771	396.69
558.984	425.69
559.196	402.69
559.409	402.69
559.621	424.69
559.833	414.69
560.046	391.69
560.258	398.69
560.47	417.69
560.683	404.69
560.895	398.69
561.107	413.69
561.32	396.69
561.532	397.69
561.744	412.69
561.956	393.69
562.168	401.69
562.381	397.69
562.593	436.69
562.805	421.69
563.017	404.69
563.229	416.69
563.441	415.69
563.653	408.69
563.865	425.69
564.077	415.69
564.289	416.69
564.501	406.69
564.713	447.69
564.925	418.69
565.137	428.69
565.349	448.69
565.561	431.69
565.773	456.69
565.985	447.69
566.197	461.69
566.408	468.69
566.62	471.69
566.832	497.69
567.044	482.69
567.255	497.69
567.467	516.69
567.679	519.69
567.891	510.69
568.102	514.69
568.314	517.69
568.526	489.69
568.737	484.69
568.949	473.69
569.161	436.69
569.372	429.69
569.584	413.69
569.795	405.69
570.007	398.69
570.218	442.69
570.43	440.69
570.641	416.69
570.853	390.69
571.064	395.69
571.276	408.69
571.487	391.69
571.698	398.69
571.91	381.69
572.121	380.69
572.333	378.69
572.544	350.69
572.755	376.69
572.966	350.69
573.178	384.69
573.389	369.69
573.6	363.69
573.811	364.69
574.023	351.69
574.234	340.69
574.445	345.69
574.656	340.69
574.867	351.69
575.078	365.69
575.289	340.69
575.501	340.69
575.712	356.69
575.923	328.69
576.134	345.69
576.345	328.69
576.556	348.69
576.767	346.69
576.978	342.69
577.188	325.69
577.399	340.69
577.61	360.69
577.821	357.69
578.032	353.69
578.243	373.69
578.454	576.69
578.665	448.69
578.875	341.69
579.086	324.69
579.297	340.69
579.508	329.69
579.718	330.69
579.929	342.69
580.14	312.69
580.35	317.69
580.561	335.69
580.772	307.69
580.982	333.69
581.193	327.69
581.403	331.69
581.614	324.69
581.825	320.69
582.035	329.69
582.246	322.69
582.456	316.69
582.667	320.69
582.877	315.69
583.087	329.69
583.298	313.69
583.508	311.69
583.719	311.69
583.929	306.69
584.139	308.69
584.35	305.69
584.56	326.69
584.77	316.69
584.981	310.69
585.191	315.69
585.401	312.69
585.611	303.69
585.821	314.69
586.032	323.69
586.242	310.69
586.452	295.69
586.662	313.69
586.872	297.69
587.082	308.69
587.292	321.69
587.502	296.69
587.713	304.69
587.923	308.69
588.133	305.69
588.343	313.69
588.553	314.69
588.762	304.69
588.972	309.69
589.182	313.69
589.392	310.69
589.602	306.69
589.812	316.69
590.022	306.69
590.232	300.69
590.441	310.69
590.651	298.69
590.861	310.69
591.071	316.69
591.281	319.69
591.49	302.69
591.7	298.69
591.91	287.69
592.119	311.69
592.329	326.69
592.539	325.69
592.748	320.69
592.958	340.69
593.167	327.69
593.377	338.69
593.587	333.69
593.796	322.69
594.006	307.69
594.215	332.69
594.424	327.69
594.634	321.69
594.843	322.69
595.053	308.69
595.262	307.69
595.472	312.69
595.681	302.69
595.89	301.69
596.1	303.69
596.309	298.69
596.518	290.69
596.727	307.69
596.937	316.69
597.146	300.69
597.355	313.69
597.564	300.69
597.774	281.69
597.983	291.69
598.192	284.69
598.401	290.69
598.61	276.69
598.819	290.69
599.028	276.69
599.237	283.69
599.446	277.69
599.655	278.69
599.864	263.69
600.073	269.69
600.282	258.69
600.491	246.69
600.7	276.69
600.909	266.69
601.118	289.69
601.327	297.69
601.536	263.69
601.745	262.69
601.953	267.69
602.162	270.69
602.371	256.69
602.58	270.69
602.789	279.69
602.997	254.69
603.206	274.69
603.415	256.69
603.623	277.69
603.832	260.69
604.041	276.69
604.249	256.69
604.458	263.69
604.666	245.69
604.875	262.69
605.084	261.69
605.292	250.69
605.501	255.69
605.709	255.69
605.918	267.69
606.126	245.69
606.334	266.69
606.543	246.69
606.751	239.69
606.96	252.69
607.168	244.69
607.376	248.69
607.585	245.69
607.793	257.69
608.001	253.69
608.21	258.69
608.418	236.69
608.626	236.69
608.834	261.69
609.043	242.69
609.251	241.69
609.459	252.69
609.667	235.69
609.875	237.69
610.083	249.69
610.291	245.69
610.499	241.69
610.707	239.69
610.916	233.69
611.124	264.69
611.332	254.69
611.54	244.69
611.748	239.69
611.955	229.69
612.163	240.69
612.371	246.69
612.579	257.69
612.787	222.69
612.995	234.69
613.203	238.69
613.411	238.69
613.618	244.69
613.826	243.69
614.034	225.69
614.242	233.69
614.449	239.69
614.657	247.69
614.865	224.69
615.072	227.69
615.28	232.69
615.488	242.69
615.695	243.69
615.903	246.69
616.111	239.69
616.318	241.69
616.526	227.69
616.733	238.69
616.941	230.69
617.148	252.69
617.356	236.69
617.563	239.69
617.771	245.69
617.978	236.69
618.185	232.69
618.393	225.69
618.6	235.69
618.807	242.69
619.015	244.69
619.222	246.69
619.429	214.69
619.637	258.69
619.844	249.69
620.051	236.69
620.258	225.69
620.466	248.69
620.673	223.69
620.88	207.69
621.087	217.69
621.294	221.69
621.501	244.69
621.708	216.69
621.915	225.69
622.122	236.69
622.329	226.69
622.536	232.69
622.743	232.69
622.95	222.69
623.157	214.69
623.364	203.69
623.571	197.69
623.778	209.69
623.985	214.69
624.192	210.69
624.399	212.69
624.606	213.69
624.812	215.69
625.019	201.69
625.226	216.69
625.433	213.69
625.639	217.69
625.846	222.69
626.053	218.69
626.259	229.69
626.466	215.69
626.673	214.69
626.879	206.69
627.086	208.69
627.293	208.69
627.499	198.69
627.706	201.69
627.912	203.69
628.119	207.69
628.325	213.69
628.532	206.69
628.738	213.69
628.945	208.69
629.151	200.69
629.357	178.69
629.564	191.69
629.77	207.69
629.976	186.69
630.183	203.69
630.389	215.69
630.595	193.69
630.802	208.69
631.008	201.69
631.214	197.69
631.42	207.69
631.627	196.69
631.833	191.69
632.039	198.69
632.245	202.69
632.451	186.69
632.657	191.69
632.863	176.69
633.069	193.69
633.275	196.69
633.481	202.69
633.688	176.69
633.893	190.69
634.099	206.69
634.305	184.69
634.511	186.69
634.717	185.69
634.923	180.69
635.129	195.69
635.335	197.69
635.541	188.69
635.747	178.69
635.952	178.69
636.158	199.69
636.364	164.69
636.57	172.69
636.775	190.69
636.981	168.69
637.187	177.69
637.392	150.69
637.598	183.69
637.804	177.69
638.009	183.69
638.215	182.69
638.421	185.69
638.626	185.69
638.832	181.69
639.037	188.69
639.243	178.69
639.448	180.69
639.654	165.69
639.859	184.69
640.065	176.69
640.27	175.69
640.475	192.69
640.681	167.69
640.886	175.69
641.091	179.69
641.297	160.69
641.502	169.69
641.707	172.69
641.913	184.69
642.118	155.69
642.323	168.69
642.528	176.69
642.733	162.69
642.939	166.69
643.144	155.69
643.349	167.69
643.554	174.69
643.759	151.69
643.964	168.69
644.169	160.69
644.374	170.69
644.579	154.69
644.784	186.69
644.989	160.69
645.194	170.69
645.399	157.69
645.604	163.69
645.809	169.69
646.014	164.69
646.219	172.69
646.423	163.69
646.628	175.69
646.833	189.69
647.038	161.69
647.243	167.69
647.447	182.69
647.652	177.69
647.857	162.69
648.062	185.69
648.266	182.69
648.471	176.69
648.676	184.69
648.88	178.69
649.085	175.69
649.289	161.69
649.494	185.69
649.698	176.69
649.903	187.69
650.107	160.69
650.312	168.69
650.516	149.69
650.721	139.69
650.925	153.69
651.13	153.69
651.334	167.69
651.539	160.69
651.743	134.69
651.947	149.69
652.152	156.69
652.356	130.69
652.56	141.69
652.764	143.69
652.969	145.69
653.173	144.69
653.377	152.69
653.581	161.69
653.785	119.69
653.99	132.69
654.194	139.69
654.398	138.69
654.602	138.69
654.806	135.69
655.01	141.69
655.214	152.69
655.418	141.69
655.622	145.69
655.826	146.69
656.03	136.69
656.234	135.69
656.438	130.69
656.642	155.69
656.846	138.69
657.049	141.69
657.253	138.69
657.457	113.69
657.661	111.69
657.865	120.69
658.068	104.69
658.272	85.69
658.476	88.69
658.68	99.69
658.883	85.69
659.087	106.69
659.291	110.69
659.494	97.69
659.698	79.69
659.901	100.69
660.105	96.69
660.309	108.69
660.512	97.69
660.716	90.69
660.919	96.69
661.123	99.69
661.326	78.69
661.53	88.69
661.733	87.69
661.936	91.69
662.14	72.69
662.343	80.69
662.546	80.69
662.75	96.69
662.953	86.69
663.156	74.69
663.36	85.69
663.563	67.69
663.766	89.69
663.969	73.69
664.173	78.69
664.376	73.69
664.579	80.69
664.782	76.69
664.985	93.69
665.188	81.69
665.391	67.69
665.594	68.69
665.797	71.69
666	78.69
666.203	68.69
666.406	69.69
666.609	77.69
666.812	88.69
667.015	79.69
667.218	74.69
667.421	88.69
667.624	85.69
667.827	79.69
668.03	92.69
668.232	78.69
668.435	85.69
668.638	71.69
668.841	80.69
669.043	84.69
669.246	72.69
669.449	84.69
669.651	73.69
669.854	84.69
670.057	93.69
670.259	73.69
670.462	77.69
670.665	76.69
670.867	78.69
671.07	76.69
671.272	82.69
671.475	85.69
671.677	83.69
671.88	78.69
672.082	71.69
672.284	77.69
672.487	84.69
672.689	79.69
672.892	78.69
