Data from 1988.PennyLincolnUp.Lamp.En5.5.200Scan.071819.P2_HRD10591_17-18-54-972.txt Node
Date: Thu Jul 18 17:18:54 EDT 2019
User: cochatt
Spectrometer: HR+D1059
Trigger mode: 1
Integration Time (sec): 1.000000E-1
Scans to average: 1
Electric dark correction enabled: true
Nonlinearity correction enabled: false
Boxcar width: 0
XAxis mode: Wavelengths
Number of Pixels in Spectrum: 2048
>>>>>Begin Spectral Data<<<<<
223.165	-3.06
223.4	-3.06
223.635	-3.06
223.869	-19.06
224.104	-8.06
224.338	-6.06
224.573	-23.06
224.808	-20.06
225.042	-24.06
225.277	-0.06
225.511	-0.06
225.746	0.94
225.98	2.94
226.215	13.94
226.449	13.94
226.683	22.94
226.918	21.94
227.152	26.94
227.387	38.94
227.621	31.94
227.856	49.94
228.09	40.94
228.324	35.94
228.559	74.94
228.793	71.94
229.027	96.94
229.262	84.94
229.496	111.94
229.73	139.94
229.964	149.94
230.199	125.94
230.433	109.94
230.667	102.94
230.901	106.94
231.136	112.94
231.37	111.94
231.604	107.94
231.838	116.94
232.072	121.94
232.306	117.94
232.541	129.94
232.775	107.94
233.009	116.94
233.243	98.94
233.477	113.94
233.711	102.94
233.945	118.94
234.179	115.94
234.413	105.94
234.647	104.94
234.881	98.94
235.115	111.94
235.349	123.94
235.583	123.94
235.817	117.94
236.051	122.94
236.285	121.94
236.519	121.94
236.753	124.94
236.987	137.94
237.221	167.94
237.455	213.94
237.689	161.94
237.922	141.94
238.156	132.94
238.39	128.94
238.624	125.94
238.858	129.94
239.091	127.94
239.325	119.94
239.559	109.94
239.793	124.94
240.027	139.94
240.26	128.94
240.494	153.94
240.728	134.94
240.961	151.94
241.195	123.94
241.429	129.94
241.662	125.94
241.896	131.94
242.13	133.94
242.363	123.94
242.597	138.94
242.83	139.94
243.064	125.94
243.298	144.94
243.531	125.94
243.765	125.94
243.998	122.94
244.232	135.94
244.465	146.94
244.699	142.94
244.932	150.94
245.166	132.94
245.399	129.94
245.633	146.94
245.866	165.94
246.099	140.94
246.333	152.94
246.566	155.94
246.8	159.94
247.033	159.94
247.266	159.94
247.5	155.94
247.733	156.94
247.966	171.94
248.2	166.94
248.433	156.94
248.666	160.94
248.899	170.94
249.133	187.94
249.366	197.94
249.599	196.94
249.832	191.94
250.066	164.94
250.299	181.94
250.532	182.94
250.765	187.94
250.998	218.94
251.231	208.94
251.465	185.94
251.698	197.94
251.931	195.94
252.164	191.94
252.397	201.94
252.63	197.94
252.863	208.94
253.096	204.94
253.329	209.94
253.562	205.94
253.795	214.94
254.028	210.94
254.261	215.94
254.494	224.94
254.727	222.94
254.96	241.94
255.193	263.94
255.426	225.94
255.659	227.94
255.892	214.94
256.124	199.94
256.357	203.94
256.59	201.94
256.823	191.94
257.056	205.94
257.289	206.94
257.521	201.94
257.754	215.94
257.987	204.94
258.22	213.94
258.452	209.94
258.685	196.94
258.918	195.94
259.151	201.94
259.383	220.94
259.616	213.94
259.849	218.94
260.081	225.94
260.314	218.94
260.547	244.94
260.779	234.94
261.012	228.94
261.244	230.94
261.477	226.94
261.71	215.94
261.942	220.94
262.175	247.94
262.407	225.94
262.64	212.94
262.872	212.94
263.105	214.94
263.337	195.94
263.57	214.94
263.802	204.94
264.035	208.94
264.267	209.94
264.499	214.94
264.732	209.94
264.964	218.94
265.197	209.94
265.429	212.94
265.661	209.94
265.894	207.94
266.126	204.94
266.358	215.94
266.591	227.94
266.823	212.94
267.055	217.94
267.287	208.94
267.52	213.94
267.752	210.94
267.984	218.94
268.216	224.94
268.448	235.94
268.681	230.94
268.913	232.94
269.145	253.94
269.377	249.94
269.609	269.94
269.841	275.94
270.073	284.94
270.306	269.94
270.538	307.94
270.77	308.94
271.002	277.94
271.234	277.94
271.466	298.94
271.698	305.94
271.93	311.94
272.162	292.94
272.394	303.94
272.626	280.94
272.858	281.94
273.09	275.94
273.322	271.94
273.553	259.94
273.785	263.94
274.017	240.94
274.249	276.94
274.481	281.94
274.713	252.94
274.945	258.94
275.176	256.94
275.408	249.94
275.64	270.94
275.872	263.94
276.104	255.94
276.335	255.94
276.567	258.94
276.799	284.94
277.031	299.94
277.262	317.94
277.494	309.94
277.726	292.94
277.957	293.94
278.189	259.94
278.421	260.94
278.652	258.94
278.884	265.94
279.115	273.94
279.347	272.94
279.579	265.94
279.81	273.94
280.042	249.94
280.273	275.94
280.505	271.94
280.736	263.94
280.968	260.94
281.199	284.94
281.431	269.94
281.662	269.94
281.894	267.94
282.125	263.94
282.356	275.94
282.588	293.94
282.819	312.94
283.051	283.94
283.282	264.94
283.513	275.94
283.745	301.94
283.976	272.94
284.207	295.94
284.439	275.94
284.67	285.94
284.901	287.94
285.132	273.94
285.364	284.94
285.595	289.94
285.826	265.94
286.057	280.94
286.288	296.94
286.52	276.94
286.751	286.94
286.982	287.94
287.213	280.94
287.444	291.94
287.675	296.94
287.906	322.94
288.138	281.94
288.369	293.94
288.6	290.94
288.831	297.94
289.062	302.94
289.293	297.94
289.524	285.94
289.755	295.94
289.986	279.94
290.217	290.94
290.448	292.94
290.679	287.94
290.91	285.94
291.141	286.94
291.371	291.94
291.602	289.94
291.833	281.94
292.064	275.94
292.295	277.94
292.526	298.94
292.757	282.94
292.987	284.94
293.218	305.94
293.449	299.94
293.68	289.94
293.91	301.94
294.141	291.94
294.372	289.94
294.603	277.94
294.833	283.94
295.064	293.94
295.295	312.94
295.525	292.94
295.756	312.94
295.987	305.94
296.217	323.94
296.448	351.94
296.679	300.94
296.909	301.94
297.14	299.94
297.37	300.94
297.601	323.94
297.831	287.94
298.062	298.94
298.292	298.94
298.523	306.94
298.753	306.94
298.984	302.94
299.214	315.94
299.445	314.94
299.675	321.94
299.905	326.94
300.136	325.94
300.366	323.94
300.597	329.94
300.827	325.94
301.057	341.94
301.288	337.94
301.518	327.94
301.748	319.94
301.979	330.94
302.209	338.94
302.439	332.94
302.669	341.94
302.9	332.94
303.13	325.94
303.36	330.94
303.59	347.94
303.82	345.94
304.051	337.94
304.281	330.94
304.511	343.94
304.741	321.94
304.971	336.94
305.201	336.94
305.431	345.94
305.661	328.94
305.891	321.94
306.121	328.94
306.352	333.94
306.582	317.94
306.812	339.94
307.042	346.94
307.272	340.94
307.502	344.94
307.731	328.94
307.961	327.94
308.191	329.94
308.421	333.94
308.651	349.94
308.881	355.94
309.111	351.94
309.341	332.94
309.571	372.94
309.8	367.94
310.03	364.94
310.26	377.94
310.49	348.94
310.72	393.94
310.949	389.94
311.179	420.94
311.409	389.94
311.639	390.94
311.868	367.94
312.098	372.94
312.328	374.94
312.557	391.94
312.787	415.94
313.017	402.94
313.246	395.94
313.476	385.94
313.706	389.94
313.935	391.94
314.165	408.94
314.394	406.94
314.624	390.94
314.853	383.94
315.083	392.94
315.312	372.94
315.542	375.94
315.771	379.94
316.001	372.94
316.23	369.94
316.46	384.94
316.689	385.94
316.919	387.94
317.148	395.94
317.377	417.94
317.607	399.94
317.836	377.94
318.065	387.94
318.295	381.94
318.524	391.94
318.753	378.94
318.983	378.94
319.212	392.94
319.441	396.94
319.67	404.94
319.9	388.94
320.129	392.94
320.358	373.94
320.587	413.94
320.816	390.94
321.046	395.94
321.275	412.94
321.504	411.94
321.733	384.94
321.962	440.94
322.191	419.94
322.42	435.94
322.649	448.94
322.878	456.94
323.108	474.94
323.337	487.94
323.566	502.94
323.795	526.94
324.024	577.94
324.253	667.94
324.482	1015.94
324.71	1517.94
324.939	2186.94
325.168	1841.94
325.397	966.94
325.626	669.94
325.855	565.94
326.084	511.94
326.313	513.94
326.542	524.94
326.77	550.94
326.999	640.94
327.228	890.94
327.457	1328.94
327.686	1620.94
327.914	1064.94
328.143	725.94
328.372	611.94
328.6	580.94
328.829	536.94
329.058	562.94
329.287	577.94
329.515	529.94
329.744	517.94
329.972	487.94
330.201	477.94
330.43	495.94
330.658	531.94
330.887	594.94
331.115	586.94
331.344	526.94
331.572	498.94
331.801	496.94
332.03	503.94
332.258	481.94
332.486	471.94
332.715	467.94
332.943	447.94
333.172	461.94
333.4	468.94
333.629	503.94
333.857	472.94
334.085	473.94
334.314	466.94
334.542	473.94
334.771	473.94
334.999	477.94
335.227	479.94
335.455	457.94
335.684	467.94
335.912	463.94
336.14	458.94
336.369	457.94
336.597	477.94
336.825	458.94
337.053	458.94
337.281	453.94
337.51	468.94
337.738	455.94
337.966	455.94
338.194	459.94
338.422	456.94
338.65	457.94
338.878	450.94
339.106	437.94
339.334	436.94
339.562	465.94
339.79	441.94
340.018	436.94
340.246	448.94
340.474	440.94
340.702	441.94
340.93	436.94
341.158	470.94
341.386	443.94
341.614	429.94
341.842	420.94
342.07	436.94
342.298	450.94
342.526	441.94
342.754	413.94
342.981	427.94
343.209	414.94
343.437	433.94
343.665	435.94
343.893	467.94
344.12	443.94
344.348	450.94
344.576	408.94
344.804	466.94
345.031	457.94
345.259	471.94
345.487	475.94
345.714	462.94
345.942	439.94
346.17	432.94
346.397	411.94
346.625	422.94
346.853	438.94
347.08	433.94
347.308	436.94
347.535	452.94
347.763	429.94
347.99	435.94
348.218	441.94
348.445	450.94
348.673	443.94
348.9	452.94
349.128	417.94
349.355	403.94
349.583	424.94
349.81	401.94
350.037	414.94
350.265	415.94
350.492	397.94
350.72	406.94
350.947	413.94
351.174	418.94
351.402	435.94
351.629	446.94
351.856	435.94
352.083	417.94
352.311	442.94
352.538	443.94
352.765	454.94
352.992	422.94
353.22	443.94
353.447	412.94
353.674	416.94
353.901	381.94
354.128	403.94
354.355	416.94
354.583	407.94
354.81	390.94
355.037	405.94
355.264	413.94
355.491	393.94
355.718	386.94
355.945	407.94
356.172	381.94
356.399	402.94
356.626	402.94
356.853	432.94
357.08	394.94
357.307	415.94
357.534	401.94
357.761	388.94
357.988	400.94
358.215	403.94
358.441	407.94
358.668	423.94
358.895	404.94
359.122	409.94
359.349	416.94
359.576	425.94
359.802	449.94
360.029	453.94
360.256	446.94
360.483	474.94
360.709	429.94
360.936	427.94
361.163	416.94
361.39	417.94
361.616	413.94
361.843	413.94
362.07	425.94
362.296	431.94
362.523	409.94
362.749	417.94
362.976	421.94
363.203	417.94
363.429	416.94
363.656	416.94
363.882	408.94
364.109	403.94
364.335	396.94
364.562	412.94
364.788	412.94
365.015	417.94
365.241	418.94
365.468	415.94
365.694	417.94
365.92	416.94
366.147	405.94
366.373	406.94
366.599	422.94
366.826	408.94
367.052	411.94
367.278	396.94
367.505	414.94
367.731	412.94
367.957	426.94
368.184	429.94
368.41	420.94
368.636	426.94
368.862	420.94
369.089	412.94
369.315	409.94
369.541	398.94
369.767	392.94
369.993	402.94
370.219	417.94
370.445	425.94
370.672	383.94
370.898	410.94
371.124	418.94
371.35	418.94
371.576	407.94
371.802	407.94
372.028	400.94
372.254	404.94
372.48	411.94
372.706	400.94
372.932	412.94
373.158	428.94
373.384	436.94
373.61	415.94
373.835	421.94
374.061	418.94
374.287	398.94
374.513	425.94
374.739	434.94
374.965	435.94
375.191	428.94
375.416	405.94
375.642	399.94
375.868	397.94
376.094	413.94
376.319	404.94
376.545	434.94
376.771	405.94
376.997	402.94
377.222	417.94
377.448	420.94
377.674	398.94
377.899	415.94
378.125	426.94
378.35	403.94
378.576	402.94
378.802	415.94
379.027	418.94
379.253	400.94
379.478	412.94
379.704	428.94
379.929	408.94
380.155	410.94
380.38	400.94
380.606	403.94
380.831	420.94
381.057	411.94
381.282	418.94
381.507	412.94
381.733	415.94
381.958	424.94
382.184	424.94
382.409	402.94
382.634	427.94
382.86	424.94
383.085	425.94
383.31	417.94
383.535	432.94
383.761	443.94
383.986	443.94
384.211	424.94
384.436	420.94
384.662	445.94
384.887	455.94
385.112	436.94
385.337	456.94
385.562	436.94
385.787	449.94
386.013	450.94
386.238	467.94
386.463	453.94
386.688	471.94
386.913	440.94
387.138	440.94
387.363	469.94
387.588	443.94
387.813	460.94
388.038	447.94
388.263	455.94
388.488	447.94
388.713	472.94
388.938	435.94
389.163	441.94
389.387	451.94
389.612	428.94
389.837	447.94
390.062	453.94
390.287	449.94
390.512	458.94
390.736	443.94
390.961	464.94
391.186	461.94
391.411	470.94
391.636	426.94
391.86	458.94
392.085	465.94
392.31	473.94
392.534	475.94
392.759	469.94
392.984	465.94
393.208	466.94
393.433	467.94
393.658	479.94
393.882	450.94
394.107	450.94
394.331	463.94
394.556	468.94
394.78	456.94
395.005	477.94
395.229	469.94
395.454	468.94
395.678	482.94
395.903	474.94
396.127	514.94
396.352	492.94
396.576	487.94
396.801	497.94
397.025	488.94
397.249	487.94
397.474	483.94
397.698	482.94
397.922	514.94
398.147	523.94
398.371	519.94
398.595	511.94
398.82	523.94
399.044	523.94
399.268	539.94
399.492	588.94
399.717	602.94
399.941	615.94
400.165	634.94
400.389	641.94
400.613	609.94
400.837	551.94
401.062	559.94
401.286	551.94
401.51	529.94
401.734	515.94
401.958	540.94
402.182	531.94
402.406	536.94
402.63	544.94
402.854	548.94
403.078	534.94
403.302	528.94
403.526	568.94
403.75	540.94
403.974	550.94
404.198	523.94
404.422	514.94
404.645	551.94
404.869	550.94
405.093	579.94
405.317	577.94
405.541	600.94
405.765	589.94
405.988	575.94
406.212	553.94
406.436	616.94
406.66	605.94
406.883	579.94
407.107	619.94
407.331	649.94
407.555	716.94
407.778	716.94
408.002	651.94
408.226	591.94
408.449	606.94
408.673	611.94
408.896	646.94
409.12	675.94
409.344	634.94
409.567	567.94
409.791	551.94
410.014	552.94
410.238	546.94
410.461	532.94
410.685	544.94
410.908	552.94
411.132	579.94
411.355	615.94
411.578	588.94
411.802	551.94
412.025	545.94
412.249	519.94
412.472	529.94
412.695	545.94
412.919	561.94
413.142	528.94
413.365	501.94
413.589	534.94
413.812	513.94
414.035	526.94
414.258	506.94
414.482	505.94
414.705	506.94
414.928	482.94
415.151	523.94
415.374	510.94
415.597	509.94
415.821	517.94
416.044	515.94
416.267	532.94
416.49	489.94
416.713	517.94
416.936	521.94
417.159	509.94
417.382	532.94
417.605	518.94
417.828	519.94
418.051	532.94
418.274	539.94
418.497	504.94
418.72	515.94
418.943	492.94
419.166	539.94
419.389	563.94
419.611	541.94
419.834	529.94
420.057	530.94
420.28	522.94
420.503	520.94
420.726	528.94
420.948	534.94
421.171	579.94
421.394	599.94
421.617	555.94
421.839	536.94
422.062	537.94
422.285	578.94
422.507	608.94
422.73	677.94
422.953	666.94
423.175	597.94
423.398	563.94
423.621	551.94
423.843	584.94
424.066	566.94
424.288	553.94
424.511	580.94
424.733	625.94
424.956	738.94
425.178	689.94
425.401	673.94
425.623	726.94
425.846	625.94
426.068	591.94
426.291	569.94
426.513	562.94
426.735	595.94
426.958	626.94
427.18	703.94
427.402	816.94
427.625	901.94
427.847	814.94
428.069	669.94
428.292	585.94
428.514	546.94
428.736	533.94
428.958	560.94
429.181	520.94
429.403	541.94
429.625	525.94
429.847	578.94
430.069	627.94
430.292	640.94
430.514	541.94
430.736	535.94
430.958	515.94
431.18	500.94
431.402	501.94
431.624	488.94
431.846	491.94
432.068	492.94
432.29	523.94
432.512	501.94
432.734	531.94
432.956	500.94
433.178	524.94
433.4	516.94
433.622	506.94
433.844	515.94
434.066	496.94
434.287	506.94
434.509	527.94
434.731	521.94
434.953	505.94
435.175	525.94
435.397	547.94
435.618	585.94
435.84	639.94
436.062	699.94
436.284	768.94
436.505	643.94
436.727	605.94
436.949	541.94
437.17	524.94
437.392	536.94
437.614	545.94
437.835	578.94
438.057	668.94
438.278	762.94
438.5	787.94
438.721	843.94
438.943	825.94
439.165	652.94
439.386	587.94
439.608	578.94
439.829	567.94
440.05	628.94
440.272	665.94
440.493	618.94
440.715	563.94
440.936	540.94
441.158	540.94
441.379	530.94
441.6	545.94
441.822	574.94
442.043	617.94
442.264	680.94
442.486	735.94
442.707	628.94
442.928	601.94
443.149	588.94
443.371	622.94
443.592	683.94
443.813	762.94
444.034	808.94
444.255	660.94
444.476	587.94
444.698	602.94
444.919	587.94
445.14	660.94
445.361	625.94
445.582	618.94
445.803	660.94
446.024	768.94
446.245	777.94
446.466	736.94
446.687	618.94
446.908	565.94
447.129	540.94
447.35	529.94
447.571	514.94
447.792	531.94
448.013	547.94
448.234	541.94
448.455	625.94
448.675	713.94
448.896	838.94
449.117	702.94
449.338	680.94
449.559	749.94
449.779	878.94
450	730.94
450.221	600.94
450.442	536.94
450.662	529.94
450.883	514.94
451.104	531.94
451.324	519.94
451.545	505.94
451.766	498.94
451.986	470.94
452.207	484.94
452.428	477.94
452.648	475.94
452.869	490.94
453.089	484.94
453.31	500.94
453.53	477.94
453.751	476.94
453.971	472.94
454.192	479.94
454.412	473.94
454.633	514.94
454.853	474.94
455.073	451.94
455.294	491.94
455.514	566.94
455.734	550.94
455.955	459.94
456.175	464.94
456.395	447.94
456.616	435.94
456.836	449.94
457.056	461.94
457.276	425.94
457.497	441.94
457.717	428.94
457.937	463.94
458.157	443.94
458.377	487.94
458.598	474.94
458.818	551.94
459.038	609.94
459.258	612.94
459.478	559.94
459.698	529.94
459.918	505.94
460.138	525.94
460.358	523.94
460.578	519.94
460.798	511.94
461.018	529.94
461.238	541.94
461.458	516.94
461.678	499.94
461.898	535.94
462.118	534.94
462.338	549.94
462.558	529.94
462.777	553.94
462.997	553.94
463.217	571.94
463.437	600.94
463.657	555.94
463.876	572.94
464.096	548.94
464.316	548.94
464.536	564.94
464.755	566.94
464.975	546.94
465.195	604.94
465.414	657.94
465.634	596.94
465.854	549.94
466.073	539.94
466.293	509.94
466.512	505.94
466.732	482.94
466.951	503.94
467.171	483.94
467.391	494.94
467.61	473.94
467.829	523.94
468.049	499.94
468.268	492.94
468.488	459.94
468.707	473.94
468.927	479.94
469.146	471.94
469.365	476.94
469.585	473.94
469.804	487.94
470.023	513.94
470.243	497.94
470.462	520.94
470.681	525.94
470.901	511.94
471.12	498.94
471.339	503.94
471.558	479.94
471.777	484.94
471.997	488.94
472.216	493.94
472.435	497.94
472.654	495.94
472.873	479.94
473.092	489.94
473.311	490.94
473.53	495.94
473.749	513.94
473.968	559.94
474.187	627.94
474.406	651.94
474.625	563.94
474.844	533.94
475.063	504.94
475.282	511.94
475.501	511.94
475.72	537.94
475.939	511.94
476.158	527.94
476.377	530.94
476.596	513.94
476.814	537.94
477.033	519.94
477.252	547.94
477.471	524.94
477.69	521.94
477.908	534.94
478.127	547.94
478.346	541.94
478.564	548.94
478.783	554.94
479.002	585.94
479.22	567.94
479.439	605.94
479.658	577.94
479.876	598.94
480.095	615.94
480.313	636.94
480.532	612.94
480.751	600.94
480.969	588.94
481.188	597.94
481.406	624.94
481.624	579.94
481.843	602.94
482.061	576.94
482.28	589.94
482.498	585.94
482.717	584.94
482.935	588.94
483.153	588.94
483.372	590.94
483.59	563.94
483.808	593.94
484.027	574.94
484.245	577.94
484.463	581.94
484.681	601.94
484.9	573.94
485.118	641.94
485.336	598.94
485.554	605.94
485.772	593.94
485.99	600.94
486.209	588.94
486.427	597.94
486.645	607.94
486.863	626.94
487.081	629.94
487.299	648.94
487.517	659.94
487.735	633.94
487.953	630.94
488.171	632.94
488.389	636.94
488.607	601.94
488.825	647.94
489.043	650.94
489.261	625.94
489.479	641.94
489.696	612.94
489.914	647.94
490.132	648.94
490.35	659.94
490.568	638.94
490.786	649.94
491.003	666.94
491.221	666.94
491.439	706.94
491.657	676.94
491.874	674.94
492.092	700.94
492.31	699.94
492.527	680.94
492.745	701.94
492.963	704.94
493.18	735.94
493.398	717.94
493.615	718.94
493.833	715.94
494.05	708.94
494.268	718.94
494.485	714.94
494.703	712.94
494.92	738.94
495.138	731.94
495.355	745.94
495.573	735.94
495.79	749.94
496.008	754.94
496.225	748.94
496.442	773.94
496.66	749.94
496.877	736.94
497.094	764.94
497.312	773.94
497.529	736.94
497.746	777.94
497.963	808.94
498.181	827.94
498.398	836.94
498.615	823.94
498.832	855.94
499.049	828.94
499.267	867.94
499.484	923.94
499.701	961.94
499.918	976.94
500.135	1025.94
500.352	1076.94
500.569	1084.94
500.786	1065.94
501.003	1055.94
501.22	1004.94
501.437	959.94
501.654	968.94
501.871	948.94
502.088	921.94
502.305	894.94
502.522	832.94
502.739	839.94
502.956	820.94
503.172	781.94
503.389	796.94
503.606	761.94
503.823	784.94
504.04	765.94
504.256	763.94
504.473	781.94
504.69	742.94
504.907	754.94
505.123	755.94
505.34	733.94
505.557	717.94
505.773	734.94
505.99	717.94
506.207	720.94
506.423	713.94
506.64	715.94
506.856	692.94
507.073	668.94
507.289	705.94
507.506	666.94
507.722	681.94
507.939	707.94
508.155	672.94
508.372	674.94
508.588	673.94
508.805	678.94
509.021	676.94
509.238	665.94
509.454	683.94
509.67	677.94
509.887	652.94
510.103	673.94
510.319	674.94
510.536	767.94
510.752	1198.94
510.968	1012.94
511.184	683.94
511.401	674.94
511.617	657.94
511.833	652.94
512.049	624.94
512.265	625.94
512.481	618.94
512.698	625.94
512.914	641.94
513.13	648.94
513.346	640.94
513.562	633.94
513.778	653.94
513.994	632.94
514.21	671.94
514.426	673.94
514.642	718.94
514.858	751.94
515.074	770.94
515.29	900.94
515.506	1236.94
515.721	1099.94
515.937	782.94
516.153	729.94
516.369	696.94
516.585	660.94
516.801	657.94
517.016	648.94
517.232	670.94
517.448	652.94
517.664	646.94
517.879	676.94
518.095	683.94
518.311	662.94
518.527	653.94
518.742	649.94
518.958	665.94
519.173	632.94
519.389	644.94
519.605	660.94
519.82	657.94
520.036	655.94
520.251	679.94
520.467	688.94
520.682	706.94
520.898	689.94
521.113	725.94
521.329	784.94
521.544	823.94
521.76	1025.94
521.975	1633.94
522.19	1679.94
522.406	920.94
522.621	730.94
522.836	663.94
523.052	644.94
523.267	629.94
523.482	621.94
523.698	602.94
523.913	608.94
524.128	585.94
524.343	600.94
524.559	581.94
524.774	551.94
524.989	568.94
525.204	561.94
525.419	576.94
525.634	584.94
525.849	560.94
526.064	563.94
526.28	541.94
526.495	531.94
526.71	549.94
526.925	510.94
527.14	543.94
527.355	521.94
527.57	517.94
527.785	523.94
527.999	524.94
528.214	531.94
528.429	527.94
528.644	536.94
528.859	519.94
529.074	526.94
529.289	549.94
529.503	599.94
529.718	596.94
529.933	565.94
530.148	542.94
530.363	544.94
530.577	532.94
530.792	517.94
531.007	519.94
531.221	513.94
531.436	527.94
531.651	538.94
531.865	531.94
532.08	520.94
532.295	522.94
532.509	510.94
532.724	505.94
532.938	529.94
533.153	493.94
533.367	514.94
533.582	505.94
533.796	502.94
534.011	499.94
534.225	513.94
534.44	487.94
534.654	498.94
534.868	501.94
535.083	519.94
535.297	513.94
535.511	497.94
535.726	515.94
535.94	507.94
536.154	507.94
536.369	515.94
536.583	476.94
536.797	488.94
537.011	489.94
537.225	489.94
537.44	467.94
537.654	495.94
537.868	503.94
538.082	492.94
538.296	502.94
538.51	503.94
538.724	482.94
538.938	498.94
539.153	472.94
539.367	492.94
539.581	498.94
539.795	481.94
540.009	483.94
540.222	484.94
540.436	491.94
540.65	481.94
540.864	473.94
541.078	491.94
541.292	492.94
541.506	492.94
541.72	469.94
541.934	485.94
542.147	482.94
542.361	481.94
542.575	481.94
542.789	482.94
543.002	470.94
543.216	485.94
543.43	487.94
543.644	460.94
543.857	470.94
544.071	513.94
544.285	480.94
544.498	475.94
544.712	490.94
544.925	490.94
545.139	471.94
545.352	464.94
545.566	464.94
545.779	476.94
545.993	475.94
546.206	475.94
546.42	464.94
546.633	471.94
546.847	479.94
547.06	481.94
547.274	466.94
547.487	478.94
547.7	468.94
547.914	455.94
548.127	461.94
548.34	475.94
548.554	461.94
548.767	459.94
548.98	469.94
549.193	478.94
549.407	472.94
549.62	476.94
549.833	451.94
550.046	446.94
550.259	436.94
550.473	468.94
550.686	453.94
550.899	471.94
551.112	429.94
551.325	441.94
551.538	477.94
551.751	445.94
551.964	448.94
552.177	462.94
552.39	444.94
552.603	455.94
552.816	446.94
553.029	473.94
553.242	481.94
553.455	467.94
553.667	463.94
553.88	472.94
554.093	465.94
554.306	464.94
554.519	473.94
554.732	456.94
554.944	456.94
555.157	445.94
555.37	468.94
555.583	448.94
555.795	440.94
556.008	416.94
556.221	434.94
556.433	415.94
556.646	439.94
556.859	443.94
557.071	423.94
557.284	425.94
557.496	414.94
557.709	436.94
557.921	438.94
558.134	423.94
558.346	416.94
558.559	403.94
558.771	418.94
558.984	431.94
559.196	423.94
559.409	418.94
559.621	411.94
559.833	417.94
560.046	390.94
560.258	412.94
560.47	418.94
560.683	428.94
560.895	405.94
561.107	418.94
561.32	410.94
561.532	407.94
561.744	394.94
561.956	409.94
562.168	394.94
562.381	410.94
562.593	436.94
562.805	390.94
563.017	403.94
563.229	400.94
563.441	416.94
563.653	403.94
563.865	421.94
564.077	418.94
564.289	417.94
564.501	403.94
564.713	449.94
564.925	432.94
565.137	441.94
565.349	433.94
565.561	437.94
565.773	433.94
565.985	454.94
566.197	461.94
566.408	474.94
566.62	508.94
566.832	503.94
567.044	490.94
567.255	497.94
567.467	510.94
567.679	544.94
567.891	535.94
568.102	519.94
568.314	508.94
568.526	496.94
568.737	465.94
568.949	459.94
569.161	451.94
569.372	436.94
569.584	444.94
569.795	428.94
570.007	432.94
570.218	464.94
570.43	454.94
570.641	402.94
570.853	399.94
571.064	403.94
571.276	410.94
571.487	406.94
571.698	399.94
571.91	378.94
572.121	383.94
572.333	391.94
572.544	374.94
572.755	382.94
572.966	368.94
573.178	373.94
573.389	378.94
573.6	373.94
573.811	360.94
574.023	350.94
574.234	364.94
574.445	352.94
574.656	360.94
574.867	360.94
575.078	353.94
575.289	344.94
575.501	349.94
575.712	373.94
575.923	348.94
576.134	336.94
576.345	361.94
576.556	354.94
576.767	341.94
576.978	346.94
577.188	350.94
577.399	342.94
577.61	344.94
577.821	353.94
578.032	347.94
578.243	383.94
578.454	591.94
578.665	444.94
578.875	354.94
579.086	334.94
579.297	349.94
579.508	347.94
579.718	332.94
579.929	331.94
580.14	329.94
580.35	322.94
580.561	337.94
580.772	328.94
580.982	326.94
581.193	326.94
581.403	329.94
581.614	329.94
581.825	329.94
582.035	318.94
582.246	317.94
582.456	322.94
582.667	336.94
582.877	331.94
583.087	329.94
583.298	322.94
583.508	330.94
583.719	330.94
583.929	309.94
584.139	310.94
584.35	303.94
584.56	309.94
584.77	326.94
584.981	324.94
585.191	306.94
585.401	327.94
585.611	300.94
585.821	305.94
586.032	319.94
586.242	321.94
586.452	326.94
586.662	315.94
586.872	316.94
587.082	299.94
587.292	311.94
587.502	291.94
587.713	320.94
587.923	295.94
588.133	298.94
588.343	304.94
588.553	303.94
588.762	301.94
588.972	309.94
589.182	311.94
589.392	309.94
589.602	323.94
589.812	324.94
590.022	326.94
590.232	301.94
590.441	281.94
590.651	315.94
590.861	310.94
591.071	289.94
591.281	309.94
591.49	313.94
591.7	336.94
591.91	316.94
592.119	315.94
592.329	308.94
592.539	335.94
592.748	334.94
592.958	307.94
593.167	324.94
593.377	331.94
593.587	332.94
593.796	314.94
594.006	330.94
594.215	319.94
594.424	340.94
594.634	332.94
594.843	331.94
595.053	307.94
595.262	323.94
595.472	316.94
595.681	314.94
595.89	303.94
596.1	273.94
596.309	299.94
596.518	295.94
596.727	302.94
596.937	311.94
597.146	285.94
597.355	284.94
597.564	275.94
597.774	283.94
597.983	276.94
598.192	287.94
598.401	301.94
598.61	292.94
598.819	291.94
599.028	289.94
599.237	275.94
599.446	292.94
599.655	279.94
599.864	282.94
600.073	280.94
600.282	274.94
600.491	267.94
600.7	270.94
600.909	269.94
601.118	273.94
601.327	271.94
601.536	280.94
601.745	260.94
601.953	268.94
602.162	268.94
602.371	274.94
602.58	260.94
602.789	261.94
602.997	280.94
603.206	262.94
603.415	250.94
603.623	278.94
603.832	249.94
604.041	273.94
604.249	261.94
604.458	248.94
604.666	245.94
604.875	253.94
605.084	246.94
605.292	251.94
605.501	242.94
605.709	256.94
605.918	269.94
606.126	264.94
606.334	245.94
606.543	265.94
606.751	266.94
606.96	256.94
607.168	246.94
607.376	244.94
607.585	267.94
607.793	251.94
608.001	238.94
608.21	246.94
608.418	268.94
608.626	246.94
608.834	261.94
609.043	239.94
609.251	251.94
609.459	259.94
609.667	254.94
609.875	251.94
610.083	243.94
610.291	261.94
610.499	236.94
610.707	251.94
610.916	245.94
611.124	256.94
611.332	265.94
611.54	264.94
611.748	273.94
611.955	258.94
612.163	252.94
612.371	252.94
612.579	261.94
612.787	253.94
612.995	243.94
613.203	244.94
613.411	260.94
613.618	259.94
613.826	242.94
614.034	250.94
614.242	232.94
614.449	231.94
614.657	244.94
614.865	248.94
615.072	237.94
615.28	247.94
615.488	249.94
615.695	258.94
615.903	250.94
616.111	242.94
616.318	241.94
616.526	244.94
616.733	240.94
616.941	249.94
617.148	242.94
617.356	257.94
617.563	249.94
617.771	229.94
617.978	226.94
618.185	250.94
618.393	223.94
618.6	230.94
618.807	235.94
619.015	260.94
619.222	239.94
619.429	253.94
619.637	228.94
619.844	230.94
620.051	227.94
620.258	226.94
620.466	224.94
620.673	228.94
620.88	241.94
621.087	224.94
621.294	244.94
621.501	238.94
621.708	229.94
621.915	245.94
622.122	224.94
622.329	218.94
622.536	230.94
622.743	234.94
622.95	217.94
623.157	218.94
623.364	222.94
623.571	224.94
623.778	215.94
623.985	236.94
624.192	230.94
624.399	216.94
624.606	218.94
624.812	209.94
625.019	217.94
625.226	210.94
625.433	203.94
625.639	233.94
625.846	208.94
626.053	214.94
626.259	212.94
626.466	203.94
626.673	228.94
626.879	228.94
627.086	202.94
627.293	219.94
627.499	209.94
627.706	218.94
627.912	198.94
628.119	202.94
628.325	208.94
628.532	228.94
628.738	193.94
628.945	213.94
629.151	207.94
629.357	185.94
629.564	203.94
629.77	201.94
629.976	203.94
630.183	201.94
630.389	206.94
630.595	203.94
630.802	194.94
631.008	202.94
631.214	200.94
631.42	197.94
631.627	216.94
631.833	193.94
632.039	216.94
632.245	187.94
632.451	186.94
632.657	196.94
632.863	197.94
633.069	186.94
633.275	207.94
633.481	188.94
633.688	193.94
633.893	194.94
634.099	185.94
634.305	186.94
634.511	187.94
634.717	204.94
634.923	195.94
635.129	184.94
635.335	184.94
635.541	204.94
635.747	187.94
635.952	180.94
636.158	197.94
636.364	187.94
636.57	188.94
636.775	193.94
636.981	175.94
637.187	186.94
637.392	196.94
637.598	180.94
637.804	196.94
638.009	183.94
638.215	204.94
638.421	183.94
638.626	179.94
638.832	170.94
639.037	172.94
639.243	175.94
639.448	187.94
639.654	168.94
639.859	191.94
640.065	176.94
640.27	196.94
640.475	189.94
640.681	182.94
640.886	179.94
641.091	200.94
641.297	164.94
641.502	193.94
641.707	184.94
641.913	182.94
642.118	181.94
642.323	168.94
642.528	173.94
642.733	185.94
642.939	180.94
643.144	179.94
643.349	178.94
643.554	181.94
643.759	185.94
643.964	185.94
644.169	180.94
644.374	159.94
644.579	183.94
644.784	171.94
644.989	173.94
645.194	172.94
645.399	166.94
645.604	162.94
645.809	172.94
646.014	175.94
646.219	189.94
646.423	171.94
646.628	171.94
646.833	172.94
647.038	168.94
647.243	171.94
647.447	179.94
647.652	175.94
647.857	162.94
648.062	164.94
648.266	170.94
648.471	168.94
648.676	173.94
648.88	179.94
649.085	167.94
649.289	169.94
649.494	169.94
649.698	208.94
649.903	187.94
650.107	172.94
650.312	159.94
650.516	161.94
650.721	164.94
650.925	151.94
651.13	156.94
651.334	160.94
651.539	152.94
651.743	172.94
651.947	166.94
652.152	155.94
652.356	159.94
652.56	155.94
652.764	140.94
652.969	140.94
653.173	152.94
653.377	149.94
653.581	150.94
653.785	138.94
653.99	138.94
654.194	143.94
654.398	129.94
654.602	139.94
654.806	156.94
655.01	140.94
655.214	141.94
655.418	153.94
655.622	127.94
655.826	141.94
656.03	119.94
656.234	151.94
656.438	135.94
656.642	137.94
656.846	140.94
657.049	128.94
657.253	133.94
657.457	120.94
657.661	115.94
657.865	108.94
658.068	117.94
658.272	113.94
658.476	104.94
658.68	114.94
658.883	106.94
659.087	109.94
659.291	105.94
659.494	96.94
659.698	96.94
659.901	108.94
660.105	97.94
660.309	115.94
660.512	106.94
660.716	84.94
660.919	100.94
661.123	87.94
661.326	83.94
661.53	88.94
661.733	99.94
661.936	87.94
662.14	83.94
662.343	85.94
662.546	86.94
662.75	95.94
662.953	88.94
663.156	82.94
663.36	103.94
663.563	86.94
663.766	78.94
663.969	73.94
664.173	92.94
664.376	81.94
664.579	87.94
664.782	79.94
664.985	76.94
665.188	74.94
665.391	78.94
665.594	87.94
665.797	77.94
666	80.94
666.203	85.94
666.406	83.94
666.609	69.94
666.812	76.94
667.015	57.94
667.218	82.94
667.421	79.94
667.624	84.94
667.827	96.94
668.03	87.94
668.232	73.94
668.435	101.94
668.638	75.94
668.841	86.94
669.043	85.94
669.246	66.94
669.449	81.94
669.651	83.94
669.854	83.94
670.057	91.94
670.259	85.94
670.462	92.94
670.665	88.94
670.867	84.94
671.07	82.94
671.272	77.94
671.475	84.94
671.677	72.94
671.88	85.94
672.082	77.94
672.284	71.94
672.487	95.94
672.689	80.94
672.892	84.94
