Data from 1988.PennyLincolnUp.Lamp.En5.5.200Scan.071819.P2_HRD10591_17-20-44-972.txt Node
Date: Thu Jul 18 17:20:44 EDT 2019
User: cochatt
Spectrometer: HR+D1059
Trigger mode: 1
Integration Time (sec): 1.000000E-1
Scans to average: 1
Electric dark correction enabled: true
Nonlinearity correction enabled: false
Boxcar width: 0
XAxis mode: Wavelengths
Number of Pixels in Spectrum: 2048
>>>>>Begin Spectral Data<<<<<
223.165	-18.5
223.4	-18.5
223.635	-18.5
223.869	-27.5
224.104	-21.5
224.338	-22.5
224.573	-12.5
224.808	-2.5
225.042	-9.5
225.277	-9.5
225.511	4.5
225.746	10.5
225.98	15.5
226.215	19.5
226.449	5.5
226.683	20.5
226.918	18.5
227.152	29.5
227.387	37.5
227.621	42.5
227.856	35.5
228.09	53.5
228.324	62.5
228.559	49.5
228.793	67.5
229.027	98.5
229.262	90.5
229.496	128.5
229.73	147.5
229.964	173.5
230.199	136.5
230.433	105.5
230.667	115.5
230.901	125.5
231.136	122.5
231.37	104.5
231.604	126.5
231.838	99.5
232.072	115.5
232.306	112.5
232.541	115.5
232.775	122.5
233.009	120.5
233.243	108.5
233.477	123.5
233.711	124.5
233.945	123.5
234.179	111.5
234.413	119.5
234.647	121.5
234.881	122.5
235.115	121.5
235.349	110.5
235.583	119.5
235.817	119.5
236.051	122.5
236.285	141.5
236.519	117.5
236.753	131.5
236.987	146.5
237.221	195.5
237.455	271.5
237.689	197.5
237.922	144.5
238.156	125.5
238.39	142.5
238.624	113.5
238.858	129.5
239.091	134.5
239.325	141.5
239.559	142.5
239.793	142.5
240.027	140.5
240.26	154.5
240.494	164.5
240.728	168.5
240.961	170.5
241.195	152.5
241.429	141.5
241.662	144.5
241.896	133.5
242.13	156.5
242.363	137.5
242.597	143.5
242.83	154.5
243.064	136.5
243.298	139.5
243.531	142.5
243.765	147.5
243.998	155.5
244.232	147.5
244.465	142.5
244.699	149.5
244.932	156.5
245.166	172.5
245.399	165.5
245.633	155.5
245.866	163.5
246.099	152.5
246.333	167.5
246.566	155.5
246.8	156.5
247.033	165.5
247.266	165.5
247.5	178.5
247.733	185.5
247.966	202.5
248.2	186.5
248.433	179.5
248.666	202.5
248.899	209.5
249.133	221.5
249.366	227.5
249.599	216.5
249.832	204.5
250.066	189.5
250.299	194.5
250.532	211.5
250.765	196.5
250.998	235.5
251.231	253.5
251.465	225.5
251.698	228.5
251.931	204.5
252.164	222.5
252.397	199.5
252.63	214.5
252.863	206.5
253.096	243.5
253.329	236.5
253.562	250.5
253.795	225.5
254.028	245.5
254.261	238.5
254.494	251.5
254.727	258.5
254.96	291.5
255.193	286.5
255.426	265.5
255.659	260.5
255.892	251.5
256.124	221.5
256.357	229.5
256.59	225.5
256.823	236.5
257.056	208.5
257.289	213.5
257.521	225.5
257.754	218.5
257.987	226.5
258.22	237.5
258.452	239.5
258.685	222.5
258.918	235.5
259.151	234.5
259.383	235.5
259.616	233.5
259.849	230.5
260.081	250.5
260.314	256.5
260.547	285.5
260.779	261.5
261.012	245.5
261.244	227.5
261.477	262.5
261.71	239.5
261.942	255.5
262.175	254.5
262.407	247.5
262.64	234.5
262.872	237.5
263.105	238.5
263.337	226.5
263.57	227.5
263.802	225.5
264.035	232.5
264.267	235.5
264.499	245.5
264.732	224.5
264.964	225.5
265.197	231.5
265.429	228.5
265.661	233.5
265.894	232.5
266.126	231.5
266.358	232.5
266.591	224.5
266.823	244.5
267.055	246.5
267.287	255.5
267.52	241.5
267.752	264.5
267.984	248.5
268.216	247.5
268.448	227.5
268.681	244.5
268.913	271.5
269.145	283.5
269.377	306.5
269.609	298.5
269.841	295.5
270.073	301.5
270.306	321.5
270.538	363.5
270.77	319.5
271.002	335.5
271.234	305.5
271.466	313.5
271.698	331.5
271.93	337.5
272.162	341.5
272.394	338.5
272.626	344.5
272.858	286.5
273.09	322.5
273.322	313.5
273.553	305.5
273.785	298.5
274.017	299.5
274.249	294.5
274.481	289.5
274.713	299.5
274.945	291.5
275.176	286.5
275.408	276.5
275.64	279.5
275.872	298.5
276.104	287.5
276.335	287.5
276.567	281.5
276.799	322.5
277.031	334.5
277.262	339.5
277.494	349.5
277.726	325.5
277.957	312.5
278.189	312.5
278.421	286.5
278.652	287.5
278.884	291.5
279.115	275.5
279.347	293.5
279.579	293.5
279.81	296.5
280.042	281.5
280.273	296.5
280.505	289.5
280.736	277.5
280.968	287.5
281.199	279.5
281.431	293.5
281.662	285.5
281.894	299.5
282.125	294.5
282.356	322.5
282.588	313.5
282.819	337.5
283.051	314.5
283.282	299.5
283.513	301.5
283.745	294.5
283.976	311.5
284.207	299.5
284.439	301.5
284.67	300.5
284.901	295.5
285.132	309.5
285.364	305.5
285.595	310.5
285.826	310.5
286.057	298.5
286.288	292.5
286.52	307.5
286.751	301.5
286.982	324.5
287.213	314.5
287.444	303.5
287.675	315.5
287.906	318.5
288.138	316.5
288.369	331.5
288.6	323.5
288.831	313.5
289.062	289.5
289.293	322.5
289.524	311.5
289.755	325.5
289.986	310.5
290.217	310.5
290.448	292.5
290.679	307.5
290.91	319.5
291.141	305.5
291.371	303.5
291.602	313.5
291.833	308.5
292.064	332.5
292.295	321.5
292.526	310.5
292.757	315.5
292.987	301.5
293.218	297.5
293.449	325.5
293.68	317.5
293.91	326.5
294.141	327.5
294.372	322.5
294.603	321.5
294.833	294.5
295.064	308.5
295.295	323.5
295.525	321.5
295.756	316.5
295.987	342.5
296.217	352.5
296.448	367.5
296.679	355.5
296.909	324.5
297.14	334.5
297.37	347.5
297.601	329.5
297.831	348.5
298.062	328.5
298.292	338.5
298.523	342.5
298.753	332.5
298.984	343.5
299.214	339.5
299.445	341.5
299.675	340.5
299.905	344.5
300.136	348.5
300.366	341.5
300.597	340.5
300.827	356.5
301.057	357.5
301.288	369.5
301.518	348.5
301.748	350.5
301.979	355.5
302.209	370.5
302.439	349.5
302.669	346.5
302.9	346.5
303.13	365.5
303.36	363.5
303.59	379.5
303.82	379.5
304.051	365.5
304.281	367.5
304.511	354.5
304.741	351.5
304.971	360.5
305.201	367.5
305.431	370.5
305.661	343.5
305.891	357.5
306.121	357.5
306.352	369.5
306.582	371.5
306.812	378.5
307.042	358.5
307.272	363.5
307.502	371.5
307.731	363.5
307.961	373.5
308.191	357.5
308.421	379.5
308.651	381.5
308.881	388.5
309.111	378.5
309.341	381.5
309.571	394.5
309.8	395.5
310.03	411.5
310.26	429.5
310.49	430.5
310.72	414.5
310.949	435.5
311.179	443.5
311.409	407.5
311.639	401.5
311.868	430.5
312.098	437.5
312.328	436.5
312.557	433.5
312.787	467.5
313.017	445.5
313.246	418.5
313.476	403.5
313.706	417.5
313.935	406.5
314.165	435.5
314.394	450.5
314.624	431.5
314.853	437.5
315.083	433.5
315.312	439.5
315.542	414.5
315.771	408.5
316.001	439.5
316.23	435.5
316.46	406.5
316.689	413.5
316.919	421.5
317.148	438.5
317.377	453.5
317.607	425.5
317.836	426.5
318.065	435.5
318.295	412.5
318.524	417.5
318.753	441.5
318.983	427.5
319.212	402.5
319.441	452.5
319.67	443.5
319.9	423.5
320.129	415.5
320.358	444.5
320.587	449.5
320.816	436.5
321.046	442.5
321.275	449.5
321.504	448.5
321.733	454.5
321.962	452.5
322.191	476.5
322.42	501.5
322.649	479.5
322.878	493.5
323.108	517.5
323.337	549.5
323.566	581.5
323.795	586.5
324.024	653.5
324.253	787.5
324.482	1132.5
324.71	1797.5
324.939	2661.5
325.168	2295.5
325.397	1149.5
325.626	764.5
325.855	629.5
326.084	625.5
326.313	585.5
326.542	593.5
326.77	632.5
326.999	721.5
327.228	1012.5
327.457	1597.5
327.686	2004.5
327.914	1305.5
328.143	803.5
328.372	695.5
328.6	670.5
328.829	615.5
329.058	667.5
329.287	694.5
329.515	622.5
329.744	586.5
329.972	566.5
330.201	569.5
330.43	605.5
330.658	627.5
330.887	683.5
331.115	679.5
331.344	567.5
331.572	573.5
331.801	548.5
332.03	557.5
332.258	533.5
332.486	540.5
332.715	520.5
332.943	522.5
333.172	503.5
333.4	520.5
333.629	521.5
333.857	515.5
334.085	521.5
334.314	522.5
334.542	515.5
334.771	558.5
334.999	536.5
335.227	521.5
335.455	531.5
335.684	488.5
335.912	505.5
336.14	489.5
336.369	526.5
336.597	504.5
336.825	520.5
337.053	526.5
337.281	484.5
337.51	499.5
337.738	490.5
337.966	491.5
338.194	493.5
338.422	518.5
338.65	494.5
338.878	479.5
339.106	509.5
339.334	495.5
339.562	489.5
339.79	485.5
340.018	501.5
340.246	499.5
340.474	518.5
340.702	498.5
340.93	468.5
341.158	482.5
341.386	469.5
341.614	536.5
341.842	503.5
342.07	480.5
342.298	478.5
342.526	471.5
342.754	466.5
342.981	467.5
343.209	458.5
343.437	478.5
343.665	478.5
343.893	502.5
344.12	489.5
344.348	510.5
344.576	514.5
344.804	516.5
345.031	504.5
345.259	526.5
345.487	518.5
345.714	506.5
345.942	492.5
346.17	493.5
346.397	485.5
346.625	512.5
346.853	492.5
347.08	462.5
347.308	504.5
347.535	483.5
347.763	479.5
347.99	487.5
348.218	482.5
348.445	503.5
348.673	479.5
348.9	501.5
349.128	478.5
349.355	481.5
349.583	470.5
349.81	476.5
350.037	448.5
350.265	461.5
350.492	454.5
350.72	467.5
350.947	479.5
351.174	479.5
351.402	499.5
351.629	501.5
351.856	500.5
352.083	493.5
352.311	488.5
352.538	485.5
352.765	485.5
352.992	481.5
353.22	474.5
353.447	467.5
353.674	463.5
353.901	469.5
354.128	449.5
354.355	445.5
354.583	434.5
354.81	466.5
355.037	447.5
355.264	445.5
355.491	441.5
355.718	423.5
355.945	443.5
356.172	431.5
356.399	441.5
356.626	425.5
356.853	448.5
357.08	450.5
357.307	431.5
357.534	444.5
357.761	449.5
357.988	424.5
358.215	439.5
358.441	455.5
358.668	441.5
358.895	469.5
359.122	467.5
359.349	471.5
359.576	470.5
359.802	503.5
360.029	530.5
360.256	558.5
360.483	519.5
360.709	493.5
360.936	489.5
361.163	482.5
361.39	479.5
361.616	485.5
361.843	464.5
362.07	482.5
362.296	481.5
362.523	476.5
362.749	489.5
362.976	452.5
363.203	487.5
363.429	463.5
363.656	482.5
363.882	465.5
364.109	456.5
364.335	442.5
364.562	461.5
364.788	477.5
365.015	439.5
365.241	466.5
365.468	439.5
365.694	475.5
365.92	469.5
366.147	467.5
366.373	453.5
366.599	475.5
366.826	462.5
367.052	443.5
367.278	459.5
367.505	461.5
367.731	463.5
367.957	471.5
368.184	446.5
368.41	470.5
368.636	483.5
368.862	466.5
369.089	459.5
369.315	459.5
369.541	455.5
369.767	461.5
369.993	439.5
370.219	471.5
370.445	439.5
370.672	449.5
370.898	463.5
371.124	457.5
371.35	481.5
371.576	457.5
371.802	452.5
372.028	473.5
372.254	473.5
372.48	467.5
372.706	461.5
372.932	472.5
373.158	445.5
373.384	448.5
373.61	464.5
373.835	464.5
374.061	447.5
374.287	461.5
374.513	484.5
374.739	468.5
374.965	487.5
375.191	465.5
375.416	468.5
375.642	484.5
375.868	475.5
376.094	462.5
376.319	464.5
376.545	469.5
376.771	449.5
376.997	455.5
377.222	448.5
377.448	461.5
377.674	470.5
377.899	447.5
378.125	467.5
378.35	463.5
378.576	448.5
378.802	453.5
379.027	451.5
379.253	449.5
379.478	454.5
379.704	455.5
379.929	450.5
380.155	462.5
380.38	476.5
380.606	482.5
380.831	449.5
381.057	465.5
381.282	470.5
381.507	463.5
381.733	488.5
381.958	476.5
382.184	462.5
382.409	483.5
382.634	498.5
382.86	494.5
383.085	460.5
383.31	466.5
383.535	464.5
383.761	490.5
383.986	484.5
384.211	475.5
384.436	486.5
384.662	482.5
384.887	533.5
385.112	497.5
385.337	492.5
385.562	514.5
385.787	507.5
386.013	515.5
386.238	513.5
386.463	515.5
386.688	513.5
386.913	506.5
387.138	516.5
387.363	493.5
387.588	517.5
387.813	522.5
388.038	521.5
388.263	516.5
388.488	529.5
388.713	526.5
388.938	517.5
389.163	529.5
389.387	527.5
389.612	521.5
389.837	519.5
390.062	519.5
390.287	527.5
390.512	508.5
390.736	509.5
390.961	495.5
391.186	501.5
391.411	515.5
391.636	514.5
391.86	532.5
392.085	530.5
392.31	513.5
392.534	509.5
392.759	520.5
392.984	539.5
393.208	504.5
393.433	528.5
393.658	545.5
393.882	526.5
394.107	516.5
394.331	519.5
394.556	534.5
394.78	518.5
395.005	505.5
395.229	531.5
395.454	531.5
395.678	551.5
395.903	576.5
396.127	580.5
396.352	590.5
396.576	532.5
396.801	520.5
397.025	535.5
397.249	549.5
397.474	542.5
397.698	549.5
397.922	571.5
398.147	595.5
398.371	610.5
398.595	586.5
398.82	601.5
399.044	600.5
399.268	625.5
399.492	656.5
399.717	652.5
399.941	676.5
400.165	735.5
400.389	745.5
400.613	676.5
400.837	646.5
401.062	620.5
401.286	617.5
401.51	605.5
401.734	588.5
401.958	581.5
402.182	619.5
402.406	620.5
402.63	600.5
402.854	612.5
403.078	601.5
403.302	620.5
403.526	614.5
403.75	617.5
403.974	605.5
404.198	605.5
404.422	645.5
404.645	635.5
404.869	619.5
405.093	669.5
405.317	673.5
405.541	704.5
405.765	673.5
405.988	662.5
406.212	671.5
406.436	670.5
406.66	707.5
406.883	682.5
407.107	721.5
407.331	771.5
407.555	832.5
407.778	812.5
408.002	767.5
408.226	706.5
408.449	690.5
408.673	686.5
408.896	761.5
409.12	753.5
409.344	722.5
409.567	678.5
409.791	639.5
410.014	641.5
410.238	627.5
410.461	640.5
410.685	605.5
410.908	646.5
411.132	683.5
411.355	746.5
411.578	689.5
411.802	643.5
412.025	600.5
412.249	609.5
412.472	631.5
412.695	653.5
412.919	642.5
413.142	615.5
413.365	601.5
413.589	619.5
413.812	603.5
414.035	588.5
414.258	596.5
414.482	578.5
414.705	580.5
414.928	599.5
415.151	603.5
415.374	581.5
415.597	584.5
415.821	573.5
416.044	579.5
416.267	588.5
416.49	568.5
416.713	592.5
416.936	588.5
417.159	569.5
417.382	590.5
417.605	569.5
417.828	603.5
418.051	610.5
418.274	611.5
418.497	589.5
418.72	607.5
418.943	591.5
419.166	617.5
419.389	621.5
419.611	618.5
419.834	606.5
420.057	622.5
420.28	604.5
420.503	618.5
420.726	616.5
420.948	627.5
421.171	663.5
421.394	709.5
421.617	654.5
421.839	619.5
422.062	623.5
422.285	659.5
422.507	709.5
422.73	809.5
422.953	765.5
423.175	653.5
423.398	631.5
423.621	646.5
423.843	640.5
424.066	647.5
424.288	677.5
424.511	691.5
424.733	761.5
424.956	838.5
425.178	825.5
425.401	823.5
425.623	843.5
425.846	714.5
426.068	674.5
426.291	663.5
426.513	652.5
426.735	681.5
426.958	711.5
427.18	835.5
427.402	991.5
427.625	1127.5
427.847	919.5
428.069	792.5
428.292	725.5
428.514	668.5
428.736	635.5
428.958	635.5
429.181	634.5
429.403	605.5
429.625	643.5
429.847	648.5
430.069	734.5
430.292	693.5
430.514	621.5
430.736	632.5
430.958	597.5
431.18	583.5
431.402	577.5
431.624	593.5
431.846	566.5
432.068	582.5
432.29	563.5
432.512	579.5
432.734	583.5
432.956	586.5
433.178	598.5
433.4	615.5
433.622	595.5
433.844	565.5
434.066	585.5
434.287	596.5
434.509	588.5
434.731	591.5
434.953	598.5
435.175	645.5
435.397	641.5
435.618	643.5
435.84	722.5
436.062	810.5
436.284	921.5
436.505	731.5
436.727	691.5
436.949	656.5
437.17	615.5
437.392	643.5
437.614	641.5
437.835	655.5
438.057	783.5
438.278	916.5
438.5	939.5
438.721	1005.5
438.943	926.5
439.165	748.5
439.386	701.5
439.608	676.5
439.829	660.5
440.05	699.5
440.272	753.5
440.493	732.5
440.715	656.5
440.936	650.5
441.158	637.5
441.379	631.5
441.6	633.5
441.822	665.5
442.043	702.5
442.264	813.5
442.486	871.5
442.707	730.5
442.928	674.5
443.149	702.5
443.371	703.5
443.592	778.5
443.813	880.5
444.034	968.5
444.255	805.5
444.476	685.5
444.698	684.5
444.919	684.5
445.14	811.5
445.361	739.5
445.582	729.5
445.803	812.5
446.024	918.5
446.245	930.5
446.466	848.5
446.687	706.5
446.908	677.5
447.129	637.5
447.35	629.5
447.571	631.5
447.792	613.5
448.013	625.5
448.234	643.5
448.455	698.5
448.675	819.5
448.896	967.5
449.117	821.5
449.338	761.5
449.559	897.5
449.779	1036.5
450	807.5
450.221	687.5
450.442	651.5
450.662	591.5
450.883	606.5
451.104	629.5
451.324	630.5
451.545	577.5
451.766	556.5
451.986	534.5
452.207	557.5
452.428	545.5
452.648	556.5
452.869	544.5
453.089	585.5
453.31	567.5
453.53	565.5
453.751	533.5
453.971	535.5
454.192	571.5
454.412	555.5
454.633	531.5
454.853	534.5
455.073	548.5
455.294	573.5
455.514	641.5
455.734	645.5
455.955	572.5
456.175	545.5
456.395	519.5
456.616	504.5
456.836	515.5
457.056	552.5
457.276	510.5
457.497	539.5
457.717	520.5
457.937	539.5
458.157	533.5
458.377	521.5
458.598	594.5
458.818	641.5
459.038	726.5
459.258	736.5
459.478	638.5
459.698	609.5
459.918	569.5
460.138	598.5
460.358	592.5
460.578	596.5
460.798	599.5
461.018	613.5
461.238	603.5
461.458	591.5
461.678	598.5
461.898	594.5
462.118	622.5
462.338	620.5
462.558	630.5
462.777	606.5
462.997	650.5
463.217	657.5
463.437	662.5
463.657	627.5
463.876	638.5
464.096	637.5
464.316	648.5
464.536	652.5
464.755	643.5
464.975	647.5
465.195	710.5
465.414	783.5
465.634	694.5
465.854	646.5
466.073	614.5
466.293	596.5
466.512	576.5
466.732	573.5
466.951	589.5
467.171	562.5
467.391	590.5
467.61	598.5
467.829	606.5
468.049	584.5
468.268	581.5
468.488	560.5
468.707	548.5
468.927	571.5
469.146	553.5
469.365	548.5
469.585	553.5
469.804	535.5
470.023	583.5
470.243	596.5
470.462	580.5
470.681	603.5
470.901	589.5
471.12	579.5
471.339	569.5
471.558	549.5
471.777	571.5
471.997	553.5
472.216	585.5
472.435	595.5
472.654	575.5
472.873	561.5
473.092	574.5
473.311	566.5
473.53	601.5
473.749	579.5
473.968	619.5
474.187	740.5
474.406	751.5
474.625	641.5
474.844	599.5
475.063	587.5
475.282	558.5
475.501	569.5
475.72	587.5
475.939	595.5
476.158	595.5
476.377	601.5
476.596	573.5
476.814	611.5
477.033	597.5
477.252	601.5
477.471	625.5
477.69	617.5
477.908	618.5
478.127	631.5
478.346	634.5
478.564	647.5
478.783	634.5
479.002	635.5
479.22	646.5
479.439	659.5
479.658	682.5
479.876	686.5
480.095	714.5
480.313	719.5
480.532	715.5
480.751	703.5
480.969	691.5
481.188	713.5
481.406	743.5
481.624	709.5
481.843	693.5
482.061	696.5
482.28	682.5
482.498	672.5
482.717	683.5
482.935	686.5
483.153	692.5
483.372	645.5
483.59	667.5
483.808	665.5
484.027	650.5
484.245	682.5
484.463	686.5
484.681	686.5
484.9	699.5
485.118	685.5
485.336	689.5
485.554	691.5
485.772	718.5
485.99	667.5
486.209	710.5
486.427	731.5
486.645	697.5
486.863	728.5
487.081	719.5
487.299	743.5
487.517	738.5
487.735	712.5
487.953	714.5
488.171	733.5
488.389	718.5
488.607	739.5
488.825	744.5
489.043	723.5
489.261	730.5
489.479	730.5
489.696	712.5
489.914	725.5
490.132	750.5
490.35	770.5
490.568	766.5
490.786	785.5
491.003	793.5
491.221	805.5
491.439	793.5
491.657	821.5
491.874	821.5
492.092	829.5
492.31	825.5
492.527	822.5
492.745	861.5
492.963	863.5
493.18	833.5
493.398	825.5
493.615	823.5
493.833	844.5
494.05	841.5
494.268	857.5
494.485	854.5
494.703	833.5
494.92	844.5
495.138	839.5
495.355	831.5
495.573	858.5
495.79	838.5
496.008	859.5
496.225	868.5
496.442	885.5
496.66	860.5
496.877	887.5
497.094	867.5
497.312	888.5
497.529	897.5
497.746	918.5
497.963	902.5
498.181	960.5
498.398	943.5
498.615	965.5
498.832	1010.5
499.049	992.5
499.267	1020.5
499.484	1052.5
499.701	1090.5
499.918	1111.5
500.135	1179.5
500.352	1222.5
500.569	1198.5
500.786	1226.5
501.003	1218.5
501.22	1198.5
501.437	1164.5
501.654	1129.5
501.871	1089.5
502.088	1072.5
502.305	1032.5
502.522	987.5
502.739	979.5
502.956	956.5
503.172	964.5
503.389	920.5
503.606	934.5
503.823	904.5
504.04	886.5
504.256	898.5
504.473	896.5
504.69	874.5
504.907	862.5
505.123	854.5
505.34	845.5
505.557	825.5
505.773	844.5
505.99	857.5
506.207	833.5
506.423	850.5
506.64	836.5
506.856	835.5
507.073	824.5
507.289	845.5
507.506	789.5
507.722	819.5
507.939	824.5
508.155	792.5
508.372	792.5
508.588	766.5
508.805	774.5
509.021	791.5
509.238	813.5
509.454	796.5
509.67	796.5
509.887	786.5
510.103	782.5
510.319	781.5
510.536	858.5
510.752	1435.5
510.968	1207.5
511.184	826.5
511.401	775.5
511.617	760.5
511.833	774.5
512.049	729.5
512.265	750.5
512.481	746.5
512.698	734.5
512.914	726.5
513.13	741.5
513.346	732.5
513.562	715.5
513.778	769.5
513.994	764.5
514.21	775.5
514.426	791.5
514.642	865.5
514.858	861.5
515.074	886.5
515.29	1041.5
515.506	1491.5
515.721	1268.5
515.937	930.5
516.153	846.5
516.369	781.5
516.585	803.5
516.801	787.5
517.016	821.5
517.232	803.5
517.448	788.5
517.664	756.5
517.879	791.5
518.095	791.5
518.311	795.5
518.527	791.5
518.742	765.5
518.958	802.5
519.173	770.5
519.389	751.5
519.605	739.5
519.82	741.5
520.036	781.5
520.251	798.5
520.467	827.5
520.682	825.5
520.898	828.5
521.113	835.5
521.329	909.5
521.544	994.5
521.76	1250.5
521.975	1986.5
522.19	1954.5
522.406	1100.5
522.621	865.5
522.836	808.5
523.052	779.5
523.267	737.5
523.482	705.5
523.698	692.5
523.913	696.5
524.128	713.5
524.343	665.5
524.559	695.5
524.774	658.5
524.989	645.5
525.204	653.5
525.419	689.5
525.634	675.5
525.849	647.5
526.064	642.5
526.28	650.5
526.495	612.5
526.71	639.5
526.925	632.5
527.14	615.5
527.355	630.5
527.57	611.5
527.785	625.5
527.999	631.5
528.214	622.5
528.429	604.5
528.644	623.5
528.859	644.5
529.074	605.5
529.289	647.5
529.503	711.5
529.718	725.5
529.933	647.5
530.148	659.5
530.363	625.5
530.577	613.5
530.792	597.5
531.007	599.5
531.221	627.5
531.436	593.5
531.651	589.5
531.865	598.5
532.08	585.5
532.295	600.5
532.509	594.5
532.724	587.5
532.938	586.5
533.153	583.5
533.367	591.5
533.582	584.5
533.796	580.5
534.011	571.5
534.225	566.5
534.44	559.5
534.654	602.5
534.868	583.5
535.083	580.5
535.297	565.5
535.511	567.5
535.726	591.5
535.94	587.5
536.154	585.5
536.369	572.5
536.583	579.5
536.797	591.5
537.011	579.5
537.225	595.5
537.44	576.5
537.654	562.5
537.868	551.5
538.082	541.5
538.296	539.5
538.51	550.5
538.724	562.5
538.938	548.5
539.153	572.5
539.367	578.5
539.581	557.5
539.795	565.5
540.009	565.5
540.222	544.5
540.436	545.5
540.65	536.5
540.864	568.5
541.078	568.5
541.292	557.5
541.506	561.5
541.72	551.5
541.934	568.5
542.147	538.5
542.361	581.5
542.575	554.5
542.789	533.5
543.002	542.5
543.216	557.5
543.43	574.5
543.644	565.5
543.857	578.5
544.071	571.5
544.285	555.5
544.498	535.5
544.712	549.5
544.925	538.5
545.139	545.5
545.352	557.5
545.566	558.5
545.779	550.5
545.993	539.5
546.206	551.5
546.42	531.5
546.633	538.5
546.847	541.5
547.06	538.5
547.274	543.5
547.487	545.5
547.7	518.5
547.914	548.5
548.127	509.5
548.34	528.5
548.554	531.5
548.767	515.5
548.98	547.5
549.193	548.5
549.407	531.5
549.62	546.5
549.833	545.5
550.046	523.5
550.259	514.5
550.473	515.5
550.686	519.5
550.899	513.5
551.112	517.5
551.325	532.5
551.538	502.5
551.751	531.5
551.964	527.5
552.177	525.5
552.39	509.5
552.603	530.5
552.816	546.5
553.029	520.5
553.242	543.5
553.455	520.5
553.667	561.5
553.88	547.5
554.093	546.5
554.306	552.5
554.519	527.5
554.732	522.5
554.944	518.5
555.157	498.5
555.37	515.5
555.583	491.5
555.795	508.5
556.008	494.5
556.221	510.5
556.433	490.5
556.646	453.5
556.859	467.5
557.071	497.5
557.284	481.5
557.496	474.5
557.709	493.5
557.921	474.5
558.134	485.5
558.346	466.5
558.559	467.5
558.771	473.5
558.984	470.5
559.196	475.5
559.409	469.5
559.621	477.5
559.833	461.5
560.046	472.5
560.258	467.5
560.47	469.5
560.683	464.5
560.895	485.5
561.107	467.5
561.32	485.5
561.532	452.5
561.744	455.5
561.956	471.5
562.168	474.5
562.381	467.5
562.593	469.5
562.805	470.5
563.017	492.5
563.229	474.5
563.441	467.5
563.653	456.5
563.865	463.5
564.077	465.5
564.289	497.5
564.501	480.5
564.713	506.5
564.925	503.5
565.137	504.5
565.349	516.5
565.561	504.5
565.773	527.5
565.985	533.5
566.197	543.5
566.408	557.5
566.62	557.5
566.832	563.5
567.044	592.5
567.255	589.5
567.467	599.5
567.679	592.5
567.891	590.5
568.102	600.5
568.314	581.5
568.526	568.5
568.737	582.5
568.949	524.5
569.161	512.5
569.372	494.5
569.584	478.5
569.795	495.5
570.007	471.5
570.218	501.5
570.43	524.5
570.641	501.5
570.853	463.5
571.064	458.5
571.276	454.5
571.487	453.5
571.698	439.5
571.91	426.5
572.121	445.5
572.333	431.5
572.544	434.5
572.755	415.5
572.966	407.5
573.178	433.5
573.389	412.5
573.6	396.5
573.811	422.5
574.023	440.5
574.234	398.5
574.445	412.5
574.656	406.5
574.867	407.5
575.078	409.5
575.289	402.5
575.501	386.5
575.712	404.5
575.923	399.5
576.134	416.5
576.345	387.5
576.556	397.5
576.767	397.5
576.978	409.5
577.188	396.5
577.399	386.5
577.61	397.5
577.821	389.5
578.032	388.5
578.243	418.5
578.454	663.5
578.665	524.5
578.875	412.5
579.086	385.5
579.297	387.5
579.508	396.5
579.718	385.5
579.929	351.5
580.14	367.5
580.35	356.5
580.561	377.5
580.772	390.5
580.982	364.5
581.193	360.5
581.403	375.5
581.614	377.5
581.825	363.5
582.035	362.5
582.246	365.5
582.456	357.5
582.667	370.5
582.877	350.5
583.087	354.5
583.298	386.5
583.508	360.5
583.719	351.5
583.929	375.5
584.139	359.5
584.35	347.5
584.56	353.5
584.77	374.5
584.981	360.5
585.191	369.5
585.401	350.5
585.611	367.5
585.821	379.5
586.032	372.5
586.242	337.5
586.452	349.5
586.662	345.5
586.872	348.5
587.082	346.5
587.292	353.5
587.502	347.5
587.713	363.5
587.923	361.5
588.133	352.5
588.343	344.5
588.553	343.5
588.762	349.5
588.972	357.5
589.182	370.5
589.392	370.5
589.602	364.5
589.812	348.5
590.022	345.5
590.232	369.5
590.441	339.5
590.651	357.5
590.861	362.5
591.071	359.5
591.281	352.5
591.49	348.5
591.7	351.5
591.91	346.5
592.119	364.5
592.329	346.5
592.539	370.5
592.748	375.5
592.958	360.5
593.167	383.5
593.377	377.5
593.587	376.5
593.796	370.5
594.006	363.5
594.215	365.5
594.424	353.5
594.634	378.5
594.843	371.5
595.053	354.5
595.262	355.5
595.472	367.5
595.681	363.5
595.89	365.5
596.1	343.5
596.309	326.5
596.518	316.5
596.727	312.5
596.937	330.5
597.146	318.5
597.355	333.5
597.564	327.5
597.774	320.5
597.983	304.5
598.192	319.5
598.401	319.5
598.61	326.5
598.819	307.5
599.028	318.5
599.237	315.5
599.446	315.5
599.655	298.5
599.864	309.5
600.073	301.5
600.282	297.5
600.491	313.5
600.7	302.5
600.909	316.5
601.118	301.5
601.327	302.5
601.536	296.5
601.745	283.5
601.953	308.5
602.162	315.5
602.371	301.5
602.58	289.5
602.789	286.5
602.997	305.5
603.206	296.5
603.415	295.5
603.623	295.5
603.832	287.5
604.041	298.5
604.249	309.5
604.458	277.5
604.666	306.5
604.875	283.5
605.084	295.5
605.292	303.5
605.501	294.5
605.709	282.5
605.918	290.5
606.126	290.5
606.334	293.5
606.543	267.5
606.751	280.5
606.96	289.5
607.168	292.5
607.376	267.5
607.585	293.5
607.793	280.5
608.001	294.5
608.21	309.5
608.418	298.5
608.626	283.5
608.834	268.5
609.043	297.5
609.251	271.5
609.459	284.5
609.667	298.5
609.875	267.5
610.083	290.5
610.291	282.5
610.499	282.5
610.707	279.5
610.916	282.5
611.124	281.5
611.332	301.5
611.54	289.5
611.748	281.5
611.955	283.5
612.163	275.5
612.371	271.5
612.579	273.5
612.787	283.5
612.995	280.5
613.203	283.5
613.411	287.5
613.618	267.5
613.826	259.5
614.034	301.5
614.242	269.5
614.449	265.5
614.657	268.5
614.865	283.5
615.072	268.5
615.28	289.5
615.488	261.5
615.695	262.5
615.903	252.5
616.111	269.5
616.318	270.5
616.526	269.5
616.733	276.5
616.941	279.5
617.148	275.5
617.356	267.5
617.563	259.5
617.771	272.5
617.978	267.5
618.185	255.5
618.393	265.5
618.6	259.5
618.807	260.5
619.015	252.5
619.222	254.5
619.429	261.5
619.637	268.5
619.844	267.5
620.051	258.5
620.258	245.5
620.466	241.5
620.673	257.5
620.88	263.5
621.087	259.5
621.294	245.5
621.501	259.5
621.708	268.5
621.915	259.5
622.122	241.5
622.329	261.5
622.536	257.5
622.743	256.5
622.95	261.5
623.157	263.5
623.364	237.5
623.571	249.5
623.778	265.5
623.985	241.5
624.192	245.5
624.399	244.5
624.606	254.5
624.812	230.5
625.019	239.5
625.226	231.5
625.433	239.5
625.639	237.5
625.846	220.5
626.053	229.5
626.259	245.5
626.466	246.5
626.673	251.5
626.879	242.5
627.086	241.5
627.293	227.5
627.499	231.5
627.706	234.5
627.912	246.5
628.119	254.5
628.325	244.5
628.532	245.5
628.738	234.5
628.945	224.5
629.151	225.5
629.357	226.5
629.564	207.5
629.77	214.5
629.976	226.5
630.183	215.5
630.389	222.5
630.595	225.5
630.802	220.5
631.008	219.5
631.214	213.5
631.42	227.5
631.627	238.5
631.833	235.5
632.039	228.5
632.245	214.5
632.451	221.5
632.657	251.5
632.863	218.5
633.069	206.5
633.275	206.5
633.481	195.5
633.688	206.5
633.893	226.5
634.099	211.5
634.305	221.5
634.511	190.5
634.717	199.5
634.923	195.5
635.129	213.5
635.335	213.5
635.541	201.5
635.747	194.5
635.952	207.5
636.158	201.5
636.364	205.5
636.57	205.5
636.775	217.5
636.981	214.5
637.187	194.5
637.392	217.5
637.598	204.5
637.804	212.5
638.009	204.5
638.215	209.5
638.421	197.5
638.626	218.5
638.832	205.5
639.037	190.5
639.243	189.5
639.448	203.5
639.654	216.5
639.859	183.5
640.065	169.5
640.27	185.5
640.475	194.5
640.681	186.5
640.886	201.5
641.091	189.5
641.297	201.5
641.502	197.5
641.707	188.5
641.913	189.5
642.118	197.5
642.323	193.5
642.528	190.5
642.733	205.5
642.939	191.5
643.144	183.5
643.349	193.5
643.554	183.5
643.759	182.5
643.964	183.5
644.169	194.5
644.374	194.5
644.579	203.5
644.784	190.5
644.989	170.5
645.194	196.5
645.399	193.5
645.604	172.5
645.809	191.5
646.014	183.5
646.219	189.5
646.423	196.5
646.628	188.5
646.833	175.5
647.038	197.5
647.243	181.5
647.447	190.5
647.652	196.5
647.857	171.5
648.062	187.5
648.266	183.5
648.471	185.5
648.676	209.5
648.88	194.5
649.085	190.5
649.289	173.5
649.494	191.5
649.698	208.5
649.903	211.5
650.107	199.5
650.312	203.5
650.516	166.5
650.721	173.5
650.925	168.5
651.13	175.5
651.334	159.5
651.539	161.5
651.743	157.5
651.947	168.5
652.152	163.5
652.356	155.5
652.56	152.5
652.764	162.5
652.969	156.5
653.173	149.5
653.377	147.5
653.581	154.5
653.785	151.5
653.99	164.5
654.194	149.5
654.398	147.5
654.602	142.5
654.806	149.5
655.01	153.5
655.214	141.5
655.418	147.5
655.622	158.5
655.826	147.5
656.03	133.5
656.234	142.5
656.438	153.5
656.642	142.5
656.846	141.5
657.049	139.5
657.253	144.5
657.457	137.5
657.661	126.5
657.865	123.5
658.068	125.5
658.272	117.5
658.476	109.5
658.68	116.5
658.883	83.5
659.087	118.5
659.291	115.5
659.494	98.5
659.698	108.5
659.901	110.5
660.105	94.5
660.309	104.5
660.512	97.5
660.716	88.5
660.919	101.5
661.123	104.5
661.326	99.5
661.53	91.5
661.733	93.5
661.936	101.5
662.14	88.5
662.343	83.5
662.546	93.5
662.75	77.5
662.953	90.5
663.156	91.5
663.36	78.5
663.563	85.5
663.766	87.5
663.969	90.5
664.173	73.5
664.376	86.5
664.579	96.5
664.782	92.5
664.985	102.5
665.188	85.5
665.391	88.5
665.594	89.5
665.797	99.5
666	71.5
666.203	88.5
666.406	56.5
666.609	75.5
666.812	93.5
667.015	93.5
667.218	72.5
667.421	83.5
667.624	73.5
667.827	79.5
668.03	89.5
668.232	81.5
668.435	82.5
668.638	61.5
668.841	86.5
669.043	83.5
669.246	79.5
669.449	82.5
669.651	82.5
669.854	83.5
670.057	96.5
670.259	89.5
670.462	85.5
670.665	83.5
670.867	64.5
671.07	68.5
671.272	88.5
671.475	93.5
671.677	78.5
671.88	76.5
672.082	65.5
672.284	91.5
672.487	99.5
672.689	77.5
672.892	71.5
