Data from 1988.PennyLincolnUp.Lamp.En5.5.200Scan.071819.P2_HRD10591_17-20-00-972.txt Node
Date: Thu Jul 18 17:20:00 EDT 2019
User: cochatt
Spectrometer: HR+D1059
Trigger mode: 1
Integration Time (sec): 1.000000E-1
Scans to average: 1
Electric dark correction enabled: true
Nonlinearity correction enabled: false
Boxcar width: 0
XAxis mode: Wavelengths
Number of Pixels in Spectrum: 2048
>>>>>Begin Spectral Data<<<<<
223.165	-7.94
223.4	-7.94
223.635	-7.94
223.869	-8.94
224.104	-25.94
224.338	-16.94
224.573	-11.94
224.808	-7.94
225.042	-10.94
225.277	-11.94
225.511	7.06
225.746	1.06
225.98	4.06
226.215	11.06
226.449	13.06
226.683	23.06
226.918	27.06
227.152	16.06
227.387	30.06
227.621	43.06
227.856	37.06
228.09	48.06
228.324	47.06
228.559	41.06
228.793	67.06
229.027	111.06
229.262	108.06
229.496	119.06
229.73	135.06
229.964	171.06
230.199	129.06
230.433	116.06
230.667	113.06
230.901	121.06
231.136	115.06
231.37	112.06
231.604	108.06
231.838	114.06
232.072	104.06
232.306	115.06
232.541	113.06
232.775	116.06
233.009	122.06
233.243	116.06
233.477	125.06
233.711	115.06
233.945	115.06
234.179	118.06
234.413	117.06
234.647	129.06
234.881	127.06
235.115	127.06
235.349	115.06
235.583	130.06
235.817	127.06
236.051	132.06
236.285	125.06
236.519	129.06
236.753	135.06
236.987	142.06
237.221	188.06
237.455	228.06
237.689	210.06
237.922	151.06
238.156	134.06
238.39	135.06
238.624	127.06
238.858	137.06
239.091	135.06
239.325	149.06
239.559	131.06
239.793	118.06
240.027	151.06
240.26	154.06
240.494	165.06
240.728	153.06
240.961	160.06
241.195	141.06
241.429	146.06
241.662	149.06
241.896	146.06
242.13	141.06
242.363	133.06
242.597	136.06
242.83	132.06
243.064	147.06
243.298	145.06
243.531	128.06
243.765	146.06
243.998	165.06
244.232	156.06
244.465	149.06
244.699	146.06
244.932	166.06
245.166	151.06
245.399	152.06
245.633	160.06
245.866	155.06
246.099	149.06
246.333	149.06
246.566	160.06
246.8	164.06
247.033	172.06
247.266	169.06
247.5	156.06
247.733	158.06
247.966	172.06
248.2	165.06
248.433	188.06
248.666	176.06
248.899	190.06
249.133	188.06
249.366	204.06
249.599	196.06
249.832	192.06
250.066	189.06
250.299	199.06
250.532	200.06
250.765	212.06
250.998	223.06
251.231	242.06
251.465	215.06
251.698	207.06
251.931	205.06
252.164	201.06
252.397	215.06
252.63	200.06
252.863	214.06
253.096	235.06
253.329	241.06
253.562	243.06
253.795	240.06
254.028	239.06
254.261	226.06
254.494	235.06
254.727	277.06
254.96	288.06
255.193	272.06
255.426	259.06
255.659	252.06
255.892	229.06
256.124	227.06
256.357	220.06
256.59	208.06
256.823	227.06
257.056	228.06
257.289	219.06
257.521	217.06
257.754	231.06
257.987	227.06
258.22	216.06
258.452	208.06
258.685	211.06
258.918	214.06
259.151	246.06
259.383	220.06
259.616	234.06
259.849	241.06
260.081	244.06
260.314	265.06
260.547	273.06
260.779	255.06
261.012	262.06
261.244	230.06
261.477	234.06
261.71	238.06
261.942	243.06
262.175	261.06
262.407	260.06
262.64	235.06
262.872	237.06
263.105	216.06
263.337	227.06
263.57	233.06
263.802	237.06
264.035	212.06
264.267	228.06
264.499	215.06
264.732	208.06
264.964	219.06
265.197	213.06
265.429	229.06
265.661	212.06
265.894	228.06
266.126	216.06
266.358	239.06
266.591	249.06
266.823	239.06
267.055	243.06
267.287	239.06
267.52	252.06
267.752	255.06
267.984	237.06
268.216	241.06
268.448	236.06
268.681	237.06
268.913	275.06
269.145	278.06
269.377	296.06
269.609	287.06
269.841	275.06
270.073	304.06
270.306	309.06
270.538	313.06
270.77	338.06
271.002	320.06
271.234	292.06
271.466	306.06
271.698	330.06
271.93	325.06
272.162	336.06
272.394	326.06
272.626	326.06
272.858	312.06
273.09	288.06
273.322	290.06
273.553	282.06
273.785	283.06
274.017	282.06
274.249	296.06
274.481	284.06
274.713	277.06
274.945	281.06
275.176	296.06
275.408	281.06
275.64	288.06
275.872	263.06
276.104	273.06
276.335	285.06
276.567	296.06
276.799	314.06
277.031	319.06
277.262	332.06
277.494	340.06
277.726	319.06
277.957	317.06
278.189	297.06
278.421	282.06
278.652	303.06
278.884	289.06
279.115	285.06
279.347	276.06
279.579	274.06
279.81	281.06
280.042	288.06
280.273	292.06
280.505	288.06
280.736	294.06
280.968	294.06
281.199	277.06
281.431	268.06
281.662	275.06
281.894	281.06
282.125	298.06
282.356	307.06
282.588	342.06
282.819	316.06
283.051	276.06
283.282	299.06
283.513	285.06
283.745	303.06
283.976	288.06
284.207	296.06
284.439	301.06
284.67	285.06
284.901	298.06
285.132	293.06
285.364	313.06
285.595	295.06
285.826	293.06
286.057	295.06
286.288	308.06
286.52	283.06
286.751	298.06
286.982	293.06
287.213	305.06
287.444	300.06
287.675	333.06
287.906	314.06
288.138	314.06
288.369	333.06
288.6	343.06
288.831	321.06
289.062	305.06
289.293	306.06
289.524	296.06
289.755	313.06
289.986	324.06
290.217	306.06
290.448	312.06
290.679	303.06
290.91	299.06
291.141	313.06
291.371	299.06
291.602	314.06
291.833	326.06
292.064	311.06
292.295	313.06
292.526	324.06
292.757	301.06
292.987	319.06
293.218	322.06
293.449	321.06
293.68	328.06
293.91	318.06
294.141	318.06
294.372	308.06
294.603	311.06
294.833	323.06
295.064	320.06
295.295	321.06
295.525	332.06
295.756	320.06
295.987	325.06
296.217	351.06
296.448	350.06
296.679	315.06
296.909	323.06
297.14	329.06
297.37	338.06
297.601	325.06
297.831	321.06
298.062	323.06
298.292	331.06
298.523	325.06
298.753	332.06
298.984	341.06
299.214	324.06
299.445	335.06
299.675	329.06
299.905	348.06
300.136	336.06
300.366	348.06
300.597	333.06
300.827	345.06
301.057	332.06
301.288	342.06
301.518	370.06
301.748	347.06
301.979	365.06
302.209	350.06
302.439	378.06
302.669	343.06
302.9	337.06
303.13	347.06
303.36	351.06
303.59	342.06
303.82	364.06
304.051	375.06
304.281	375.06
304.511	350.06
304.741	377.06
304.971	354.06
305.201	357.06
305.431	361.06
305.661	356.06
305.891	369.06
306.121	367.06
306.352	388.06
306.582	379.06
306.812	370.06
307.042	369.06
307.272	372.06
307.502	369.06
307.731	355.06
307.961	365.06
308.191	359.06
308.421	372.06
308.651	385.06
308.881	344.06
309.111	381.06
309.341	379.06
309.571	385.06
309.8	383.06
310.03	403.06
310.26	409.06
310.49	402.06
310.72	445.06
310.949	435.06
311.179	427.06
311.409	411.06
311.639	413.06
311.868	424.06
312.098	405.06
312.328	407.06
312.557	411.06
312.787	444.06
313.017	465.06
313.246	417.06
313.476	401.06
313.706	403.06
313.935	431.06
314.165	424.06
314.394	431.06
314.624	427.06
314.853	427.06
315.083	444.06
315.312	409.06
315.542	422.06
315.771	420.06
316.001	404.06
316.23	411.06
316.46	393.06
316.689	415.06
316.919	408.06
317.148	436.06
317.377	427.06
317.607	437.06
317.836	427.06
318.065	424.06
318.295	405.06
318.524	409.06
318.753	415.06
318.983	415.06
319.212	426.06
319.441	429.06
319.67	421.06
319.9	435.06
320.129	437.06
320.358	408.06
320.587	396.06
320.816	438.06
321.046	449.06
321.275	445.06
321.504	433.06
321.733	450.06
321.962	444.06
322.191	475.06
322.42	483.06
322.649	468.06
322.878	490.06
323.108	495.06
323.337	523.06
323.566	536.06
323.795	591.06
324.024	653.06
324.253	748.06
324.482	1071.06
324.71	1747.06
324.939	2596.06
325.168	2210.06
325.397	1111.06
325.626	731.06
325.855	617.06
326.084	590.06
326.313	564.06
326.542	565.06
326.77	617.06
326.999	752.06
327.228	1023.06
327.457	1529.06
327.686	1923.06
327.914	1252.06
328.143	792.06
328.372	689.06
328.6	649.06
328.829	629.06
329.058	621.06
329.287	647.06
329.515	596.06
329.744	543.06
329.972	524.06
330.201	546.06
330.43	562.06
330.658	604.06
330.887	652.06
331.115	629.06
331.344	581.06
331.572	536.06
331.801	540.06
332.03	544.06
332.258	515.06
332.486	501.06
332.715	485.06
332.943	498.06
333.172	499.06
333.4	505.06
333.629	495.06
333.857	547.06
334.085	503.06
334.314	508.06
334.542	498.06
334.771	506.06
334.999	511.06
335.227	508.06
335.455	508.06
335.684	511.06
335.912	486.06
336.14	469.06
336.369	523.06
336.597	500.06
336.825	492.06
337.053	509.06
337.281	492.06
337.51	492.06
337.738	495.06
337.966	495.06
338.194	503.06
338.422	496.06
338.65	507.06
338.878	503.06
339.106	498.06
339.334	490.06
339.562	485.06
339.79	458.06
340.018	484.06
340.246	462.06
340.474	465.06
340.702	497.06
340.93	504.06
341.158	481.06
341.386	466.06
341.614	466.06
341.842	488.06
342.07	473.06
342.298	487.06
342.526	483.06
342.754	457.06
342.981	447.06
343.209	460.06
343.437	467.06
343.665	488.06
343.893	495.06
344.12	499.06
344.348	479.06
344.576	506.06
344.804	508.06
345.031	509.06
345.259	526.06
345.487	506.06
345.714	481.06
345.942	481.06
346.17	470.06
346.397	481.06
346.625	464.06
346.853	467.06
347.08	455.06
347.308	480.06
347.535	475.06
347.763	465.06
347.99	484.06
348.218	481.06
348.445	478.06
348.673	474.06
348.9	472.06
349.128	469.06
349.355	443.06
349.583	466.06
349.81	452.06
350.037	450.06
350.265	444.06
350.492	453.06
350.72	452.06
350.947	455.06
351.174	473.06
351.402	479.06
351.629	497.06
351.856	468.06
352.083	484.06
352.311	477.06
352.538	475.06
352.765	489.06
352.992	487.06
353.22	475.06
353.447	485.06
353.674	465.06
353.901	459.06
354.128	449.06
354.355	445.06
354.583	442.06
354.81	460.06
355.037	435.06
355.264	437.06
355.491	424.06
355.718	429.06
355.945	441.06
356.172	465.06
356.399	433.06
356.626	468.06
356.853	460.06
357.08	433.06
357.307	437.06
357.534	425.06
357.761	427.06
357.988	432.06
358.215	447.06
358.441	440.06
358.668	443.06
358.895	447.06
359.122	444.06
359.349	464.06
359.576	466.06
359.802	495.06
360.029	515.06
360.256	538.06
360.483	509.06
360.709	467.06
360.936	465.06
361.163	464.06
361.39	473.06
361.616	490.06
361.843	495.06
362.07	457.06
362.296	472.06
362.523	455.06
362.749	486.06
362.976	444.06
363.203	489.06
363.429	449.06
363.656	439.06
363.882	463.06
364.109	452.06
364.335	458.06
364.562	445.06
364.788	447.06
365.015	450.06
365.241	439.06
365.468	445.06
365.694	448.06
365.92	468.06
366.147	450.06
366.373	449.06
366.599	456.06
366.826	440.06
367.052	458.06
367.278	460.06
367.505	426.06
367.731	446.06
367.957	459.06
368.184	455.06
368.41	464.06
368.636	492.06
368.862	489.06
369.089	454.06
369.315	451.06
369.541	458.06
369.767	467.06
369.993	456.06
370.219	463.06
370.445	460.06
370.672	445.06
370.898	443.06
371.124	436.06
371.35	443.06
371.576	448.06
371.802	433.06
372.028	453.06
372.254	447.06
372.48	442.06
372.706	470.06
372.932	452.06
373.158	445.06
373.384	479.06
373.61	460.06
373.835	442.06
374.061	450.06
374.287	473.06
374.513	465.06
374.739	473.06
374.965	447.06
375.191	465.06
375.416	472.06
375.642	464.06
375.868	472.06
376.094	475.06
376.319	443.06
376.545	475.06
376.771	471.06
376.997	462.06
377.222	471.06
377.448	451.06
377.674	461.06
377.899	453.06
378.125	461.06
378.35	436.06
378.576	452.06
378.802	447.06
379.027	474.06
379.253	420.06
379.478	441.06
379.704	442.06
379.929	456.06
380.155	437.06
380.38	430.06
380.606	475.06
380.831	444.06
381.057	470.06
381.282	454.06
381.507	455.06
381.733	452.06
381.958	433.06
382.184	456.06
382.409	493.06
382.634	470.06
382.86	465.06
383.085	462.06
383.31	459.06
383.535	473.06
383.761	465.06
383.986	486.06
384.211	473.06
384.436	467.06
384.662	504.06
384.887	493.06
385.112	498.06
385.337	503.06
385.562	504.06
385.787	499.06
386.013	512.06
386.238	529.06
386.463	492.06
386.688	500.06
386.913	492.06
387.138	495.06
387.363	511.06
387.588	492.06
387.813	506.06
388.038	491.06
388.263	476.06
388.488	517.06
388.713	512.06
388.938	529.06
389.163	505.06
389.387	476.06
389.612	501.06
389.837	501.06
390.062	496.06
390.287	516.06
390.512	519.06
390.736	487.06
390.961	525.06
391.186	507.06
391.411	517.06
391.636	523.06
391.86	513.06
392.085	497.06
392.31	509.06
392.534	544.06
392.759	520.06
392.984	497.06
393.208	507.06
393.433	526.06
393.658	515.06
393.882	546.06
394.107	497.06
394.331	517.06
394.556	492.06
394.78	514.06
395.005	526.06
395.229	520.06
395.454	531.06
395.678	535.06
395.903	546.06
396.127	574.06
396.352	566.06
396.576	545.06
396.801	530.06
397.025	513.06
397.249	530.06
397.474	546.06
397.698	535.06
397.922	581.06
398.147	595.06
398.371	584.06
398.595	575.06
398.82	577.06
399.044	600.06
399.268	606.06
399.492	673.06
399.717	673.06
399.941	715.06
400.165	741.06
400.389	740.06
400.613	681.06
400.837	634.06
401.062	599.06
401.286	615.06
401.51	595.06
401.734	593.06
401.958	604.06
402.182	593.06
402.406	608.06
402.63	595.06
402.854	609.06
403.078	592.06
403.302	595.06
403.526	618.06
403.75	599.06
403.974	632.06
404.198	613.06
404.422	608.06
404.645	612.06
404.869	616.06
405.093	643.06
405.317	671.06
405.541	703.06
405.765	636.06
405.988	643.06
406.212	633.06
406.436	689.06
406.66	699.06
406.883	651.06
407.107	683.06
407.331	728.06
407.555	839.06
407.778	829.06
408.002	759.06
408.226	691.06
408.449	684.06
408.673	693.06
408.896	726.06
409.12	747.06
409.344	716.06
409.567	645.06
409.791	639.06
410.014	619.06
410.238	613.06
410.461	608.06
410.685	639.06
410.908	642.06
411.132	671.06
411.355	712.06
411.578	690.06
411.802	636.06
412.025	609.06
412.249	607.06
412.472	615.06
412.695	615.06
412.919	620.06
413.142	589.06
413.365	601.06
413.589	600.06
413.812	600.06
414.035	587.06
414.258	563.06
414.482	609.06
414.705	559.06
414.928	585.06
415.151	580.06
415.374	592.06
415.597	581.06
415.821	557.06
416.044	591.06
416.267	595.06
416.49	577.06
416.713	577.06
416.936	575.06
417.159	586.06
417.382	587.06
417.605	595.06
417.828	604.06
418.051	625.06
418.274	607.06
418.497	584.06
418.72	586.06
418.943	577.06
419.166	601.06
419.389	625.06
419.611	600.06
419.834	599.06
420.057	603.06
420.28	595.06
420.503	603.06
420.726	607.06
420.948	597.06
421.171	658.06
421.394	695.06
421.617	615.06
421.839	597.06
422.062	632.06
422.285	635.06
422.507	680.06
422.73	785.06
422.953	745.06
423.175	655.06
423.398	651.06
423.621	643.06
423.843	658.06
424.066	669.06
424.288	639.06
424.511	681.06
424.733	752.06
424.956	836.06
425.178	807.06
425.401	794.06
425.623	798.06
425.846	711.06
426.068	663.06
426.291	656.06
426.513	647.06
426.735	680.06
426.958	703.06
427.18	790.06
427.402	938.06
427.625	1080.06
427.847	911.06
428.069	782.06
428.292	734.06
428.514	643.06
428.736	646.06
428.958	598.06
429.181	616.06
429.403	589.06
429.625	598.06
429.847	645.06
430.069	714.06
430.292	729.06
430.514	599.06
430.736	607.06
430.958	591.06
431.18	591.06
431.402	573.06
431.624	558.06
431.846	559.06
432.068	583.06
432.29	569.06
432.512	564.06
432.734	616.06
432.956	588.06
433.178	585.06
433.4	583.06
433.622	557.06
433.844	580.06
434.066	551.06
434.287	579.06
434.509	585.06
434.731	595.06
434.953	602.06
435.175	612.06
435.397	657.06
435.618	661.06
435.84	704.06
436.062	837.06
436.284	885.06
436.505	738.06
436.727	680.06
436.949	641.06
437.17	596.06
437.392	585.06
437.614	638.06
437.835	635.06
438.057	782.06
438.278	897.06
438.5	907.06
438.721	976.06
438.943	933.06
439.165	760.06
439.386	682.06
439.608	670.06
439.829	649.06
440.05	691.06
440.272	753.06
440.493	672.06
440.715	646.06
440.936	638.06
441.158	629.06
441.379	608.06
441.6	625.06
441.822	636.06
442.043	697.06
442.264	801.06
442.486	878.06
442.707	711.06
442.928	695.06
443.149	670.06
443.371	691.06
443.592	745.06
443.813	848.06
444.034	896.06
444.255	755.06
444.476	702.06
444.698	682.06
444.919	667.06
445.14	765.06
445.361	749.06
445.582	725.06
445.803	771.06
446.024	895.06
446.245	911.06
446.466	823.06
446.687	695.06
446.908	654.06
447.129	597.06
447.35	593.06
447.571	601.06
447.792	596.06
448.013	599.06
448.234	636.06
448.455	667.06
448.675	822.06
448.896	933.06
449.117	817.06
449.338	773.06
449.559	871.06
449.779	1017.06
450	804.06
450.221	641.06
450.442	612.06
450.662	603.06
450.883	590.06
451.104	620.06
451.324	615.06
451.545	591.06
451.766	577.06
451.986	530.06
452.207	520.06
452.428	561.06
452.648	543.06
452.869	535.06
453.089	543.06
453.31	568.06
453.53	546.06
453.751	533.06
453.971	565.06
454.192	546.06
454.412	562.06
454.633	546.06
454.853	538.06
455.073	553.06
455.294	587.06
455.514	639.06
455.734	621.06
455.955	557.06
456.175	536.06
456.395	526.06
456.616	501.06
456.836	523.06
457.056	520.06
457.276	503.06
457.497	538.06
457.717	500.06
457.937	518.06
458.157	536.06
458.377	533.06
458.598	549.06
458.818	615.06
459.038	712.06
459.258	739.06
459.478	638.06
459.698	590.06
459.918	565.06
460.138	580.06
460.358	582.06
460.578	588.06
460.798	583.06
461.018	607.06
461.238	587.06
461.458	575.06
461.678	596.06
461.898	597.06
462.118	603.06
462.338	590.06
462.558	609.06
462.777	623.06
462.997	645.06
463.217	646.06
463.437	663.06
463.657	645.06
463.876	637.06
464.096	612.06
464.316	629.06
464.536	631.06
464.755	613.06
464.975	641.06
465.195	671.06
465.414	756.06
465.634	691.06
465.854	617.06
466.073	629.06
466.293	606.06
466.512	555.06
466.732	550.06
466.951	567.06
467.171	538.06
467.391	551.06
467.61	570.06
467.829	568.06
468.049	579.06
468.268	529.06
468.488	527.06
468.707	548.06
468.927	551.06
469.146	573.06
469.365	543.06
469.585	542.06
469.804	553.06
470.023	581.06
470.243	568.06
470.462	570.06
470.681	609.06
470.901	589.06
471.12	572.06
471.339	575.06
471.558	561.06
471.777	567.06
471.997	550.06
472.216	554.06
472.435	565.06
472.654	551.06
472.873	550.06
473.092	549.06
473.311	539.06
473.53	557.06
473.749	571.06
473.968	596.06
474.187	721.06
474.406	765.06
474.625	634.06
474.844	570.06
475.063	576.06
475.282	593.06
475.501	567.06
475.72	569.06
475.939	574.06
476.158	613.06
476.377	579.06
476.596	557.06
476.814	578.06
477.033	586.06
477.252	602.06
477.471	596.06
477.69	628.06
477.908	623.06
478.127	628.06
478.346	617.06
478.564	612.06
478.783	616.06
479.002	641.06
479.22	665.06
479.439	660.06
479.658	681.06
479.876	695.06
480.095	699.06
480.313	724.06
480.532	709.06
480.751	700.06
480.969	684.06
481.188	705.06
481.406	717.06
481.624	698.06
481.843	663.06
482.061	651.06
482.28	640.06
482.498	657.06
482.717	657.06
482.935	687.06
483.153	662.06
483.372	663.06
483.59	655.06
483.808	666.06
484.027	656.06
484.245	664.06
484.463	663.06
484.681	671.06
484.9	657.06
485.118	669.06
485.336	699.06
485.554	678.06
485.772	678.06
485.99	672.06
486.209	683.06
486.427	680.06
486.645	677.06
486.863	743.06
487.081	734.06
487.299	737.06
487.517	703.06
487.735	689.06
487.953	727.06
488.171	705.06
488.389	729.06
488.607	728.06
488.825	729.06
489.043	707.06
489.261	739.06
489.479	729.06
489.696	715.06
489.914	723.06
490.132	713.06
490.35	740.06
490.568	742.06
490.786	767.06
491.003	804.06
491.221	775.06
491.439	773.06
491.657	817.06
491.874	801.06
492.092	801.06
492.31	823.06
492.527	809.06
492.745	795.06
492.963	810.06
493.18	795.06
493.398	822.06
493.615	796.06
493.833	807.06
494.05	822.06
494.268	840.06
494.485	842.06
494.703	836.06
494.92	824.06
495.138	851.06
495.355	828.06
495.573	850.06
495.79	832.06
496.008	823.06
496.225	837.06
496.442	873.06
496.66	864.06
496.877	847.06
497.094	876.06
497.312	866.06
497.529	881.06
497.746	887.06
497.963	898.06
498.181	922.06
498.398	956.06
498.615	952.06
498.832	1006.06
499.049	997.06
499.267	1041.06
499.484	1042.06
499.701	1081.06
499.918	1108.06
500.135	1172.06
500.352	1185.06
500.569	1194.06
500.786	1227.06
501.003	1206.06
501.22	1173.06
501.437	1149.06
501.654	1114.06
501.871	1106.06
502.088	1084.06
502.305	1018.06
502.522	1000.06
502.739	944.06
502.956	946.06
503.172	940.06
503.389	908.06
503.606	924.06
503.823	915.06
504.04	904.06
504.256	857.06
504.473	897.06
504.69	880.06
504.907	840.06
505.123	856.06
505.34	843.06
505.557	844.06
505.773	830.06
505.99	835.06
506.207	842.06
506.423	815.06
506.64	812.06
506.856	795.06
507.073	805.06
507.289	805.06
507.506	797.06
507.722	785.06
507.939	835.06
508.155	818.06
508.372	791.06
508.588	762.06
508.805	771.06
509.021	788.06
509.238	804.06
509.454	807.06
509.67	812.06
509.887	776.06
510.103	774.06
510.319	776.06
510.536	843.06
510.752	1420.06
510.968	1196.06
511.184	769.06
511.401	765.06
511.617	748.06
511.833	748.06
512.049	716.06
512.265	755.06
512.481	699.06
512.698	721.06
512.914	717.06
513.13	728.06
513.346	746.06
513.562	746.06
513.778	737.06
513.994	756.06
514.21	747.06
514.426	753.06
514.642	829.06
514.858	837.06
515.074	873.06
515.29	1024.06
515.506	1475.06
515.721	1247.06
515.937	887.06
516.153	837.06
516.369	796.06
516.585	779.06
516.801	771.06
517.016	778.06
517.232	781.06
517.448	768.06
517.664	776.06
517.879	749.06
518.095	764.06
518.311	759.06
518.527	766.06
518.742	753.06
518.958	748.06
519.173	755.06
519.389	751.06
519.605	724.06
519.82	755.06
520.036	763.06
520.251	802.06
520.467	803.06
520.682	822.06
520.898	786.06
521.113	829.06
521.329	875.06
521.544	965.06
521.76	1201.06
521.975	1867.06
522.19	1915.06
522.406	1095.06
522.621	839.06
522.836	759.06
523.052	725.06
523.267	709.06
523.482	670.06
523.698	669.06
523.913	694.06
524.128	671.06
524.343	676.06
524.559	649.06
524.774	646.06
524.989	663.06
525.204	678.06
525.419	645.06
525.634	663.06
525.849	619.06
526.064	645.06
526.28	605.06
526.495	607.06
526.71	597.06
526.925	621.06
527.14	628.06
527.355	606.06
527.57	587.06
527.785	615.06
527.999	616.06
528.214	617.06
528.429	597.06
528.644	621.06
528.859	603.06
529.074	619.06
529.289	633.06
529.503	721.06
529.718	713.06
529.933	629.06
530.148	641.06
530.363	611.06
530.577	600.06
530.792	601.06
531.007	593.06
531.221	589.06
531.436	599.06
531.651	561.06
531.865	577.06
532.08	592.06
532.295	569.06
532.509	571.06
532.724	604.06
532.938	579.06
533.153	563.06
533.367	583.06
533.582	578.06
533.796	595.06
534.011	582.06
534.225	575.06
534.44	581.06
534.654	552.06
534.868	598.06
535.083	580.06
535.297	567.06
535.511	545.06
535.726	596.06
535.94	591.06
536.154	575.06
536.369	581.06
536.583	561.06
536.797	561.06
537.011	561.06
537.225	546.06
537.44	553.06
537.654	566.06
537.868	538.06
538.082	545.06
538.296	533.06
538.51	563.06
538.724	569.06
538.938	570.06
539.153	568.06
539.367	559.06
539.581	557.06
539.795	568.06
540.009	547.06
540.222	536.06
540.436	554.06
540.65	534.06
540.864	556.06
541.078	553.06
541.292	553.06
541.506	552.06
541.72	536.06
541.934	562.06
542.147	539.06
542.361	535.06
542.575	526.06
542.789	502.06
543.002	543.06
543.216	574.06
543.43	544.06
543.644	536.06
543.857	563.06
544.071	532.06
544.285	533.06
544.498	540.06
544.712	553.06
544.925	544.06
545.139	541.06
545.352	533.06
545.566	521.06
545.779	523.06
545.993	554.06
546.206	555.06
546.42	532.06
546.633	543.06
546.847	520.06
547.06	521.06
547.274	536.06
547.487	523.06
547.7	538.06
547.914	516.06
548.127	519.06
548.34	509.06
548.554	516.06
548.767	519.06
548.98	529.06
549.193	504.06
549.407	520.06
549.62	532.06
549.833	518.06
550.046	533.06
550.259	531.06
550.473	535.06
550.686	513.06
550.899	515.06
551.112	489.06
551.325	495.06
551.538	513.06
551.751	520.06
551.964	512.06
552.177	513.06
552.39	518.06
552.603	514.06
552.816	534.06
553.029	519.06
553.242	535.06
553.455	539.06
553.667	532.06
553.88	546.06
554.093	533.06
554.306	523.06
554.519	536.06
554.732	534.06
554.944	503.06
555.157	496.06
555.37	514.06
555.583	481.06
555.795	504.06
556.008	467.06
556.221	511.06
556.433	490.06
556.646	468.06
556.859	497.06
557.071	483.06
557.284	476.06
557.496	480.06
557.709	475.06
557.921	483.06
558.134	484.06
558.346	481.06
558.559	476.06
558.771	473.06
558.984	477.06
559.196	454.06
559.409	473.06
559.621	464.06
559.833	461.06
560.046	451.06
560.258	482.06
560.47	464.06
560.683	462.06
560.895	457.06
561.107	454.06
561.32	460.06
561.532	454.06
561.744	450.06
561.956	455.06
562.168	459.06
562.381	457.06
562.593	461.06
562.805	485.06
563.017	471.06
563.229	467.06
563.441	471.06
563.653	471.06
563.865	467.06
564.077	468.06
564.289	476.06
564.501	495.06
564.713	499.06
564.925	510.06
565.137	521.06
565.349	502.06
565.561	501.06
565.773	511.06
565.985	528.06
566.197	525.06
566.408	530.06
566.62	547.06
566.832	567.06
567.044	561.06
567.255	582.06
567.467	593.06
567.679	591.06
567.891	578.06
568.102	592.06
568.314	601.06
568.526	569.06
568.737	549.06
568.949	533.06
569.161	527.06
569.372	489.06
569.584	491.06
569.795	482.06
570.007	489.06
570.218	501.06
570.43	489.06
570.641	483.06
570.853	475.06
571.064	447.06
571.276	467.06
571.487	464.06
571.698	434.06
571.91	413.06
572.121	440.06
572.333	433.06
572.544	423.06
572.755	419.06
572.966	413.06
573.178	417.06
573.389	412.06
573.6	403.06
573.811	416.06
574.023	400.06
574.234	403.06
574.445	387.06
574.656	377.06
574.867	398.06
575.078	387.06
575.289	396.06
575.501	389.06
575.712	394.06
575.923	392.06
576.134	392.06
576.345	394.06
576.556	385.06
576.767	385.06
576.978	386.06
577.188	421.06
577.399	398.06
577.61	387.06
577.821	380.06
578.032	374.06
578.243	403.06
578.454	637.06
578.665	525.06
578.875	393.06
579.086	356.06
579.297	375.06
579.508	361.06
579.718	373.06
579.929	391.06
580.14	378.06
580.35	358.06
580.561	371.06
580.772	356.06
580.982	351.06
581.193	355.06
581.403	360.06
581.614	369.06
581.825	353.06
582.035	350.06
582.246	357.06
582.456	348.06
582.667	350.06
582.877	348.06
583.087	350.06
583.298	360.06
583.508	355.06
583.719	367.06
583.929	367.06
584.139	361.06
584.35	345.06
584.56	349.06
584.77	353.06
584.981	350.06
585.191	372.06
585.401	361.06
585.611	371.06
585.821	363.06
586.032	351.06
586.242	340.06
586.452	354.06
586.662	345.06
586.872	362.06
587.082	353.06
587.292	354.06
587.502	356.06
587.713	332.06
587.923	344.06
588.133	331.06
588.343	346.06
588.553	354.06
588.762	331.06
588.972	354.06
589.182	364.06
589.392	342.06
589.602	331.06
589.812	338.06
590.022	362.06
590.232	353.06
590.441	333.06
590.651	319.06
590.861	345.06
591.071	341.06
591.281	347.06
591.49	356.06
591.7	347.06
591.91	348.06
592.119	363.06
592.329	351.06
592.539	358.06
592.748	343.06
592.958	358.06
593.167	349.06
593.377	362.06
593.587	376.06
593.796	362.06
594.006	364.06
594.215	352.06
594.424	369.06
594.634	365.06
594.843	352.06
595.053	337.06
595.262	368.06
595.472	361.06
595.681	333.06
595.89	348.06
596.1	346.06
596.309	330.06
596.518	344.06
596.727	337.06
596.937	341.06
597.146	319.06
597.355	331.06
597.564	325.06
597.774	309.06
597.983	323.06
598.192	309.06
598.401	314.06
598.61	305.06
598.819	306.06
599.028	319.06
599.237	322.06
599.446	305.06
599.655	315.06
599.864	304.06
600.073	293.06
600.282	299.06
600.491	291.06
600.7	291.06
600.909	291.06
601.118	283.06
601.327	295.06
601.536	306.06
601.745	305.06
601.953	301.06
602.162	289.06
602.371	296.06
602.58	280.06
602.789	292.06
602.997	282.06
603.206	295.06
603.415	295.06
603.623	294.06
603.832	286.06
604.041	284.06
604.249	305.06
604.458	297.06
604.666	291.06
604.875	291.06
605.084	294.06
605.292	297.06
605.501	297.06
605.709	282.06
605.918	294.06
606.126	291.06
606.334	287.06
606.543	294.06
606.751	290.06
606.96	271.06
607.168	287.06
607.376	284.06
607.585	273.06
607.793	286.06
608.001	286.06
608.21	291.06
608.418	289.06
608.626	276.06
608.834	260.06
609.043	291.06
609.251	280.06
609.459	289.06
609.667	278.06
609.875	279.06
610.083	269.06
610.291	274.06
610.499	263.06
610.707	291.06
610.916	275.06
611.124	266.06
611.332	285.06
611.54	296.06
611.748	292.06
611.955	269.06
612.163	272.06
612.371	271.06
612.579	295.06
612.787	284.06
612.995	263.06
613.203	283.06
613.411	269.06
613.618	284.06
613.826	278.06
614.034	282.06
614.242	270.06
614.449	259.06
614.657	270.06
614.865	262.06
615.072	268.06
615.28	283.06
615.488	273.06
615.695	259.06
615.903	276.06
616.111	259.06
616.318	272.06
616.526	276.06
616.733	272.06
616.941	259.06
617.148	264.06
617.356	263.06
617.563	284.06
617.771	275.06
617.978	278.06
618.185	245.06
618.393	259.06
618.6	275.06
618.807	269.06
619.015	277.06
619.222	251.06
619.429	260.06
619.637	270.06
619.844	237.06
620.051	247.06
620.258	262.06
620.466	228.06
620.673	238.06
620.88	252.06
621.087	259.06
621.294	247.06
621.501	250.06
621.708	248.06
621.915	271.06
622.122	250.06
622.329	245.06
622.536	256.06
622.743	273.06
622.95	245.06
623.157	236.06
623.364	247.06
623.571	248.06
623.778	259.06
623.985	239.06
624.192	243.06
624.399	252.06
624.606	236.06
624.812	217.06
625.019	262.06
625.226	257.06
625.433	227.06
625.639	217.06
625.846	238.06
626.053	235.06
626.259	234.06
626.466	231.06
626.673	233.06
626.879	234.06
627.086	239.06
627.293	242.06
627.499	236.06
627.706	232.06
627.912	225.06
628.119	222.06
628.325	231.06
628.532	212.06
628.738	236.06
628.945	235.06
629.151	212.06
629.357	217.06
629.564	221.06
629.77	221.06
629.976	219.06
630.183	237.06
630.389	217.06
630.595	214.06
630.802	224.06
631.008	221.06
631.214	220.06
631.42	227.06
631.627	219.06
631.833	216.06
632.039	213.06
632.245	212.06
632.451	224.06
632.657	230.06
632.863	229.06
633.069	237.06
633.275	204.06
633.481	207.06
633.688	198.06
633.893	195.06
634.099	209.06
634.305	205.06
634.511	213.06
634.717	199.06
634.923	182.06
635.129	219.06
635.335	209.06
635.541	194.06
635.747	215.06
635.952	197.06
636.158	215.06
636.364	202.06
636.57	197.06
636.775	200.06
636.981	192.06
637.187	186.06
637.392	193.06
637.598	201.06
637.804	207.06
638.009	200.06
638.215	196.06
638.421	191.06
638.626	198.06
638.832	191.06
639.037	198.06
639.243	194.06
639.448	184.06
639.654	188.06
639.859	182.06
640.065	188.06
640.27	196.06
640.475	185.06
640.681	171.06
640.886	181.06
641.091	213.06
641.297	202.06
641.502	184.06
641.707	180.06
641.913	184.06
642.118	196.06
642.323	201.06
642.528	192.06
642.733	185.06
642.939	187.06
643.144	213.06
643.349	187.06
643.554	182.06
643.759	182.06
643.964	186.06
644.169	179.06
644.374	187.06
644.579	179.06
644.784	189.06
644.989	177.06
645.194	181.06
645.399	186.06
645.604	171.06
645.809	179.06
646.014	187.06
646.219	172.06
646.423	191.06
646.628	203.06
646.833	183.06
647.038	195.06
647.243	185.06
647.447	203.06
647.652	187.06
647.857	197.06
648.062	189.06
648.266	196.06
648.471	183.06
648.676	192.06
648.88	164.06
649.085	180.06
649.289	187.06
649.494	193.06
649.698	196.06
649.903	182.06
650.107	168.06
650.312	169.06
650.516	179.06
650.721	180.06
650.925	163.06
651.13	171.06
651.334	155.06
651.539	162.06
651.743	157.06
651.947	161.06
652.152	160.06
652.356	170.06
652.56	150.06
652.764	153.06
652.969	147.06
653.173	136.06
653.377	139.06
653.581	141.06
653.785	153.06
653.99	159.06
654.194	149.06
654.398	159.06
654.602	161.06
654.806	148.06
655.01	159.06
655.214	148.06
655.418	141.06
655.622	140.06
655.826	128.06
656.03	138.06
656.234	139.06
656.438	144.06
656.642	150.06
656.846	148.06
657.049	120.06
657.253	135.06
657.457	135.06
657.661	140.06
657.865	121.06
658.068	118.06
658.272	109.06
658.476	103.06
658.68	123.06
658.883	108.06
659.087	127.06
659.291	103.06
659.494	92.06
659.698	111.06
659.901	96.06
660.105	97.06
660.309	96.06
660.512	93.06
660.716	89.06
660.919	100.06
661.123	99.06
661.326	100.06
661.53	108.06
661.733	82.06
661.936	75.06
662.14	82.06
662.343	83.06
662.546	87.06
662.75	82.06
662.953	103.06
663.156	83.06
663.36	92.06
663.563	97.06
663.766	81.06
663.969	88.06
664.173	65.06
664.376	85.06
664.579	76.06
664.782	80.06
664.985	88.06
665.188	80.06
665.391	75.06
665.594	81.06
665.797	101.06
666	83.06
666.203	90.06
666.406	94.06
666.609	76.06
666.812	83.06
667.015	68.06
667.218	81.06
667.421	84.06
667.624	68.06
667.827	90.06
668.03	90.06
668.232	76.06
668.435	82.06
668.638	83.06
668.841	91.06
669.043	88.06
669.246	95.06
669.449	85.06
669.651	95.06
669.854	69.06
670.057	90.06
670.259	73.06
670.462	71.06
670.665	91.06
670.867	95.06
671.07	78.06
671.272	80.06
671.475	93.06
671.677	79.06
671.88	85.06
672.082	89.06
672.284	70.06
672.487	92.06
672.689	75.06
672.892	71.06
