Data from 1988.PennyLincolnUp.Lamp.En5.5.200Scan.071819.P2_HRD10591_17-18-49-971.txt Node
Date: Thu Jul 18 17:18:49 EDT 2019
User: cochatt
Spectrometer: HR+D1059
Trigger mode: 1
Integration Time (sec): 1.000000E-1
Scans to average: 1
Electric dark correction enabled: true
Nonlinearity correction enabled: false
Boxcar width: 0
XAxis mode: Wavelengths
Number of Pixels in Spectrum: 2048
>>>>>Begin Spectral Data<<<<<
223.165	-25.44
223.4	-25.44
223.635	-25.44
223.869	-21.44
224.104	-5.44
224.338	-12.44
224.573	-10.44
224.808	-4.44
225.042	1.56
225.277	-8.44
225.511	-8.44
225.746	-1.44
225.98	-3.44
226.215	2.56
226.449	11.56
226.683	28.56
226.918	30.56
227.152	26.56
227.387	33.56
227.621	43.56
227.856	50.56
228.09	36.56
228.324	37.56
228.559	58.56
228.793	48.56
229.027	104.56
229.262	109.56
229.496	121.56
229.73	129.56
229.964	156.56
230.199	124.56
230.433	104.56
230.667	82.56
230.901	104.56
231.136	109.56
231.37	94.56
231.604	111.56
231.838	118.56
232.072	114.56
232.306	115.56
232.541	118.56
232.775	114.56
233.009	130.56
233.243	106.56
233.477	116.56
233.711	124.56
233.945	105.56
234.179	120.56
234.413	104.56
234.647	117.56
234.881	111.56
235.115	126.56
235.349	126.56
235.583	108.56
235.817	116.56
236.051	134.56
236.285	131.56
236.519	125.56
236.753	130.56
236.987	160.56
237.221	170.56
237.455	212.56
237.689	179.56
237.922	146.56
238.156	135.56
238.39	135.56
238.624	131.56
238.858	136.56
239.091	118.56
239.325	133.56
239.559	130.56
239.793	126.56
240.027	133.56
240.26	143.56
240.494	151.56
240.728	148.56
240.961	144.56
241.195	134.56
241.429	133.56
241.662	140.56
241.896	118.56
242.13	122.56
242.363	121.56
242.597	121.56
242.83	126.56
243.064	153.56
243.298	127.56
243.531	134.56
243.765	142.56
243.998	149.56
244.232	145.56
244.465	133.56
244.699	146.56
244.932	126.56
245.166	130.56
245.399	140.56
245.633	134.56
245.866	143.56
246.099	152.56
246.333	146.56
246.566	136.56
246.8	143.56
247.033	147.56
247.266	155.56
247.5	148.56
247.733	156.56
247.966	174.56
248.2	153.56
248.433	163.56
248.666	162.56
248.899	180.56
249.133	196.56
249.366	191.56
249.599	181.56
249.832	174.56
250.066	176.56
250.299	179.56
250.532	175.56
250.765	181.56
250.998	205.56
251.231	206.56
251.465	214.56
251.698	198.56
251.931	184.56
252.164	188.56
252.397	178.56
252.63	197.56
252.863	183.56
253.096	207.56
253.329	214.56
253.562	208.56
253.795	214.56
254.028	204.56
254.261	191.56
254.494	205.56
254.727	248.56
254.96	251.56
255.193	251.56
255.426	220.56
255.659	210.56
255.892	205.56
256.124	205.56
256.357	206.56
256.59	205.56
256.823	191.56
257.056	200.56
257.289	206.56
257.521	212.56
257.754	194.56
257.987	190.56
258.22	189.56
258.452	188.56
258.685	193.56
258.918	185.56
259.151	212.56
259.383	208.56
259.616	223.56
259.849	218.56
260.081	216.56
260.314	205.56
260.547	222.56
260.779	219.56
261.012	231.56
261.244	212.56
261.477	233.56
261.71	226.56
261.942	214.56
262.175	217.56
262.407	218.56
262.64	211.56
262.872	189.56
263.105	205.56
263.337	195.56
263.57	213.56
263.802	199.56
264.035	201.56
264.267	205.56
264.499	194.56
264.732	212.56
264.964	218.56
265.197	207.56
265.429	210.56
265.661	202.56
265.894	213.56
266.126	212.56
266.358	226.56
266.591	209.56
266.823	215.56
267.055	219.56
267.287	218.56
267.52	216.56
267.752	226.56
267.984	220.56
268.216	232.56
268.448	223.56
268.681	229.56
268.913	230.56
269.145	249.56
269.377	265.56
269.609	260.56
269.841	278.56
270.073	270.56
270.306	279.56
270.538	290.56
270.77	286.56
271.002	287.56
271.234	278.56
271.466	279.56
271.698	290.56
271.93	294.56
272.162	291.56
272.394	294.56
272.626	293.56
272.858	287.56
273.09	270.56
273.322	242.56
273.553	265.56
273.785	247.56
274.017	256.56
274.249	247.56
274.481	259.56
274.713	254.56
274.945	258.56
275.176	274.56
275.408	255.56
275.64	262.56
275.872	274.56
276.104	250.56
276.335	247.56
276.567	257.56
276.799	286.56
277.031	296.56
277.262	293.56
277.494	286.56
277.726	303.56
277.957	274.56
278.189	251.56
278.421	261.56
278.652	271.56
278.884	271.56
279.115	270.56
279.347	264.56
279.579	280.56
279.81	256.56
280.042	269.56
280.273	275.56
280.505	273.56
280.736	250.56
280.968	257.56
281.199	274.56
281.431	253.56
281.662	246.56
281.894	272.56
282.125	265.56
282.356	286.56
282.588	300.56
282.819	285.56
283.051	272.56
283.282	278.56
283.513	274.56
283.745	296.56
283.976	262.56
284.207	268.56
284.439	279.56
284.67	272.56
284.901	268.56
285.132	281.56
285.364	282.56
285.595	285.56
285.826	270.56
286.057	278.56
286.288	271.56
286.52	299.56
286.751	278.56
286.982	279.56
287.213	266.56
287.444	306.56
287.675	295.56
287.906	289.56
288.138	301.56
288.369	290.56
288.6	294.56
288.831	290.56
289.062	289.56
289.293	291.56
289.524	283.56
289.755	278.56
289.986	272.56
290.217	280.56
290.448	268.56
290.679	290.56
290.91	286.56
291.141	287.56
291.371	294.56
291.602	284.56
291.833	284.56
292.064	284.56
292.295	279.56
292.526	281.56
292.757	286.56
292.987	298.56
293.218	287.56
293.449	302.56
293.68	282.56
293.91	293.56
294.141	284.56
294.372	286.56
294.603	285.56
294.833	291.56
295.064	278.56
295.295	292.56
295.525	288.56
295.756	293.56
295.987	287.56
296.217	330.56
296.448	314.56
296.679	291.56
296.909	312.56
297.14	312.56
297.37	298.56
297.601	312.56
297.831	314.56
298.062	325.56
298.292	312.56
298.523	302.56
298.753	316.56
298.984	310.56
299.214	315.56
299.445	327.56
299.675	300.56
299.905	308.56
300.136	301.56
300.366	316.56
300.597	303.56
300.827	308.56
301.057	333.56
301.288	327.56
301.518	331.56
301.748	327.56
301.979	328.56
302.209	333.56
302.439	342.56
302.669	314.56
302.9	336.56
303.13	339.56
303.36	330.56
303.59	347.56
303.82	343.56
304.051	319.56
304.281	335.56
304.511	330.56
304.741	328.56
304.971	324.56
305.201	319.56
305.431	330.56
305.661	345.56
305.891	327.56
306.121	348.56
306.352	347.56
306.582	344.56
306.812	318.56
307.042	355.56
307.272	344.56
307.502	346.56
307.731	332.56
307.961	343.56
308.191	333.56
308.421	344.56
308.651	334.56
308.881	336.56
309.111	351.56
309.341	338.56
309.571	350.56
309.8	366.56
310.03	355.56
310.26	379.56
310.49	378.56
310.72	379.56
310.949	398.56
311.179	382.56
311.409	360.56
311.639	390.56
311.868	355.56
312.098	370.56
312.328	400.56
312.557	388.56
312.787	407.56
313.017	388.56
313.246	385.56
313.476	376.56
313.706	375.56
313.935	376.56
314.165	386.56
314.394	397.56
314.624	392.56
314.853	390.56
315.083	380.56
315.312	372.56
315.542	387.56
315.771	397.56
316.001	378.56
316.23	378.56
316.46	376.56
316.689	375.56
316.919	372.56
317.148	393.56
317.377	390.56
317.607	384.56
317.836	385.56
318.065	386.56
318.295	380.56
318.524	377.56
318.753	378.56
318.983	390.56
319.212	382.56
319.441	385.56
319.67	404.56
319.9	371.56
320.129	400.56
320.358	391.56
320.587	368.56
320.816	384.56
321.046	414.56
321.275	399.56
321.504	397.56
321.733	410.56
321.962	416.56
322.191	436.56
322.42	429.56
322.649	442.56
322.878	444.56
323.108	446.56
323.337	477.56
323.566	487.56
323.795	524.56
324.024	543.56
324.253	654.56
324.482	935.56
324.71	1418.56
324.939	1998.56
325.168	1748.56
325.397	913.56
325.626	623.56
325.855	541.56
326.084	498.56
326.313	514.56
326.542	498.56
326.77	523.56
326.999	620.56
327.228	846.56
327.457	1242.56
327.686	1535.56
327.914	1014.56
328.143	678.56
328.372	591.56
328.6	554.56
328.829	526.56
329.058	529.56
329.287	564.56
329.515	516.56
329.744	478.56
329.972	469.56
330.201	479.56
330.43	497.56
330.658	536.56
330.887	567.56
331.115	578.56
331.344	516.56
331.572	482.56
331.801	477.56
332.03	488.56
332.258	473.56
332.486	464.56
332.715	463.56
332.943	464.56
333.172	440.56
333.4	447.56
333.629	445.56
333.857	457.56
334.085	467.56
334.314	472.56
334.542	456.56
334.771	438.56
334.999	448.56
335.227	483.56
335.455	460.56
335.684	466.56
335.912	437.56
336.14	459.56
336.369	438.56
336.597	462.56
336.825	471.56
337.053	462.56
337.281	447.56
337.51	452.56
337.738	438.56
337.966	461.56
338.194	440.56
338.422	437.56
338.65	438.56
338.878	433.56
339.106	415.56
339.334	444.56
339.562	437.56
339.79	440.56
340.018	428.56
340.246	431.56
340.474	432.56
340.702	435.56
340.93	430.56
341.158	424.56
341.386	427.56
341.614	438.56
341.842	448.56
342.07	420.56
342.298	425.56
342.526	427.56
342.754	414.56
342.981	419.56
343.209	425.56
343.437	439.56
343.665	424.56
343.893	469.56
344.12	438.56
344.348	424.56
344.576	431.56
344.804	445.56
345.031	452.56
345.259	447.56
345.487	440.56
345.714	445.56
345.942	431.56
346.17	412.56
346.397	427.56
346.625	424.56
346.853	408.56
347.08	430.56
347.308	421.56
347.535	426.56
347.763	431.56
347.99	416.56
348.218	438.56
348.445	428.56
348.673	395.56
348.9	400.56
349.128	405.56
349.355	415.56
349.583	400.56
349.81	406.56
350.037	406.56
350.265	414.56
350.492	397.56
350.72	404.56
350.947	431.56
351.174	427.56
351.402	416.56
351.629	414.56
351.856	423.56
352.083	422.56
352.311	429.56
352.538	436.56
352.765	431.56
352.992	428.56
353.22	421.56
353.447	424.56
353.674	424.56
353.901	411.56
354.128	394.56
354.355	391.56
354.583	406.56
354.81	428.56
355.037	406.56
355.264	409.56
355.491	397.56
355.718	404.56
355.945	402.56
356.172	398.56
356.399	407.56
356.626	392.56
356.853	382.56
357.08	402.56
357.307	400.56
357.534	384.56
357.761	390.56
357.988	398.56
358.215	410.56
358.441	392.56
358.668	409.56
358.895	396.56
359.122	418.56
359.349	404.56
359.576	425.56
359.802	436.56
360.029	475.56
360.256	461.56
360.483	473.56
360.709	420.56
360.936	430.56
361.163	434.56
361.39	412.56
361.616	422.56
361.843	410.56
362.07	410.56
362.296	415.56
362.523	408.56
362.749	406.56
362.976	429.56
363.203	406.56
363.429	408.56
363.656	417.56
363.882	396.56
364.109	427.56
364.335	396.56
364.562	412.56
364.788	408.56
365.015	392.56
365.241	409.56
365.468	388.56
365.694	388.56
365.92	423.56
366.147	408.56
366.373	412.56
366.599	413.56
366.826	398.56
367.052	402.56
367.278	393.56
367.505	407.56
367.731	420.56
367.957	391.56
368.184	392.56
368.41	426.56
368.636	419.56
368.862	441.56
369.089	400.56
369.315	419.56
369.541	404.56
369.767	406.56
369.993	389.56
370.219	411.56
370.445	423.56
370.672	429.56
370.898	386.56
371.124	412.56
371.35	397.56
371.576	408.56
371.802	396.56
372.028	410.56
372.254	412.56
372.48	396.56
372.706	423.56
372.932	401.56
373.158	419.56
373.384	421.56
373.61	397.56
373.835	398.56
374.061	410.56
374.287	406.56
374.513	425.56
374.739	416.56
374.965	412.56
375.191	416.56
375.416	424.56
375.642	414.56
375.868	418.56
376.094	416.56
376.319	415.56
376.545	407.56
376.771	414.56
376.997	415.56
377.222	407.56
377.448	418.56
377.674	431.56
377.899	398.56
378.125	402.56
378.35	392.56
378.576	396.56
378.802	393.56
379.027	427.56
379.253	423.56
379.478	421.56
379.704	407.56
379.929	416.56
380.155	404.56
380.38	403.56
380.606	395.56
380.831	408.56
381.057	413.56
381.282	410.56
381.507	410.56
381.733	405.56
381.958	432.56
382.184	412.56
382.409	435.56
382.634	412.56
382.86	438.56
383.085	426.56
383.31	428.56
383.535	426.56
383.761	445.56
383.986	418.56
384.211	422.56
384.436	422.56
384.662	445.56
384.887	425.56
385.112	442.56
385.337	440.56
385.562	435.56
385.787	448.56
386.013	443.56
386.238	444.56
386.463	444.56
386.688	448.56
386.913	430.56
387.138	441.56
387.363	445.56
387.588	449.56
387.813	458.56
388.038	439.56
388.263	460.56
388.488	461.56
388.713	453.56
388.938	456.56
389.163	465.56
389.387	422.56
389.612	470.56
389.837	452.56
390.062	446.56
390.287	437.56
390.512	427.56
390.736	450.56
390.961	441.56
391.186	446.56
391.411	478.56
391.636	460.56
391.86	455.56
392.085	456.56
392.31	450.56
392.534	452.56
392.759	468.56
392.984	468.56
393.208	456.56
393.433	484.56
393.658	455.56
393.882	428.56
394.107	440.56
394.331	429.56
394.556	462.56
394.78	461.56
395.005	435.56
395.229	439.56
395.454	451.56
395.678	471.56
395.903	463.56
396.127	492.56
396.352	505.56
396.576	475.56
396.801	462.56
397.025	461.56
397.249	468.56
397.474	486.56
397.698	467.56
397.922	510.56
398.147	509.56
398.371	514.56
398.595	514.56
398.82	511.56
399.044	527.56
399.268	533.56
399.492	552.56
399.717	582.56
399.941	619.56
400.165	627.56
400.389	640.56
400.613	603.56
400.837	546.56
401.062	528.56
401.286	532.56
401.51	518.56
401.734	503.56
401.958	502.56
402.182	515.56
402.406	531.56
402.63	542.56
402.854	522.56
403.078	549.56
403.302	544.56
403.526	541.56
403.75	531.56
403.974	521.56
404.198	518.56
404.422	520.56
404.645	534.56
404.869	556.56
405.093	552.56
405.317	579.56
405.541	601.56
405.765	571.56
405.988	566.56
406.212	583.56
406.436	583.56
406.66	626.56
406.883	564.56
407.107	590.56
407.331	640.56
407.555	683.56
407.778	691.56
408.002	654.56
408.226	613.56
408.449	615.56
408.673	598.56
408.896	602.56
409.12	657.56
409.344	633.56
409.567	573.56
409.791	538.56
410.014	538.56
410.238	531.56
410.461	515.56
410.685	546.56
410.908	552.56
411.132	578.56
411.355	610.56
411.578	594.56
411.802	545.56
412.025	540.56
412.249	524.56
412.472	550.56
412.695	530.56
412.919	551.56
413.142	506.56
413.365	494.56
413.589	499.56
413.812	508.56
414.035	493.56
414.258	507.56
414.482	511.56
414.705	529.56
414.928	502.56
415.151	510.56
415.374	520.56
415.597	478.56
415.821	509.56
416.044	499.56
416.267	502.56
416.49	487.56
416.713	483.56
416.936	504.56
417.159	512.56
417.382	525.56
417.605	522.56
417.828	507.56
418.051	537.56
418.274	518.56
418.497	511.56
418.72	521.56
418.943	500.56
419.166	518.56
419.389	538.56
419.611	524.56
419.834	546.56
420.057	520.56
420.28	535.56
420.503	522.56
420.726	509.56
420.948	547.56
421.171	552.56
421.394	586.56
421.617	557.56
421.839	534.56
422.062	530.56
422.285	523.56
422.507	591.56
422.73	663.56
422.953	616.56
423.175	567.56
423.398	565.56
423.621	533.56
423.843	546.56
424.066	540.56
424.288	563.56
424.511	585.56
424.733	630.56
424.956	706.56
425.178	693.56
425.401	662.56
425.623	693.56
425.846	606.56
426.068	564.56
426.291	563.56
426.513	559.56
426.735	584.56
426.958	628.56
427.18	679.56
427.402	815.56
427.625	891.56
427.847	787.56
428.069	639.56
428.292	603.56
428.514	554.56
428.736	556.56
428.958	540.56
429.181	526.56
429.403	510.56
429.625	516.56
429.847	562.56
430.069	636.56
430.292	636.56
430.514	549.56
430.736	527.56
430.958	513.56
431.18	481.56
431.402	486.56
431.624	491.56
431.846	490.56
432.068	493.56
432.29	496.56
432.512	507.56
432.734	511.56
432.956	507.56
433.178	526.56
433.4	523.56
433.622	503.56
433.844	509.56
434.066	500.56
434.287	512.56
434.509	486.56
434.731	526.56
434.953	541.56
435.175	526.56
435.397	542.56
435.618	580.56
435.84	603.56
436.062	700.56
436.284	767.56
436.505	637.56
436.727	581.56
436.949	541.56
437.17	524.56
437.392	552.56
437.614	525.56
437.835	562.56
438.057	645.56
438.278	755.56
438.5	719.56
438.721	813.56
438.943	790.56
439.165	647.56
439.386	578.56
439.608	556.56
439.829	574.56
440.05	598.56
440.272	639.56
440.493	600.56
440.715	542.56
440.936	554.56
441.158	533.56
441.379	528.56
441.6	531.56
441.822	571.56
442.043	594.56
442.264	675.56
442.486	721.56
442.707	599.56
442.928	588.56
443.149	591.56
443.371	615.56
443.592	643.56
443.813	725.56
444.034	802.56
444.255	668.56
444.476	596.56
444.698	602.56
444.919	557.56
445.14	660.56
445.361	626.56
445.582	617.56
445.803	670.56
446.024	759.56
446.245	742.56
446.466	698.56
446.687	586.56
446.908	562.56
447.129	531.56
447.35	535.56
447.571	507.56
447.792	515.56
448.013	550.56
448.234	566.56
448.455	596.56
448.675	707.56
448.896	790.56
449.117	676.56
449.338	654.56
449.559	784.56
449.779	856.56
450	671.56
450.221	575.56
450.442	531.56
450.662	515.56
450.883	494.56
451.104	547.56
451.324	534.56
451.545	487.56
451.766	508.56
451.986	483.56
452.207	472.56
452.428	461.56
452.648	460.56
452.869	485.56
453.089	486.56
453.31	466.56
453.53	466.56
453.751	475.56
453.971	462.56
454.192	490.56
454.412	490.56
454.633	478.56
454.853	462.56
455.073	473.56
455.294	497.56
455.514	536.56
455.734	530.56
455.955	462.56
456.175	446.56
456.395	433.56
456.616	452.56
456.836	439.56
457.056	456.56
457.276	432.56
457.497	464.56
457.717	429.56
457.937	459.56
458.157	450.56
458.377	476.56
458.598	492.56
458.818	524.56
459.038	610.56
459.258	626.56
459.478	534.56
459.698	506.56
459.918	496.56
460.138	519.56
460.358	506.56
460.578	496.56
460.798	516.56
461.018	500.56
461.238	542.56
461.458	512.56
461.678	504.56
461.898	491.56
462.118	493.56
462.338	524.56
462.558	537.56
462.777	522.56
462.997	550.56
463.217	572.56
463.437	569.56
463.657	564.56
463.876	538.56
464.096	550.56
464.316	544.56
464.536	546.56
464.755	526.56
464.975	540.56
465.195	582.56
465.414	640.56
465.634	577.56
465.854	540.56
466.073	498.56
466.293	510.56
466.512	487.56
466.732	477.56
466.951	473.56
467.171	498.56
467.391	490.56
467.61	482.56
467.829	482.56
468.049	494.56
468.268	475.56
468.488	476.56
468.707	468.56
468.927	472.56
469.146	471.56
469.365	463.56
469.585	470.56
469.804	459.56
470.023	487.56
470.243	501.56
470.462	490.56
470.681	503.56
470.901	490.56
471.12	495.56
471.339	492.56
471.558	479.56
471.777	484.56
471.997	501.56
472.216	477.56
472.435	486.56
472.654	462.56
472.873	502.56
473.092	489.56
473.311	468.56
473.53	487.56
473.749	500.56
473.968	541.56
474.187	628.56
474.406	636.56
474.625	546.56
474.844	500.56
475.063	503.56
475.282	495.56
475.501	486.56
475.72	495.56
475.939	479.56
476.158	491.56
476.377	520.56
476.596	502.56
476.814	485.56
477.033	528.56
477.252	544.56
477.471	547.56
477.69	559.56
477.908	542.56
478.127	539.56
478.346	541.56
478.564	531.56
478.783	554.56
479.002	574.56
479.22	550.56
479.439	601.56
479.658	564.56
479.876	583.56
480.095	589.56
480.313	598.56
480.532	608.56
480.751	607.56
480.969	602.56
481.188	604.56
481.406	586.56
481.624	574.56
481.843	565.56
482.061	582.56
482.28	562.56
482.498	565.56
482.717	581.56
482.935	576.56
483.153	579.56
483.372	581.56
483.59	596.56
483.808	570.56
484.027	571.56
484.245	576.56
484.463	585.56
484.681	581.56
484.9	568.56
485.118	605.56
485.336	592.56
485.554	588.56
485.772	592.56
485.99	601.56
486.209	599.56
486.427	602.56
486.645	616.56
486.863	644.56
487.081	595.56
487.299	594.56
487.517	620.56
487.735	631.56
487.953	638.56
488.171	597.56
488.389	621.56
488.607	601.56
488.825	640.56
489.043	612.56
489.261	613.56
489.479	632.56
489.696	660.56
489.914	627.56
490.132	649.56
490.35	632.56
490.568	632.56
490.786	651.56
491.003	650.56
491.221	671.56
491.439	696.56
491.657	681.56
491.874	671.56
492.092	684.56
492.31	690.56
492.527	681.56
492.745	710.56
492.963	702.56
493.18	686.56
493.398	708.56
493.615	721.56
493.833	673.56
494.05	718.56
494.268	702.56
494.485	701.56
494.703	701.56
494.92	743.56
495.138	709.56
495.355	725.56
495.573	719.56
495.79	709.56
496.008	702.56
496.225	716.56
496.442	722.56
496.66	736.56
496.877	739.56
497.094	726.56
497.312	748.56
497.529	769.56
497.746	739.56
497.963	768.56
498.181	797.56
498.398	802.56
498.615	835.56
498.832	820.56
499.049	829.56
499.267	862.56
499.484	892.56
499.701	926.56
499.918	952.56
500.135	982.56
500.352	1055.56
500.569	1031.56
500.786	1072.56
501.003	1045.56
501.22	1024.56
501.437	963.56
501.654	951.56
501.871	937.56
502.088	926.56
502.305	877.56
502.522	862.56
502.739	831.56
502.956	795.56
503.172	799.56
503.389	785.56
503.606	776.56
503.823	774.56
504.04	777.56
504.256	763.56
504.473	760.56
504.69	756.56
504.907	734.56
505.123	717.56
505.34	708.56
505.557	728.56
505.773	716.56
505.99	704.56
506.207	708.56
506.423	679.56
506.64	685.56
506.856	676.56
507.073	700.56
507.289	662.56
507.506	678.56
507.722	676.56
507.939	677.56
508.155	714.56
508.372	681.56
508.588	642.56
508.805	661.56
509.021	633.56
509.238	676.56
509.454	670.56
509.67	677.56
509.887	679.56
510.103	652.56
510.319	664.56
510.536	758.56
510.752	1157.56
510.968	980.56
511.184	682.56
511.401	652.56
511.617	649.56
511.833	629.56
512.049	617.56
512.265	626.56
512.481	614.56
512.698	612.56
512.914	616.56
513.13	636.56
513.346	621.56
513.562	638.56
513.778	626.56
513.994	651.56
514.21	656.56
514.426	666.56
514.642	694.56
514.858	698.56
515.074	709.56
515.29	836.56
515.506	1220.56
515.721	1049.56
515.937	742.56
516.153	671.56
516.369	670.56
516.585	657.56
516.801	645.56
517.016	655.56
517.232	641.56
517.448	668.56
517.664	675.56
517.879	657.56
518.095	664.56
518.311	637.56
518.527	631.56
518.742	626.56
518.958	640.56
519.173	642.56
519.389	636.56
519.605	632.56
519.82	633.56
520.036	653.56
520.251	656.56
520.467	670.56
520.682	655.56
520.898	654.56
521.113	694.56
521.329	743.56
521.544	795.56
521.76	930.56
521.975	1518.56
522.19	1566.56
522.406	873.56
522.621	694.56
522.836	644.56
523.052	596.56
523.267	583.56
523.482	606.56
523.698	580.56
523.913	565.56
524.128	589.56
524.343	570.56
524.559	541.56
524.774	541.56
524.989	563.56
525.204	585.56
525.419	535.56
525.634	532.56
525.849	530.56
526.064	532.56
526.28	553.56
526.495	530.56
526.71	535.56
526.925	520.56
527.14	537.56
527.355	525.56
527.57	531.56
527.785	518.56
527.999	512.56
528.214	542.56
528.429	550.56
528.644	536.56
528.859	535.56
529.074	528.56
529.289	539.56
529.503	610.56
529.718	582.56
529.933	530.56
530.148	535.56
530.363	530.56
530.577	528.56
530.792	524.56
531.007	514.56
531.221	520.56
531.436	528.56
531.651	539.56
531.865	495.56
532.08	508.56
532.295	498.56
532.509	514.56
532.724	484.56
532.938	520.56
533.153	516.56
533.367	498.56
533.582	512.56
533.796	511.56
534.011	501.56
534.225	480.56
534.44	490.56
534.654	495.56
534.868	490.56
535.083	493.56
535.297	502.56
535.511	495.56
535.726	495.56
535.94	517.56
536.154	500.56
536.369	516.56
536.583	479.56
536.797	491.56
537.011	476.56
537.225	484.56
537.44	485.56
537.654	485.56
537.868	468.56
538.082	480.56
538.296	484.56
538.51	470.56
538.724	487.56
538.938	490.56
539.153	480.56
539.367	504.56
539.581	490.56
539.795	464.56
540.009	483.56
540.222	484.56
540.436	494.56
540.65	500.56
540.864	475.56
541.078	484.56
541.292	495.56
541.506	477.56
541.72	465.56
541.934	454.56
542.147	473.56
542.361	468.56
542.575	452.56
542.789	452.56
543.002	457.56
543.216	461.56
543.43	479.56
543.644	470.56
543.857	469.56
544.071	458.56
544.285	471.56
544.498	469.56
544.712	493.56
544.925	476.56
545.139	453.56
545.352	456.56
545.566	462.56
545.779	462.56
545.993	470.56
546.206	476.56
546.42	463.56
546.633	458.56
546.847	466.56
547.06	480.56
547.274	444.56
547.487	478.56
547.7	464.56
547.914	470.56
548.127	458.56
548.34	447.56
548.554	438.56
548.767	476.56
548.98	485.56
549.193	470.56
549.407	441.56
549.62	449.56
549.833	458.56
550.046	474.56
550.259	441.56
550.473	464.56
550.686	452.56
550.899	464.56
551.112	457.56
551.325	463.56
551.538	465.56
551.751	470.56
551.964	446.56
552.177	469.56
552.39	427.56
552.603	463.56
552.816	447.56
553.029	468.56
553.242	470.56
553.455	448.56
553.667	485.56
553.88	470.56
554.093	472.56
554.306	462.56
554.519	446.56
554.732	471.56
554.944	449.56
555.157	457.56
555.37	451.56
555.583	438.56
555.795	426.56
556.008	443.56
556.221	440.56
556.433	412.56
556.646	422.56
556.859	427.56
557.071	410.56
557.284	414.56
557.496	401.56
557.709	412.56
557.921	412.56
558.134	393.56
558.346	396.56
558.559	436.56
558.771	411.56
558.984	403.56
559.196	380.56
559.409	398.56
559.621	395.56
559.833	407.56
560.046	386.56
560.258	407.56
560.47	400.56
560.683	413.56
560.895	412.56
561.107	411.56
561.32	422.56
561.532	412.56
561.744	420.56
561.956	406.56
562.168	404.56
562.381	401.56
562.593	408.56
562.805	406.56
563.017	398.56
563.229	408.56
563.441	400.56
563.653	416.56
563.865	422.56
564.077	416.56
564.289	436.56
564.501	415.56
564.713	426.56
564.925	445.56
565.137	447.56
565.349	435.56
565.561	444.56
565.773	472.56
565.985	455.56
566.197	483.56
566.408	465.56
566.62	484.56
566.832	498.56
567.044	504.56
567.255	500.56
567.467	511.56
567.679	520.56
567.891	526.56
568.102	519.56
568.314	516.56
568.526	500.56
568.737	494.56
568.949	457.56
569.161	461.56
569.372	437.56
569.584	431.56
569.795	426.56
570.007	423.56
570.218	445.56
570.43	449.56
570.641	436.56
570.853	395.56
571.064	401.56
571.276	391.56
571.487	386.56
571.698	388.56
571.91	388.56
572.121	390.56
572.333	396.56
572.544	361.56
572.755	384.56
572.966	370.56
573.178	376.56
573.389	362.56
573.6	363.56
573.811	359.56
574.023	357.56
574.234	362.56
574.445	346.56
574.656	338.56
574.867	353.56
575.078	343.56
575.289	347.56
575.501	352.56
575.712	347.56
575.923	331.56
576.134	341.56
576.345	364.56
576.556	347.56
576.767	335.56
576.978	325.56
577.188	330.56
577.399	358.56
577.61	362.56
577.821	335.56
578.032	350.56
578.243	376.56
578.454	570.56
578.665	451.56
578.875	363.56
579.086	334.56
579.297	331.56
579.508	339.56
579.718	331.56
579.929	316.56
580.14	327.56
580.35	319.56
580.561	332.56
580.772	310.56
580.982	340.56
581.193	317.56
581.403	319.56
581.614	324.56
581.825	314.56
582.035	332.56
582.246	330.56
582.456	322.56
582.667	328.56
582.877	314.56
583.087	320.56
583.298	317.56
583.508	307.56
583.719	327.56
583.929	323.56
584.139	323.56
584.35	292.56
584.56	328.56
584.77	312.56
584.981	307.56
585.191	319.56
585.401	315.56
585.611	304.56
585.821	315.56
586.032	310.56
586.242	326.56
586.452	311.56
586.662	306.56
586.872	289.56
587.082	294.56
587.292	315.56
587.502	317.56
587.713	313.56
587.923	318.56
588.133	290.56
588.343	303.56
588.553	320.56
588.762	331.56
588.972	300.56
589.182	323.56
589.392	313.56
589.602	305.56
589.812	315.56
590.022	301.56
590.232	288.56
590.441	302.56
590.651	307.56
590.861	306.56
591.071	306.56
591.281	310.56
591.49	297.56
591.7	305.56
591.91	318.56
592.119	300.56
592.329	315.56
592.539	334.56
592.748	328.56
592.958	326.56
593.167	327.56
593.377	314.56
593.587	346.56
593.796	330.56
594.006	324.56
594.215	338.56
594.424	318.56
594.634	344.56
594.843	320.56
595.053	312.56
595.262	320.56
595.472	295.56
595.681	285.56
595.89	299.56
596.1	286.56
596.309	299.56
596.518	299.56
596.727	298.56
596.937	314.56
597.146	285.56
597.355	308.56
597.564	279.56
597.774	292.56
597.983	296.56
598.192	292.56
598.401	284.56
598.61	287.56
598.819	276.56
599.028	275.56
599.237	254.56
599.446	264.56
599.655	307.56
599.864	264.56
600.073	273.56
600.282	279.56
600.491	279.56
600.7	282.56
600.909	272.56
601.118	283.56
601.327	260.56
601.536	279.56
601.745	278.56
601.953	246.56
602.162	278.56
602.371	267.56
602.58	255.56
602.789	227.56
602.997	249.56
603.206	256.56
603.415	237.56
603.623	244.56
603.832	269.56
604.041	271.56
604.249	266.56
604.458	259.56
604.666	257.56
604.875	263.56
605.084	247.56
605.292	252.56
605.501	244.56
605.709	249.56
605.918	251.56
606.126	247.56
606.334	261.56
606.543	253.56
606.751	242.56
606.96	239.56
607.168	258.56
607.376	247.56
607.585	260.56
607.793	262.56
608.001	268.56
608.21	255.56
608.418	246.56
608.626	251.56
608.834	264.56
609.043	251.56
609.251	243.56
609.459	242.56
609.667	252.56
609.875	257.56
610.083	229.56
610.291	242.56
610.499	251.56
610.707	250.56
610.916	239.56
611.124	262.56
611.332	239.56
611.54	246.56
611.748	256.56
611.955	245.56
612.163	263.56
612.371	264.56
612.579	239.56
612.787	252.56
612.995	256.56
613.203	242.56
613.411	258.56
613.618	246.56
613.826	220.56
614.034	237.56
614.242	229.56
614.449	250.56
614.657	238.56
614.865	252.56
615.072	267.56
615.28	236.56
615.488	238.56
615.695	239.56
615.903	233.56
616.111	262.56
616.318	237.56
616.526	247.56
616.733	246.56
616.941	250.56
617.148	237.56
617.356	247.56
617.563	237.56
617.771	236.56
617.978	234.56
618.185	230.56
618.393	233.56
618.6	238.56
618.807	244.56
619.015	239.56
619.222	228.56
619.429	232.56
619.637	232.56
619.844	237.56
620.051	232.56
620.258	244.56
620.466	225.56
620.673	221.56
620.88	224.56
621.087	218.56
621.294	230.56
621.501	232.56
621.708	221.56
621.915	230.56
622.122	217.56
622.329	219.56
622.536	224.56
622.743	224.56
622.95	214.56
623.157	214.56
623.364	223.56
623.571	218.56
623.778	222.56
623.985	226.56
624.192	205.56
624.399	221.56
624.606	221.56
624.812	236.56
625.019	231.56
625.226	218.56
625.433	214.56
625.639	222.56
625.846	217.56
626.053	207.56
626.259	205.56
626.466	216.56
626.673	216.56
626.879	203.56
627.086	212.56
627.293	206.56
627.499	187.56
627.706	211.56
627.912	225.56
628.119	203.56
628.325	206.56
628.532	217.56
628.738	211.56
628.945	205.56
629.151	211.56
629.357	224.56
629.564	205.56
629.77	202.56
629.976	204.56
630.183	189.56
630.389	215.56
630.595	207.56
630.802	199.56
631.008	201.56
631.214	196.56
631.42	195.56
631.627	207.56
631.833	202.56
632.039	194.56
632.245	181.56
632.451	213.56
632.657	195.56
632.863	196.56
633.069	184.56
633.275	197.56
633.481	186.56
633.688	189.56
633.893	188.56
634.099	201.56
634.305	205.56
634.511	167.56
634.717	175.56
634.923	190.56
635.129	182.56
635.335	184.56
635.541	184.56
635.747	187.56
635.952	194.56
636.158	189.56
636.364	190.56
636.57	193.56
636.775	170.56
636.981	190.56
637.187	186.56
637.392	181.56
637.598	166.56
637.804	174.56
638.009	186.56
638.215	201.56
638.421	190.56
638.626	179.56
638.832	186.56
639.037	162.56
639.243	139.56
639.448	194.56
639.654	184.56
639.859	176.56
640.065	166.56
640.27	176.56
640.475	165.56
640.681	175.56
640.886	183.56
641.091	182.56
641.297	176.56
641.502	180.56
641.707	185.56
641.913	175.56
642.118	167.56
642.323	167.56
642.528	174.56
642.733	162.56
642.939	179.56
643.144	173.56
643.349	186.56
643.554	174.56
643.759	184.56
643.964	168.56
644.169	141.56
644.374	162.56
644.579	170.56
644.784	167.56
644.989	174.56
645.194	170.56
645.399	173.56
645.604	178.56
645.809	184.56
646.014	168.56
646.219	167.56
646.423	173.56
646.628	182.56
646.833	168.56
647.038	175.56
647.243	167.56
647.447	180.56
647.652	171.56
647.857	181.56
648.062	189.56
648.266	166.56
648.471	156.56
648.676	176.56
648.88	167.56
649.085	162.56
649.289	192.56
649.494	189.56
649.698	191.56
649.903	189.56
650.107	173.56
650.312	178.56
650.516	164.56
650.721	162.56
650.925	146.56
651.13	167.56
651.334	158.56
651.539	165.56
651.743	156.56
651.947	164.56
652.152	150.56
652.356	154.56
652.56	155.56
652.764	159.56
652.969	136.56
653.173	151.56
653.377	143.56
653.581	149.56
653.785	152.56
653.99	150.56
654.194	147.56
654.398	152.56
654.602	146.56
654.806	158.56
655.01	134.56
655.214	143.56
655.418	139.56
655.622	139.56
655.826	132.56
656.03	134.56
656.234	138.56
656.438	147.56
656.642	144.56
656.846	144.56
657.049	155.56
657.253	126.56
657.457	138.56
657.661	111.56
657.865	127.56
658.068	117.56
658.272	119.56
658.476	123.56
658.68	109.56
658.883	108.56
659.087	108.56
659.291	114.56
659.494	105.56
659.698	104.56
659.901	92.56
660.105	97.56
660.309	100.56
660.512	92.56
660.716	98.56
660.919	93.56
661.123	83.56
661.326	97.56
661.53	91.56
661.733	95.56
661.936	86.56
662.14	104.56
662.343	87.56
662.546	81.56
662.75	88.56
662.953	90.56
663.156	86.56
663.36	88.56
663.563	99.56
663.766	93.56
663.969	85.56
664.173	84.56
664.376	94.56
664.579	80.56
664.782	89.56
664.985	78.56
665.188	69.56
665.391	84.56
665.594	79.56
665.797	82.56
666	69.56
666.203	76.56
666.406	81.56
666.609	94.56
666.812	88.56
667.015	83.56
667.218	112.56
667.421	81.56
667.624	71.56
667.827	71.56
668.03	86.56
668.232	94.56
668.435	68.56
668.638	88.56
668.841	88.56
669.043	83.56
669.246	75.56
669.449	79.56
669.651	90.56
669.854	72.56
670.057	89.56
670.259	88.56
670.462	86.56
670.665	73.56
670.867	76.56
671.07	77.56
671.272	79.56
671.475	98.56
671.677	88.56
671.88	99.56
672.082	84.56
672.284	91.56
672.487	86.56
672.689	72.56
672.892	86.56
