Data from 1988.PennyLincolnUp.Lamp.En5.5.200Scan.071819.P2_HRD10591_17-19-35-971.txt Node
Date: Thu Jul 18 17:19:35 EDT 2019
User: cochatt
Spectrometer: HR+D1059
Trigger mode: 1
Integration Time (sec): 1.000000E-1
Scans to average: 1
Electric dark correction enabled: true
Nonlinearity correction enabled: false
Boxcar width: 0
XAxis mode: Wavelengths
Number of Pixels in Spectrum: 2048
>>>>>Begin Spectral Data<<<<<
223.165	-7.62
223.4	-7.62
223.635	-7.62
223.869	-10.62
224.104	-27.62
224.338	-9.62
224.573	-6.62
224.808	-17.62
225.042	-9.62
225.277	-4.62
225.511	7.38
225.746	0.38
225.98	-0.62
226.215	-1.62
226.449	19.38
226.683	15.38
226.918	25.38
227.152	28.38
227.387	34.38
227.621	41.38
227.856	45.38
228.09	60.38
228.324	49.38
228.559	55.38
228.793	72.38
229.027	109.38
229.262	102.38
229.496	122.38
229.73	149.38
229.964	161.38
230.199	141.38
230.433	134.38
230.667	128.38
230.901	124.38
231.136	131.38
231.37	128.38
231.604	119.38
231.838	128.38
232.072	127.38
232.306	113.38
232.541	124.38
232.775	120.38
233.009	130.38
233.243	108.38
233.477	125.38
233.711	112.38
233.945	122.38
234.179	132.38
234.413	127.38
234.647	118.38
234.881	123.38
235.115	126.38
235.349	121.38
235.583	144.38
235.817	131.38
236.051	144.38
236.285	136.38
236.519	139.38
236.753	145.38
236.987	156.38
237.221	186.38
237.455	241.38
237.689	197.38
237.922	158.38
238.156	151.38
238.39	142.38
238.624	135.38
238.858	146.38
239.091	133.38
239.325	138.38
239.559	156.38
239.793	133.38
240.027	132.38
240.26	142.38
240.494	180.38
240.728	174.38
240.961	170.38
241.195	163.38
241.429	157.38
241.662	145.38
241.896	139.38
242.13	146.38
242.363	145.38
242.597	141.38
242.83	139.38
243.064	144.38
243.298	154.38
243.531	140.38
243.765	155.38
243.998	147.38
244.232	155.38
244.465	144.38
244.699	159.38
244.932	151.38
245.166	162.38
245.399	144.38
245.633	154.38
245.866	165.38
246.099	153.38
246.333	162.38
246.566	177.38
246.8	161.38
247.033	159.38
247.266	184.38
247.5	175.38
247.733	191.38
247.966	180.38
248.2	166.38
248.433	192.38
248.666	193.38
248.899	215.38
249.133	226.38
249.366	223.38
249.599	206.38
249.832	199.38
250.066	190.38
250.299	196.38
250.532	193.38
250.765	207.38
250.998	221.38
251.231	239.38
251.465	212.38
251.698	213.38
251.931	215.38
252.164	205.38
252.397	212.38
252.63	205.38
252.863	206.38
253.096	232.38
253.329	246.38
253.562	232.38
253.795	234.38
254.028	227.38
254.261	229.38
254.494	253.38
254.727	262.38
254.96	307.38
255.193	279.38
255.426	255.38
255.659	235.38
255.892	231.38
256.124	217.38
256.357	226.38
256.59	223.38
256.823	216.38
257.056	247.38
257.289	240.38
257.521	211.38
257.754	221.38
257.987	228.38
258.22	222.38
258.452	225.38
258.685	222.38
258.918	198.38
259.151	231.38
259.383	226.38
259.616	235.38
259.849	220.38
260.081	229.38
260.314	276.38
260.547	263.38
260.779	257.38
261.012	247.38
261.244	229.38
261.477	225.38
261.71	229.38
261.942	233.38
262.175	265.38
262.407	251.38
262.64	218.38
262.872	224.38
263.105	211.38
263.337	226.38
263.57	217.38
263.802	223.38
264.035	236.38
264.267	224.38
264.499	214.38
264.732	234.38
264.964	233.38
265.197	220.38
265.429	246.38
265.661	238.38
265.894	237.38
266.126	249.38
266.358	219.38
266.591	233.38
266.823	240.38
267.055	231.38
267.287	248.38
267.52	233.38
267.752	264.38
267.984	246.38
268.216	237.38
268.448	231.38
268.681	253.38
268.913	261.38
269.145	295.38
269.377	310.38
269.609	302.38
269.841	292.38
270.073	280.38
270.306	285.38
270.538	349.38
270.77	343.38
271.002	319.38
271.234	305.38
271.466	316.38
271.698	339.38
271.93	340.38
272.162	324.38
272.394	321.38
272.626	327.38
272.858	312.38
273.09	309.38
273.322	290.38
273.553	291.38
273.785	277.38
274.017	290.38
274.249	283.38
274.481	265.38
274.713	289.38
274.945	278.38
275.176	300.38
275.408	271.38
275.64	285.38
275.872	295.38
276.104	264.38
276.335	287.38
276.567	312.38
276.799	320.38
277.031	311.38
277.262	350.38
277.494	341.38
277.726	323.38
277.957	310.38
278.189	313.38
278.421	295.38
278.652	287.38
278.884	297.38
279.115	295.38
279.347	293.38
279.579	289.38
279.81	288.38
280.042	283.38
280.273	267.38
280.505	280.38
280.736	271.38
280.968	285.38
281.199	290.38
281.431	281.38
281.662	309.38
281.894	296.38
282.125	300.38
282.356	317.38
282.588	351.38
282.819	344.38
283.051	293.38
283.282	302.38
283.513	314.38
283.745	309.38
283.976	294.38
284.207	317.38
284.439	314.38
284.67	323.38
284.901	317.38
285.132	293.38
285.364	307.38
285.595	311.38
285.826	288.38
286.057	296.38
286.288	291.38
286.52	299.38
286.751	313.38
286.982	299.38
287.213	305.38
287.444	295.38
287.675	308.38
287.906	327.38
288.138	330.38
288.369	320.38
288.6	324.38
288.831	325.38
289.062	316.38
289.293	328.38
289.524	296.38
289.755	307.38
289.986	312.38
290.217	323.38
290.448	311.38
290.679	323.38
290.91	295.38
291.141	301.38
291.371	320.38
291.602	289.38
291.833	307.38
292.064	313.38
292.295	305.38
292.526	325.38
292.757	313.38
292.987	309.38
293.218	306.38
293.449	321.38
293.68	324.38
293.91	324.38
294.141	313.38
294.372	328.38
294.603	329.38
294.833	341.38
295.064	324.38
295.295	343.38
295.525	315.38
295.756	343.38
295.987	314.38
296.217	349.38
296.448	351.38
296.679	335.38
296.909	323.38
297.14	324.38
297.37	327.38
297.601	340.38
297.831	324.38
298.062	312.38
298.292	336.38
298.523	316.38
298.753	328.38
298.984	335.38
299.214	337.38
299.445	339.38
299.675	352.38
299.905	345.38
300.136	347.38
300.366	335.38
300.597	333.38
300.827	341.38
301.057	360.38
301.288	355.38
301.518	342.38
301.748	330.38
301.979	360.38
302.209	376.38
302.439	351.38
302.669	364.38
302.9	360.38
303.13	350.38
303.36	359.38
303.59	376.38
303.82	353.38
304.051	383.38
304.281	364.38
304.511	368.38
304.741	360.38
304.971	361.38
305.201	358.38
305.431	368.38
305.661	357.38
305.891	356.38
306.121	364.38
306.352	381.38
306.582	371.38
306.812	367.38
307.042	381.38
307.272	353.38
307.502	366.38
307.731	355.38
307.961	375.38
308.191	362.38
308.421	351.38
308.651	367.38
308.881	381.38
309.111	377.38
309.341	360.38
309.571	383.38
309.8	417.38
310.03	406.38
310.26	415.38
310.49	397.38
310.72	426.38
310.949	433.38
311.179	436.38
311.409	419.38
311.639	417.38
311.868	433.38
312.098	405.38
312.328	423.38
312.557	442.38
312.787	458.38
313.017	447.38
313.246	423.38
313.476	410.38
313.706	436.38
313.935	426.38
314.165	439.38
314.394	449.38
314.624	435.38
314.853	438.38
315.083	428.38
315.312	397.38
315.542	399.38
315.771	399.38
316.001	427.38
316.23	429.38
316.46	416.38
316.689	416.38
316.919	425.38
317.148	412.38
317.377	415.38
317.607	431.38
317.836	431.38
318.065	428.38
318.295	407.38
318.524	415.38
318.753	405.38
318.983	437.38
319.212	401.38
319.441	425.38
319.67	438.38
319.9	441.38
320.129	427.38
320.358	412.38
320.587	420.38
320.816	428.38
321.046	451.38
321.275	447.38
321.504	441.38
321.733	420.38
321.962	447.38
322.191	475.38
322.42	484.38
322.649	479.38
322.878	515.38
323.108	532.38
323.337	526.38
323.566	553.38
323.795	583.38
324.024	643.38
324.253	756.38
324.482	1101.38
324.71	1719.38
324.939	2527.38
325.168	2126.38
325.397	1117.38
325.626	755.38
325.855	617.38
326.084	573.38
326.313	565.38
326.542	553.38
326.77	627.38
326.999	715.38
327.228	941.38
327.457	1517.38
327.686	1878.38
327.914	1199.38
328.143	802.38
328.372	687.38
328.6	643.38
328.829	619.38
329.058	621.38
329.287	652.38
329.515	581.38
329.744	574.38
329.972	541.38
330.201	544.38
330.43	564.38
330.658	629.38
330.887	666.38
331.115	627.38
331.344	593.38
331.572	537.38
331.801	544.38
332.03	532.38
332.258	508.38
332.486	523.38
332.715	512.38
332.943	492.38
333.172	521.38
333.4	499.38
333.629	526.38
333.857	519.38
334.085	508.38
334.314	513.38
334.542	521.38
334.771	528.38
334.999	527.38
335.227	516.38
335.455	516.38
335.684	499.38
335.912	485.38
336.14	493.38
336.369	500.38
336.597	512.38
336.825	523.38
337.053	486.38
337.281	477.38
337.51	477.38
337.738	487.38
337.966	503.38
338.194	515.38
338.422	491.38
338.65	480.38
338.878	473.38
339.106	481.38
339.334	476.38
339.562	475.38
339.79	475.38
340.018	473.38
340.246	499.38
340.474	490.38
340.702	491.38
340.93	473.38
341.158	481.38
341.386	471.38
341.614	481.38
341.842	493.38
342.07	468.38
342.298	481.38
342.526	460.38
342.754	457.38
342.981	447.38
343.209	482.38
343.437	461.38
343.665	484.38
343.893	483.38
344.12	479.38
344.348	479.38
344.576	507.38
344.804	477.38
345.031	497.38
345.259	519.38
345.487	508.38
345.714	479.38
345.942	476.38
346.17	468.38
346.397	475.38
346.625	473.38
346.853	484.38
347.08	496.38
347.308	467.38
347.535	483.38
347.763	492.38
347.99	493.38
348.218	496.38
348.445	474.38
348.673	487.38
348.9	484.38
349.128	481.38
349.355	455.38
349.583	466.38
349.81	460.38
350.037	447.38
350.265	443.38
350.492	462.38
350.72	460.38
350.947	475.38
351.174	468.38
351.402	481.38
351.629	468.38
351.856	459.38
352.083	484.38
352.311	513.38
352.538	499.38
352.765	486.38
352.992	461.38
353.22	467.38
353.447	453.38
353.674	460.38
353.901	460.38
354.128	464.38
354.355	462.38
354.583	460.38
354.81	458.38
355.037	441.38
355.264	439.38
355.491	460.38
355.718	422.38
355.945	440.38
356.172	437.38
356.399	428.38
356.626	454.38
356.853	431.38
357.08	440.38
357.307	442.38
357.534	432.38
357.761	445.38
357.988	432.38
358.215	464.38
358.441	460.38
358.668	430.38
358.895	465.38
359.122	463.38
359.349	463.38
359.576	472.38
359.802	475.38
360.029	522.38
360.256	537.38
360.483	503.38
360.709	478.38
360.936	479.38
361.163	468.38
361.39	477.38
361.616	464.38
361.843	467.38
362.07	481.38
362.296	488.38
362.523	472.38
362.749	480.38
362.976	463.38
363.203	460.38
363.429	454.38
363.656	473.38
363.882	453.38
364.109	462.38
364.335	451.38
364.562	457.38
364.788	451.38
365.015	476.38
365.241	476.38
365.468	455.38
365.694	453.38
365.92	480.38
366.147	456.38
366.373	468.38
366.599	464.38
366.826	451.38
367.052	454.38
367.278	447.38
367.505	457.38
367.731	464.38
367.957	480.38
368.184	441.38
368.41	463.38
368.636	463.38
368.862	489.38
369.089	464.38
369.315	435.38
369.541	445.38
369.767	443.38
369.993	446.38
370.219	448.38
370.445	465.38
370.672	464.38
370.898	450.38
371.124	460.38
371.35	468.38
371.576	453.38
371.802	457.38
372.028	453.38
372.254	458.38
372.48	445.38
372.706	465.38
372.932	448.38
373.158	450.38
373.384	451.38
373.61	479.38
373.835	472.38
374.061	472.38
374.287	440.38
374.513	462.38
374.739	462.38
374.965	474.38
375.191	483.38
375.416	468.38
375.642	464.38
375.868	468.38
376.094	479.38
376.319	446.38
376.545	464.38
376.771	456.38
376.997	447.38
377.222	447.38
377.448	464.38
377.674	468.38
377.899	463.38
378.125	455.38
378.35	444.38
378.576	452.38
378.802	459.38
379.027	456.38
379.253	470.38
379.478	466.38
379.704	445.38
379.929	460.38
380.155	469.38
380.38	456.38
380.606	447.38
380.831	460.38
381.057	438.38
381.282	457.38
381.507	460.38
381.733	443.38
381.958	457.38
382.184	474.38
382.409	487.38
382.634	476.38
382.86	460.38
383.085	468.38
383.31	492.38
383.535	491.38
383.761	475.38
383.986	471.38
384.211	497.38
384.436	493.38
384.662	501.38
384.887	506.38
385.112	492.38
385.337	504.38
385.562	491.38
385.787	479.38
386.013	505.38
386.238	519.38
386.463	508.38
386.688	499.38
386.913	489.38
387.138	529.38
387.363	498.38
387.588	525.38
387.813	503.38
388.038	513.38
388.263	518.38
388.488	525.38
388.713	510.38
388.938	493.38
389.163	499.38
389.387	494.38
389.612	504.38
389.837	494.38
390.062	513.38
390.287	519.38
390.512	501.38
390.736	511.38
390.961	528.38
391.186	529.38
391.411	516.38
391.636	527.38
391.86	513.38
392.085	524.38
392.31	526.38
392.534	525.38
392.759	519.38
392.984	512.38
393.208	502.38
393.433	515.38
393.658	509.38
393.882	528.38
394.107	527.38
394.331	508.38
394.556	500.38
394.78	524.38
395.005	549.38
395.229	520.38
395.454	532.38
395.678	529.38
395.903	547.38
396.127	575.38
396.352	570.38
396.576	533.38
396.801	523.38
397.025	528.38
397.249	519.38
397.474	565.38
397.698	551.38
397.922	571.38
398.147	589.38
398.371	595.38
398.595	578.38
398.82	559.38
399.044	603.38
399.268	620.38
399.492	655.38
399.717	669.38
399.941	702.38
400.165	724.38
400.389	749.38
400.613	677.38
400.837	649.38
401.062	617.38
401.286	617.38
401.51	602.38
401.734	580.38
401.958	599.38
402.182	615.38
402.406	590.38
402.63	592.38
402.854	612.38
403.078	597.38
403.302	612.38
403.526	624.38
403.75	607.38
403.974	613.38
404.198	613.38
404.422	605.38
404.645	623.38
404.869	611.38
405.093	617.38
405.317	672.38
405.541	717.38
405.765	637.38
405.988	641.38
406.212	651.38
406.436	667.38
406.66	693.38
406.883	650.38
407.107	687.38
407.331	731.38
407.555	806.38
407.778	808.38
408.002	741.38
408.226	679.38
408.449	682.38
408.673	685.38
408.896	684.38
409.12	767.38
409.344	716.38
409.567	661.38
409.791	622.38
410.014	602.38
410.238	618.38
410.461	640.38
410.685	633.38
410.908	638.38
411.132	661.38
411.355	709.38
411.578	703.38
411.802	654.38
412.025	619.38
412.249	602.38
412.472	611.38
412.695	607.38
412.919	607.38
413.142	591.38
413.365	591.38
413.589	607.38
413.812	582.38
414.035	592.38
414.258	586.38
414.482	581.38
414.705	589.38
414.928	578.38
415.151	568.38
415.374	560.38
415.597	583.38
415.821	588.38
416.044	577.38
416.267	600.38
416.49	568.38
416.713	570.38
416.936	586.38
417.159	560.38
417.382	588.38
417.605	579.38
417.828	573.38
418.051	625.38
418.274	605.38
418.497	581.38
418.72	579.38
418.943	611.38
419.166	615.38
419.389	608.38
419.611	617.38
419.834	615.38
420.057	611.38
420.28	631.38
420.503	597.38
420.726	599.38
420.948	635.38
421.171	669.38
421.394	719.38
421.617	645.38
421.839	589.38
422.062	611.38
422.285	619.38
422.507	700.38
422.73	791.38
422.953	748.38
423.175	675.38
423.398	634.38
423.621	634.38
423.843	631.38
424.066	666.38
424.288	660.38
424.511	678.38
424.733	721.38
424.956	862.38
425.178	816.38
425.401	803.38
425.623	828.38
425.846	723.38
426.068	661.38
426.291	661.38
426.513	668.38
426.735	641.38
426.958	691.38
427.18	826.38
427.402	954.38
427.625	1045.38
427.847	913.38
428.069	778.38
428.292	705.38
428.514	668.38
428.736	612.38
428.958	636.38
429.181	617.38
429.403	601.38
429.625	618.38
429.847	667.38
430.069	741.38
430.292	733.38
430.514	639.38
430.736	606.38
430.958	579.38
431.18	582.38
431.402	596.38
431.624	593.38
431.846	582.38
432.068	581.38
432.29	600.38
432.512	591.38
432.734	597.38
432.956	583.38
433.178	566.38
433.4	602.38
433.622	618.38
433.844	574.38
434.066	584.38
434.287	602.38
434.509	598.38
434.731	588.38
434.953	592.38
435.175	617.38
435.397	653.38
435.618	660.38
435.84	695.38
436.062	821.38
436.284	911.38
436.505	750.38
436.727	681.38
436.949	630.38
437.17	613.38
437.392	612.38
437.614	611.38
437.835	656.38
438.057	772.38
438.278	907.38
438.5	868.38
438.721	958.38
438.943	949.38
439.165	738.38
439.386	669.38
439.608	661.38
439.829	655.38
440.05	703.38
440.272	741.38
440.493	702.38
440.715	669.38
440.936	629.38
441.158	610.38
441.379	590.38
441.6	632.38
441.822	632.38
442.043	711.38
442.264	807.38
442.486	873.38
442.707	735.38
442.928	661.38
443.149	678.38
443.371	719.38
443.592	766.38
443.813	875.38
444.034	927.38
444.255	743.38
444.476	698.38
444.698	680.38
444.919	679.38
445.14	760.38
445.361	705.38
445.582	700.38
445.803	769.38
446.024	911.38
446.245	924.38
446.466	812.38
446.687	723.38
446.908	675.38
447.129	638.38
447.35	624.38
447.571	619.38
447.792	598.38
448.013	600.38
448.234	638.38
448.455	680.38
448.675	779.38
448.896	967.38
449.117	824.38
449.338	771.38
449.559	900.38
449.779	1000.38
450	815.38
450.221	655.38
450.442	601.38
450.662	613.38
450.883	602.38
451.104	611.38
451.324	592.38
451.545	594.38
451.766	569.38
451.986	561.38
452.207	547.38
452.428	528.38
452.648	541.38
452.869	552.38
453.089	553.38
453.31	559.38
453.53	529.38
453.751	548.38
453.971	550.38
454.192	586.38
454.412	534.38
454.633	559.38
454.853	545.38
455.073	545.38
455.294	570.38
455.514	646.38
455.734	653.38
455.955	547.38
456.175	525.38
456.395	520.38
456.616	516.38
456.836	539.38
457.056	513.38
457.276	485.38
457.497	532.38
457.717	532.38
457.937	518.38
458.157	552.38
458.377	544.38
458.598	547.38
458.818	627.38
459.038	727.38
459.258	743.38
459.478	636.38
459.698	603.38
459.918	588.38
460.138	592.38
460.358	571.38
460.578	605.38
460.798	609.38
461.018	606.38
461.238	603.38
461.458	580.38
461.678	592.38
461.898	597.38
462.118	613.38
462.338	618.38
462.558	600.38
462.777	635.38
462.997	629.38
463.217	630.38
463.437	647.38
463.657	644.38
463.876	645.38
464.096	644.38
464.316	636.38
464.536	671.38
464.755	651.38
464.975	649.38
465.195	679.38
465.414	738.38
465.634	673.38
465.854	624.38
466.073	604.38
466.293	601.38
466.512	588.38
466.732	558.38
466.951	574.38
467.171	557.38
467.391	565.38
467.61	558.38
467.829	591.38
468.049	564.38
468.268	541.38
468.488	535.38
468.707	564.38
468.927	521.38
469.146	531.38
469.365	565.38
469.585	560.38
469.804	548.38
470.023	588.38
470.243	583.38
470.462	579.38
470.681	598.38
470.901	594.38
471.12	592.38
471.339	567.38
471.558	575.38
471.777	573.38
471.997	565.38
472.216	561.38
472.435	551.38
472.654	574.38
472.873	568.38
473.092	569.38
473.311	558.38
473.53	565.38
473.749	592.38
473.968	605.38
474.187	725.38
474.406	747.38
474.625	660.38
474.844	593.38
475.063	577.38
475.282	581.38
475.501	583.38
475.72	589.38
475.939	592.38
476.158	604.38
476.377	584.38
476.596	593.38
476.814	585.38
477.033	572.38
477.252	595.38
477.471	603.38
477.69	623.38
477.908	616.38
478.127	614.38
478.346	622.38
478.564	606.38
478.783	652.38
479.002	631.38
479.22	657.38
479.439	675.38
479.658	685.38
479.876	669.38
480.095	688.38
480.313	701.38
480.532	693.38
480.751	666.38
480.969	681.38
481.188	683.38
481.406	698.38
481.624	658.38
481.843	651.38
482.061	664.38
482.28	659.38
482.498	664.38
482.717	666.38
482.935	676.38
483.153	638.38
483.372	675.38
483.59	689.38
483.808	661.38
484.027	650.38
484.245	679.38
484.463	674.38
484.681	686.38
484.9	673.38
485.118	692.38
485.336	693.38
485.554	667.38
485.772	700.38
485.99	712.38
486.209	694.38
486.427	681.38
486.645	726.38
486.863	723.38
487.081	701.38
487.299	707.38
487.517	721.38
487.735	717.38
487.953	735.38
488.171	705.38
488.389	735.38
488.607	718.38
488.825	692.38
489.043	715.38
489.261	710.38
489.479	747.38
489.696	716.38
489.914	708.38
490.132	730.38
490.35	740.38
490.568	718.38
490.786	752.38
491.003	754.38
491.221	773.38
491.439	805.38
491.657	810.38
491.874	784.38
492.092	783.38
492.31	815.38
492.527	814.38
492.745	829.38
492.963	829.38
493.18	821.38
493.398	810.38
493.615	823.38
493.833	823.38
494.05	819.38
494.268	835.38
494.485	827.38
494.703	835.38
494.92	859.38
495.138	830.38
495.355	878.38
495.573	865.38
495.79	830.38
496.008	870.38
496.225	832.38
496.442	857.38
496.66	858.38
496.877	872.38
497.094	873.38
497.312	882.38
497.529	911.38
497.746	913.38
497.963	913.38
498.181	925.38
498.398	953.38
498.615	971.38
498.832	996.38
499.049	998.38
499.267	997.38
499.484	1037.38
499.701	1091.38
499.918	1093.38
500.135	1180.38
500.352	1214.38
500.569	1235.38
500.786	1216.38
501.003	1189.38
501.22	1180.38
501.437	1162.38
501.654	1152.38
501.871	1104.38
502.088	1070.38
502.305	1009.38
502.522	1001.38
502.739	984.38
502.956	931.38
503.172	951.38
503.389	923.38
503.606	913.38
503.823	909.38
504.04	885.38
504.256	870.38
504.473	883.38
504.69	895.38
504.907	906.38
505.123	872.38
505.34	839.38
505.557	826.38
505.773	834.38
505.99	806.38
506.207	817.38
506.423	835.38
506.64	851.38
506.856	792.38
507.073	809.38
507.289	811.38
507.506	801.38
507.722	792.38
507.939	835.38
508.155	783.38
508.372	791.38
508.588	771.38
508.805	788.38
509.021	788.38
509.238	800.38
509.454	794.38
509.67	795.38
509.887	822.38
510.103	785.38
510.319	777.38
510.536	873.38
510.752	1397.38
510.968	1214.38
511.184	806.38
511.401	759.38
511.617	740.38
511.833	721.38
512.049	707.38
512.265	716.38
512.481	720.38
512.698	749.38
512.914	751.38
513.13	737.38
513.346	732.38
513.562	711.38
513.778	743.38
513.994	760.38
514.21	771.38
514.426	773.38
514.642	832.38
514.858	849.38
515.074	879.38
515.29	1045.38
515.506	1453.38
515.721	1258.38
515.937	885.38
516.153	818.38
516.369	789.38
516.585	769.38
516.801	770.38
517.016	777.38
517.232	777.38
517.448	790.38
517.664	785.38
517.879	776.38
518.095	793.38
518.311	755.38
518.527	734.38
518.742	774.38
518.958	752.38
519.173	745.38
519.389	765.38
519.605	740.38
519.82	773.38
520.036	771.38
520.251	769.38
520.467	800.38
520.682	825.38
520.898	834.38
521.113	814.38
521.329	890.38
521.544	949.38
521.76	1178.38
521.975	1887.38
522.19	1824.38
522.406	1084.38
522.621	830.38
522.836	797.38
523.052	744.38
523.267	703.38
523.482	681.38
523.698	675.38
523.913	705.38
524.128	672.38
524.343	666.38
524.559	653.38
524.774	635.38
524.989	663.38
525.204	684.38
525.419	649.38
525.634	644.38
525.849	621.38
526.064	616.38
526.28	619.38
526.495	614.38
526.71	601.38
526.925	607.38
527.14	624.38
527.355	643.38
527.57	621.38
527.785	625.38
527.999	600.38
528.214	591.38
528.429	608.38
528.644	605.38
528.859	642.38
529.074	604.38
529.289	648.38
529.503	702.38
529.718	691.38
529.933	652.38
530.148	651.38
530.363	597.38
530.577	626.38
530.792	587.38
531.007	592.38
531.221	594.38
531.436	584.38
531.651	600.38
531.865	584.38
532.08	612.38
532.295	592.38
532.509	586.38
532.724	563.38
532.938	574.38
533.153	580.38
533.367	567.38
533.582	579.38
533.796	576.38
534.011	572.38
534.225	572.38
534.44	576.38
534.654	593.38
534.868	571.38
535.083	577.38
535.297	577.38
535.511	584.38
535.726	596.38
535.94	578.38
536.154	576.38
536.369	558.38
536.583	571.38
536.797	578.38
537.011	565.38
537.225	559.38
537.44	569.38
537.654	565.38
537.868	544.38
538.082	534.38
538.296	560.38
538.51	569.38
538.724	556.38
538.938	553.38
539.153	551.38
539.367	559.38
539.581	558.38
539.795	573.38
540.009	573.38
540.222	553.38
540.436	534.38
540.65	541.38
540.864	550.38
541.078	544.38
541.292	577.38
541.506	549.38
541.72	587.38
541.934	571.38
542.147	560.38
542.361	542.38
542.575	543.38
542.789	548.38
543.002	548.38
543.216	544.38
543.43	563.38
543.644	543.38
543.857	537.38
544.071	563.38
544.285	555.38
544.498	548.38
544.712	548.38
544.925	527.38
545.139	558.38
545.352	547.38
545.566	542.38
545.779	568.38
545.993	538.38
546.206	554.38
546.42	537.38
546.633	529.38
546.847	533.38
547.06	509.38
547.274	540.38
547.487	539.38
547.7	536.38
547.914	538.38
548.127	533.38
548.34	535.38
548.554	533.38
548.767	551.38
548.98	537.38
549.193	520.38
549.407	546.38
549.62	527.38
549.833	540.38
550.046	523.38
550.259	524.38
550.473	554.38
550.686	528.38
550.899	525.38
551.112	521.38
551.325	500.38
551.538	523.38
551.751	521.38
551.964	496.38
552.177	536.38
552.39	513.38
552.603	515.38
552.816	522.38
553.029	529.38
553.242	557.38
553.455	565.38
553.667	548.38
553.88	547.38
554.093	541.38
554.306	534.38
554.519	512.38
554.732	525.38
554.944	529.38
555.157	500.38
555.37	520.38
555.583	505.38
555.795	507.38
556.008	498.38
556.221	497.38
556.433	484.38
556.646	477.38
556.859	485.38
557.071	488.38
557.284	472.38
557.496	472.38
557.709	478.38
557.921	485.38
558.134	488.38
558.346	474.38
558.559	477.38
558.771	461.38
558.984	475.38
559.196	479.38
559.409	479.38
559.621	472.38
559.833	461.38
560.046	465.38
560.258	462.38
560.47	465.38
560.683	479.38
560.895	487.38
561.107	455.38
561.32	484.38
561.532	467.38
561.744	479.38
561.956	454.38
562.168	463.38
562.381	475.38
562.593	481.38
562.805	475.38
563.017	456.38
563.229	485.38
563.441	478.38
563.653	468.38
563.865	479.38
564.077	478.38
564.289	467.38
564.501	483.38
564.713	495.38
564.925	497.38
565.137	499.38
565.349	507.38
565.561	505.38
565.773	501.38
565.985	527.38
566.197	540.38
566.408	551.38
566.62	571.38
566.832	571.38
567.044	573.38
567.255	591.38
567.467	590.38
567.679	611.38
567.891	603.38
568.102	599.38
568.314	602.38
568.526	573.38
568.737	556.38
568.949	533.38
569.161	516.38
569.372	508.38
569.584	494.38
569.795	479.38
570.007	491.38
570.218	524.38
570.43	506.38
570.641	477.38
570.853	463.38
571.064	451.38
571.276	459.38
571.487	435.38
571.698	446.38
571.91	432.38
572.121	458.38
572.333	431.38
572.544	419.38
572.755	422.38
572.966	425.38
573.178	416.38
573.389	417.38
573.6	430.38
573.811	415.38
574.023	419.38
574.234	413.38
574.445	406.38
574.656	429.38
574.867	406.38
575.078	404.38
575.289	409.38
575.501	397.38
575.712	387.38
575.923	383.38
576.134	395.38
576.345	405.38
576.556	387.38
576.767	390.38
576.978	385.38
577.188	383.38
577.399	380.38
577.61	385.38
577.821	414.38
578.032	385.38
578.243	429.38
578.454	659.38
578.665	513.38
578.875	402.38
579.086	403.38
579.297	374.38
579.508	374.38
579.718	377.38
579.929	366.38
580.14	391.38
580.35	364.38
580.561	373.38
580.772	389.38
580.982	372.38
581.193	364.38
581.403	364.38
581.614	366.38
581.825	371.38
582.035	351.38
582.246	358.38
582.456	348.38
582.667	366.38
582.877	363.38
583.087	349.38
583.298	370.38
583.508	356.38
583.719	356.38
583.929	364.38
584.139	367.38
584.35	358.38
584.56	380.38
584.77	371.38
584.981	342.38
585.191	359.38
585.401	362.38
585.611	368.38
585.821	347.38
586.032	372.38
586.242	370.38
586.452	356.38
586.662	357.38
586.872	345.38
587.082	332.38
587.292	356.38
587.502	340.38
587.713	333.38
587.923	350.38
588.133	356.38
588.343	356.38
588.553	356.38
588.762	332.38
588.972	343.38
589.182	360.38
589.392	355.38
589.602	351.38
589.812	368.38
590.022	365.38
590.232	348.38
590.441	371.38
590.651	345.38
590.861	341.38
591.071	351.38
591.281	361.38
591.49	355.38
591.7	353.38
591.91	367.38
592.119	366.38
592.329	378.38
592.539	355.38
592.748	377.38
592.958	367.38
593.167	369.38
593.377	371.38
593.587	359.38
593.796	366.38
594.006	372.38
594.215	351.38
594.424	377.38
594.634	377.38
594.843	357.38
595.053	363.38
595.262	339.38
595.472	336.38
595.681	356.38
595.89	369.38
596.1	327.38
596.309	331.38
596.518	330.38
596.727	351.38
596.937	334.38
597.146	324.38
597.355	335.38
597.564	337.38
597.774	343.38
597.983	334.38
598.192	328.38
598.401	308.38
598.61	298.38
598.819	318.38
599.028	320.38
599.237	320.38
599.446	310.38
599.655	302.38
599.864	322.38
600.073	300.38
600.282	303.38
600.491	311.38
600.7	312.38
600.909	312.38
601.118	315.38
601.327	324.38
601.536	294.38
601.745	303.38
601.953	308.38
602.162	308.38
602.371	304.38
602.58	278.38
602.789	304.38
602.997	314.38
603.206	302.38
603.415	294.38
603.623	296.38
603.832	290.38
604.041	284.38
604.249	307.38
604.458	284.38
604.666	283.38
604.875	297.38
605.084	279.38
605.292	277.38
605.501	284.38
605.709	269.38
605.918	283.38
606.126	284.38
606.334	280.38
606.543	299.38
606.751	292.38
606.96	298.38
607.168	301.38
607.376	284.38
607.585	299.38
607.793	271.38
608.001	293.38
608.21	254.38
608.418	276.38
608.626	295.38
608.834	296.38
609.043	290.38
609.251	288.38
609.459	287.38
609.667	271.38
609.875	271.38
610.083	284.38
610.291	277.38
610.499	281.38
610.707	276.38
610.916	296.38
611.124	281.38
611.332	265.38
611.54	279.38
611.748	291.38
611.955	264.38
612.163	281.38
612.371	274.38
612.579	281.38
612.787	269.38
612.995	280.38
613.203	264.38
613.411	274.38
613.618	275.38
613.826	256.38
614.034	273.38
614.242	289.38
614.449	286.38
614.657	276.38
614.865	276.38
615.072	264.38
615.28	268.38
615.488	268.38
615.695	276.38
615.903	279.38
616.111	294.38
616.318	288.38
616.526	263.38
616.733	272.38
616.941	273.38
617.148	273.38
617.356	273.38
617.563	264.38
617.771	252.38
617.978	273.38
618.185	265.38
618.393	273.38
618.6	275.38
618.807	263.38
619.015	270.38
619.222	263.38
619.429	262.38
619.637	289.38
619.844	261.38
620.051	272.38
620.258	254.38
620.466	260.38
620.673	246.38
620.88	249.38
621.087	266.38
621.294	239.38
621.501	246.38
621.708	246.38
621.915	234.38
622.122	245.38
622.329	255.38
622.536	265.38
622.743	265.38
622.95	277.38
623.157	248.38
623.364	261.38
623.571	236.38
623.778	243.38
623.985	257.38
624.192	234.38
624.399	243.38
624.606	262.38
624.812	254.38
625.019	232.38
625.226	240.38
625.433	262.38
625.639	232.38
625.846	231.38
626.053	233.38
626.259	241.38
626.466	235.38
626.673	238.38
626.879	236.38
627.086	232.38
627.293	232.38
627.499	254.38
627.706	243.38
627.912	224.38
628.119	212.38
628.325	232.38
628.532	219.38
628.738	222.38
628.945	238.38
629.151	233.38
629.357	234.38
629.564	222.38
629.77	219.38
629.976	220.38
630.183	233.38
630.389	240.38
630.595	217.38
630.802	225.38
631.008	219.38
631.214	209.38
631.42	217.38
631.627	253.38
631.833	221.38
632.039	220.38
632.245	236.38
632.451	222.38
632.657	236.38
632.863	223.38
633.069	216.38
633.275	205.38
633.481	209.38
633.688	216.38
633.893	210.38
634.099	212.38
634.305	203.38
634.511	213.38
634.717	192.38
634.923	198.38
635.129	207.38
635.335	212.38
635.541	197.38
635.747	220.38
635.952	211.38
636.158	212.38
636.364	191.38
636.57	208.38
636.775	200.38
636.981	216.38
637.187	225.38
637.392	203.38
637.598	196.38
637.804	211.38
638.009	207.38
638.215	199.38
638.421	213.38
638.626	203.38
638.832	208.38
639.037	191.38
639.243	203.38
639.448	196.38
639.654	203.38
639.859	209.38
640.065	191.38
640.27	198.38
640.475	191.38
640.681	208.38
640.886	188.38
641.091	192.38
641.297	208.38
641.502	184.38
641.707	179.38
641.913	184.38
642.118	195.38
642.323	191.38
642.528	204.38
642.733	189.38
642.939	194.38
643.144	176.38
643.349	191.38
643.554	183.38
643.759	179.38
643.964	191.38
644.169	194.38
644.374	178.38
644.579	189.38
644.784	185.38
644.989	191.38
645.194	199.38
645.399	194.38
645.604	189.38
645.809	192.38
646.014	192.38
646.219	194.38
646.423	182.38
646.628	189.38
646.833	183.38
647.038	198.38
647.243	190.38
647.447	197.38
647.652	197.38
647.857	200.38
648.062	204.38
648.266	190.38
648.471	180.38
648.676	178.38
648.88	191.38
649.085	204.38
649.289	192.38
649.494	203.38
649.698	198.38
649.903	193.38
650.107	186.38
650.312	196.38
650.516	180.38
650.721	176.38
650.925	185.38
651.13	184.38
651.334	183.38
651.539	192.38
651.743	160.38
651.947	153.38
652.152	163.38
652.356	165.38
652.56	149.38
652.764	143.38
652.969	159.38
653.173	146.38
653.377	146.38
653.581	147.38
653.785	149.38
653.99	156.38
654.194	164.38
654.398	148.38
654.602	164.38
654.806	161.38
655.01	153.38
655.214	154.38
655.418	137.38
655.622	147.38
655.826	155.38
656.03	148.38
656.234	151.38
656.438	143.38
656.642	149.38
656.846	136.38
657.049	155.38
657.253	153.38
657.457	124.38
657.661	131.38
657.865	129.38
658.068	133.38
658.272	131.38
658.476	123.38
658.68	133.38
658.883	105.38
659.087	98.38
659.291	107.38
659.494	110.38
659.698	101.38
659.901	101.38
660.105	94.38
660.309	97.38
660.512	92.38
660.716	93.38
660.919	100.38
661.123	96.38
661.326	85.38
661.53	91.38
661.733	91.38
661.936	89.38
662.14	93.38
662.343	106.38
662.546	80.38
662.75	91.38
662.953	80.38
663.156	87.38
663.36	99.38
663.563	89.38
663.766	107.38
663.969	82.38
664.173	87.38
664.376	72.38
664.579	101.38
664.782	78.38
664.985	81.38
665.188	85.38
665.391	94.38
665.594	82.38
665.797	75.38
666	91.38
666.203	84.38
666.406	63.38
666.609	75.38
666.812	85.38
667.015	83.38
667.218	87.38
667.421	98.38
667.624	84.38
667.827	80.38
668.03	84.38
668.232	68.38
668.435	93.38
668.638	80.38
668.841	86.38
669.043	85.38
669.246	93.38
669.449	79.38
669.651	85.38
669.854	84.38
670.057	82.38
670.259	81.38
670.462	81.38
670.665	84.38
670.867	83.38
671.07	95.38
671.272	101.38
671.475	82.38
671.677	78.38
671.88	78.38
672.082	81.38
672.284	84.38
672.487	79.38
672.689	81.38
672.892	89.38
