Data from 1988.PennyLincolnUp.Lamp.En5.5.200Scan.071819.P2_HRD10591_17-18-45-972.txt Node
Date: Thu Jul 18 17:18:45 EDT 2019
User: cochatt
Spectrometer: HR+D1059
Trigger mode: 1
Integration Time (sec): 1.000000E-1
Scans to average: 1
Electric dark correction enabled: true
Nonlinearity correction enabled: false
Boxcar width: 0
XAxis mode: Wavelengths
Number of Pixels in Spectrum: 2048
>>>>>Begin Spectral Data<<<<<
223.165	-18.25
223.4	-18.25
223.635	-18.25
223.869	-11.25
224.104	-8.25
224.338	-13.25
224.573	-13.25
224.808	-21.25
225.042	-16.25
225.277	4.75
225.511	1.75
225.746	-3.25
225.98	-0.25
226.215	-1.25
226.449	20.75
226.683	-1.25
226.918	35.75
227.152	44.75
227.387	30.75
227.621	37.75
227.856	37.75
228.09	47.75
228.324	40.75
228.559	49.75
228.793	71.75
229.027	105.75
229.262	106.75
229.496	113.75
229.73	125.75
229.964	142.75
230.199	117.75
230.433	115.75
230.667	120.75
230.901	108.75
231.136	97.75
231.37	106.75
231.604	124.75
231.838	119.75
232.072	121.75
232.306	109.75
232.541	118.75
232.775	103.75
233.009	103.75
233.243	116.75
233.477	116.75
233.711	123.75
233.945	109.75
234.179	111.75
234.413	112.75
234.647	113.75
234.881	99.75
235.115	113.75
235.349	117.75
235.583	115.75
235.817	104.75
236.051	131.75
236.285	115.75
236.519	107.75
236.753	131.75
236.987	141.75
237.221	186.75
237.455	225.75
237.689	166.75
237.922	144.75
238.156	116.75
238.39	123.75
238.624	111.75
238.858	107.75
239.091	123.75
239.325	111.75
239.559	129.75
239.793	124.75
240.027	138.75
240.26	137.75
240.494	141.75
240.728	143.75
240.961	151.75
241.195	135.75
241.429	145.75
241.662	147.75
241.896	133.75
242.13	132.75
242.363	136.75
242.597	123.75
242.83	124.75
243.064	124.75
243.298	130.75
243.531	124.75
243.765	142.75
243.998	127.75
244.232	134.75
244.465	130.75
244.699	131.75
244.932	139.75
245.166	148.75
245.399	158.75
245.633	124.75
245.866	135.75
246.099	139.75
246.333	141.75
246.566	136.75
246.8	139.75
247.033	152.75
247.266	141.75
247.5	154.75
247.733	157.75
247.966	183.75
248.2	167.75
248.433	166.75
248.666	163.75
248.899	165.75
249.133	189.75
249.366	203.75
249.599	181.75
249.832	175.75
250.066	177.75
250.299	171.75
250.532	169.75
250.765	172.75
250.998	189.75
251.231	204.75
251.465	208.75
251.698	184.75
251.931	185.75
252.164	178.75
252.397	198.75
252.63	199.75
252.863	186.75
253.096	220.75
253.329	202.75
253.562	194.75
253.795	193.75
254.028	208.75
254.261	203.75
254.494	213.75
254.727	219.75
254.96	261.75
255.193	243.75
255.426	232.75
255.659	215.75
255.892	218.75
256.124	215.75
256.357	223.75
256.59	212.75
256.823	210.75
257.056	203.75
257.289	194.75
257.521	196.75
257.754	202.75
257.987	199.75
258.22	207.75
258.452	179.75
258.685	198.75
258.918	195.75
259.151	198.75
259.383	198.75
259.616	208.75
259.849	216.75
260.081	207.75
260.314	229.75
260.547	225.75
260.779	231.75
261.012	209.75
261.244	221.75
261.477	220.75
261.71	204.75
261.942	227.75
262.175	241.75
262.407	221.75
262.64	208.75
262.872	201.75
263.105	202.75
263.337	202.75
263.57	216.75
263.802	198.75
264.035	178.75
264.267	207.75
264.499	204.75
264.732	199.75
264.964	189.75
265.197	212.75
265.429	189.75
265.661	201.75
265.894	216.75
266.126	212.75
266.358	212.75
266.591	205.75
266.823	200.75
267.055	220.75
267.287	221.75
267.52	217.75
267.752	211.75
267.984	234.75
268.216	204.75
268.448	204.75
268.681	226.75
268.913	243.75
269.145	243.75
269.377	267.75
269.609	259.75
269.841	256.75
270.073	235.75
270.306	267.75
270.538	284.75
270.77	290.75
271.002	293.75
271.234	282.75
271.466	291.75
271.698	286.75
271.93	312.75
272.162	320.75
272.394	317.75
272.626	292.75
272.858	265.75
273.09	264.75
273.322	247.75
273.553	245.75
273.785	263.75
274.017	257.75
274.249	239.75
274.481	261.75
274.713	245.75
274.945	264.75
275.176	247.75
275.408	259.75
275.64	241.75
275.872	243.75
276.104	245.75
276.335	251.75
276.567	264.75
276.799	280.75
277.031	288.75
277.262	303.75
277.494	297.75
277.726	285.75
277.957	284.75
278.189	252.75
278.421	263.75
278.652	253.75
278.884	260.75
279.115	262.75
279.347	277.75
279.579	251.75
279.81	256.75
280.042	271.75
280.273	252.75
280.505	257.75
280.736	245.75
280.968	259.75
281.199	269.75
281.431	255.75
281.662	269.75
281.894	262.75
282.125	252.75
282.356	287.75
282.588	278.75
282.819	281.75
283.051	273.75
283.282	274.75
283.513	270.75
283.745	264.75
283.976	255.75
284.207	267.75
284.439	264.75
284.67	272.75
284.901	273.75
285.132	251.75
285.364	273.75
285.595	274.75
285.826	259.75
286.057	260.75
286.288	266.75
286.52	288.75
286.751	272.75
286.982	280.75
287.213	253.75
287.444	261.75
287.675	298.75
287.906	283.75
288.138	290.75
288.369	298.75
288.6	281.75
288.831	292.75
289.062	290.75
289.293	283.75
289.524	275.75
289.755	277.75
289.986	282.75
290.217	283.75
290.448	279.75
290.679	266.75
290.91	268.75
291.141	275.75
291.371	303.75
291.602	275.75
291.833	291.75
292.064	276.75
292.295	285.75
292.526	288.75
292.757	287.75
292.987	300.75
293.218	273.75
293.449	283.75
293.68	269.75
293.91	273.75
294.141	281.75
294.372	291.75
294.603	307.75
294.833	300.75
295.064	299.75
295.295	309.75
295.525	292.75
295.756	279.75
295.987	297.75
296.217	313.75
296.448	321.75
296.679	299.75
296.909	289.75
297.14	314.75
297.37	296.75
297.601	324.75
297.831	295.75
298.062	312.75
298.292	281.75
298.523	301.75
298.753	306.75
298.984	309.75
299.214	308.75
299.445	306.75
299.675	316.75
299.905	306.75
300.136	317.75
300.366	319.75
300.597	315.75
300.827	327.75
301.057	320.75
301.288	319.75
301.518	302.75
301.748	325.75
301.979	295.75
302.209	312.75
302.439	329.75
302.669	323.75
302.9	329.75
303.13	326.75
303.36	311.75
303.59	322.75
303.82	307.75
304.051	326.75
304.281	336.75
304.511	334.75
304.741	332.75
304.971	345.75
305.201	344.75
305.431	315.75
305.661	317.75
305.891	329.75
306.121	319.75
306.352	319.75
306.582	337.75
306.812	341.75
307.042	314.75
307.272	341.75
307.502	324.75
307.731	347.75
307.961	319.75
308.191	336.75
308.421	336.75
308.651	319.75
308.881	345.75
309.111	353.75
309.341	346.75
309.571	356.75
309.8	353.75
310.03	363.75
310.26	355.75
310.49	344.75
310.72	379.75
310.949	377.75
311.179	384.75
311.409	374.75
311.639	373.75
311.868	372.75
312.098	377.75
312.328	396.75
312.557	386.75
312.787	397.75
313.017	393.75
313.246	386.75
313.476	388.75
313.706	356.75
313.935	387.75
314.165	407.75
314.394	399.75
314.624	391.75
314.853	376.75
315.083	375.75
315.312	376.75
315.542	384.75
315.771	377.75
316.001	365.75
316.23	359.75
316.46	363.75
316.689	377.75
316.919	377.75
317.148	380.75
317.377	385.75
317.607	373.75
317.836	387.75
318.065	376.75
318.295	359.75
318.524	391.75
318.753	347.75
318.983	373.75
319.212	389.75
319.441	403.75
319.67	397.75
319.9	381.75
320.129	385.75
320.358	397.75
320.587	376.75
320.816	387.75
321.046	402.75
321.275	405.75
321.504	387.75
321.733	385.75
321.962	418.75
322.191	423.75
322.42	421.75
322.649	430.75
322.878	443.75
323.108	439.75
323.337	456.75
323.566	456.75
323.795	510.75
324.024	553.75
324.253	660.75
324.482	905.75
324.71	1423.75
324.939	2107.75
325.168	1750.75
325.397	900.75
325.626	626.75
325.855	534.75
326.084	500.75
326.313	496.75
326.542	513.75
326.77	550.75
326.999	624.75
327.228	851.75
327.457	1285.75
327.686	1542.75
327.914	1034.75
328.143	668.75
328.372	588.75
328.6	553.75
328.829	540.75
329.058	529.75
329.287	553.75
329.515	545.75
329.744	471.75
329.972	469.75
330.201	493.75
330.43	499.75
330.658	519.75
330.887	560.75
331.115	575.75
331.344	497.75
331.572	472.75
331.801	474.75
332.03	474.75
332.258	468.75
332.486	455.75
332.715	441.75
332.943	448.75
333.172	439.75
333.4	470.75
333.629	459.75
333.857	450.75
334.085	445.75
334.314	454.75
334.542	463.75
334.771	494.75
334.999	453.75
335.227	457.75
335.455	463.75
335.684	454.75
335.912	464.75
336.14	447.75
336.369	455.75
336.597	457.75
336.825	458.75
337.053	451.75
337.281	422.75
337.51	419.75
337.738	441.75
337.966	435.75
338.194	446.75
338.422	462.75
338.65	429.75
338.878	427.75
339.106	440.75
339.334	429.75
339.562	427.75
339.79	411.75
340.018	417.75
340.246	427.75
340.474	442.75
340.702	436.75
340.93	454.75
341.158	422.75
341.386	433.75
341.614	445.75
341.842	441.75
342.07	431.75
342.298	443.75
342.526	410.75
342.754	415.75
342.981	415.75
343.209	420.75
343.437	438.75
343.665	431.75
343.893	452.75
344.12	423.75
344.348	421.75
344.576	473.75
344.804	441.75
345.031	445.75
345.259	436.75
345.487	438.75
345.714	439.75
345.942	423.75
346.17	420.75
346.397	425.75
346.625	411.75
346.853	414.75
347.08	425.75
347.308	414.75
347.535	417.75
347.763	431.75
347.99	427.75
348.218	427.75
348.445	431.75
348.673	413.75
348.9	433.75
349.128	424.75
349.355	415.75
349.583	407.75
349.81	388.75
350.037	395.75
350.265	411.75
350.492	411.75
350.72	410.75
350.947	404.75
351.174	419.75
351.402	440.75
351.629	447.75
351.856	414.75
352.083	429.75
352.311	438.75
352.538	421.75
352.765	427.75
352.992	431.75
353.22	405.75
353.447	405.75
353.674	393.75
353.901	402.75
354.128	383.75
354.355	402.75
354.583	390.75
354.81	408.75
355.037	386.75
355.264	401.75
355.491	381.75
355.718	394.75
355.945	377.75
356.172	386.75
356.399	394.75
356.626	406.75
356.853	394.75
357.08	387.75
357.307	374.75
357.534	402.75
357.761	392.75
357.988	394.75
358.215	405.75
358.441	411.75
358.668	385.75
358.895	393.75
359.122	398.75
359.349	393.75
359.576	428.75
359.802	435.75
360.029	459.75
360.256	481.75
360.483	465.75
360.709	444.75
360.936	428.75
361.163	437.75
361.39	416.75
361.616	411.75
361.843	412.75
362.07	419.75
362.296	423.75
362.523	431.75
362.749	416.75
362.976	419.75
363.203	392.75
363.429	418.75
363.656	392.75
363.882	411.75
364.109	392.75
364.335	396.75
364.562	412.75
364.788	400.75
365.015	389.75
365.241	385.75
365.468	408.75
365.694	417.75
365.92	387.75
366.147	401.75
366.373	403.75
366.599	391.75
366.826	387.75
367.052	403.75
367.278	408.75
367.505	385.75
367.731	395.75
367.957	405.75
368.184	403.75
368.41	391.75
368.636	420.75
368.862	449.75
369.089	417.75
369.315	389.75
369.541	397.75
369.767	401.75
369.993	406.75
370.219	390.75
370.445	407.75
370.672	407.75
370.898	401.75
371.124	391.75
371.35	395.75
371.576	397.75
371.802	408.75
372.028	395.75
372.254	404.75
372.48	406.75
372.706	433.75
372.932	408.75
373.158	405.75
373.384	400.75
373.61	406.75
373.835	410.75
374.061	408.75
374.287	410.75
374.513	409.75
374.739	421.75
374.965	434.75
375.191	427.75
375.416	425.75
375.642	376.75
375.868	406.75
376.094	414.75
376.319	417.75
376.545	402.75
376.771	403.75
376.997	411.75
377.222	417.75
377.448	401.75
377.674	398.75
377.899	398.75
378.125	404.75
378.35	388.75
378.576	398.75
378.802	377.75
379.027	403.75
379.253	395.75
379.478	402.75
379.704	414.75
379.929	420.75
380.155	399.75
380.38	424.75
380.606	402.75
380.831	413.75
381.057	425.75
381.282	408.75
381.507	423.75
381.733	391.75
381.958	403.75
382.184	409.75
382.409	402.75
382.634	411.75
382.86	417.75
383.085	422.75
383.31	429.75
383.535	426.75
383.761	417.75
383.986	423.75
384.211	425.75
384.436	415.75
384.662	448.75
384.887	460.75
385.112	449.75
385.337	447.75
385.562	432.75
385.787	413.75
386.013	455.75
386.238	453.75
386.463	454.75
386.688	475.75
386.913	453.75
387.138	441.75
387.363	421.75
387.588	456.75
387.813	448.75
388.038	452.75
388.263	433.75
388.488	447.75
388.713	457.75
388.938	452.75
389.163	449.75
389.387	443.75
389.612	436.75
389.837	437.75
390.062	447.75
390.287	458.75
390.512	433.75
390.736	439.75
390.961	443.75
391.186	451.75
391.411	452.75
391.636	462.75
391.86	467.75
392.085	465.75
392.31	464.75
392.534	476.75
392.759	460.75
392.984	454.75
393.208	445.75
393.433	471.75
393.658	454.75
393.882	425.75
394.107	439.75
394.331	442.75
394.556	452.75
394.78	459.75
395.005	450.75
395.229	445.75
395.454	471.75
395.678	489.75
395.903	471.75
396.127	511.75
396.352	473.75
396.576	456.75
396.801	477.75
397.025	462.75
397.249	485.75
397.474	479.75
397.698	477.75
397.922	479.75
398.147	497.75
398.371	499.75
398.595	523.75
398.82	487.75
399.044	538.75
399.268	531.75
399.492	584.75
399.717	588.75
399.941	599.75
400.165	635.75
400.389	631.75
400.613	568.75
400.837	563.75
401.062	526.75
401.286	521.75
401.51	516.75
401.734	516.75
401.958	527.75
402.182	546.75
402.406	529.75
402.63	514.75
402.854	521.75
403.078	514.75
403.302	539.75
403.526	517.75
403.75	537.75
403.974	532.75
404.198	530.75
404.422	535.75
404.645	543.75
404.869	539.75
405.093	553.75
405.317	563.75
405.541	601.75
405.765	552.75
405.988	562.75
406.212	549.75
406.436	571.75
406.66	601.75
406.883	568.75
407.107	586.75
407.331	641.75
407.555	708.75
407.778	676.75
408.002	652.75
408.226	610.75
408.449	582.75
408.673	577.75
408.896	614.75
409.12	677.75
409.344	615.75
409.567	594.75
409.791	558.75
410.014	544.75
410.238	551.75
410.461	545.75
410.685	559.75
410.908	561.75
411.132	586.75
411.355	597.75
411.578	582.75
411.802	551.75
412.025	513.75
412.249	533.75
412.472	548.75
412.695	545.75
412.919	554.75
413.142	519.75
413.365	507.75
413.589	523.75
413.812	519.75
414.035	527.75
414.258	499.75
414.482	512.75
414.705	501.75
414.928	491.75
415.151	486.75
415.374	495.75
415.597	513.75
415.821	489.75
416.044	491.75
416.267	491.75
416.49	489.75
416.713	490.75
416.936	481.75
417.159	501.75
417.382	507.75
417.605	490.75
417.828	507.75
418.051	526.75
418.274	525.75
418.497	496.75
418.72	499.75
418.943	504.75
419.166	514.75
419.389	548.75
419.611	531.75
419.834	533.75
420.057	541.75
420.28	509.75
420.503	504.75
420.726	517.75
420.948	556.75
421.171	586.75
421.394	590.75
421.617	539.75
421.839	539.75
422.062	511.75
422.285	528.75
422.507	618.75
422.73	663.75
422.953	647.75
423.175	571.75
423.398	541.75
423.621	539.75
423.843	557.75
424.066	550.75
424.288	549.75
424.511	592.75
424.733	643.75
424.956	723.75
425.178	673.75
425.401	671.75
425.623	698.75
425.846	587.75
426.068	553.75
426.291	551.75
426.513	549.75
426.735	575.75
426.958	585.75
427.18	668.75
427.402	807.75
427.625	909.75
427.847	771.75
428.069	629.75
428.292	594.75
428.514	559.75
428.736	533.75
428.958	528.75
429.181	528.75
429.403	524.75
429.625	525.75
429.847	584.75
430.069	641.75
430.292	616.75
430.514	536.75
430.736	538.75
430.958	512.75
431.18	485.75
431.402	515.75
431.624	490.75
431.846	481.75
432.068	508.75
432.29	492.75
432.512	461.75
432.734	492.75
432.956	501.75
433.178	505.75
433.4	510.75
433.622	495.75
433.844	488.75
434.066	476.75
434.287	489.75
434.509	511.75
434.731	499.75
434.953	521.75
435.175	543.75
435.397	574.75
435.618	578.75
435.84	596.75
436.062	710.75
436.284	743.75
436.505	636.75
436.727	574.75
436.949	551.75
437.17	537.75
437.392	535.75
437.614	537.75
437.835	569.75
438.057	669.75
438.278	757.75
438.5	758.75
438.721	873.75
438.943	801.75
439.165	631.75
439.386	596.75
439.608	561.75
439.829	579.75
440.05	602.75
440.272	642.75
440.493	609.75
440.715	559.75
440.936	532.75
441.158	529.75
441.379	524.75
441.6	539.75
441.822	560.75
442.043	572.75
442.264	676.75
442.486	730.75
442.707	623.75
442.928	586.75
443.149	587.75
443.371	597.75
443.592	631.75
443.813	737.75
444.034	796.75
444.255	657.75
444.476	604.75
444.698	574.75
444.919	580.75
445.14	651.75
445.361	608.75
445.582	629.75
445.803	659.75
446.024	781.75
446.245	777.75
446.466	701.75
446.687	617.75
446.908	582.75
447.129	522.75
447.35	531.75
447.571	531.75
447.792	516.75
448.013	521.75
448.234	519.75
448.455	570.75
448.675	694.75
448.896	824.75
449.117	707.75
449.338	662.75
449.559	773.75
449.779	884.75
450	691.75
450.221	573.75
450.442	544.75
450.662	541.75
450.883	526.75
451.104	534.75
451.324	529.75
451.545	496.75
451.766	480.75
451.986	483.75
452.207	495.75
452.428	477.75
452.648	460.75
452.869	473.75
453.089	484.75
453.31	477.75
453.53	471.75
453.751	472.75
453.971	480.75
454.192	511.75
454.412	471.75
454.633	469.75
454.853	456.75
455.073	476.75
455.294	485.75
455.514	547.75
455.734	547.75
455.955	473.75
456.175	479.75
456.395	450.75
456.616	454.75
456.836	444.75
457.056	436.75
457.276	422.75
457.497	444.75
457.717	441.75
457.937	451.75
458.157	464.75
458.377	472.75
458.598	482.75
458.818	549.75
459.038	601.75
459.258	621.75
459.478	566.75
459.698	499.75
459.918	479.75
460.138	502.75
460.358	498.75
460.578	496.75
460.798	512.75
461.018	497.75
461.238	517.75
461.458	513.75
461.678	498.75
461.898	524.75
462.118	502.75
462.338	521.75
462.558	546.75
462.777	548.75
462.997	561.75
463.217	566.75
463.437	563.75
463.657	569.75
463.876	541.75
464.096	561.75
464.316	542.75
464.536	560.75
464.755	549.75
464.975	551.75
465.195	577.75
465.414	644.75
465.634	588.75
465.854	539.75
466.073	499.75
466.293	504.75
466.512	500.75
466.732	501.75
466.951	517.75
467.171	495.75
467.391	480.75
467.61	485.75
467.829	500.75
468.049	483.75
468.268	479.75
468.488	465.75
468.707	460.75
468.927	464.75
469.146	466.75
469.365	480.75
469.585	471.75
469.804	475.75
470.023	490.75
470.243	474.75
470.462	482.75
470.681	507.75
470.901	519.75
471.12	481.75
471.339	517.75
471.558	494.75
471.777	473.75
471.997	493.75
472.216	466.75
472.435	484.75
472.654	489.75
472.873	486.75
473.092	486.75
473.311	468.75
473.53	495.75
473.749	477.75
473.968	527.75
474.187	620.75
474.406	674.75
474.625	548.75
474.844	502.75
475.063	489.75
475.282	483.75
475.501	513.75
475.72	488.75
475.939	495.75
476.158	491.75
476.377	501.75
476.596	487.75
476.814	510.75
477.033	511.75
477.252	525.75
477.471	525.75
477.69	519.75
477.908	538.75
478.127	535.75
478.346	548.75
478.564	541.75
478.783	533.75
479.002	550.75
479.22	540.75
479.439	586.75
479.658	596.75
479.876	577.75
480.095	613.75
480.313	609.75
480.532	611.75
480.751	581.75
480.969	609.75
481.188	585.75
481.406	584.75
481.624	584.75
481.843	605.75
482.061	583.75
482.28	588.75
482.498	555.75
482.717	556.75
482.935	573.75
483.153	551.75
483.372	563.75
483.59	555.75
483.808	562.75
484.027	581.75
484.245	589.75
484.463	583.75
484.681	597.75
484.9	578.75
485.118	588.75
485.336	592.75
485.554	608.75
485.772	599.75
485.99	608.75
486.209	590.75
486.427	605.75
486.645	636.75
486.863	643.75
487.081	615.75
487.299	624.75
487.517	631.75
487.735	577.75
487.953	596.75
488.171	604.75
488.389	619.75
488.607	616.75
488.825	600.75
489.043	635.75
489.261	625.75
489.479	627.75
489.696	608.75
489.914	627.75
490.132	630.75
490.35	651.75
490.568	619.75
490.786	666.75
491.003	663.75
491.221	664.75
491.439	679.75
491.657	685.75
491.874	687.75
492.092	677.75
492.31	687.75
492.527	681.75
492.745	683.75
492.963	692.75
493.18	673.75
493.398	691.75
493.615	683.75
493.833	708.75
494.05	708.75
494.268	684.75
494.485	714.75
494.703	705.75
494.92	732.75
495.138	721.75
495.355	704.75
495.573	715.75
495.79	735.75
496.008	728.75
496.225	730.75
496.442	713.75
496.66	721.75
496.877	742.75
497.094	749.75
497.312	729.75
497.529	752.75
497.746	776.75
497.963	800.75
498.181	792.75
498.398	778.75
498.615	801.75
498.832	841.75
499.049	837.75
499.267	879.75
499.484	900.75
499.701	930.75
499.918	970.75
500.135	989.75
500.352	1030.75
500.569	1043.75
500.786	1049.75
501.003	1027.75
501.22	1013.75
501.437	1002.75
501.654	951.75
501.871	936.75
502.088	905.75
502.305	883.75
502.522	815.75
502.739	823.75
502.956	799.75
503.172	790.75
503.389	762.75
503.606	779.75
503.823	754.75
504.04	780.75
504.256	757.75
504.473	723.75
504.69	741.75
504.907	746.75
505.123	739.75
505.34	718.75
505.557	728.75
505.773	706.75
505.99	720.75
506.207	713.75
506.423	700.75
506.64	683.75
506.856	675.75
507.073	666.75
507.289	665.75
507.506	644.75
507.722	668.75
507.939	705.75
508.155	685.75
508.372	673.75
508.588	662.75
508.805	661.75
509.021	636.75
509.238	671.75
509.454	680.75
509.67	673.75
509.887	650.75
510.103	640.75
510.319	683.75
510.536	703.75
510.752	1167.75
510.968	992.75
511.184	638.75
511.401	636.75
511.617	633.75
511.833	623.75
512.049	597.75
512.265	593.75
512.481	620.75
512.698	626.75
512.914	607.75
513.13	607.75
513.346	604.75
513.562	609.75
513.778	639.75
513.994	646.75
514.21	649.75
514.426	640.75
514.642	693.75
514.858	693.75
515.074	742.75
515.29	842.75
515.506	1192.75
515.721	1045.75
515.937	765.75
516.153	700.75
516.369	646.75
516.585	665.75
516.801	663.75
517.016	636.75
517.232	661.75
517.448	661.75
517.664	681.75
517.879	666.75
518.095	672.75
518.311	650.75
518.527	612.75
518.742	660.75
518.958	612.75
519.173	620.75
519.389	648.75
519.605	621.75
519.82	625.75
520.036	648.75
520.251	663.75
520.467	693.75
520.682	696.75
520.898	690.75
521.113	699.75
521.329	693.75
521.544	793.75
521.76	1001.75
521.975	1511.75
522.19	1555.75
522.406	914.75
522.621	711.75
522.836	632.75
523.052	626.75
523.267	609.75
523.482	579.75
523.698	575.75
523.913	580.75
524.128	579.75
524.343	552.75
524.559	555.75
524.774	545.75
524.989	553.75
525.204	549.75
525.419	556.75
525.634	568.75
525.849	547.75
526.064	539.75
526.28	511.75
526.495	524.75
526.71	531.75
526.925	550.75
527.14	543.75
527.355	525.75
527.57	533.75
527.785	511.75
527.999	531.75
528.214	549.75
528.429	511.75
528.644	529.75
528.859	540.75
529.074	534.75
529.289	528.75
529.503	565.75
529.718	601.75
529.933	541.75
530.148	522.75
530.363	517.75
530.577	525.75
530.792	520.75
531.007	500.75
531.221	535.75
531.436	505.75
531.651	509.75
531.865	511.75
532.08	503.75
532.295	501.75
532.509	505.75
532.724	495.75
532.938	484.75
533.153	515.75
533.367	516.75
533.582	479.75
533.796	479.75
534.011	490.75
534.225	500.75
534.44	485.75
534.654	489.75
534.868	472.75
535.083	477.75
535.297	502.75
535.511	507.75
535.726	509.75
535.94	502.75
536.154	517.75
536.369	491.75
536.583	501.75
536.797	498.75
537.011	500.75
537.225	481.75
537.44	482.75
537.654	470.75
537.868	471.75
538.082	487.75
538.296	495.75
538.51	489.75
538.724	474.75
538.938	439.75
539.153	481.75
539.367	496.75
539.581	495.75
539.795	490.75
540.009	480.75
540.222	490.75
540.436	473.75
540.65	469.75
540.864	467.75
541.078	470.75
541.292	470.75
541.506	485.75
541.72	499.75
541.934	475.75
542.147	470.75
542.361	481.75
542.575	457.75
542.789	477.75
543.002	467.75
543.216	455.75
543.43	471.75
543.644	465.75
543.857	482.75
544.071	478.75
544.285	470.75
544.498	470.75
544.712	476.75
544.925	508.75
545.139	484.75
545.352	470.75
545.566	467.75
545.779	471.75
545.993	462.75
546.206	475.75
546.42	461.75
546.633	453.75
546.847	448.75
547.06	450.75
547.274	454.75
547.487	431.75
547.7	469.75
547.914	456.75
548.127	429.75
548.34	441.75
548.554	454.75
548.767	445.75
548.98	453.75
549.193	440.75
549.407	467.75
549.62	476.75
549.833	464.75
550.046	447.75
550.259	459.75
550.473	427.75
550.686	454.75
550.899	455.75
551.112	442.75
551.325	447.75
551.538	452.75
551.751	451.75
551.964	468.75
552.177	445.75
552.39	479.75
552.603	452.75
552.816	451.75
553.029	460.75
553.242	469.75
553.455	472.75
553.667	462.75
553.88	474.75
554.093	472.75
554.306	453.75
554.519	444.75
554.732	448.75
554.944	459.75
555.157	421.75
555.37	449.75
555.583	425.75
555.795	448.75
556.008	426.75
556.221	420.75
556.433	421.75
556.646	429.75
556.859	416.75
557.071	420.75
557.284	424.75
557.496	438.75
557.709	415.75
557.921	413.75
558.134	407.75
558.346	402.75
558.559	409.75
558.771	394.75
558.984	405.75
559.196	402.75
559.409	403.75
559.621	417.75
559.833	411.75
560.046	407.75
560.258	408.75
560.47	409.75
560.683	422.75
560.895	403.75
561.107	419.75
561.32	397.75
561.532	406.75
561.744	411.75
561.956	397.75
562.168	421.75
562.381	410.75
562.593	416.75
562.805	402.75
563.017	420.75
563.229	391.75
563.441	411.75
563.653	400.75
563.865	411.75
564.077	407.75
564.289	395.75
564.501	411.75
564.713	446.75
564.925	439.75
565.137	447.75
565.349	423.75
565.561	450.75
565.773	465.75
565.985	439.75
566.197	460.75
566.408	461.75
566.62	491.75
566.832	495.75
567.044	503.75
567.255	513.75
567.467	516.75
567.679	513.75
567.891	502.75
568.102	515.75
568.314	517.75
568.526	507.75
568.737	485.75
568.949	467.75
569.161	449.75
569.372	428.75
569.584	439.75
569.795	434.75
570.007	441.75
570.218	468.75
570.43	443.75
570.641	403.75
570.853	395.75
571.064	395.75
571.276	384.75
571.487	369.75
571.698	401.75
571.91	359.75
572.121	369.75
572.333	371.75
572.544	368.75
572.755	362.75
572.966	365.75
573.178	353.75
573.389	376.75
573.6	361.75
573.811	369.75
574.023	361.75
574.234	356.75
574.445	347.75
574.656	343.75
574.867	342.75
575.078	350.75
575.289	359.75
575.501	348.75
575.712	348.75
575.923	338.75
576.134	328.75
576.345	348.75
576.556	354.75
576.767	335.75
576.978	329.75
577.188	353.75
577.399	341.75
577.61	337.75
577.821	338.75
578.032	351.75
578.243	375.75
578.454	559.75
578.665	440.75
578.875	359.75
579.086	335.75
579.297	322.75
579.508	324.75
579.718	333.75
579.929	315.75
580.14	320.75
580.35	332.75
580.561	308.75
580.772	310.75
580.982	311.75
581.193	323.75
581.403	312.75
581.614	313.75
581.825	309.75
582.035	315.75
582.246	314.75
582.456	315.75
582.667	304.75
582.877	316.75
583.087	307.75
583.298	324.75
583.508	340.75
583.719	304.75
583.929	294.75
584.139	311.75
584.35	307.75
584.56	312.75
584.77	307.75
584.981	299.75
585.191	297.75
585.401	337.75
585.611	300.75
585.821	322.75
586.032	318.75
586.242	317.75
586.452	313.75
586.662	306.75
586.872	324.75
587.082	274.75
587.292	309.75
587.502	294.75
587.713	303.75
587.923	291.75
588.133	291.75
588.343	308.75
588.553	305.75
588.762	315.75
588.972	292.75
589.182	325.75
589.392	327.75
589.602	311.75
589.812	311.75
590.022	318.75
590.232	315.75
590.441	307.75
590.651	316.75
590.861	293.75
591.071	320.75
591.281	301.75
591.49	305.75
591.7	289.75
591.91	307.75
592.119	326.75
592.329	315.75
592.539	312.75
592.748	317.75
592.958	341.75
593.167	330.75
593.377	311.75
593.587	321.75
593.796	317.75
594.006	356.75
594.215	313.75
594.424	331.75
594.634	316.75
594.843	299.75
595.053	311.75
595.262	308.75
595.472	296.75
595.681	316.75
595.89	293.75
596.1	301.75
596.309	304.75
596.518	296.75
596.727	292.75
596.937	292.75
597.146	293.75
597.355	258.75
597.564	281.75
597.774	283.75
597.983	287.75
598.192	283.75
598.401	279.75
598.61	292.75
598.819	281.75
599.028	282.75
599.237	271.75
599.446	285.75
599.655	262.75
599.864	255.75
600.073	285.75
600.282	275.75
600.491	255.75
600.7	260.75
600.909	268.75
601.118	262.75
601.327	265.75
601.536	265.75
601.745	256.75
601.953	278.75
602.162	261.75
602.371	257.75
602.58	257.75
602.789	224.75
602.997	254.75
603.206	280.75
603.415	271.75
603.623	269.75
603.832	257.75
604.041	265.75
604.249	267.75
604.458	253.75
604.666	255.75
604.875	243.75
605.084	253.75
605.292	239.75
605.501	259.75
605.709	237.75
605.918	250.75
606.126	255.75
606.334	265.75
606.543	253.75
606.751	258.75
606.96	252.75
607.168	252.75
607.376	255.75
607.585	252.75
607.793	245.75
608.001	231.75
608.21	248.75
608.418	236.75
608.626	249.75
608.834	245.75
609.043	232.75
609.251	242.75
609.459	247.75
609.667	255.75
609.875	251.75
610.083	233.75
610.291	257.75
610.499	247.75
610.707	236.75
610.916	229.75
611.124	240.75
611.332	257.75
611.54	241.75
611.748	265.75
611.955	259.75
612.163	253.75
612.371	229.75
612.579	252.75
612.787	247.75
612.995	241.75
613.203	249.75
613.411	255.75
613.618	227.75
613.826	226.75
614.034	226.75
614.242	239.75
614.449	228.75
614.657	247.75
614.865	245.75
615.072	245.75
615.28	233.75
615.488	220.75
615.695	237.75
615.903	229.75
616.111	222.75
616.318	236.75
616.526	236.75
616.733	236.75
616.941	233.75
617.148	230.75
617.356	246.75
617.563	235.75
617.771	234.75
617.978	219.75
618.185	232.75
618.393	249.75
618.6	227.75
618.807	230.75
619.015	255.75
619.222	229.75
619.429	237.75
619.637	221.75
619.844	239.75
620.051	235.75
620.258	233.75
620.466	217.75
620.673	220.75
620.88	228.75
621.087	240.75
621.294	227.75
621.501	230.75
621.708	200.75
621.915	235.75
622.122	220.75
622.329	220.75
622.536	227.75
622.743	221.75
622.95	220.75
623.157	215.75
623.364	240.75
623.571	213.75
623.778	216.75
623.985	218.75
624.192	216.75
624.399	213.75
624.606	226.75
624.812	219.75
625.019	225.75
625.226	224.75
625.433	221.75
625.639	212.75
625.846	213.75
626.053	202.75
626.259	193.75
626.466	205.75
626.673	222.75
626.879	210.75
627.086	236.75
627.293	201.75
627.499	221.75
627.706	218.75
627.912	215.75
628.119	212.75
628.325	210.75
628.532	212.75
628.738	222.75
628.945	195.75
629.151	198.75
629.357	212.75
629.564	205.75
629.77	198.75
629.976	204.75
630.183	180.75
630.389	187.75
630.595	178.75
630.802	213.75
631.008	209.75
631.214	197.75
631.42	195.75
631.627	193.75
631.833	187.75
632.039	183.75
632.245	187.75
632.451	201.75
632.657	192.75
632.863	190.75
633.069	198.75
633.275	197.75
633.481	186.75
633.688	193.75
633.893	187.75
634.099	186.75
634.305	200.75
634.511	188.75
634.717	200.75
634.923	191.75
635.129	195.75
635.335	175.75
635.541	189.75
635.747	177.75
635.952	167.75
636.158	168.75
636.364	177.75
636.57	193.75
636.775	211.75
636.981	177.75
637.187	193.75
637.392	196.75
637.598	185.75
637.804	185.75
638.009	193.75
638.215	179.75
638.421	166.75
638.626	175.75
638.832	175.75
639.037	183.75
639.243	184.75
639.448	179.75
639.654	181.75
639.859	180.75
640.065	193.75
640.27	183.75
640.475	197.75
640.681	156.75
640.886	162.75
641.091	182.75
641.297	167.75
641.502	179.75
641.707	188.75
641.913	170.75
642.118	172.75
642.323	169.75
642.528	164.75
642.733	178.75
642.939	167.75
643.144	168.75
643.349	178.75
643.554	177.75
643.759	180.75
643.964	171.75
644.169	171.75
644.374	154.75
644.579	167.75
644.784	164.75
644.989	171.75
645.194	165.75
645.399	169.75
645.604	175.75
645.809	170.75
646.014	168.75
646.219	155.75
646.423	172.75
646.628	159.75
646.833	164.75
647.038	166.75
647.243	187.75
647.447	185.75
647.652	181.75
647.857	151.75
648.062	174.75
648.266	169.75
648.471	171.75
648.676	199.75
648.88	169.75
649.085	165.75
649.289	176.75
649.494	164.75
649.698	188.75
649.903	192.75
650.107	163.75
650.312	172.75
650.516	163.75
650.721	155.75
650.925	172.75
651.13	175.75
651.334	154.75
651.539	153.75
651.743	152.75
651.947	161.75
652.152	159.75
652.356	142.75
652.56	144.75
652.764	161.75
652.969	147.75
653.173	132.75
653.377	142.75
653.581	149.75
653.785	149.75
653.99	144.75
654.194	136.75
654.398	139.75
654.602	148.75
654.806	145.75
655.01	145.75
655.214	148.75
655.418	135.75
655.622	132.75
655.826	147.75
656.03	147.75
656.234	130.75
656.438	139.75
656.642	135.75
656.846	136.75
657.049	131.75
657.253	140.75
657.457	128.75
657.661	120.75
657.865	127.75
658.068	121.75
658.272	105.75
658.476	117.75
658.68	111.75
658.883	110.75
659.087	95.75
659.291	95.75
659.494	99.75
659.698	107.75
659.901	97.75
660.105	94.75
660.309	84.75
660.512	91.75
660.716	84.75
660.919	81.75
661.123	90.75
661.326	83.75
661.53	74.75
661.733	98.75
661.936	87.75
662.14	98.75
662.343	81.75
662.546	87.75
662.75	89.75
662.953	85.75
663.156	88.75
663.36	90.75
663.563	81.75
663.766	87.75
663.969	69.75
664.173	91.75
664.376	79.75
664.579	80.75
664.782	72.75
664.985	85.75
665.188	81.75
665.391	83.75
665.594	83.75
665.797	81.75
666	84.75
666.203	84.75
666.406	71.75
666.609	66.75
666.812	86.75
667.015	80.75
667.218	87.75
667.421	93.75
667.624	76.75
667.827	68.75
668.03	90.75
668.232	73.75
668.435	83.75
668.638	80.75
668.841	95.75
669.043	76.75
669.246	80.75
669.449	87.75
669.651	71.75
669.854	83.75
670.057	90.75
670.259	67.75
670.462	81.75
670.665	90.75
670.867	79.75
671.07	91.75
671.272	73.75
671.475	80.75
671.677	83.75
671.88	68.75
672.082	89.75
672.284	97.75
672.487	77.75
672.689	87.75
672.892	77.75
