Data from 1988.PennyLincolnUp.Lamp.En5.5.200Scan.071819.P2_HRD10591_17-21-00-974.txt Node
Date: Thu Jul 18 17:21:00 EDT 2019
User: cochatt
Spectrometer: HR+D1059
Trigger mode: 1
Integration Time (sec): 1.000000E-1
Scans to average: 1
Electric dark correction enabled: true
Nonlinearity correction enabled: false
Boxcar width: 0
XAxis mode: Wavelengths
Number of Pixels in Spectrum: 2048
>>>>>Begin Spectral Data<<<<<
223.165	-13.19
223.4	-13.19
223.635	-13.19
223.869	-25.19
224.104	-16.19
224.338	-15.19
224.573	-1.19
224.808	-13.19
225.042	-18.19
225.277	9.81
225.511	-1.19
225.746	10.81
225.98	12.81
226.215	9.81
226.449	12.81
226.683	2.81
226.918	17.81
227.152	26.81
227.387	53.81
227.621	33.81
227.856	58.81
228.09	52.81
228.324	44.81
228.559	54.81
228.793	85.81
229.027	120.81
229.262	128.81
229.496	126.81
229.73	145.81
229.964	185.81
230.199	138.81
230.433	119.81
230.667	125.81
230.901	122.81
231.136	128.81
231.37	112.81
231.604	114.81
231.838	125.81
232.072	134.81
232.306	125.81
232.541	129.81
232.775	125.81
233.009	127.81
233.243	135.81
233.477	138.81
233.711	116.81
233.945	131.81
234.179	126.81
234.413	127.81
234.647	115.81
234.881	132.81
235.115	127.81
235.349	121.81
235.583	111.81
235.817	130.81
236.051	135.81
236.285	139.81
236.519	141.81
236.753	162.81
236.987	164.81
237.221	201.81
237.455	265.81
237.689	206.81
237.922	173.81
238.156	148.81
238.39	135.81
238.624	139.81
238.858	140.81
239.091	136.81
239.325	151.81
239.559	152.81
239.793	135.81
240.027	140.81
240.26	166.81
240.494	177.81
240.728	176.81
240.961	158.81
241.195	159.81
241.429	162.81
241.662	149.81
241.896	152.81
242.13	139.81
242.363	145.81
242.597	147.81
242.83	144.81
243.064	145.81
243.298	153.81
243.531	151.81
243.765	151.81
243.998	137.81
244.232	162.81
244.465	147.81
244.699	158.81
244.932	161.81
245.166	151.81
245.399	163.81
245.633	169.81
245.866	185.81
246.099	170.81
246.333	157.81
246.566	177.81
246.8	161.81
247.033	164.81
247.266	177.81
247.5	183.81
247.733	185.81
247.966	208.81
248.2	180.81
248.433	194.81
248.666	195.81
248.899	192.81
249.133	210.81
249.366	237.81
249.599	212.81
249.832	188.81
250.066	204.81
250.299	186.81
250.532	202.81
250.765	200.81
250.998	236.81
251.231	250.81
251.465	257.81
251.698	218.81
251.931	224.81
252.164	236.81
252.397	216.81
252.63	226.81
252.863	214.81
253.096	231.81
253.329	258.81
253.562	236.81
253.795	236.81
254.028	235.81
254.261	231.81
254.494	254.81
254.727	282.81
254.96	302.81
255.193	302.81
255.426	280.81
255.659	249.81
255.892	243.81
256.124	250.81
256.357	248.81
256.59	230.81
256.823	224.81
257.056	243.81
257.289	218.81
257.521	220.81
257.754	244.81
257.987	223.81
258.22	221.81
258.452	202.81
258.685	216.81
258.918	221.81
259.151	238.81
259.383	243.81
259.616	238.81
259.849	253.81
260.081	258.81
260.314	297.81
260.547	286.81
260.779	286.81
261.012	251.81
261.244	258.81
261.477	241.81
261.71	247.81
261.942	244.81
262.175	280.81
262.407	270.81
262.64	244.81
262.872	244.81
263.105	241.81
263.337	233.81
263.57	239.81
263.802	236.81
264.035	211.81
264.267	238.81
264.499	246.81
264.732	236.81
264.964	223.81
265.197	225.81
265.429	240.81
265.661	218.81
265.894	246.81
266.126	234.81
266.358	223.81
266.591	248.81
266.823	256.81
267.055	258.81
267.287	247.81
267.52	244.81
267.752	245.81
267.984	255.81
268.216	234.81
268.448	275.81
268.681	256.81
268.913	270.81
269.145	299.81
269.377	322.81
269.609	322.81
269.841	291.81
270.073	294.81
270.306	338.81
270.538	340.81
270.77	350.81
271.002	333.81
271.234	325.81
271.466	327.81
271.698	321.81
271.93	354.81
272.162	344.81
272.394	353.81
272.626	331.81
272.858	322.81
273.09	323.81
273.322	300.81
273.553	286.81
273.785	313.81
274.017	297.81
274.249	294.81
274.481	292.81
274.713	289.81
274.945	299.81
275.176	304.81
275.408	294.81
275.64	293.81
275.872	297.81
276.104	295.81
276.335	286.81
276.567	298.81
276.799	316.81
277.031	348.81
277.262	336.81
277.494	339.81
277.726	335.81
277.957	341.81
278.189	290.81
278.421	294.81
278.652	299.81
278.884	290.81
279.115	298.81
279.347	284.81
279.579	280.81
279.81	285.81
280.042	298.81
280.273	287.81
280.505	296.81
280.736	293.81
280.968	302.81
281.199	282.81
281.431	279.81
281.662	280.81
281.894	267.81
282.125	294.81
282.356	314.81
282.588	343.81
282.819	344.81
283.051	319.81
283.282	309.81
283.513	297.81
283.745	299.81
283.976	293.81
284.207	300.81
284.439	304.81
284.67	310.81
284.901	290.81
285.132	306.81
285.364	325.81
285.595	298.81
285.826	316.81
286.057	305.81
286.288	319.81
286.52	304.81
286.751	284.81
286.982	315.81
287.213	320.81
287.444	314.81
287.675	320.81
287.906	316.81
288.138	330.81
288.369	347.81
288.6	363.81
288.831	318.81
289.062	337.81
289.293	342.81
289.524	323.81
289.755	307.81
289.986	324.81
290.217	323.81
290.448	320.81
290.679	307.81
290.91	329.81
291.141	312.81
291.371	325.81
291.602	315.81
291.833	313.81
292.064	321.81
292.295	331.81
292.526	288.81
292.757	328.81
292.987	320.81
293.218	327.81
293.449	328.81
293.68	329.81
293.91	336.81
294.141	338.81
294.372	324.81
294.603	303.81
294.833	335.81
295.064	319.81
295.295	321.81
295.525	326.81
295.756	340.81
295.987	342.81
296.217	371.81
296.448	383.81
296.679	349.81
296.909	320.81
297.14	334.81
297.37	331.81
297.601	335.81
297.831	314.81
298.062	327.81
298.292	339.81
298.523	344.81
298.753	344.81
298.984	337.81
299.214	321.81
299.445	351.81
299.675	331.81
299.905	348.81
300.136	340.81
300.366	336.81
300.597	355.81
300.827	349.81
301.057	366.81
301.288	378.81
301.518	366.81
301.748	349.81
301.979	362.81
302.209	352.81
302.439	379.81
302.669	361.81
302.9	360.81
303.13	358.81
303.36	357.81
303.59	372.81
303.82	381.81
304.051	386.81
304.281	369.81
304.511	346.81
304.741	366.81
304.971	371.81
305.201	376.81
305.431	357.81
305.661	350.81
305.891	352.81
306.121	347.81
306.352	381.81
306.582	380.81
306.812	367.81
307.042	366.81
307.272	359.81
307.502	370.81
307.731	352.81
307.961	368.81
308.191	368.81
308.421	378.81
308.651	370.81
308.881	374.81
309.111	378.81
309.341	386.81
309.571	390.81
309.8	418.81
310.03	414.81
310.26	404.81
310.49	448.81
310.72	432.81
310.949	436.81
311.179	451.81
311.409	419.81
311.639	424.81
311.868	419.81
312.098	451.81
312.328	427.81
312.557	443.81
312.787	453.81
313.017	479.81
313.246	441.81
313.476	416.81
313.706	431.81
313.935	428.81
314.165	445.81
314.394	445.81
314.624	473.81
314.853	434.81
315.083	418.81
315.312	421.81
315.542	427.81
315.771	415.81
316.001	411.81
316.23	411.81
316.46	400.81
316.689	415.81
316.919	432.81
317.148	429.81
317.377	440.81
317.607	451.81
317.836	450.81
318.065	427.81
318.295	424.81
318.524	448.81
318.753	410.81
318.983	420.81
319.212	441.81
319.441	426.81
319.67	450.81
319.9	429.81
320.129	430.81
320.358	419.81
320.587	452.81
320.816	421.81
321.046	459.81
321.275	462.81
321.504	454.81
321.733	465.81
321.962	482.81
322.191	477.81
322.42	491.81
322.649	499.81
322.878	532.81
323.108	531.81
323.337	564.81
323.566	577.81
323.795	612.81
324.024	657.81
324.253	788.81
324.482	1166.81
324.71	1797.81
324.939	2724.81
325.168	2395.81
325.397	1164.81
325.626	768.81
325.855	658.81
326.084	582.81
326.313	584.81
326.542	576.81
326.77	612.81
326.999	758.81
327.228	1051.81
327.457	1608.81
327.686	2044.81
327.914	1315.81
328.143	861.81
328.372	729.81
328.6	672.81
328.829	640.81
329.058	652.81
329.287	685.81
329.515	614.81
329.744	564.81
329.972	573.81
330.201	596.81
330.43	628.81
330.658	649.81
330.887	686.81
331.115	689.81
331.344	591.81
331.572	559.81
331.801	535.81
332.03	570.81
332.258	534.81
332.486	526.81
332.715	528.81
332.943	526.81
333.172	538.81
333.4	512.81
333.629	543.81
333.857	529.81
334.085	538.81
334.314	506.81
334.542	546.81
334.771	548.81
334.999	549.81
335.227	542.81
335.455	509.81
335.684	525.81
335.912	507.81
336.14	520.81
336.369	526.81
336.597	548.81
336.825	530.81
337.053	506.81
337.281	514.81
337.51	473.81
337.738	494.81
337.966	530.81
338.194	516.81
338.422	518.81
338.65	494.81
338.878	508.81
339.106	494.81
339.334	481.81
339.562	490.81
339.79	481.81
340.018	487.81
340.246	467.81
340.474	500.81
340.702	491.81
340.93	479.81
341.158	478.81
341.386	503.81
341.614	499.81
341.842	497.81
342.07	506.81
342.298	481.81
342.526	471.81
342.754	472.81
342.981	463.81
343.209	468.81
343.437	486.81
343.665	502.81
343.893	504.81
344.12	519.81
344.348	506.81
344.576	515.81
344.804	495.81
345.031	523.81
345.259	530.81
345.487	513.81
345.714	502.81
345.942	486.81
346.17	480.81
346.397	474.81
346.625	492.81
346.853	480.81
347.08	473.81
347.308	483.81
347.535	503.81
347.763	494.81
347.99	506.81
348.218	494.81
348.445	493.81
348.673	494.81
348.9	472.81
349.128	463.81
349.355	474.81
349.583	456.81
349.81	463.81
350.037	470.81
350.265	444.81
350.492	471.81
350.72	470.81
350.947	468.81
351.174	452.81
351.402	483.81
351.629	493.81
351.856	494.81
352.083	516.81
352.311	506.81
352.538	495.81
352.765	510.81
352.992	499.81
353.22	513.81
353.447	484.81
353.674	459.81
353.901	460.81
354.128	453.81
354.355	449.81
354.583	450.81
354.81	439.81
355.037	430.81
355.264	444.81
355.491	448.81
355.718	444.81
355.945	445.81
356.172	436.81
356.399	454.81
356.626	426.81
356.853	455.81
357.08	449.81
357.307	424.81
357.534	449.81
357.761	464.81
357.988	450.81
358.215	458.81
358.441	445.81
358.668	426.81
358.895	465.81
359.122	462.81
359.349	454.81
359.576	464.81
359.802	481.81
360.029	528.81
360.256	556.81
360.483	513.81
360.709	479.81
360.936	477.81
361.163	465.81
361.39	491.81
361.616	498.81
361.843	468.81
362.07	498.81
362.296	498.81
362.523	482.81
362.749	479.81
362.976	467.81
363.203	474.81
363.429	473.81
363.656	467.81
363.882	478.81
364.109	468.81
364.335	454.81
364.562	473.81
364.788	464.81
365.015	457.81
365.241	454.81
365.468	474.81
365.694	464.81
365.92	482.81
366.147	479.81
366.373	470.81
366.599	461.81
366.826	473.81
367.052	447.81
367.278	455.81
367.505	482.81
367.731	460.81
367.957	436.81
368.184	463.81
368.41	468.81
368.636	463.81
368.862	495.81
369.089	466.81
369.315	470.81
369.541	460.81
369.767	460.81
369.993	458.81
370.219	482.81
370.445	469.81
370.672	475.81
370.898	451.81
371.124	482.81
371.35	464.81
371.576	475.81
371.802	454.81
372.028	467.81
372.254	470.81
372.48	447.81
372.706	465.81
372.932	462.81
373.158	477.81
373.384	454.81
373.61	462.81
373.835	463.81
374.061	489.81
374.287	470.81
374.513	472.81
374.739	490.81
374.965	495.81
375.191	478.81
375.416	475.81
375.642	480.81
375.868	469.81
376.094	439.81
376.319	445.81
376.545	470.81
376.771	462.81
376.997	463.81
377.222	464.81
377.448	461.81
377.674	452.81
377.899	454.81
378.125	463.81
378.35	451.81
378.576	432.81
378.802	455.81
379.027	484.81
379.253	489.81
379.478	441.81
379.704	466.81
379.929	456.81
380.155	458.81
380.38	470.81
380.606	451.81
380.831	465.81
381.057	443.81
381.282	462.81
381.507	480.81
381.733	466.81
381.958	489.81
382.184	467.81
382.409	476.81
382.634	498.81
382.86	495.81
383.085	475.81
383.31	490.81
383.535	499.81
383.761	492.81
383.986	477.81
384.211	486.81
384.436	473.81
384.662	505.81
384.887	491.81
385.112	491.81
385.337	497.81
385.562	501.81
385.787	531.81
386.013	521.81
386.238	519.81
386.463	524.81
386.688	515.81
386.913	512.81
387.138	502.81
387.363	496.81
387.588	500.81
387.813	497.81
388.038	508.81
388.263	506.81
388.488	493.81
388.713	491.81
388.938	514.81
389.163	551.81
389.387	523.81
389.612	522.81
389.837	509.81
390.062	522.81
390.287	512.81
390.512	516.81
390.736	519.81
390.961	518.81
391.186	524.81
391.411	532.81
391.636	539.81
391.86	537.81
392.085	528.81
392.31	529.81
392.534	530.81
392.759	518.81
392.984	537.81
393.208	534.81
393.433	519.81
393.658	522.81
393.882	521.81
394.107	538.81
394.331	531.81
394.556	523.81
394.78	522.81
395.005	546.81
395.229	524.81
395.454	556.81
395.678	524.81
395.903	567.81
396.127	577.81
396.352	604.81
396.576	564.81
396.801	535.81
397.025	563.81
397.249	533.81
397.474	528.81
397.698	554.81
397.922	578.81
398.147	580.81
398.371	596.81
398.595	607.81
398.82	612.81
399.044	605.81
399.268	632.81
399.492	642.81
399.717	651.81
399.941	692.81
400.165	736.81
400.389	742.81
400.613	678.81
400.837	627.81
401.062	623.81
401.286	623.81
401.51	595.81
401.734	597.81
401.958	603.81
402.182	611.81
402.406	583.81
402.63	595.81
402.854	616.81
403.078	637.81
403.302	624.81
403.526	619.81
403.75	622.81
403.974	632.81
404.198	604.81
404.422	620.81
404.645	618.81
404.869	628.81
405.093	695.81
405.317	674.81
405.541	715.81
405.765	658.81
405.988	639.81
406.212	669.81
406.436	673.81
406.66	698.81
406.883	692.81
407.107	694.81
407.331	720.81
407.555	828.81
407.778	851.81
408.002	759.81
408.226	704.81
408.449	690.81
408.673	686.81
408.896	730.81
409.12	753.81
409.344	706.81
409.567	657.81
409.791	639.81
410.014	606.81
410.238	634.81
410.461	638.81
410.685	603.81
410.908	672.81
411.132	710.81
411.355	724.81
411.578	690.81
411.802	644.81
412.025	652.81
412.249	622.81
412.472	646.81
412.695	665.81
412.919	666.81
413.142	610.81
413.365	611.81
413.589	601.81
413.812	601.81
414.035	597.81
414.258	581.81
414.482	582.81
414.705	588.81
414.928	608.81
415.151	586.81
415.374	595.81
415.597	591.81
415.821	595.81
416.044	579.81
416.267	587.81
416.49	568.81
416.713	572.81
416.936	578.81
417.159	563.81
417.382	589.81
417.605	603.81
417.828	611.81
418.051	607.81
418.274	616.81
418.497	603.81
418.72	592.81
418.943	570.81
419.166	598.81
419.389	608.81
419.611	633.81
419.834	614.81
420.057	619.81
420.28	617.81
420.503	590.81
420.726	602.81
420.948	614.81
421.171	667.81
421.394	705.81
421.617	626.81
421.839	613.81
422.062	636.81
422.285	638.81
422.507	689.81
422.73	778.81
422.953	760.81
423.175	668.81
423.398	634.81
423.621	650.81
423.843	649.81
424.066	663.81
424.288	674.81
424.511	674.81
424.733	754.81
424.956	836.81
425.178	823.81
425.401	825.81
425.623	842.81
425.846	713.81
426.068	682.81
426.291	670.81
426.513	665.81
426.735	666.81
426.958	731.81
427.18	832.81
427.402	965.81
427.625	1081.81
427.847	951.81
428.069	802.81
428.292	700.81
428.514	673.81
428.736	641.81
428.958	621.81
429.181	630.81
429.403	622.81
429.625	622.81
429.847	658.81
430.069	725.81
430.292	747.81
430.514	639.81
430.736	631.81
430.958	630.81
431.18	591.81
431.402	602.81
431.624	566.81
431.846	581.81
432.068	586.81
432.29	585.81
432.512	569.81
432.734	595.81
432.956	587.81
433.178	599.81
433.4	614.81
433.622	579.81
433.844	596.81
434.066	576.81
434.287	569.81
434.509	600.81
434.731	587.81
434.953	606.81
435.175	641.81
435.397	666.81
435.618	674.81
435.84	725.81
436.062	839.81
436.284	908.81
436.505	772.81
436.727	712.81
436.949	635.81
437.17	630.81
437.392	624.81
437.614	660.81
437.835	698.81
438.057	785.81
438.278	904.81
438.5	912.81
438.721	1048.81
438.943	968.81
439.165	758.81
439.386	687.81
439.608	663.81
439.829	667.81
440.05	707.81
440.272	786.81
440.493	734.81
440.715	667.81
440.936	622.81
441.158	646.81
441.379	629.81
441.6	634.81
441.822	682.81
442.043	722.81
442.264	801.81
442.486	895.81
442.707	752.81
442.928	709.81
443.149	712.81
443.371	732.81
443.592	770.81
443.813	850.81
444.034	927.81
444.255	770.81
444.476	733.81
444.698	684.81
444.919	670.81
445.14	801.81
445.361	725.81
445.582	737.81
445.803	777.81
446.024	924.81
446.245	936.81
446.466	831.81
446.687	712.81
446.908	672.81
447.129	653.81
447.35	597.81
447.571	608.81
447.792	625.81
448.013	627.81
448.234	626.81
448.455	714.81
448.675	841.81
448.896	983.81
449.117	837.81
449.338	763.81
449.559	894.81
449.779	1034.81
450	822.81
450.221	672.81
450.442	614.81
450.662	606.81
450.883	591.81
451.104	633.81
451.324	598.81
451.545	601.81
451.766	577.81
451.986	547.81
452.207	543.81
452.428	541.81
452.648	553.81
452.869	557.81
453.089	586.81
453.31	556.81
453.53	579.81
453.751	559.81
453.971	547.81
454.192	557.81
454.412	571.81
454.633	550.81
454.853	561.81
455.073	549.81
455.294	583.81
455.514	677.81
455.734	642.81
455.955	554.81
456.175	533.81
456.395	519.81
456.616	536.81
456.836	510.81
457.056	518.81
457.276	524.81
457.497	519.81
457.717	495.81
457.937	556.81
458.157	546.81
458.377	532.81
458.598	568.81
458.818	627.81
459.038	746.81
459.258	779.81
459.478	639.81
459.698	606.81
459.918	596.81
460.138	590.81
460.358	614.81
460.578	601.81
460.798	615.81
461.018	599.81
461.238	605.81
461.458	575.81
461.678	579.81
461.898	607.81
462.118	592.81
462.338	619.81
462.558	615.81
462.777	615.81
462.997	649.81
463.217	655.81
463.437	651.81
463.657	655.81
463.876	646.81
464.096	617.81
464.316	620.81
464.536	670.81
464.755	648.81
464.975	644.81
465.195	687.81
465.414	770.81
465.634	699.81
465.854	635.81
466.073	606.81
466.293	568.81
466.512	588.81
466.732	567.81
466.951	554.81
467.171	540.81
467.391	578.81
467.61	562.81
467.829	584.81
468.049	602.81
468.268	562.81
468.488	568.81
468.707	550.81
468.927	563.81
469.146	543.81
469.365	558.81
469.585	550.81
469.804	580.81
470.023	579.81
470.243	577.81
470.462	574.81
470.681	596.81
470.901	611.81
471.12	575.81
471.339	576.81
471.558	577.81
471.777	559.81
471.997	543.81
472.216	551.81
472.435	566.81
472.654	572.81
472.873	562.81
473.092	563.81
473.311	553.81
473.53	582.81
473.749	582.81
473.968	612.81
474.187	744.81
474.406	767.81
474.625	654.81
474.844	597.81
475.063	606.81
475.282	589.81
475.501	584.81
475.72	587.81
475.939	569.81
476.158	600.81
476.377	580.81
476.596	576.81
476.814	590.81
477.033	608.81
477.252	622.81
477.471	618.81
477.69	616.81
477.908	614.81
478.127	642.81
478.346	642.81
478.564	636.81
478.783	628.81
479.002	664.81
479.22	647.81
479.439	684.81
479.658	669.81
479.876	703.81
480.095	723.81
480.313	723.81
480.532	711.81
480.751	699.81
480.969	702.81
481.188	734.81
481.406	724.81
481.624	704.81
481.843	681.81
482.061	678.81
482.28	668.81
482.498	671.81
482.717	666.81
482.935	690.81
483.153	691.81
483.372	655.81
483.59	676.81
483.808	679.81
484.027	668.81
484.245	686.81
484.463	675.81
484.681	691.81
484.9	696.81
485.118	680.81
485.336	682.81
485.554	688.81
485.772	705.81
485.99	682.81
486.209	675.81
486.427	708.81
486.645	724.81
486.863	743.81
487.081	742.81
487.299	724.81
487.517	713.81
487.735	721.81
487.953	726.81
488.171	730.81
488.389	732.81
488.607	732.81
488.825	734.81
489.043	750.81
489.261	721.81
489.479	730.81
489.696	734.81
489.914	748.81
490.132	743.81
490.35	754.81
490.568	766.81
490.786	771.81
491.003	801.81
491.221	807.81
491.439	795.81
491.657	814.81
491.874	807.81
492.092	828.81
492.31	810.81
492.527	832.81
492.745	827.81
492.963	852.81
493.18	820.81
493.398	830.81
493.615	853.81
493.833	859.81
494.05	840.81
494.268	848.81
494.485	823.81
494.703	840.81
494.92	851.81
495.138	867.81
495.355	883.81
495.573	883.81
495.79	849.81
496.008	862.81
496.225	870.81
496.442	877.81
496.66	877.81
496.877	858.81
497.094	887.81
497.312	878.81
497.529	891.81
497.746	912.81
497.963	929.81
498.181	954.81
498.398	938.81
498.615	981.81
498.832	974.81
499.049	970.81
499.267	1038.81
499.484	1076.81
499.701	1091.81
499.918	1123.81
500.135	1190.81
500.352	1227.81
500.569	1240.81
500.786	1254.81
501.003	1224.81
501.22	1179.81
501.437	1184.81
501.654	1146.81
501.871	1121.81
502.088	1072.81
502.305	1011.81
502.522	994.81
502.739	985.81
502.956	950.81
503.172	963.81
503.389	955.81
503.606	942.81
503.823	922.81
504.04	908.81
504.256	900.81
504.473	883.81
504.69	881.81
504.907	877.81
505.123	851.81
505.34	880.81
505.557	851.81
505.773	826.81
505.99	848.81
506.207	841.81
506.423	819.81
506.64	816.81
506.856	815.81
507.073	810.81
507.289	830.81
507.506	802.81
507.722	840.81
507.939	834.81
508.155	820.81
508.372	780.81
508.588	783.81
508.805	761.81
509.021	782.81
509.238	793.81
509.454	814.81
509.67	793.81
509.887	795.81
510.103	781.81
510.319	806.81
510.536	911.81
510.752	1446.81
510.968	1216.81
511.184	834.81
511.401	764.81
511.617	772.81
511.833	746.81
512.049	735.81
512.265	731.81
512.481	722.81
512.698	736.81
512.914	726.81
513.13	747.81
513.346	748.81
513.562	750.81
513.778	736.81
513.994	732.81
514.21	753.81
514.426	788.81
514.642	842.81
514.858	872.81
515.074	921.81
515.29	1075.81
515.506	1522.81
515.721	1294.81
515.937	924.81
516.153	832.81
516.369	791.81
516.585	801.81
516.801	792.81
517.016	800.81
517.232	798.81
517.448	765.81
517.664	787.81
517.879	781.81
518.095	801.81
518.311	777.81
518.527	762.81
518.742	788.81
518.958	766.81
519.173	756.81
519.389	755.81
519.605	767.81
519.82	775.81
520.036	811.81
520.251	781.81
520.467	816.81
520.682	791.81
520.898	843.81
521.113	878.81
521.329	908.81
521.544	1020.81
521.76	1243.81
521.975	1976.81
522.19	1998.81
522.406	1114.81
522.621	872.81
522.836	790.81
523.052	750.81
523.267	710.81
523.482	717.81
523.698	705.81
523.913	693.81
524.128	687.81
524.343	690.81
524.559	670.81
524.774	676.81
524.989	664.81
525.204	677.81
525.419	688.81
525.634	640.81
525.849	637.81
526.064	646.81
526.28	639.81
526.495	643.81
526.71	627.81
526.925	630.81
527.14	636.81
527.355	638.81
527.57	624.81
527.785	600.81
527.999	626.81
528.214	619.81
528.429	615.81
528.644	623.81
528.859	594.81
529.074	615.81
529.289	646.81
529.503	754.81
529.718	710.81
529.933	681.81
530.148	644.81
530.363	627.81
530.577	618.81
530.792	608.81
531.007	610.81
531.221	605.81
531.436	584.81
531.651	578.81
531.865	614.81
532.08	587.81
532.295	603.81
532.509	596.81
532.724	585.81
532.938	600.81
533.153	568.81
533.367	556.81
533.582	582.81
533.796	576.81
534.011	602.81
534.225	582.81
534.44	594.81
534.654	587.81
534.868	584.81
535.083	554.81
535.297	584.81
535.511	594.81
535.726	586.81
535.94	605.81
536.154	591.81
536.369	574.81
536.583	574.81
536.797	586.81
537.011	574.81
537.225	568.81
537.44	539.81
537.654	558.81
537.868	565.81
538.082	591.81
538.296	575.81
538.51	552.81
538.724	559.81
538.938	561.81
539.153	569.81
539.367	572.81
539.581	585.81
539.795	555.81
540.009	543.81
540.222	573.81
540.436	557.81
540.65	566.81
540.864	562.81
541.078	580.81
541.292	573.81
541.506	539.81
541.72	588.81
541.934	566.81
542.147	544.81
542.361	551.81
542.575	536.81
542.789	535.81
543.002	563.81
543.216	558.81
543.43	550.81
543.644	575.81
543.857	547.81
544.071	578.81
544.285	555.81
544.498	553.81
544.712	551.81
544.925	569.81
545.139	560.81
545.352	538.81
545.566	518.81
545.779	548.81
545.993	545.81
546.206	552.81
546.42	537.81
546.633	531.81
546.847	542.81
547.06	546.81
547.274	542.81
547.487	535.81
547.7	544.81
547.914	525.81
548.127	528.81
548.34	536.81
548.554	530.81
548.767	527.81
548.98	539.81
549.193	539.81
549.407	529.81
549.62	536.81
549.833	544.81
550.046	555.81
550.259	536.81
550.473	524.81
550.686	516.81
550.899	502.81
551.112	529.81
551.325	509.81
551.538	524.81
551.751	520.81
551.964	504.81
552.177	521.81
552.39	530.81
552.603	548.81
552.816	554.81
553.029	566.81
553.242	535.81
553.455	536.81
553.667	566.81
553.88	550.81
554.093	561.81
554.306	541.81
554.519	528.81
554.732	539.81
554.944	505.81
555.157	511.81
555.37	517.81
555.583	493.81
555.795	505.81
556.008	496.81
556.221	500.81
556.433	486.81
556.646	487.81
556.859	474.81
557.071	482.81
557.284	471.81
557.496	500.81
557.709	474.81
557.921	478.81
558.134	461.81
558.346	482.81
558.559	493.81
558.771	472.81
558.984	466.81
559.196	456.81
559.409	468.81
559.621	467.81
559.833	463.81
560.046	471.81
560.258	465.81
560.47	468.81
560.683	481.81
560.895	476.81
561.107	492.81
561.32	465.81
561.532	479.81
561.744	468.81
561.956	476.81
562.168	462.81
562.381	469.81
562.593	465.81
562.805	472.81
563.017	469.81
563.229	474.81
563.441	489.81
563.653	470.81
563.865	472.81
564.077	481.81
564.289	490.81
564.501	495.81
564.713	488.81
564.925	498.81
565.137	498.81
565.349	520.81
565.561	530.81
565.773	532.81
565.985	524.81
566.197	529.81
566.408	547.81
566.62	557.81
566.832	576.81
567.044	577.81
567.255	563.81
567.467	576.81
567.679	590.81
567.891	609.81
568.102	585.81
568.314	594.81
568.526	570.81
568.737	559.81
568.949	544.81
569.161	528.81
569.372	523.81
569.584	488.81
569.795	498.81
570.007	463.81
570.218	538.81
570.43	503.81
570.641	480.81
570.853	458.81
571.064	462.81
571.276	472.81
571.487	448.81
571.698	463.81
571.91	451.81
572.121	434.81
572.333	434.81
572.544	428.81
572.755	425.81
572.966	405.81
573.178	424.81
573.389	418.81
573.6	431.81
573.811	426.81
574.023	427.81
574.234	403.81
574.445	438.81
574.656	429.81
574.867	418.81
575.078	391.81
575.289	402.81
575.501	382.81
575.712	391.81
575.923	393.81
576.134	409.81
576.345	387.81
576.556	408.81
576.767	392.81
576.978	405.81
577.188	386.81
577.399	395.81
577.61	414.81
577.821	380.81
578.032	412.81
578.243	439.81
578.454	663.81
578.665	546.81
578.875	418.81
579.086	399.81
579.297	395.81
579.508	380.81
579.718	373.81
579.929	382.81
580.14	361.81
580.35	371.81
580.561	374.81
580.772	377.81
580.982	369.81
581.193	377.81
581.403	367.81
581.614	368.81
581.825	376.81
582.035	366.81
582.246	364.81
582.456	359.81
582.667	359.81
582.877	368.81
583.087	348.81
583.298	354.81
583.508	360.81
583.719	371.81
583.929	372.81
584.139	363.81
584.35	369.81
584.56	378.81
584.77	373.81
584.981	352.81
585.191	367.81
585.401	349.81
585.611	345.81
585.821	361.81
586.032	346.81
586.242	358.81
586.452	376.81
586.662	356.81
586.872	355.81
587.082	359.81
587.292	338.81
587.502	361.81
587.713	364.81
587.923	358.81
588.133	335.81
588.343	359.81
588.553	350.81
588.762	357.81
588.972	351.81
589.182	362.81
589.392	362.81
589.602	352.81
589.812	357.81
590.022	355.81
590.232	351.81
590.441	348.81
590.651	355.81
590.861	366.81
591.071	335.81
591.281	360.81
591.49	353.81
591.7	357.81
591.91	356.81
592.119	353.81
592.329	365.81
592.539	380.81
592.748	369.81
592.958	388.81
593.167	364.81
593.377	363.81
593.587	375.81
593.796	376.81
594.006	360.81
594.215	350.81
594.424	355.81
594.634	365.81
594.843	353.81
595.053	384.81
595.262	349.81
595.472	361.81
595.681	366.81
595.89	337.81
596.1	352.81
596.309	342.81
596.518	359.81
596.727	335.81
596.937	322.81
597.146	342.81
597.355	344.81
597.564	329.81
597.774	353.81
597.983	326.81
598.192	310.81
598.401	315.81
598.61	318.81
598.819	313.81
599.028	321.81
599.237	314.81
599.446	310.81
599.655	319.81
599.864	303.81
600.073	310.81
600.282	323.81
600.491	313.81
600.7	320.81
600.909	320.81
601.118	304.81
601.327	302.81
601.536	297.81
601.745	283.81
601.953	303.81
602.162	305.81
602.371	322.81
602.58	310.81
602.789	312.81
602.997	310.81
603.206	298.81
603.415	307.81
603.623	298.81
603.832	315.81
604.041	304.81
604.249	303.81
604.458	301.81
604.666	299.81
604.875	298.81
605.084	286.81
605.292	290.81
605.501	291.81
605.709	297.81
605.918	294.81
606.126	302.81
606.334	284.81
606.543	284.81
606.751	285.81
606.96	284.81
607.168	295.81
607.376	284.81
607.585	282.81
607.793	270.81
608.001	298.81
608.21	281.81
608.418	281.81
608.626	275.81
608.834	294.81
609.043	293.81
609.251	302.81
609.459	275.81
609.667	296.81
609.875	265.81
610.083	295.81
610.291	271.81
610.499	273.81
610.707	269.81
610.916	285.81
611.124	293.81
611.332	278.81
611.54	291.81
611.748	296.81
611.955	290.81
612.163	274.81
612.371	265.81
612.579	270.81
612.787	279.81
612.995	286.81
613.203	286.81
613.411	281.81
613.618	277.81
613.826	289.81
614.034	273.81
614.242	288.81
614.449	275.81
614.657	286.81
614.865	270.81
615.072	274.81
615.28	285.81
615.488	267.81
615.695	273.81
615.903	280.81
616.111	294.81
616.318	284.81
616.526	274.81
616.733	268.81
616.941	276.81
617.148	271.81
617.356	264.81
617.563	256.81
617.771	262.81
617.978	282.81
618.185	268.81
618.393	267.81
618.6	284.81
618.807	255.81
619.015	268.81
619.222	269.81
619.429	280.81
619.637	270.81
619.844	272.81
620.051	276.81
620.258	258.81
620.466	247.81
620.673	265.81
620.88	248.81
621.087	258.81
621.294	252.81
621.501	275.81
621.708	281.81
621.915	265.81
622.122	253.81
622.329	257.81
622.536	273.81
622.743	274.81
622.95	252.81
623.157	242.81
623.364	260.81
623.571	252.81
623.778	263.81
623.985	258.81
624.192	251.81
624.399	253.81
624.606	234.81
624.812	250.81
625.019	256.81
625.226	252.81
625.433	252.81
625.639	232.81
625.846	257.81
626.053	240.81
626.259	242.81
626.466	233.81
626.673	246.81
626.879	225.81
627.086	231.81
627.293	236.81
627.499	235.81
627.706	245.81
627.912	231.81
628.119	236.81
628.325	245.81
628.532	235.81
628.738	230.81
628.945	241.81
629.151	230.81
629.357	216.81
629.564	227.81
629.77	223.81
629.976	238.81
630.183	235.81
630.389	231.81
630.595	223.81
630.802	212.81
631.008	206.81
631.214	226.81
631.42	229.81
631.627	217.81
631.833	215.81
632.039	219.81
632.245	218.81
632.451	217.81
632.657	223.81
632.863	202.81
633.069	198.81
633.275	227.81
633.481	202.81
633.688	210.81
633.893	212.81
634.099	204.81
634.305	223.81
634.511	237.81
634.717	224.81
634.923	204.81
635.129	182.81
635.335	201.81
635.541	224.81
635.747	211.81
635.952	202.81
636.158	232.81
636.364	193.81
636.57	214.81
636.775	218.81
636.981	203.81
637.187	218.81
637.392	197.81
637.598	213.81
637.804	228.81
638.009	205.81
638.215	212.81
638.421	220.81
638.626	212.81
638.832	191.81
639.037	178.81
639.243	192.81
639.448	202.81
639.654	210.81
639.859	190.81
640.065	202.81
640.27	207.81
640.475	205.81
640.681	197.81
640.886	188.81
641.091	190.81
641.297	207.81
641.502	198.81
641.707	186.81
641.913	199.81
642.118	181.81
642.323	203.81
642.528	199.81
642.733	180.81
642.939	189.81
643.144	182.81
643.349	182.81
643.554	192.81
643.759	195.81
643.964	167.81
644.169	184.81
644.374	183.81
644.579	190.81
644.784	199.81
644.989	192.81
645.194	200.81
645.399	195.81
645.604	181.81
645.809	178.81
646.014	202.81
646.219	187.81
646.423	203.81
646.628	185.81
646.833	171.81
647.038	183.81
647.243	193.81
647.447	194.81
647.652	184.81
647.857	186.81
648.062	208.81
648.266	198.81
648.471	179.81
648.676	208.81
648.88	192.81
649.085	185.81
649.289	177.81
649.494	199.81
649.698	214.81
649.903	196.81
650.107	209.81
650.312	198.81
650.516	175.81
650.721	180.81
650.925	174.81
651.13	156.81
651.334	188.81
651.539	187.81
651.743	167.81
651.947	161.81
652.152	179.81
652.356	176.81
652.56	162.81
652.764	163.81
652.969	159.81
653.173	166.81
653.377	147.81
653.581	148.81
653.785	170.81
653.99	150.81
654.194	158.81
654.398	155.81
654.602	156.81
654.806	156.81
655.01	147.81
655.214	165.81
655.418	150.81
655.622	148.81
655.826	167.81
656.03	170.81
656.234	146.81
656.438	156.81
656.642	158.81
656.846	164.81
657.049	138.81
657.253	148.81
657.457	140.81
657.661	141.81
657.865	127.81
658.068	125.81
658.272	115.81
658.476	120.81
658.68	121.81
658.883	116.81
659.087	104.81
659.291	108.81
659.494	115.81
659.698	113.81
659.901	112.81
660.105	98.81
660.309	109.81
660.512	112.81
660.716	102.81
660.919	98.81
661.123	93.81
661.326	110.81
661.53	94.81
661.733	89.81
661.936	89.81
662.14	111.81
662.343	95.81
662.546	107.81
662.75	108.81
662.953	104.81
663.156	98.81
663.36	65.81
663.563	98.81
663.766	95.81
663.969	91.81
664.173	88.81
664.376	88.81
664.579	84.81
664.782	84.81
664.985	83.81
665.188	97.81
665.391	101.81
665.594	90.81
665.797	92.81
666	94.81
666.203	89.81
666.406	91.81
666.609	96.81
666.812	100.81
667.015	79.81
667.218	82.81
667.421	82.81
667.624	90.81
667.827	96.81
668.03	90.81
668.232	88.81
668.435	90.81
668.638	97.81
668.841	90.81
669.043	97.81
669.246	89.81
669.449	84.81
669.651	88.81
669.854	91.81
670.057	87.81
670.259	80.81
670.462	94.81
670.665	85.81
670.867	93.81
671.07	84.81
671.272	97.81
671.475	90.81
671.677	99.81
671.88	96.81
672.082	99.81
672.284	91.81
672.487	96.81
672.689	87.81
672.892	86.81
