Data from 1988.PennyLincolnUp.Lamp.En5.5.200Scan.071819.P2_HRD10591_17-18-48-972.txt Node
Date: Thu Jul 18 17:18:48 EDT 2019
User: cochatt
Spectrometer: HR+D1059
Trigger mode: 1
Integration Time (sec): 1.000000E-1
Scans to average: 1
Electric dark correction enabled: true
Nonlinearity correction enabled: false
Boxcar width: 0
XAxis mode: Wavelengths
Number of Pixels in Spectrum: 2048
>>>>>Begin Spectral Data<<<<<
223.165	-7.31
223.4	-7.31
223.635	-7.31
223.869	-23.31
224.104	-16.31
224.338	-10.31
224.573	-16.31
224.808	-17.31
225.042	-10.31
225.277	-15.31
225.511	7.69
225.746	3.69
225.98	3.69
226.215	11.69
226.449	20.69
226.683	15.69
226.918	26.69
227.152	26.69
227.387	38.69
227.621	30.69
227.856	51.69
228.09	49.69
228.324	46.69
228.559	48.69
228.793	68.69
229.027	90.69
229.262	100.69
229.496	123.69
229.73	127.69
229.964	155.69
230.199	125.69
230.433	119.69
230.667	120.69
230.901	116.69
231.136	119.69
231.37	122.69
231.604	117.69
231.838	117.69
232.072	103.69
232.306	96.69
232.541	117.69
232.775	117.69
233.009	111.69
233.243	127.69
233.477	125.69
233.711	119.69
233.945	119.69
234.179	112.69
234.413	133.69
234.647	121.69
234.881	117.69
235.115	111.69
235.349	127.69
235.583	128.69
235.817	127.69
236.051	128.69
236.285	112.69
236.519	129.69
236.753	129.69
236.987	134.69
237.221	173.69
237.455	220.69
237.689	182.69
237.922	125.69
238.156	128.69
238.39	148.69
238.624	121.69
238.858	128.69
239.091	123.69
239.325	128.69
239.559	112.69
239.793	144.69
240.027	139.69
240.26	136.69
240.494	152.69
240.728	145.69
240.961	133.69
241.195	148.69
241.429	137.69
241.662	127.69
241.896	127.69
242.13	126.69
242.363	148.69
242.597	144.69
242.83	144.69
243.064	140.69
243.298	146.69
243.531	130.69
243.765	141.69
243.998	135.69
244.232	126.69
244.465	135.69
244.699	129.69
244.932	134.69
245.166	140.69
245.399	138.69
245.633	136.69
245.866	132.69
246.099	148.69
246.333	141.69
246.566	146.69
246.8	147.69
247.033	158.69
247.266	160.69
247.5	175.69
247.733	156.69
247.966	176.69
248.2	169.69
248.433	165.69
248.666	157.69
248.899	160.69
249.133	182.69
249.366	194.69
249.599	203.69
249.832	193.69
250.066	181.69
250.299	177.69
250.532	177.69
250.765	195.69
250.998	203.69
251.231	204.69
251.465	218.69
251.698	203.69
251.931	199.69
252.164	192.69
252.397	208.69
252.63	189.69
252.863	194.69
253.096	193.69
253.329	215.69
253.562	216.69
253.795	214.69
254.028	212.69
254.261	195.69
254.494	217.69
254.727	218.69
254.96	275.69
255.193	249.69
255.426	233.69
255.659	232.69
255.892	209.69
256.124	221.69
256.357	207.69
256.59	199.69
256.823	214.69
257.056	207.69
257.289	204.69
257.521	203.69
257.754	210.69
257.987	208.69
258.22	206.69
258.452	214.69
258.685	199.69
258.918	192.69
259.151	200.69
259.383	209.69
259.616	226.69
259.849	232.69
260.081	218.69
260.314	236.69
260.547	225.69
260.779	235.69
261.012	236.69
261.244	229.69
261.477	211.69
261.71	214.69
261.942	216.69
262.175	230.69
262.407	220.69
262.64	201.69
262.872	224.69
263.105	216.69
263.337	220.69
263.57	208.69
263.802	190.69
264.035	214.69
264.267	210.69
264.499	196.69
264.732	198.69
264.964	205.69
265.197	193.69
265.429	228.69
265.661	218.69
265.894	210.69
266.126	214.69
266.358	209.69
266.591	207.69
266.823	223.69
267.055	227.69
267.287	209.69
267.52	222.69
267.752	233.69
267.984	224.69
268.216	209.69
268.448	224.69
268.681	233.69
268.913	221.69
269.145	252.69
269.377	285.69
269.609	260.69
269.841	247.69
270.073	270.69
270.306	274.69
270.538	289.69
270.77	288.69
271.002	287.69
271.234	269.69
271.466	295.69
271.698	295.69
271.93	283.69
272.162	311.69
272.394	295.69
272.626	273.69
272.858	286.69
273.09	262.69
273.322	275.69
273.553	256.69
273.785	251.69
274.017	256.69
274.249	249.69
274.481	249.69
274.713	234.69
274.945	265.69
275.176	265.69
275.408	276.69
275.64	265.69
275.872	249.69
276.104	255.69
276.335	262.69
276.567	271.69
276.799	281.69
277.031	291.69
277.262	297.69
277.494	297.69
277.726	294.69
277.957	281.69
278.189	294.69
278.421	251.69
278.652	253.69
278.884	291.69
279.115	261.69
279.347	257.69
279.579	270.69
279.81	272.69
280.042	263.69
280.273	236.69
280.505	258.69
280.736	265.69
280.968	263.69
281.199	281.69
281.431	273.69
281.662	248.69
281.894	271.69
282.125	273.69
282.356	280.69
282.588	284.69
282.819	298.69
283.051	273.69
283.282	261.69
283.513	262.69
283.745	278.69
283.976	270.69
284.207	287.69
284.439	271.69
284.67	279.69
284.901	257.69
285.132	291.69
285.364	269.69
285.595	285.69
285.826	272.69
286.057	283.69
286.288	264.69
286.52	269.69
286.751	293.69
286.982	299.69
287.213	270.69
287.444	293.69
287.675	282.69
287.906	299.69
288.138	291.69
288.369	300.69
288.6	296.69
288.831	285.69
289.062	279.69
289.293	302.69
289.524	267.69
289.755	286.69
289.986	289.69
290.217	300.69
290.448	276.69
290.679	281.69
290.91	283.69
291.141	277.69
291.371	277.69
291.602	297.69
291.833	274.69
292.064	287.69
292.295	281.69
292.526	286.69
292.757	284.69
292.987	278.69
293.218	277.69
293.449	294.69
293.68	304.69
293.91	288.69
294.141	295.69
294.372	296.69
294.603	293.69
294.833	288.69
295.064	283.69
295.295	280.69
295.525	303.69
295.756	311.69
295.987	300.69
296.217	335.69
296.448	325.69
296.679	311.69
296.909	314.69
297.14	301.69
297.37	298.69
297.601	295.69
297.831	300.69
298.062	300.69
298.292	309.69
298.523	303.69
298.753	329.69
298.984	300.69
299.214	309.69
299.445	310.69
299.675	319.69
299.905	317.69
300.136	324.69
300.366	300.69
300.597	309.69
300.827	317.69
301.057	303.69
301.288	321.69
301.518	319.69
301.748	325.69
301.979	323.69
302.209	328.69
302.439	312.69
302.669	316.69
302.9	319.69
303.13	320.69
303.36	338.69
303.59	337.69
303.82	342.69
304.051	341.69
304.281	339.69
304.511	323.69
304.741	322.69
304.971	315.69
305.201	324.69
305.431	307.69
305.661	327.69
305.891	335.69
306.121	339.69
306.352	341.69
306.582	328.69
306.812	335.69
307.042	333.69
307.272	346.69
307.502	338.69
307.731	332.69
307.961	349.69
308.191	325.69
308.421	336.69
308.651	334.69
308.881	350.69
309.111	344.69
309.341	360.69
309.571	351.69
309.8	364.69
310.03	375.69
310.26	356.69
310.49	352.69
310.72	376.69
310.949	380.69
311.179	416.69
311.409	383.69
311.639	381.69
311.868	383.69
312.098	374.69
312.328	357.69
312.557	389.69
312.787	393.69
313.017	417.69
313.246	382.69
313.476	374.69
313.706	361.69
313.935	393.69
314.165	394.69
314.394	392.69
314.624	387.69
314.853	395.69
315.083	377.69
315.312	379.69
315.542	377.69
315.771	364.69
316.001	381.69
316.23	388.69
316.46	381.69
316.689	398.69
316.919	389.69
317.148	395.69
317.377	389.69
317.607	390.69
317.836	388.69
318.065	361.69
318.295	401.69
318.524	383.69
318.753	368.69
318.983	365.69
319.212	407.69
319.441	405.69
319.67	380.69
319.9	389.69
320.129	407.69
320.358	383.69
320.587	405.69
320.816	382.69
321.046	405.69
321.275	408.69
321.504	390.69
321.733	392.69
321.962	409.69
322.191	380.69
322.42	414.69
322.649	445.69
322.878	438.69
323.108	460.69
323.337	480.69
323.566	486.69
323.795	517.69
324.024	561.69
324.253	681.69
324.482	932.69
324.71	1444.69
324.939	2117.69
325.168	1833.69
325.397	935.69
325.626	652.69
325.855	547.69
326.084	500.69
326.313	499.69
326.542	497.69
326.77	535.69
326.999	639.69
327.228	875.69
327.457	1297.69
327.686	1571.69
327.914	1012.69
328.143	680.69
328.372	587.69
328.6	560.69
328.829	530.69
329.058	544.69
329.287	561.69
329.515	531.69
329.744	470.69
329.972	499.69
330.201	473.69
330.43	509.69
330.658	530.69
330.887	576.69
331.115	572.69
331.344	489.69
331.572	478.69
331.801	482.69
332.03	490.69
332.258	473.69
332.486	430.69
332.715	430.69
332.943	441.69
333.172	437.69
333.4	444.69
333.629	454.69
333.857	473.69
334.085	483.69
334.314	457.69
334.542	451.69
334.771	469.69
334.999	456.69
335.227	466.69
335.455	455.69
335.684	461.69
335.912	447.69
336.14	441.69
336.369	449.69
336.597	439.69
336.825	454.69
337.053	454.69
337.281	445.69
337.51	452.69
337.738	437.69
337.966	454.69
338.194	455.69
338.422	420.69
338.65	422.69
338.878	430.69
339.106	428.69
339.334	410.69
339.562	455.69
339.79	416.69
340.018	442.69
340.246	417.69
340.474	436.69
340.702	421.69
340.93	434.69
341.158	442.69
341.386	427.69
341.614	428.69
341.842	415.69
342.07	448.69
342.298	424.69
342.526	431.69
342.754	443.69
342.981	412.69
343.209	394.69
343.437	422.69
343.665	424.69
343.893	437.69
344.12	439.69
344.348	444.69
344.576	451.69
344.804	447.69
345.031	447.69
345.259	445.69
345.487	451.69
345.714	445.69
345.942	421.69
346.17	417.69
346.397	422.69
346.625	410.69
346.853	405.69
347.08	402.69
347.308	420.69
347.535	420.69
347.763	444.69
347.99	438.69
348.218	429.69
348.445	423.69
348.673	428.69
348.9	416.69
349.128	414.69
349.355	382.69
349.583	418.69
349.81	408.69
350.037	399.69
350.265	410.69
350.492	419.69
350.72	403.69
350.947	403.69
351.174	438.69
351.402	427.69
351.629	405.69
351.856	433.69
352.083	444.69
352.311	429.69
352.538	448.69
352.765	443.69
352.992	416.69
353.22	428.69
353.447	417.69
353.674	401.69
353.901	403.69
354.128	403.69
354.355	407.69
354.583	387.69
354.81	394.69
355.037	394.69
355.264	384.69
355.491	388.69
355.718	383.69
355.945	390.69
356.172	400.69
356.399	404.69
356.626	395.69
356.853	390.69
357.08	391.69
357.307	388.69
357.534	398.69
357.761	390.69
357.988	397.69
358.215	397.69
358.441	397.69
358.668	407.69
358.895	404.69
359.122	406.69
359.349	416.69
359.576	432.69
359.802	428.69
360.029	450.69
360.256	476.69
360.483	452.69
360.709	414.69
360.936	434.69
361.163	422.69
361.39	406.69
361.616	423.69
361.843	406.69
362.07	414.69
362.296	424.69
362.523	416.69
362.749	433.69
362.976	417.69
363.203	415.69
363.429	415.69
363.656	408.69
363.882	415.69
364.109	405.69
364.335	407.69
364.562	400.69
364.788	391.69
365.015	396.69
365.241	422.69
365.468	422.69
365.694	418.69
365.92	422.69
366.147	413.69
366.373	405.69
366.599	398.69
366.826	408.69
367.052	392.69
367.278	398.69
367.505	413.69
367.731	390.69
367.957	409.69
368.184	408.69
368.41	422.69
368.636	419.69
368.862	424.69
369.089	438.69
369.315	415.69
369.541	409.69
369.767	406.69
369.993	395.69
370.219	404.69
370.445	408.69
370.672	400.69
370.898	381.69
371.124	397.69
371.35	400.69
371.576	411.69
371.802	412.69
372.028	408.69
372.254	408.69
372.48	409.69
372.706	413.69
372.932	390.69
373.158	392.69
373.384	413.69
373.61	426.69
373.835	400.69
374.061	402.69
374.287	411.69
374.513	430.69
374.739	428.69
374.965	409.69
375.191	423.69
375.416	412.69
375.642	417.69
375.868	407.69
376.094	412.69
376.319	402.69
376.545	403.69
376.771	401.69
376.997	399.69
377.222	388.69
377.448	412.69
377.674	397.69
377.899	398.69
378.125	390.69
378.35	400.69
378.576	406.69
378.802	419.69
379.027	387.69
379.253	399.69
379.478	409.69
379.704	419.69
379.929	411.69
380.155	390.69
380.38	391.69
380.606	413.69
380.831	405.69
381.057	419.69
381.282	419.69
381.507	439.69
381.733	413.69
381.958	400.69
382.184	401.69
382.409	392.69
382.634	399.69
382.86	417.69
383.085	427.69
383.31	418.69
383.535	427.69
383.761	427.69
383.986	435.69
384.211	430.69
384.436	424.69
384.662	432.69
384.887	437.69
385.112	436.69
385.337	458.69
385.562	442.69
385.787	460.69
386.013	461.69
386.238	453.69
386.463	463.69
386.688	450.69
386.913	438.69
387.138	442.69
387.363	445.69
387.588	443.69
387.813	451.69
388.038	436.69
388.263	428.69
388.488	456.69
388.713	453.69
388.938	457.69
389.163	435.69
389.387	447.69
389.612	431.69
389.837	472.69
390.062	440.69
390.287	467.69
390.512	455.69
390.736	455.69
390.961	440.69
391.186	443.69
391.411	451.69
391.636	425.69
391.86	447.69
392.085	467.69
392.31	484.69
392.534	457.69
392.759	479.69
392.984	452.69
393.208	449.69
393.433	445.69
393.658	464.69
393.882	466.69
394.107	469.69
394.331	463.69
394.556	431.69
394.78	412.69
395.005	459.69
395.229	424.69
395.454	465.69
395.678	481.69
395.903	497.69
396.127	507.69
396.352	497.69
396.576	502.69
396.801	466.69
397.025	477.69
397.249	474.69
397.474	497.69
397.698	474.69
397.922	476.69
398.147	513.69
398.371	523.69
398.595	510.69
398.82	517.69
399.044	499.69
399.268	539.69
399.492	579.69
399.717	597.69
399.941	635.69
400.165	627.69
400.389	610.69
400.613	595.69
400.837	553.69
401.062	518.69
401.286	523.69
401.51	519.69
401.734	508.69
401.958	507.69
402.182	517.69
402.406	533.69
402.63	544.69
402.854	521.69
403.078	533.69
403.302	521.69
403.526	541.69
403.75	537.69
403.974	544.69
404.198	503.69
404.422	536.69
404.645	526.69
404.869	525.69
405.093	573.69
405.317	583.69
405.541	579.69
405.765	556.69
405.988	549.69
406.212	547.69
406.436	552.69
406.66	589.69
406.883	576.69
407.107	592.69
407.331	654.69
407.555	698.69
407.778	677.69
408.002	637.69
408.226	582.69
408.449	599.69
408.673	567.69
408.896	608.69
409.12	657.69
409.344	621.69
409.567	571.69
409.791	538.69
410.014	526.69
410.238	545.69
410.461	522.69
410.685	516.69
410.908	559.69
411.132	577.69
411.355	624.69
411.578	614.69
411.802	541.69
412.025	543.69
412.249	541.69
412.472	531.69
412.695	549.69
412.919	520.69
413.142	516.69
413.365	532.69
413.589	504.69
413.812	517.69
414.035	513.69
414.258	507.69
414.482	515.69
414.705	499.69
414.928	500.69
415.151	481.69
415.374	513.69
415.597	530.69
415.821	499.69
416.044	487.69
416.267	503.69
416.49	499.69
416.713	504.69
416.936	495.69
417.159	498.69
417.382	508.69
417.605	494.69
417.828	519.69
418.051	529.69
418.274	515.69
418.497	506.69
418.72	494.69
418.943	471.69
419.166	502.69
419.389	527.69
419.611	513.69
419.834	519.69
420.057	534.69
420.28	506.69
420.503	495.69
420.726	521.69
420.948	543.69
421.171	576.69
421.394	592.69
421.617	551.69
421.839	537.69
422.062	516.69
422.285	547.69
422.507	603.69
422.73	678.69
422.953	652.69
423.175	567.69
423.398	537.69
423.621	551.69
423.843	560.69
424.066	558.69
424.288	578.69
424.511	557.69
424.733	615.69
424.956	729.69
425.178	681.69
425.401	653.69
425.623	683.69
425.846	605.69
426.068	579.69
426.291	551.69
426.513	559.69
426.735	555.69
426.958	615.69
427.18	689.69
427.402	810.69
427.625	902.69
427.847	766.69
428.069	643.69
428.292	580.69
428.514	547.69
428.736	553.69
428.958	536.69
429.181	527.69
429.403	527.69
429.625	511.69
429.847	552.69
430.069	604.69
430.292	624.69
430.514	532.69
430.736	514.69
430.958	534.69
431.18	477.69
431.402	481.69
431.624	481.69
431.846	482.69
432.068	492.69
432.29	511.69
432.512	492.69
432.734	508.69
432.956	483.69
433.178	501.69
433.4	523.69
433.622	510.69
433.844	497.69
434.066	499.69
434.287	490.69
434.509	499.69
434.731	513.69
434.953	504.69
435.175	529.69
435.397	553.69
435.618	586.69
435.84	587.69
436.062	689.69
436.284	756.69
436.505	648.69
436.727	571.69
436.949	544.69
437.17	533.69
437.392	516.69
437.614	549.69
437.835	563.69
438.057	673.69
438.278	775.69
438.5	755.69
438.721	819.69
438.943	802.69
439.165	628.69
439.386	575.69
439.608	555.69
439.829	537.69
440.05	586.69
440.272	620.69
440.493	586.69
440.715	570.69
440.936	534.69
441.158	522.69
441.379	539.69
441.6	539.69
441.822	544.69
442.043	599.69
442.264	664.69
442.486	713.69
442.707	631.69
442.928	563.69
443.149	581.69
443.371	606.69
443.592	640.69
443.813	741.69
444.034	832.69
444.255	661.69
444.476	604.69
444.698	585.69
444.919	542.69
445.14	631.69
445.361	620.69
445.582	603.69
445.803	669.69
446.024	783.69
446.245	766.69
446.466	715.69
446.687	593.69
446.908	577.69
447.129	543.69
447.35	518.69
447.571	523.69
447.792	512.69
448.013	521.69
448.234	522.69
448.455	589.69
448.675	700.69
448.896	803.69
449.117	689.69
449.338	657.69
449.559	762.69
449.779	889.69
450	694.69
450.221	571.69
450.442	526.69
450.662	524.69
450.883	503.69
451.104	527.69
451.324	536.69
451.545	496.69
451.766	465.69
451.986	475.69
452.207	459.69
452.428	474.69
452.648	452.69
452.869	473.69
453.089	472.69
453.31	472.69
453.53	467.69
453.751	465.69
453.971	478.69
454.192	483.69
454.412	488.69
454.633	463.69
454.853	476.69
455.073	470.69
455.294	485.69
455.514	543.69
455.734	533.69
455.955	473.69
456.175	465.69
456.395	433.69
456.616	431.69
456.836	461.69
457.056	424.69
457.276	421.69
457.497	445.69
457.717	461.69
457.937	449.69
458.157	469.69
458.377	469.69
458.598	486.69
458.818	517.69
459.038	592.69
459.258	624.69
459.478	537.69
459.698	495.69
459.918	498.69
460.138	502.69
460.358	485.69
460.578	506.69
460.798	515.69
461.018	514.69
461.238	518.69
461.458	516.69
461.678	495.69
461.898	517.69
462.118	500.69
462.338	524.69
462.558	527.69
462.777	538.69
462.997	550.69
463.217	558.69
463.437	572.69
463.657	541.69
463.876	547.69
464.096	543.69
464.316	545.69
464.536	551.69
464.755	570.69
464.975	564.69
465.195	570.69
465.414	645.69
465.634	587.69
465.854	537.69
466.073	515.69
466.293	501.69
466.512	496.69
466.732	514.69
466.951	479.69
467.171	491.69
467.391	487.69
467.61	472.69
467.829	505.69
468.049	493.69
468.268	467.69
468.488	475.69
468.707	473.69
468.927	492.69
469.146	467.69
469.365	482.69
469.585	471.69
469.804	497.69
470.023	502.69
470.243	492.69
470.462	493.69
470.681	509.69
470.901	515.69
471.12	477.69
471.339	475.69
471.558	518.69
471.777	505.69
471.997	477.69
472.216	466.69
472.435	468.69
472.654	494.69
472.873	463.69
473.092	491.69
473.311	469.69
473.53	481.69
473.749	493.69
473.968	529.69
474.187	632.69
474.406	641.69
474.625	533.69
474.844	508.69
475.063	496.69
475.282	501.69
475.501	485.69
475.72	520.69
475.939	515.69
476.158	496.69
476.377	505.69
476.596	510.69
476.814	513.69
477.033	503.69
477.252	520.69
477.471	513.69
477.69	515.69
477.908	533.69
478.127	565.69
478.346	521.69
478.564	540.69
478.783	529.69
479.002	531.69
479.22	560.69
479.439	558.69
479.658	560.69
479.876	600.69
480.095	572.69
480.313	608.69
480.532	585.69
480.751	603.69
480.969	591.69
481.188	612.69
481.406	601.69
481.624	581.69
481.843	588.69
482.061	574.69
482.28	585.69
482.498	576.69
482.717	568.69
482.935	587.69
483.153	584.69
483.372	576.69
483.59	557.69
483.808	569.69
484.027	582.69
484.245	569.69
484.463	565.69
484.681	601.69
484.9	581.69
485.118	611.69
485.336	583.69
485.554	586.69
485.772	600.69
485.99	591.69
486.209	590.69
486.427	596.69
486.645	589.69
486.863	629.69
487.081	621.69
487.299	606.69
487.517	614.69
487.735	613.69
487.953	606.69
488.171	593.69
488.389	593.69
488.607	597.69
488.825	613.69
489.043	596.69
489.261	616.69
489.479	588.69
489.696	597.69
489.914	617.69
490.132	588.69
490.35	635.69
490.568	665.69
490.786	639.69
491.003	629.69
491.221	622.69
491.439	652.69
491.657	677.69
491.874	682.69
492.092	673.69
492.31	685.69
492.527	657.69
492.745	688.69
492.963	681.69
493.18	684.69
493.398	705.69
493.615	723.69
493.833	691.69
494.05	696.69
494.268	717.69
494.485	711.69
494.703	674.69
494.92	713.69
495.138	694.69
495.355	726.69
495.573	711.69
495.79	728.69
496.008	711.69
496.225	698.69
496.442	725.69
496.66	730.69
496.877	734.69
497.094	724.69
497.312	761.69
497.529	741.69
497.746	728.69
497.963	773.69
498.181	777.69
498.398	785.69
498.615	827.69
498.832	850.69
499.049	849.69
499.267	870.69
499.484	901.69
499.701	917.69
499.918	932.69
500.135	999.69
500.352	1023.69
500.569	1025.69
500.786	1067.69
501.003	1038.69
501.22	995.69
501.437	961.69
501.654	941.69
501.871	935.69
502.088	893.69
502.305	843.69
502.522	839.69
502.739	814.69
502.956	821.69
503.172	788.69
503.389	763.69
503.606	759.69
503.823	770.69
504.04	749.69
504.256	741.69
504.473	749.69
504.69	730.69
504.907	750.69
505.123	729.69
505.34	719.69
505.557	708.69
505.773	709.69
505.99	711.69
506.207	700.69
506.423	713.69
506.64	712.69
506.856	677.69
507.073	693.69
507.289	665.69
507.506	692.69
507.722	673.69
507.939	699.69
508.155	682.69
508.372	661.69
508.588	655.69
508.805	669.69
509.021	651.69
509.238	668.69
509.454	661.69
509.67	653.69
509.887	672.69
510.103	644.69
510.319	665.69
510.536	746.69
510.752	1167.69
510.968	985.69
511.184	643.69
511.401	629.69
511.617	602.69
511.833	625.69
512.049	614.69
512.265	618.69
512.481	598.69
512.698	631.69
512.914	606.69
513.13	616.69
513.346	644.69
513.562	648.69
513.778	629.69
513.994	634.69
514.21	637.69
514.426	673.69
514.642	702.69
514.858	745.69
515.074	747.69
515.29	840.69
515.506	1220.69
515.721	1067.69
515.937	731.69
516.153	684.69
516.369	671.69
516.585	670.69
516.801	658.69
517.016	656.69
517.232	640.69
517.448	663.69
517.664	662.69
517.879	644.69
518.095	676.69
518.311	654.69
518.527	647.69
518.742	639.69
518.958	648.69
519.173	610.69
519.389	624.69
519.605	629.69
519.82	637.69
520.036	625.69
520.251	686.69
520.467	669.69
520.682	654.69
520.898	695.69
521.113	689.69
521.329	734.69
521.544	782.69
521.76	965.69
521.975	1539.69
522.19	1588.69
522.406	926.69
522.621	713.69
522.836	683.69
523.052	626.69
523.267	617.69
523.482	604.69
523.698	594.69
523.913	592.69
524.128	574.69
524.343	588.69
524.559	543.69
524.774	533.69
524.989	563.69
525.204	553.69
525.419	559.69
525.634	571.69
525.849	529.69
526.064	543.69
526.28	530.69
526.495	538.69
526.71	538.69
526.925	525.69
527.14	536.69
527.355	517.69
527.57	517.69
527.785	504.69
527.999	539.69
528.214	527.69
528.429	538.69
528.644	493.69
528.859	526.69
529.074	521.69
529.289	544.69
529.503	612.69
529.718	606.69
529.933	555.69
530.148	516.69
530.363	542.69
530.577	525.69
530.792	502.69
531.007	533.69
531.221	522.69
531.436	511.69
531.651	495.69
531.865	522.69
532.08	529.69
532.295	502.69
532.509	505.69
532.724	499.69
532.938	496.69
533.153	476.69
533.367	515.69
533.582	522.69
533.796	496.69
534.011	484.69
534.225	501.69
534.44	489.69
534.654	499.69
534.868	457.69
535.083	501.69
535.297	496.69
535.511	478.69
535.726	501.69
535.94	509.69
536.154	488.69
536.369	503.69
536.583	472.69
536.797	478.69
537.011	451.69
537.225	481.69
537.44	485.69
537.654	456.69
537.868	481.69
538.082	465.69
538.296	460.69
538.51	478.69
538.724	471.69
538.938	471.69
539.153	490.69
539.367	496.69
539.581	471.69
539.795	490.69
540.009	489.69
540.222	475.69
540.436	477.69
540.65	470.69
540.864	489.69
541.078	503.69
541.292	489.69
541.506	460.69
541.72	477.69
541.934	475.69
542.147	478.69
542.361	480.69
542.575	455.69
542.789	480.69
543.002	449.69
543.216	469.69
543.43	454.69
543.644	467.69
543.857	474.69
544.071	483.69
544.285	476.69
544.498	465.69
544.712	463.69
544.925	461.69
545.139	463.69
545.352	464.69
545.566	476.69
545.779	491.69
545.993	470.69
546.206	470.69
546.42	485.69
546.633	473.69
546.847	465.69
547.06	460.69
547.274	467.69
547.487	457.69
547.7	473.69
547.914	431.69
548.127	472.69
548.34	464.69
548.554	462.69
548.767	457.69
548.98	474.69
549.193	442.69
549.407	445.69
549.62	464.69
549.833	460.69
550.046	461.69
550.259	470.69
550.473	443.69
550.686	447.69
550.899	442.69
551.112	468.69
551.325	444.69
551.538	451.69
551.751	440.69
551.964	443.69
552.177	454.69
552.39	459.69
552.603	475.69
552.816	460.69
553.029	448.69
553.242	446.69
553.455	467.69
553.667	480.69
553.88	490.69
554.093	460.69
554.306	481.69
554.519	454.69
554.732	449.69
554.944	431.69
555.157	426.69
555.37	434.69
555.583	446.69
555.795	418.69
556.008	426.69
556.221	429.69
556.433	433.69
556.646	409.69
556.859	407.69
557.071	401.69
557.284	423.69
557.496	409.69
557.709	417.69
557.921	412.69
558.134	400.69
558.346	412.69
558.559	421.69
558.771	419.69
558.984	399.69
559.196	392.69
559.409	411.69
559.621	401.69
559.833	413.69
560.046	401.69
560.258	415.69
560.47	424.69
560.683	413.69
560.895	427.69
561.107	401.69
561.32	404.69
561.532	397.69
561.744	425.69
561.956	397.69
562.168	400.69
562.381	400.69
562.593	397.69
562.805	423.69
563.017	424.69
563.229	428.69
563.441	424.69
563.653	420.69
563.865	397.69
564.077	408.69
564.289	426.69
564.501	444.69
564.713	426.69
564.925	426.69
565.137	442.69
565.349	443.69
565.561	437.69
565.773	416.69
565.985	449.69
566.197	446.69
566.408	471.69
566.62	494.69
566.832	502.69
567.044	503.69
567.255	505.69
567.467	503.69
567.679	491.69
567.891	513.69
568.102	512.69
568.314	483.69
568.526	501.69
568.737	473.69
568.949	450.69
569.161	453.69
569.372	392.69
569.584	428.69
569.795	448.69
570.007	407.69
570.218	442.69
570.43	433.69
570.641	409.69
570.853	435.69
571.064	395.69
571.276	383.69
571.487	397.69
571.698	378.69
571.91	396.69
572.121	377.69
572.333	377.69
572.544	378.69
572.755	366.69
572.966	360.69
573.178	383.69
573.389	374.69
573.6	364.69
573.811	381.69
574.023	375.69
574.234	346.69
574.445	342.69
574.656	361.69
574.867	351.69
575.078	358.69
575.289	347.69
575.501	358.69
575.712	350.69
575.923	358.69
576.134	331.69
576.345	345.69
576.556	332.69
576.767	332.69
576.978	356.69
577.188	347.69
577.399	331.69
577.61	338.69
577.821	340.69
578.032	351.69
578.243	375.69
578.454	560.69
578.665	443.69
578.875	348.69
579.086	314.69
579.297	302.69
579.508	327.69
579.718	347.69
579.929	349.69
580.14	310.69
580.35	313.69
580.561	320.69
580.772	323.69
580.982	326.69
581.193	342.69
581.403	304.69
581.614	312.69
581.825	334.69
582.035	304.69
582.246	330.69
582.456	324.69
582.667	327.69
582.877	324.69
583.087	332.69
583.298	311.69
583.508	314.69
583.719	335.69
583.929	318.69
584.139	319.69
584.35	308.69
584.56	313.69
584.77	312.69
584.981	324.69
585.191	323.69
585.401	318.69
585.611	327.69
585.821	304.69
586.032	315.69
586.242	315.69
586.452	325.69
586.662	295.69
586.872	308.69
587.082	315.69
587.292	309.69
587.502	322.69
587.713	288.69
587.923	309.69
588.133	292.69
588.343	283.69
588.553	302.69
588.762	304.69
588.972	329.69
589.182	328.69
589.392	318.69
589.602	315.69
589.812	316.69
590.022	296.69
590.232	314.69
590.441	317.69
590.651	298.69
590.861	297.69
591.071	313.69
591.281	321.69
591.49	312.69
591.7	311.69
591.91	327.69
592.119	329.69
592.329	314.69
592.539	299.69
592.748	314.69
592.958	321.69
593.167	328.69
593.377	316.69
593.587	328.69
593.796	325.69
594.006	330.69
594.215	302.69
594.424	313.69
594.634	314.69
594.843	312.69
595.053	316.69
595.262	304.69
595.472	295.69
595.681	298.69
595.89	297.69
596.1	287.69
596.309	295.69
596.518	296.69
596.727	289.69
596.937	287.69
597.146	290.69
597.355	300.69
597.564	286.69
597.774	274.69
597.983	281.69
598.192	285.69
598.401	268.69
598.61	281.69
598.819	281.69
599.028	275.69
599.237	282.69
599.446	273.69
599.655	283.69
599.864	287.69
600.073	280.69
600.282	269.69
600.491	273.69
600.7	270.69
600.909	283.69
601.118	272.69
601.327	262.69
601.536	273.69
601.745	271.69
601.953	265.69
602.162	277.69
602.371	281.69
602.58	255.69
602.789	256.69
602.997	264.69
603.206	253.69
603.415	253.69
603.623	264.69
603.832	259.69
604.041	271.69
604.249	245.69
604.458	277.69
604.666	265.69
604.875	248.69
605.084	251.69
605.292	261.69
605.501	270.69
605.709	259.69
605.918	259.69
606.126	253.69
606.334	251.69
606.543	247.69
606.751	259.69
606.96	245.69
607.168	257.69
607.376	259.69
607.585	250.69
607.793	247.69
608.001	253.69
608.21	238.69
608.418	230.69
608.626	247.69
608.834	266.69
609.043	247.69
609.251	244.69
609.459	245.69
609.667	264.69
609.875	236.69
610.083	252.69
610.291	250.69
610.499	246.69
610.707	251.69
610.916	237.69
611.124	259.69
611.332	251.69
611.54	260.69
611.748	262.69
611.955	254.69
612.163	248.69
612.371	252.69
612.579	249.69
612.787	239.69
612.995	245.69
613.203	243.69
613.411	256.69
613.618	249.69
613.826	244.69
614.034	241.69
614.242	248.69
614.449	241.69
614.657	221.69
614.865	252.69
615.072	252.69
615.28	234.69
615.488	241.69
615.695	238.69
615.903	227.69
616.111	235.69
616.318	256.69
616.526	260.69
616.733	246.69
616.941	239.69
617.148	249.69
617.356	257.69
617.563	253.69
617.771	249.69
617.978	231.69
618.185	223.69
618.393	236.69
618.6	245.69
618.807	232.69
619.015	238.69
619.222	231.69
619.429	244.69
619.637	227.69
619.844	238.69
620.051	246.69
620.258	237.69
620.466	226.69
620.673	230.69
620.88	224.69
621.087	215.69
621.294	233.69
621.501	219.69
621.708	233.69
621.915	222.69
622.122	221.69
622.329	223.69
622.536	226.69
622.743	224.69
622.95	234.69
623.157	219.69
623.364	234.69
623.571	219.69
623.778	225.69
623.985	214.69
624.192	214.69
624.399	214.69
624.606	213.69
624.812	207.69
625.019	227.69
625.226	220.69
625.433	219.69
625.639	222.69
625.846	213.69
626.053	218.69
626.259	207.69
626.466	209.69
626.673	212.69
626.879	215.69
627.086	218.69
627.293	216.69
627.499	221.69
627.706	204.69
627.912	209.69
628.119	206.69
628.325	222.69
628.532	215.69
628.738	214.69
628.945	190.69
629.151	229.69
629.357	200.69
629.564	204.69
629.77	199.69
629.976	184.69
630.183	193.69
630.389	183.69
630.595	201.69
630.802	205.69
631.008	213.69
631.214	205.69
631.42	200.69
631.627	207.69
631.833	197.69
632.039	207.69
632.245	199.69
632.451	205.69
632.657	197.69
632.863	191.69
633.069	188.69
633.275	204.69
633.481	191.69
633.688	181.69
633.893	196.69
634.099	184.69
634.305	195.69
634.511	189.69
634.717	188.69
634.923	192.69
635.129	187.69
635.335	191.69
635.541	199.69
635.747	186.69
635.952	189.69
636.158	186.69
636.364	183.69
636.57	179.69
636.775	199.69
636.981	179.69
637.187	186.69
637.392	193.69
637.598	179.69
637.804	197.69
638.009	190.69
638.215	191.69
638.421	188.69
638.626	185.69
638.832	184.69
639.037	183.69
639.243	188.69
639.448	175.69
639.654	189.69
639.859	179.69
640.065	183.69
640.27	185.69
640.475	188.69
640.681	169.69
640.886	205.69
641.091	194.69
641.297	187.69
641.502	183.69
641.707	179.69
641.913	182.69
642.118	177.69
642.323	166.69
642.528	188.69
642.733	174.69
642.939	183.69
643.144	172.69
643.349	170.69
643.554	176.69
643.759	181.69
643.964	176.69
644.169	167.69
644.374	183.69
644.579	162.69
644.784	176.69
644.989	179.69
645.194	153.69
645.399	171.69
645.604	166.69
645.809	161.69
646.014	171.69
646.219	175.69
646.423	163.69
646.628	163.69
646.833	167.69
647.038	170.69
647.243	179.69
647.447	179.69
647.652	167.69
647.857	179.69
648.062	178.69
648.266	199.69
648.471	173.69
648.676	186.69
648.88	182.69
649.085	175.69
649.289	174.69
649.494	160.69
649.698	196.69
649.903	183.69
650.107	173.69
650.312	176.69
650.516	157.69
650.721	175.69
650.925	190.69
651.13	139.69
651.334	140.69
651.539	174.69
651.743	163.69
651.947	157.69
652.152	156.69
652.356	156.69
652.56	163.69
652.764	146.69
652.969	147.69
653.173	139.69
653.377	138.69
653.581	144.69
653.785	155.69
653.99	144.69
654.194	165.69
654.398	147.69
654.602	137.69
654.806	152.69
655.01	151.69
655.214	143.69
655.418	140.69
655.622	144.69
655.826	141.69
656.03	120.69
656.234	134.69
656.438	133.69
656.642	128.69
656.846	149.69
657.049	149.69
657.253	141.69
657.457	131.69
657.661	111.69
657.865	109.69
658.068	116.69
658.272	113.69
658.476	117.69
658.68	113.69
658.883	104.69
659.087	103.69
659.291	97.69
659.494	95.69
659.698	103.69
659.901	94.69
660.105	89.69
660.309	100.69
660.512	84.69
660.716	89.69
660.919	106.69
661.123	95.69
661.326	103.69
661.53	99.69
661.733	94.69
661.936	99.69
662.14	88.69
662.343	84.69
662.546	90.69
662.75	96.69
662.953	77.69
663.156	85.69
663.36	73.69
663.563	91.69
663.766	101.69
663.969	83.69
664.173	87.69
664.376	77.69
664.579	90.69
664.782	73.69
664.985	70.69
665.188	91.69
665.391	90.69
665.594	74.69
665.797	87.69
666	92.69
666.203	95.69
666.406	71.69
666.609	91.69
666.812	86.69
667.015	78.69
667.218	76.69
667.421	86.69
667.624	91.69
667.827	92.69
668.03	75.69
668.232	81.69
668.435	94.69
668.638	104.69
668.841	92.69
669.043	87.69
669.246	99.69
669.449	93.69
669.651	100.69
669.854	81.69
670.057	76.69
670.259	81.69
670.462	94.69
670.665	84.69
670.867	89.69
671.07	86.69
671.272	91.69
671.475	85.69
671.677	74.69
671.88	88.69
672.082	90.69
672.284	90.69
672.487	96.69
672.689	88.69
672.892	87.69
