Data from 1988.PennyLincolnUp.Lamp.En5.5.200Scan.071819.P2_HRD10591_17-20-16-971.txt Node
Date: Thu Jul 18 17:20:16 EDT 2019
User: cochatt
Spectrometer: HR+D1059
Trigger mode: 1
Integration Time (sec): 1.000000E-1
Scans to average: 1
Electric dark correction enabled: true
Nonlinearity correction enabled: false
Boxcar width: 0
XAxis mode: Wavelengths
Number of Pixels in Spectrum: 2048
>>>>>Begin Spectral Data<<<<<
223.165	-17.94
223.4	-17.94
223.635	-17.94
223.869	-28.94
224.104	-19.94
224.338	-9.94
224.573	-12.94
224.808	1.06
225.042	-1.94
225.277	-4.94
225.511	0.06
225.746	19.06
225.98	-2.94
226.215	4.06
226.449	13.06
226.683	6.06
226.918	30.06
227.152	26.06
227.387	31.06
227.621	47.06
227.856	32.06
228.09	49.06
228.324	37.06
228.559	41.06
228.793	69.06
229.027	101.06
229.262	108.06
229.496	118.06
229.73	144.06
229.964	155.06
230.199	139.06
230.433	116.06
230.667	126.06
230.901	118.06
231.136	120.06
231.37	110.06
231.604	125.06
231.838	113.06
232.072	128.06
232.306	106.06
232.541	115.06
232.775	102.06
233.009	125.06
233.243	118.06
233.477	115.06
233.711	113.06
233.945	115.06
234.179	101.06
234.413	124.06
234.647	108.06
234.881	135.06
235.115	131.06
235.349	129.06
235.583	119.06
235.817	125.06
236.051	127.06
236.285	144.06
236.519	129.06
236.753	126.06
236.987	146.06
237.221	199.06
237.455	246.06
237.689	200.06
237.922	148.06
238.156	136.06
238.39	159.06
238.624	150.06
238.858	124.06
239.091	140.06
239.325	125.06
239.559	134.06
239.793	123.06
240.027	143.06
240.26	147.06
240.494	155.06
240.728	154.06
240.961	151.06
241.195	171.06
241.429	150.06
241.662	141.06
241.896	125.06
242.13	137.06
242.363	146.06
242.597	145.06
242.83	143.06
243.064	162.06
243.298	141.06
243.531	126.06
243.765	152.06
243.998	135.06
244.232	140.06
244.465	158.06
244.699	153.06
244.932	160.06
245.166	167.06
245.399	155.06
245.633	151.06
245.866	139.06
246.099	142.06
246.333	163.06
246.566	150.06
246.8	162.06
247.033	153.06
247.266	152.06
247.5	156.06
247.733	189.06
247.966	173.06
248.2	182.06
248.433	171.06
248.666	177.06
248.899	199.06
249.133	212.06
249.366	215.06
249.599	206.06
249.832	184.06
250.066	181.06
250.299	196.06
250.532	204.06
250.765	179.06
250.998	221.06
251.231	232.06
251.465	225.06
251.698	199.06
251.931	222.06
252.164	201.06
252.397	198.06
252.63	207.06
252.863	222.06
253.096	219.06
253.329	260.06
253.562	230.06
253.795	232.06
254.028	225.06
254.261	223.06
254.494	229.06
254.727	272.06
254.96	293.06
255.193	295.06
255.426	259.06
255.659	250.06
255.892	234.06
256.124	229.06
256.357	232.06
256.59	227.06
256.823	209.06
257.056	241.06
257.289	226.06
257.521	227.06
257.754	232.06
257.987	228.06
258.22	229.06
258.452	229.06
258.685	217.06
258.918	226.06
259.151	249.06
259.383	234.06
259.616	217.06
259.849	251.06
260.081	242.06
260.314	261.06
260.547	258.06
260.779	262.06
261.012	252.06
261.244	242.06
261.477	241.06
261.71	239.06
261.942	248.06
262.175	223.06
262.407	240.06
262.64	233.06
262.872	226.06
263.105	220.06
263.337	233.06
263.57	213.06
263.802	240.06
264.035	221.06
264.267	246.06
264.499	219.06
264.732	219.06
264.964	237.06
265.197	238.06
265.429	231.06
265.661	224.06
265.894	226.06
266.126	237.06
266.358	235.06
266.591	232.06
266.823	234.06
267.055	243.06
267.287	226.06
267.52	230.06
267.752	244.06
267.984	230.06
268.216	245.06
268.448	241.06
268.681	258.06
268.913	266.06
269.145	288.06
269.377	301.06
269.609	286.06
269.841	278.06
270.073	294.06
270.306	306.06
270.538	339.06
270.77	325.06
271.002	340.06
271.234	326.06
271.466	319.06
271.698	313.06
271.93	321.06
272.162	333.06
272.394	346.06
272.626	317.06
272.858	302.06
273.09	294.06
273.322	283.06
273.553	297.06
273.785	289.06
274.017	275.06
274.249	282.06
274.481	285.06
274.713	284.06
274.945	279.06
275.176	269.06
275.408	286.06
275.64	289.06
275.872	273.06
276.104	274.06
276.335	273.06
276.567	302.06
276.799	294.06
277.031	320.06
277.262	345.06
277.494	323.06
277.726	316.06
277.957	319.06
278.189	282.06
278.421	292.06
278.652	300.06
278.884	272.06
279.115	308.06
279.347	287.06
279.579	269.06
279.81	295.06
280.042	279.06
280.273	268.06
280.505	289.06
280.736	275.06
280.968	298.06
281.199	298.06
281.431	286.06
281.662	303.06
281.894	289.06
282.125	300.06
282.356	303.06
282.588	313.06
282.819	334.06
283.051	309.06
283.282	294.06
283.513	274.06
283.745	291.06
283.976	302.06
284.207	296.06
284.439	294.06
284.67	300.06
284.901	291.06
285.132	293.06
285.364	280.06
285.595	275.06
285.826	303.06
286.057	309.06
286.288	294.06
286.52	305.06
286.751	301.06
286.982	300.06
287.213	296.06
287.444	314.06
287.675	314.06
287.906	327.06
288.138	329.06
288.369	335.06
288.6	324.06
288.831	321.06
289.062	326.06
289.293	308.06
289.524	312.06
289.755	310.06
289.986	319.06
290.217	309.06
290.448	310.06
290.679	316.06
290.91	317.06
291.141	314.06
291.371	328.06
291.602	310.06
291.833	308.06
292.064	321.06
292.295	303.06
292.526	317.06
292.757	316.06
292.987	314.06
293.218	312.06
293.449	314.06
293.68	302.06
293.91	316.06
294.141	314.06
294.372	312.06
294.603	310.06
294.833	328.06
295.064	314.06
295.295	313.06
295.525	337.06
295.756	333.06
295.987	327.06
296.217	347.06
296.448	362.06
296.679	335.06
296.909	324.06
297.14	327.06
297.37	335.06
297.601	331.06
297.831	347.06
298.062	332.06
298.292	341.06
298.523	331.06
298.753	346.06
298.984	330.06
299.214	327.06
299.445	333.06
299.675	349.06
299.905	352.06
300.136	341.06
300.366	347.06
300.597	341.06
300.827	337.06
301.057	330.06
301.288	372.06
301.518	370.06
301.748	339.06
301.979	349.06
302.209	338.06
302.439	366.06
302.669	372.06
302.9	357.06
303.13	358.06
303.36	356.06
303.59	366.06
303.82	353.06
304.051	376.06
304.281	375.06
304.511	358.06
304.741	348.06
304.971	341.06
305.201	338.06
305.431	340.06
305.661	342.06
305.891	367.06
306.121	363.06
306.352	379.06
306.582	377.06
306.812	379.06
307.042	357.06
307.272	373.06
307.502	366.06
307.731	353.06
307.961	367.06
308.191	369.06
308.421	359.06
308.651	372.06
308.881	366.06
309.111	387.06
309.341	381.06
309.571	390.06
309.8	379.06
310.03	397.06
310.26	424.06
310.49	400.06
310.72	399.06
310.949	425.06
311.179	444.06
311.409	429.06
311.639	425.06
311.868	429.06
312.098	420.06
312.328	435.06
312.557	449.06
312.787	465.06
313.017	458.06
313.246	440.06
313.476	401.06
313.706	429.06
313.935	422.06
314.165	421.06
314.394	442.06
314.624	433.06
314.853	439.06
315.083	411.06
315.312	403.06
315.542	407.06
315.771	421.06
316.001	399.06
316.23	411.06
316.46	428.06
316.689	447.06
316.919	427.06
317.148	401.06
317.377	412.06
317.607	403.06
317.836	429.06
318.065	437.06
318.295	402.06
318.524	409.06
318.753	407.06
318.983	416.06
319.212	430.06
319.441	411.06
319.67	451.06
319.9	414.06
320.129	417.06
320.358	411.06
320.587	421.06
320.816	445.06
321.046	435.06
321.275	435.06
321.504	434.06
321.733	431.06
321.962	438.06
322.191	460.06
322.42	463.06
322.649	486.06
322.878	500.06
323.108	522.06
323.337	523.06
323.566	543.06
323.795	574.06
324.024	649.06
324.253	789.06
324.482	1107.06
324.71	1733.06
324.939	2557.06
325.168	2216.06
325.397	1142.06
325.626	743.06
325.855	626.06
326.084	590.06
326.313	562.06
326.542	559.06
326.77	633.06
326.999	727.06
327.228	1035.06
327.457	1588.06
327.686	1939.06
327.914	1267.06
328.143	820.06
328.372	706.06
328.6	652.06
328.829	606.06
329.058	644.06
329.287	653.06
329.515	587.06
329.744	569.06
329.972	547.06
330.201	531.06
330.43	570.06
330.658	605.06
330.887	673.06
331.115	643.06
331.344	587.06
331.572	543.06
331.801	527.06
332.03	554.06
332.258	527.06
332.486	515.06
332.715	493.06
332.943	499.06
333.172	497.06
333.4	492.06
333.629	490.06
333.857	519.06
334.085	520.06
334.314	510.06
334.542	526.06
334.771	529.06
334.999	525.06
335.227	517.06
335.455	503.06
335.684	526.06
335.912	516.06
336.14	511.06
336.369	516.06
336.597	493.06
336.825	505.06
337.053	525.06
337.281	498.06
337.51	517.06
337.738	497.06
337.966	478.06
338.194	475.06
338.422	514.06
338.65	518.06
338.878	499.06
339.106	474.06
339.334	497.06
339.562	469.06
339.79	485.06
340.018	505.06
340.246	482.06
340.474	491.06
340.702	481.06
340.93	494.06
341.158	492.06
341.386	514.06
341.614	491.06
341.842	459.06
342.07	477.06
342.298	469.06
342.526	477.06
342.754	455.06
342.981	461.06
343.209	468.06
343.437	485.06
343.665	490.06
343.893	484.06
344.12	478.06
344.348	488.06
344.576	490.06
344.804	506.06
345.031	497.06
345.259	517.06
345.487	490.06
345.714	498.06
345.942	449.06
346.17	467.06
346.397	470.06
346.625	473.06
346.853	441.06
347.08	467.06
347.308	473.06
347.535	476.06
347.763	494.06
347.99	480.06
348.218	476.06
348.445	464.06
348.673	483.06
348.9	477.06
349.128	455.06
349.355	443.06
349.583	476.06
349.81	460.06
350.037	471.06
350.265	453.06
350.492	464.06
350.72	457.06
350.947	470.06
351.174	464.06
351.402	461.06
351.629	464.06
351.856	465.06
352.083	479.06
352.311	489.06
352.538	501.06
352.765	483.06
352.992	491.06
353.22	473.06
353.447	465.06
353.674	468.06
353.901	456.06
354.128	438.06
354.355	452.06
354.583	439.06
354.81	416.06
355.037	439.06
355.264	447.06
355.491	441.06
355.718	433.06
355.945	429.06
356.172	453.06
356.399	449.06
356.626	444.06
356.853	454.06
357.08	435.06
357.307	424.06
357.534	435.06
357.761	457.06
357.988	438.06
358.215	455.06
358.441	434.06
358.668	433.06
358.895	458.06
359.122	463.06
359.349	473.06
359.576	470.06
359.802	495.06
360.029	527.06
360.256	545.06
360.483	497.06
360.709	488.06
360.936	469.06
361.163	471.06
361.39	487.06
361.616	478.06
361.843	472.06
362.07	475.06
362.296	482.06
362.523	469.06
362.749	467.06
362.976	476.06
363.203	455.06
363.429	449.06
363.656	463.06
363.882	464.06
364.109	469.06
364.335	431.06
364.562	463.06
364.788	448.06
365.015	451.06
365.241	465.06
365.468	448.06
365.694	437.06
365.92	476.06
366.147	480.06
366.373	455.06
366.599	449.06
366.826	437.06
367.052	453.06
367.278	458.06
367.505	450.06
367.731	463.06
367.957	453.06
368.184	464.06
368.41	441.06
368.636	477.06
368.862	486.06
369.089	491.06
369.315	458.06
369.541	448.06
369.767	431.06
369.993	444.06
370.219	457.06
370.445	469.06
370.672	463.06
370.898	449.06
371.124	428.06
371.35	437.06
371.576	437.06
371.802	461.06
372.028	458.06
372.254	444.06
372.48	461.06
372.706	458.06
372.932	452.06
373.158	466.06
373.384	472.06
373.61	457.06
373.835	465.06
374.061	448.06
374.287	454.06
374.513	478.06
374.739	472.06
374.965	452.06
375.191	500.06
375.416	473.06
375.642	465.06
375.868	445.06
376.094	460.06
376.319	452.06
376.545	446.06
376.771	453.06
376.997	438.06
377.222	470.06
377.448	474.06
377.674	446.06
377.899	451.06
378.125	466.06
378.35	448.06
378.576	435.06
378.802	435.06
379.027	456.06
379.253	470.06
379.478	441.06
379.704	455.06
379.929	444.06
380.155	463.06
380.38	446.06
380.606	449.06
380.831	446.06
381.057	466.06
381.282	442.06
381.507	458.06
381.733	467.06
381.958	471.06
382.184	451.06
382.409	461.06
382.634	463.06
382.86	451.06
383.085	470.06
383.31	473.06
383.535	468.06
383.761	463.06
383.986	485.06
384.211	502.06
384.436	469.06
384.662	503.06
384.887	500.06
385.112	486.06
385.337	498.06
385.562	527.06
385.787	495.06
386.013	512.06
386.238	517.06
386.463	508.06
386.688	502.06
386.913	488.06
387.138	494.06
387.363	507.06
387.588	488.06
387.813	489.06
388.038	514.06
388.263	521.06
388.488	502.06
388.713	485.06
388.938	498.06
389.163	508.06
389.387	518.06
389.612	477.06
389.837	499.06
390.062	505.06
390.287	519.06
390.512	491.06
390.736	498.06
390.961	522.06
391.186	518.06
391.411	526.06
391.636	508.06
391.86	516.06
392.085	530.06
392.31	533.06
392.534	540.06
392.759	522.06
392.984	522.06
393.208	506.06
393.433	522.06
393.658	502.06
393.882	499.06
394.107	513.06
394.331	521.06
394.556	526.06
394.78	507.06
395.005	527.06
395.229	499.06
395.454	528.06
395.678	526.06
395.903	545.06
396.127	552.06
396.352	595.06
396.576	566.06
396.801	534.06
397.025	518.06
397.249	556.06
397.474	538.06
397.698	559.06
397.922	566.06
398.147	593.06
398.371	605.06
398.595	566.06
398.82	590.06
399.044	590.06
399.268	612.06
399.492	637.06
399.717	667.06
399.941	697.06
400.165	743.06
400.389	768.06
400.613	687.06
400.837	635.06
401.062	630.06
401.286	610.06
401.51	605.06
401.734	585.06
401.958	593.06
402.182	585.06
402.406	593.06
402.63	597.06
402.854	598.06
403.078	598.06
403.302	609.06
403.526	606.06
403.75	614.06
403.974	638.06
404.198	578.06
404.422	588.06
404.645	613.06
404.869	589.06
405.093	645.06
405.317	666.06
405.541	685.06
405.765	663.06
405.988	658.06
406.212	656.06
406.436	684.06
406.66	699.06
406.883	653.06
407.107	696.06
407.331	727.06
407.555	806.06
407.778	823.06
408.002	757.06
408.226	694.06
408.449	672.06
408.673	691.06
408.896	717.06
409.12	741.06
409.344	708.06
409.567	644.06
409.791	633.06
410.014	634.06
410.238	643.06
410.461	630.06
410.685	622.06
410.908	626.06
411.132	696.06
411.355	727.06
411.578	678.06
411.802	629.06
412.025	612.06
412.249	606.06
412.472	646.06
412.695	627.06
412.919	635.06
413.142	597.06
413.365	583.06
413.589	596.06
413.812	599.06
414.035	595.06
414.258	583.06
414.482	591.06
414.705	603.06
414.928	571.06
415.151	581.06
415.374	582.06
415.597	591.06
415.821	581.06
416.044	575.06
416.267	577.06
416.49	573.06
416.713	594.06
416.936	583.06
417.159	550.06
417.382	573.06
417.605	558.06
417.828	609.06
418.051	627.06
418.274	602.06
418.497	594.06
418.72	582.06
418.943	585.06
419.166	596.06
419.389	637.06
419.611	625.06
419.834	590.06
420.057	610.06
420.28	606.06
420.503	606.06
420.726	605.06
420.948	630.06
421.171	645.06
421.394	710.06
421.617	638.06
421.839	625.06
422.062	621.06
422.285	631.06
422.507	711.06
422.73	773.06
422.953	759.06
423.175	654.06
423.398	661.06
423.621	618.06
423.843	665.06
424.066	657.06
424.288	647.06
424.511	681.06
424.733	746.06
424.956	850.06
425.178	811.06
425.401	810.06
425.623	851.06
425.846	714.06
426.068	646.06
426.291	646.06
426.513	672.06
426.735	686.06
426.958	698.06
427.18	810.06
427.402	946.06
427.625	1094.06
427.847	926.06
428.069	751.06
428.292	707.06
428.514	682.06
428.736	620.06
428.958	634.06
429.181	602.06
429.403	616.06
429.625	615.06
429.847	647.06
430.069	724.06
430.292	723.06
430.514	647.06
430.736	607.06
430.958	586.06
431.18	588.06
431.402	584.06
431.624	564.06
431.846	549.06
432.068	569.06
432.29	611.06
432.512	579.06
432.734	586.06
432.956	600.06
433.178	588.06
433.4	590.06
433.622	612.06
433.844	591.06
434.066	582.06
434.287	582.06
434.509	591.06
434.731	610.06
434.953	616.06
435.175	632.06
435.397	637.06
435.618	643.06
435.84	707.06
436.062	811.06
436.284	907.06
436.505	730.06
436.727	695.06
436.949	663.06
437.17	599.06
437.392	609.06
437.614	617.06
437.835	655.06
438.057	791.06
438.278	883.06
438.5	895.06
438.721	986.06
438.943	942.06
439.165	749.06
439.386	684.06
439.608	649.06
439.829	676.06
440.05	694.06
440.272	753.06
440.493	704.06
440.715	661.06
440.936	646.06
441.158	632.06
441.379	599.06
441.6	635.06
441.822	652.06
442.043	706.06
442.264	803.06
442.486	837.06
442.707	742.06
442.928	687.06
443.149	692.06
443.371	733.06
443.592	775.06
443.813	867.06
444.034	919.06
444.255	783.06
444.476	679.06
444.698	661.06
444.919	670.06
445.14	777.06
445.361	728.06
445.582	720.06
445.803	805.06
446.024	904.06
446.245	931.06
446.466	845.06
446.687	733.06
446.908	685.06
447.129	646.06
447.35	608.06
447.571	611.06
447.792	628.06
448.013	618.06
448.234	609.06
448.455	690.06
448.675	813.06
448.896	982.06
449.117	821.06
449.338	762.06
449.559	898.06
449.779	998.06
450	812.06
450.221	669.06
450.442	614.06
450.662	591.06
450.883	617.06
451.104	615.06
451.324	611.06
451.545	564.06
451.766	553.06
451.986	563.06
452.207	522.06
452.428	528.06
452.648	527.06
452.869	545.06
453.089	539.06
453.31	556.06
453.53	546.06
453.751	552.06
453.971	547.06
454.192	559.06
454.412	552.06
454.633	547.06
454.853	543.06
455.073	534.06
455.294	589.06
455.514	657.06
455.734	645.06
455.955	582.06
456.175	525.06
456.395	509.06
456.616	513.06
456.836	501.06
457.056	509.06
457.276	498.06
457.497	515.06
457.717	520.06
457.937	515.06
458.157	517.06
458.377	546.06
458.598	569.06
458.818	626.06
459.038	690.06
459.258	710.06
459.478	641.06
459.698	589.06
459.918	572.06
460.138	575.06
460.358	590.06
460.578	583.06
460.798	586.06
461.018	609.06
461.238	596.06
461.458	568.06
461.678	589.06
461.898	621.06
462.118	574.06
462.338	604.06
462.558	604.06
462.777	612.06
462.997	627.06
463.217	616.06
463.437	637.06
463.657	619.06
463.876	626.06
464.096	630.06
464.316	615.06
464.536	645.06
464.755	637.06
464.975	641.06
465.195	664.06
465.414	746.06
465.634	682.06
465.854	623.06
466.073	616.06
466.293	602.06
466.512	566.06
466.732	567.06
466.951	538.06
467.171	559.06
467.391	575.06
467.61	606.06
467.829	606.06
468.049	567.06
468.268	559.06
468.488	528.06
468.707	546.06
468.927	534.06
469.146	519.06
469.365	546.06
469.585	542.06
469.804	553.06
470.023	571.06
470.243	571.06
470.462	577.06
470.681	574.06
470.901	599.06
471.12	582.06
471.339	542.06
471.558	581.06
471.777	576.06
471.997	550.06
472.216	555.06
472.435	548.06
472.654	590.06
472.873	547.06
473.092	543.06
473.311	543.06
473.53	564.06
473.749	555.06
473.968	614.06
474.187	723.06
474.406	740.06
474.625	663.06
474.844	580.06
475.063	586.06
475.282	565.06
475.501	587.06
475.72	588.06
475.939	582.06
476.158	592.06
476.377	595.06
476.596	576.06
476.814	602.06
477.033	624.06
477.252	632.06
477.471	635.06
477.69	635.06
477.908	602.06
478.127	632.06
478.346	641.06
478.564	624.06
478.783	627.06
479.002	650.06
479.22	677.06
479.439	668.06
479.658	691.06
479.876	687.06
480.095	707.06
480.313	717.06
480.532	713.06
480.751	727.06
480.969	691.06
481.188	694.06
481.406	708.06
481.624	679.06
481.843	667.06
482.061	659.06
482.28	689.06
482.498	661.06
482.717	664.06
482.935	670.06
483.153	651.06
483.372	674.06
483.59	664.06
483.808	658.06
484.027	648.06
484.245	655.06
484.463	667.06
484.681	662.06
484.9	693.06
485.118	676.06
485.336	675.06
485.554	705.06
485.772	691.06
485.99	700.06
486.209	695.06
486.427	695.06
486.645	702.06
486.863	723.06
487.081	730.06
487.299	753.06
487.517	732.06
487.735	705.06
487.953	698.06
488.171	694.06
488.389	692.06
488.607	712.06
488.825	713.06
489.043	722.06
489.261	765.06
489.479	729.06
489.696	729.06
489.914	719.06
490.132	716.06
490.35	741.06
490.568	739.06
490.786	754.06
491.003	747.06
491.221	775.06
491.439	793.06
491.657	802.06
491.874	832.06
492.092	828.06
492.31	827.06
492.527	825.06
492.745	811.06
492.963	815.06
493.18	805.06
493.398	818.06
493.615	798.06
493.833	814.06
494.05	827.06
494.268	828.06
494.485	826.06
494.703	830.06
494.92	825.06
495.138	833.06
495.355	870.06
495.573	854.06
495.79	842.06
496.008	843.06
496.225	854.06
496.442	833.06
496.66	847.06
496.877	870.06
497.094	875.06
497.312	883.06
497.529	901.06
497.746	896.06
497.963	903.06
498.181	920.06
498.398	940.06
498.615	950.06
498.832	970.06
499.049	1028.06
499.267	995.06
499.484	1027.06
499.701	1096.06
499.918	1139.06
500.135	1186.06
500.352	1248.06
500.569	1254.06
500.786	1229.06
501.003	1197.06
501.22	1197.06
501.437	1146.06
501.654	1102.06
501.871	1086.06
502.088	1054.06
502.305	1025.06
502.522	1013.06
502.739	972.06
502.956	921.06
503.172	943.06
503.389	910.06
503.606	893.06
503.823	902.06
504.04	933.06
504.256	901.06
504.473	825.06
504.69	877.06
504.907	876.06
505.123	852.06
505.34	842.06
505.557	826.06
505.773	808.06
505.99	810.06
506.207	824.06
506.423	819.06
506.64	837.06
506.856	787.06
507.073	801.06
507.289	805.06
507.506	776.06
507.722	790.06
507.939	831.06
508.155	813.06
508.372	789.06
508.588	769.06
508.805	771.06
509.021	784.06
509.238	790.06
509.454	804.06
509.67	782.06
509.887	775.06
510.103	771.06
510.319	793.06
510.536	878.06
510.752	1443.06
510.968	1214.06
511.184	781.06
511.401	746.06
511.617	762.06
511.833	715.06
512.049	753.06
512.265	741.06
512.481	722.06
512.698	731.06
512.914	753.06
513.13	703.06
513.346	719.06
513.562	729.06
513.778	746.06
513.994	749.06
514.21	757.06
514.426	782.06
514.642	825.06
514.858	862.06
515.074	878.06
515.29	1066.06
515.506	1502.06
515.721	1277.06
515.937	918.06
516.153	837.06
516.369	791.06
516.585	784.06
516.801	775.06
517.016	767.06
517.232	786.06
517.448	762.06
517.664	792.06
517.879	761.06
518.095	807.06
518.311	765.06
518.527	739.06
518.742	777.06
518.958	733.06
519.173	729.06
519.389	739.06
519.605	751.06
519.82	743.06
520.036	770.06
520.251	746.06
520.467	807.06
520.682	778.06
520.898	833.06
521.113	860.06
521.329	893.06
521.544	986.06
521.76	1179.06
521.975	1912.06
522.19	1897.06
522.406	1096.06
522.621	852.06
522.836	747.06
523.052	758.06
523.267	707.06
523.482	721.06
523.698	682.06
523.913	683.06
524.128	689.06
524.343	644.06
524.559	670.06
524.774	635.06
524.989	654.06
525.204	673.06
525.419	674.06
525.634	649.06
525.849	637.06
526.064	613.06
526.28	632.06
526.495	643.06
526.71	605.06
526.925	617.06
527.14	623.06
527.355	630.06
527.57	610.06
527.785	599.06
527.999	584.06
528.214	591.06
528.429	595.06
528.644	626.06
528.859	599.06
529.074	621.06
529.289	644.06
529.503	729.06
529.718	719.06
529.933	630.06
530.148	601.06
530.363	619.06
530.577	609.06
530.792	610.06
531.007	590.06
531.221	603.06
531.436	584.06
531.651	585.06
531.865	587.06
532.08	587.06
532.295	598.06
532.509	571.06
532.724	574.06
532.938	595.06
533.153	577.06
533.367	577.06
533.582	580.06
533.796	576.06
534.011	582.06
534.225	573.06
534.44	595.06
534.654	593.06
534.868	575.06
535.083	586.06
535.297	563.06
535.511	587.06
535.726	579.06
535.94	588.06
536.154	582.06
536.369	585.06
536.583	562.06
536.797	577.06
537.011	550.06
537.225	565.06
537.44	573.06
537.654	558.06
537.868	575.06
538.082	571.06
538.296	556.06
538.51	572.06
538.724	563.06
538.938	542.06
539.153	569.06
539.367	591.06
539.581	569.06
539.795	532.06
540.009	547.06
540.222	568.06
540.436	591.06
540.65	553.06
540.864	563.06
541.078	566.06
541.292	575.06
541.506	546.06
541.72	538.06
541.934	521.06
542.147	547.06
542.361	559.06
542.575	514.06
542.789	521.06
543.002	542.06
543.216	562.06
543.43	553.06
543.644	527.06
543.857	536.06
544.071	537.06
544.285	545.06
544.498	548.06
544.712	529.06
544.925	549.06
545.139	563.06
545.352	522.06
545.566	537.06
545.779	545.06
545.993	532.06
546.206	537.06
546.42	562.06
546.633	540.06
546.847	529.06
547.06	518.06
547.274	526.06
547.487	528.06
547.7	534.06
547.914	538.06
548.127	529.06
548.34	532.06
548.554	547.06
548.767	497.06
548.98	520.06
549.193	534.06
549.407	532.06
549.62	516.06
549.833	539.06
550.046	516.06
550.259	515.06
550.473	518.06
550.686	532.06
550.899	524.06
551.112	540.06
551.325	488.06
551.538	503.06
551.751	531.06
551.964	506.06
552.177	502.06
552.39	510.06
552.603	503.06
552.816	519.06
553.029	524.06
553.242	521.06
553.455	527.06
553.667	546.06
553.88	566.06
554.093	549.06
554.306	530.06
554.519	537.06
554.732	525.06
554.944	495.06
555.157	518.06
555.37	500.06
555.583	491.06
555.795	505.06
556.008	486.06
556.221	517.06
556.433	476.06
556.646	491.06
556.859	493.06
557.071	462.06
557.284	467.06
557.496	476.06
557.709	483.06
557.921	469.06
558.134	477.06
558.346	485.06
558.559	474.06
558.771	475.06
558.984	467.06
559.196	475.06
559.409	462.06
559.621	473.06
559.833	458.06
560.046	470.06
560.258	468.06
560.47	465.06
560.683	476.06
560.895	465.06
561.107	466.06
561.32	448.06
561.532	453.06
561.744	464.06
561.956	466.06
562.168	469.06
562.381	460.06
562.593	469.06
562.805	473.06
563.017	455.06
563.229	469.06
563.441	478.06
563.653	481.06
563.865	454.06
564.077	463.06
564.289	499.06
564.501	467.06
564.713	502.06
564.925	472.06
565.137	517.06
565.349	506.06
565.561	499.06
565.773	518.06
565.985	490.06
566.197	541.06
566.408	519.06
566.62	546.06
566.832	548.06
567.044	591.06
567.255	558.06
567.467	582.06
567.679	601.06
567.891	609.06
568.102	579.06
568.314	573.06
568.526	577.06
568.737	569.06
568.949	546.06
569.161	525.06
569.372	497.06
569.584	487.06
569.795	501.06
570.007	476.06
570.218	533.06
570.43	503.06
570.641	459.06
570.853	447.06
571.064	450.06
571.276	460.06
571.487	448.06
571.698	444.06
571.91	459.06
572.121	421.06
572.333	426.06
572.544	445.06
572.755	420.06
572.966	425.06
573.178	428.06
573.389	418.06
573.6	409.06
573.811	409.06
574.023	393.06
574.234	399.06
574.445	414.06
574.656	410.06
574.867	406.06
575.078	410.06
575.289	417.06
575.501	409.06
575.712	404.06
575.923	399.06
576.134	410.06
576.345	378.06
576.556	374.06
576.767	391.06
576.978	386.06
577.188	398.06
577.399	381.06
577.61	398.06
577.821	404.06
578.032	393.06
578.243	430.06
578.454	655.06
578.665	492.06
578.875	419.06
579.086	391.06
579.297	384.06
579.508	364.06
579.718	364.06
579.929	361.06
580.14	366.06
580.35	354.06
580.561	350.06
580.772	352.06
580.982	359.06
581.193	376.06
581.403	375.06
581.614	358.06
581.825	360.06
582.035	366.06
582.246	383.06
582.456	377.06
582.667	335.06
582.877	381.06
583.087	361.06
583.298	354.06
583.508	359.06
583.719	370.06
583.929	384.06
584.139	354.06
584.35	344.06
584.56	348.06
584.77	363.06
584.981	362.06
585.191	359.06
585.401	347.06
585.611	359.06
585.821	337.06
586.032	341.06
586.242	345.06
586.452	338.06
586.662	367.06
586.872	334.06
587.082	348.06
587.292	365.06
587.502	346.06
587.713	348.06
587.923	361.06
588.133	350.06
588.343	357.06
588.553	326.06
588.762	352.06
588.972	335.06
589.182	346.06
589.392	341.06
589.602	345.06
589.812	366.06
590.022	355.06
590.232	332.06
590.441	343.06
590.651	323.06
590.861	346.06
591.071	346.06
591.281	366.06
591.49	338.06
591.7	347.06
591.91	360.06
592.119	362.06
592.329	350.06
592.539	357.06
592.748	353.06
592.958	362.06
593.167	374.06
593.377	366.06
593.587	373.06
593.796	351.06
594.006	361.06
594.215	385.06
594.424	366.06
594.634	358.06
594.843	362.06
595.053	343.06
595.262	342.06
595.472	358.06
595.681	337.06
595.89	334.06
596.1	348.06
596.309	311.06
596.518	336.06
596.727	335.06
596.937	333.06
597.146	329.06
597.355	318.06
597.564	316.06
597.774	331.06
597.983	325.06
598.192	331.06
598.401	316.06
598.61	310.06
598.819	297.06
599.028	333.06
599.237	325.06
599.446	314.06
599.655	306.06
599.864	313.06
600.073	288.06
600.282	299.06
600.491	302.06
600.7	322.06
600.909	302.06
601.118	292.06
601.327	299.06
601.536	292.06
601.745	296.06
601.953	314.06
602.162	274.06
602.371	277.06
602.58	304.06
602.789	306.06
602.997	277.06
603.206	302.06
603.415	291.06
603.623	299.06
603.832	285.06
604.041	303.06
604.249	294.06
604.458	279.06
604.666	292.06
604.875	276.06
605.084	295.06
605.292	302.06
605.501	278.06
605.709	289.06
605.918	296.06
606.126	282.06
606.334	250.06
606.543	269.06
606.751	286.06
606.96	263.06
607.168	278.06
607.376	265.06
607.585	279.06
607.793	296.06
608.001	271.06
608.21	277.06
608.418	281.06
608.626	271.06
608.834	263.06
609.043	260.06
609.251	298.06
609.459	267.06
609.667	265.06
609.875	281.06
610.083	277.06
610.291	285.06
610.499	266.06
610.707	279.06
610.916	284.06
611.124	281.06
611.332	285.06
611.54	285.06
611.748	292.06
611.955	284.06
612.163	283.06
612.371	285.06
612.579	279.06
612.787	271.06
612.995	275.06
613.203	287.06
613.411	281.06
613.618	264.06
613.826	274.06
614.034	279.06
614.242	275.06
614.449	265.06
614.657	267.06
614.865	280.06
615.072	265.06
615.28	257.06
615.488	284.06
615.695	266.06
615.903	282.06
616.111	266.06
616.318	275.06
616.526	282.06
616.733	258.06
616.941	270.06
617.148	260.06
617.356	260.06
617.563	275.06
617.771	252.06
617.978	248.06
618.185	271.06
618.393	256.06
618.6	262.06
618.807	269.06
619.015	276.06
619.222	267.06
619.429	265.06
619.637	276.06
619.844	262.06
620.051	257.06
620.258	258.06
620.466	250.06
620.673	242.06
620.88	253.06
621.087	254.06
621.294	250.06
621.501	235.06
621.708	230.06
621.915	269.06
622.122	259.06
622.329	236.06
622.536	261.06
622.743	259.06
622.95	261.06
623.157	250.06
623.364	252.06
623.571	235.06
623.778	238.06
623.985	222.06
624.192	247.06
624.399	252.06
624.606	250.06
624.812	249.06
625.019	245.06
625.226	257.06
625.433	242.06
625.639	231.06
625.846	247.06
626.053	248.06
626.259	241.06
626.466	233.06
626.673	238.06
626.879	220.06
627.086	210.06
627.293	236.06
627.499	252.06
627.706	234.06
627.912	245.06
628.119	233.06
628.325	254.06
628.532	229.06
628.738	229.06
628.945	221.06
629.151	225.06
629.357	223.06
629.564	225.06
629.77	235.06
629.976	234.06
630.183	229.06
630.389	222.06
630.595	226.06
630.802	215.06
631.008	229.06
631.214	227.06
631.42	223.06
631.627	231.06
631.833	199.06
632.039	205.06
632.245	223.06
632.451	212.06
632.657	199.06
632.863	210.06
633.069	215.06
633.275	225.06
633.481	218.06
633.688	194.06
633.893	215.06
634.099	213.06
634.305	206.06
634.511	212.06
634.717	214.06
634.923	217.06
635.129	201.06
635.335	216.06
635.541	204.06
635.747	214.06
635.952	214.06
636.158	208.06
636.364	198.06
636.57	199.06
636.775	188.06
636.981	192.06
637.187	205.06
637.392	208.06
637.598	220.06
637.804	195.06
638.009	203.06
638.215	213.06
638.421	197.06
638.626	215.06
638.832	197.06
639.037	197.06
639.243	200.06
639.448	195.06
639.654	204.06
639.859	204.06
640.065	197.06
640.27	207.06
640.475	208.06
640.681	198.06
640.886	198.06
641.091	195.06
641.297	198.06
641.502	201.06
641.707	191.06
641.913	188.06
642.118	190.06
642.323	194.06
642.528	194.06
642.733	197.06
642.939	199.06
643.144	188.06
643.349	190.06
643.554	201.06
643.759	195.06
643.964	173.06
644.169	184.06
644.374	174.06
644.579	186.06
644.784	172.06
644.989	192.06
645.194	206.06
645.399	201.06
645.604	188.06
645.809	196.06
646.014	197.06
646.219	188.06
646.423	177.06
646.628	191.06
646.833	178.06
647.038	193.06
647.243	203.06
647.447	181.06
647.652	183.06
647.857	196.06
648.062	189.06
648.266	187.06
648.471	168.06
648.676	186.06
648.88	189.06
649.085	179.06
649.289	181.06
649.494	199.06
649.698	199.06
649.903	209.06
650.107	185.06
650.312	183.06
650.516	160.06
650.721	163.06
650.925	157.06
651.13	182.06
651.334	165.06
651.539	183.06
651.743	165.06
651.947	155.06
652.152	153.06
652.356	150.06
652.56	160.06
652.764	160.06
652.969	166.06
653.173	151.06
653.377	170.06
653.581	152.06
653.785	145.06
653.99	148.06
654.194	145.06
654.398	150.06
654.602	148.06
654.806	152.06
655.01	150.06
655.214	160.06
655.418	142.06
655.622	145.06
655.826	149.06
656.03	153.06
656.234	148.06
656.438	143.06
656.642	145.06
656.846	151.06
657.049	138.06
657.253	143.06
657.457	129.06
657.661	111.06
657.865	123.06
658.068	119.06
658.272	130.06
658.476	125.06
658.68	93.06
658.883	117.06
659.087	101.06
659.291	105.06
659.494	102.06
659.698	84.06
659.901	86.06
660.105	103.06
660.309	97.06
660.512	93.06
660.716	95.06
660.919	102.06
661.123	107.06
661.326	107.06
661.53	98.06
661.733	88.06
661.936	90.06
662.14	78.06
662.343	88.06
662.546	95.06
662.75	89.06
662.953	83.06
663.156	86.06
663.36	100.06
663.563	82.06
663.766	85.06
663.969	89.06
664.173	90.06
664.376	94.06
664.579	85.06
664.782	81.06
664.985	89.06
665.188	86.06
665.391	84.06
665.594	79.06
665.797	92.06
666	87.06
666.203	90.06
666.406	84.06
666.609	64.06
666.812	89.06
667.015	95.06
667.218	79.06
667.421	68.06
667.624	73.06
667.827	91.06
668.03	77.06
668.232	93.06
668.435	66.06
668.638	81.06
668.841	104.06
669.043	91.06
669.246	89.06
669.449	63.06
669.651	84.06
669.854	81.06
670.057	74.06
670.259	83.06
670.462	83.06
670.665	79.06
670.867	82.06
671.07	78.06
671.272	82.06
671.475	79.06
671.677	98.06
671.88	84.06
672.082	74.06
672.284	86.06
672.487	89.06
672.689	89.06
672.892	83.06
