Data from 1988.PennyLincolnUp.Lamp.En5.5.200Scan.071819.P2_HRD10591_17-18-37-972.txt Node
Date: Thu Jul 18 17:18:37 EDT 2019
User: cochatt
Spectrometer: HR+D1059
Trigger mode: 1
Integration Time (sec): 1.000000E-1
Scans to average: 1
Electric dark correction enabled: true
Nonlinearity correction enabled: false
Boxcar width: 0
XAxis mode: Wavelengths
Number of Pixels in Spectrum: 2048
>>>>>Begin Spectral Data<<<<<
223.165	-1.62
223.4	-1.62
223.635	-1.62
223.869	-19.62
224.104	-19.62
224.338	-17.62
224.573	-12.62
224.808	-5.62
225.042	-6.62
225.277	7.38
225.511	-0.62
225.746	-4.62
225.98	9.38
226.215	17.38
226.449	0.38
226.683	15.38
226.918	19.38
227.152	19.38
227.387	33.38
227.621	41.38
227.856	38.38
228.09	37.38
228.324	53.38
228.559	55.38
228.793	66.38
229.027	93.38
229.262	91.38
229.496	103.38
229.73	123.38
229.964	140.38
230.199	121.38
230.433	110.38
230.667	125.38
230.901	104.38
231.136	114.38
231.37	109.38
231.604	106.38
231.838	107.38
232.072	110.38
232.306	101.38
232.541	104.38
232.775	117.38
233.009	113.38
233.243	116.38
233.477	115.38
233.711	115.38
233.945	106.38
234.179	115.38
234.413	99.38
234.647	124.38
234.881	117.38
235.115	106.38
235.349	121.38
235.583	106.38
235.817	129.38
236.051	121.38
236.285	132.38
236.519	109.38
236.753	114.38
236.987	133.38
237.221	164.38
237.455	217.38
237.689	158.38
237.922	142.38
238.156	135.38
238.39	124.38
238.624	124.38
238.858	111.38
239.091	104.38
239.325	114.38
239.559	117.38
239.793	114.38
240.027	135.38
240.26	155.38
240.494	148.38
240.728	133.38
240.961	138.38
241.195	121.38
241.429	130.38
241.662	138.38
241.896	126.38
242.13	126.38
242.363	136.38
242.597	147.38
242.83	134.38
243.064	119.38
243.298	137.38
243.531	133.38
243.765	114.38
243.998	113.38
244.232	120.38
244.465	140.38
244.699	147.38
244.932	144.38
245.166	133.38
245.399	127.38
245.633	138.38
245.866	138.38
246.099	135.38
246.333	153.38
246.566	126.38
246.8	139.38
247.033	145.38
247.266	137.38
247.5	155.38
247.733	162.38
247.966	149.38
248.2	142.38
248.433	169.38
248.666	151.38
248.899	179.38
249.133	182.38
249.366	178.38
249.599	172.38
249.832	161.38
250.066	170.38
250.299	165.38
250.532	165.38
250.765	156.38
250.998	202.38
251.231	198.38
251.465	205.38
251.698	183.38
251.931	177.38
252.164	186.38
252.397	183.38
252.63	193.38
252.863	186.38
253.096	194.38
253.329	199.38
253.562	195.38
253.795	189.38
254.028	203.38
254.261	207.38
254.494	215.38
254.727	230.38
254.96	223.38
255.193	237.38
255.426	217.38
255.659	207.38
255.892	198.38
256.124	198.38
256.357	198.38
256.59	211.38
256.823	184.38
257.056	187.38
257.289	193.38
257.521	198.38
257.754	196.38
257.987	183.38
258.22	205.38
258.452	187.38
258.685	188.38
258.918	189.38
259.151	196.38
259.383	194.38
259.616	204.38
259.849	216.38
260.081	225.38
260.314	238.38
260.547	210.38
260.779	226.38
261.012	218.38
261.244	203.38
261.477	209.38
261.71	201.38
261.942	197.38
262.175	205.38
262.407	192.38
262.64	185.38
262.872	184.38
263.105	195.38
263.337	203.38
263.57	190.38
263.802	207.38
264.035	204.38
264.267	194.38
264.499	187.38
264.732	185.38
264.964	208.38
265.197	198.38
265.429	205.38
265.661	195.38
265.894	199.38
266.126	184.38
266.358	212.38
266.591	210.38
266.823	205.38
267.055	207.38
267.287	223.38
267.52	206.38
267.752	222.38
267.984	214.38
268.216	222.38
268.448	214.38
268.681	219.38
268.913	226.38
269.145	244.38
269.377	244.38
269.609	238.38
269.841	248.38
270.073	225.38
270.306	267.38
270.538	274.38
270.77	275.38
271.002	254.38
271.234	267.38
271.466	259.38
271.698	278.38
271.93	270.38
272.162	282.38
272.394	293.38
272.626	257.38
272.858	263.38
273.09	242.38
273.322	248.38
273.553	224.38
273.785	236.38
274.017	253.38
274.249	235.38
274.481	245.38
274.713	234.38
274.945	245.38
275.176	230.38
275.408	245.38
275.64	229.38
275.872	256.38
276.104	241.38
276.335	235.38
276.567	229.38
276.799	243.38
277.031	267.38
277.262	278.38
277.494	285.38
277.726	275.38
277.957	258.38
278.189	257.38
278.421	266.38
278.652	259.38
278.884	261.38
279.115	238.38
279.347	251.38
279.579	241.38
279.81	242.38
280.042	247.38
280.273	238.38
280.505	250.38
280.736	253.38
280.968	247.38
281.199	240.38
281.431	245.38
281.662	229.38
281.894	261.38
282.125	247.38
282.356	266.38
282.588	281.38
282.819	265.38
283.051	267.38
283.282	265.38
283.513	251.38
283.745	242.38
283.976	234.38
284.207	267.38
284.439	263.38
284.67	277.38
284.901	263.38
285.132	247.38
285.364	248.38
285.595	266.38
285.826	271.38
286.057	258.38
286.288	268.38
286.52	262.38
286.751	274.38
286.982	261.38
287.213	249.38
287.444	266.38
287.675	275.38
287.906	286.38
288.138	284.38
288.369	280.38
288.6	302.38
288.831	285.38
289.062	277.38
289.293	263.38
289.524	275.38
289.755	263.38
289.986	268.38
290.217	254.38
290.448	259.38
290.679	275.38
290.91	278.38
291.141	271.38
291.371	269.38
291.602	255.38
291.833	274.38
292.064	266.38
292.295	267.38
292.526	264.38
292.757	268.38
292.987	261.38
293.218	270.38
293.449	284.38
293.68	273.38
293.91	281.38
294.141	275.38
294.372	277.38
294.603	270.38
294.833	286.38
295.064	273.38
295.295	289.38
295.525	275.38
295.756	285.38
295.987	280.38
296.217	298.38
296.448	290.38
296.679	299.38
296.909	272.38
297.14	289.38
297.37	305.38
297.601	285.38
297.831	284.38
298.062	296.38
298.292	285.38
298.523	312.38
298.753	279.38
298.984	309.38
299.214	312.38
299.445	295.38
299.675	295.38
299.905	295.38
300.136	309.38
300.366	287.38
300.597	290.38
300.827	293.38
301.057	298.38
301.288	309.38
301.518	311.38
301.748	313.38
301.979	315.38
302.209	310.38
302.439	302.38
302.669	303.38
302.9	279.38
303.13	281.38
303.36	313.38
303.59	305.38
303.82	323.38
304.051	331.38
304.281	318.38
304.511	304.38
304.741	301.38
304.971	317.38
305.201	298.38
305.431	317.38
305.661	300.38
305.891	324.38
306.121	323.38
306.352	301.38
306.582	321.38
306.812	308.38
307.042	310.38
307.272	309.38
307.502	308.38
307.731	310.38
307.961	312.38
308.191	322.38
308.421	309.38
308.651	316.38
308.881	329.38
309.111	326.38
309.341	329.38
309.571	313.38
309.8	331.38
310.03	352.38
310.26	330.38
310.49	333.38
310.72	355.38
310.949	370.38
311.179	360.38
311.409	357.38
311.639	350.38
311.868	344.38
312.098	359.38
312.328	368.38
312.557	366.38
312.787	385.38
313.017	358.38
313.246	357.38
313.476	346.38
313.706	362.38
313.935	358.38
314.165	366.38
314.394	348.38
314.624	373.38
314.853	361.38
315.083	359.38
315.312	364.38
315.542	356.38
315.771	378.38
316.001	357.38
316.23	373.38
316.46	349.38
316.689	356.38
316.919	354.38
317.148	372.38
317.377	361.38
317.607	363.38
317.836	369.38
318.065	365.38
318.295	355.38
318.524	355.38
318.753	361.38
318.983	366.38
319.212	362.38
319.441	370.38
319.67	359.38
319.9	355.38
320.129	348.38
320.358	373.38
320.587	378.38
320.816	371.38
321.046	380.38
321.275	377.38
321.504	357.38
321.733	392.38
321.962	397.38
322.191	389.38
322.42	403.38
322.649	431.38
322.878	421.38
323.108	421.38
323.337	452.38
323.566	452.38
323.795	453.38
324.024	511.38
324.253	606.38
324.482	830.38
324.71	1285.38
324.939	1892.38
325.168	1609.38
325.397	813.38
325.626	580.38
325.855	501.38
326.084	486.38
326.313	462.38
326.542	466.38
326.77	507.38
326.999	558.38
327.228	771.38
327.457	1139.38
327.686	1369.38
327.914	924.38
328.143	618.38
328.372	542.38
328.6	519.38
328.829	503.38
329.058	510.38
329.287	511.38
329.515	484.38
329.744	466.38
329.972	463.38
330.201	479.38
330.43	460.38
330.658	476.38
330.887	484.38
331.115	535.38
331.344	466.38
331.572	453.38
331.801	451.38
332.03	442.38
332.258	441.38
332.486	428.38
332.715	409.38
332.943	431.38
333.172	414.38
333.4	410.38
333.629	420.38
333.857	448.38
334.085	439.38
334.314	440.38
334.542	434.38
334.771	445.38
334.999	436.38
335.227	437.38
335.455	426.38
335.684	454.38
335.912	416.38
336.14	407.38
336.369	410.38
336.597	437.38
336.825	420.38
337.053	405.38
337.281	401.38
337.51	428.38
337.738	421.38
337.966	424.38
338.194	415.38
338.422	425.38
338.65	430.38
338.878	402.38
339.106	413.38
339.334	399.38
339.562	396.38
339.79	411.38
340.018	399.38
340.246	411.38
340.474	427.38
340.702	421.38
340.93	412.38
341.158	415.38
341.386	399.38
341.614	394.38
341.842	437.38
342.07	419.38
342.298	407.38
342.526	408.38
342.754	395.38
342.981	395.38
343.209	391.38
343.437	406.38
343.665	409.38
343.893	412.38
344.12	417.38
344.348	426.38
344.576	417.38
344.804	415.38
345.031	431.38
345.259	458.38
345.487	399.38
345.714	411.38
345.942	419.38
346.17	377.38
346.397	391.38
346.625	406.38
346.853	390.38
347.08	396.38
347.308	405.38
347.535	395.38
347.763	417.38
347.99	409.38
348.218	423.38
348.445	394.38
348.673	399.38
348.9	402.38
349.128	416.38
349.355	397.38
349.583	401.38
349.81	379.38
350.037	399.38
350.265	380.38
350.492	380.38
350.72	407.38
350.947	398.38
351.174	397.38
351.402	406.38
351.629	392.38
351.856	393.38
352.083	412.38
352.311	411.38
352.538	395.38
352.765	404.38
352.992	391.38
353.22	403.38
353.447	411.38
353.674	413.38
353.901	387.38
354.128	378.38
354.355	378.38
354.583	378.38
354.81	369.38
355.037	374.38
355.264	377.38
355.491	377.38
355.718	373.38
355.945	385.38
356.172	377.38
356.399	361.38
356.626	375.38
356.853	391.38
357.08	381.38
357.307	358.38
357.534	377.38
357.761	389.38
357.988	374.38
358.215	413.38
358.441	374.38
358.668	375.38
358.895	374.38
359.122	397.38
359.349	377.38
359.576	399.38
359.802	427.38
360.029	423.38
360.256	460.38
360.483	427.38
360.709	400.38
360.936	401.38
361.163	397.38
361.39	401.38
361.616	391.38
361.843	398.38
362.07	398.38
362.296	410.38
362.523	396.38
362.749	385.38
362.976	368.38
363.203	385.38
363.429	378.38
363.656	411.38
363.882	378.38
364.109	375.38
364.335	369.38
364.562	394.38
364.788	382.38
365.015	375.38
365.241	400.38
365.468	399.38
365.694	390.38
365.92	404.38
366.147	387.38
366.373	371.38
366.599	367.38
366.826	373.38
367.052	377.38
367.278	371.38
367.505	389.38
367.731	383.38
367.957	393.38
368.184	386.38
368.41	397.38
368.636	420.38
368.862	403.38
369.089	392.38
369.315	369.38
369.541	386.38
369.767	377.38
369.993	397.38
370.219	386.38
370.445	401.38
370.672	389.38
370.898	389.38
371.124	391.38
371.35	377.38
371.576	401.38
371.802	385.38
372.028	391.38
372.254	376.38
372.48	373.38
372.706	382.38
372.932	388.38
373.158	380.38
373.384	392.38
373.61	392.38
373.835	380.38
374.061	388.38
374.287	402.38
374.513	365.38
374.739	385.38
374.965	385.38
375.191	387.38
375.416	391.38
375.642	405.38
375.868	382.38
376.094	391.38
376.319	398.38
376.545	362.38
376.771	385.38
376.997	396.38
377.222	393.38
377.448	378.38
377.674	383.38
377.899	374.38
378.125	378.38
378.35	388.38
378.576	384.38
378.802	373.38
379.027	396.38
379.253	396.38
379.478	398.38
379.704	365.38
379.929	379.38
380.155	385.38
380.38	395.38
380.606	399.38
380.831	384.38
381.057	409.38
381.282	403.38
381.507	404.38
381.733	407.38
381.958	378.38
382.184	398.38
382.409	390.38
382.634	413.38
382.86	394.38
383.085	403.38
383.31	414.38
383.535	412.38
383.761	418.38
383.986	412.38
384.211	398.38
384.436	424.38
384.662	405.38
384.887	419.38
385.112	426.38
385.337	427.38
385.562	413.38
385.787	427.38
386.013	423.38
386.238	423.38
386.463	435.38
386.688	438.38
386.913	428.38
387.138	407.38
387.363	421.38
387.588	441.38
387.813	434.38
388.038	433.38
388.263	417.38
388.488	428.38
388.713	393.38
388.938	420.38
389.163	428.38
389.387	430.38
389.612	418.38
389.837	427.38
390.062	443.38
390.287	429.38
390.512	409.38
390.736	437.38
390.961	436.38
391.186	430.38
391.411	446.38
391.636	446.38
391.86	442.38
392.085	459.38
392.31	450.38
392.534	438.38
392.759	441.38
392.984	437.38
393.208	427.38
393.433	446.38
393.658	452.38
393.882	439.38
394.107	427.38
394.331	430.38
394.556	451.38
394.78	438.38
395.005	453.38
395.229	437.38
395.454	447.38
395.678	458.38
395.903	465.38
396.127	477.38
396.352	495.38
396.576	467.38
396.801	466.38
397.025	462.38
397.249	465.38
397.474	444.38
397.698	485.38
397.922	471.38
398.147	492.38
398.371	491.38
398.595	480.38
398.82	493.38
399.044	505.38
399.268	526.38
399.492	549.38
399.717	554.38
399.941	602.38
400.165	585.38
400.389	611.38
400.613	547.38
400.837	500.38
401.062	503.38
401.286	533.38
401.51	497.38
401.734	485.38
401.958	501.38
402.182	502.38
402.406	507.38
402.63	506.38
402.854	477.38
403.078	513.38
403.302	529.38
403.526	511.38
403.75	505.38
403.974	482.38
404.198	489.38
404.422	486.38
404.645	502.38
404.869	494.38
405.093	533.38
405.317	524.38
405.541	549.38
405.765	520.38
405.988	517.38
406.212	531.38
406.436	547.38
406.66	562.38
406.883	547.38
407.107	557.38
407.331	602.38
407.555	631.38
407.778	696.38
408.002	625.38
408.226	567.38
408.449	557.38
408.673	548.38
408.896	586.38
409.12	619.38
409.344	569.38
409.567	557.38
409.791	520.38
410.014	527.38
410.238	541.38
410.461	509.38
410.685	529.38
410.908	538.38
411.132	542.38
411.355	587.38
411.578	565.38
411.802	514.38
412.025	521.38
412.249	513.38
412.472	531.38
412.695	532.38
412.919	500.38
413.142	490.38
413.365	476.38
413.589	500.38
413.812	469.38
414.035	483.38
414.258	473.38
414.482	462.38
414.705	477.38
414.928	492.38
415.151	482.38
415.374	484.38
415.597	455.38
415.821	481.38
416.044	475.38
416.267	466.38
416.49	485.38
416.713	505.38
416.936	495.38
417.159	490.38
417.382	464.38
417.605	476.38
417.828	492.38
418.051	502.38
418.274	469.38
418.497	486.38
418.72	479.38
418.943	472.38
419.166	501.38
419.389	509.38
419.611	515.38
419.834	516.38
420.057	478.38
420.28	484.38
420.503	480.38
420.726	484.38
420.948	493.38
421.171	539.38
421.394	561.38
421.617	505.38
421.839	495.38
422.062	515.38
422.285	515.38
422.507	554.38
422.73	626.38
422.953	604.38
423.175	539.38
423.398	527.38
423.621	494.38
423.843	565.38
424.066	519.38
424.288	517.38
424.511	552.38
424.733	629.38
424.956	685.38
425.178	620.38
425.401	633.38
425.623	653.38
425.846	581.38
426.068	541.38
426.291	517.38
426.513	523.38
426.735	524.38
426.958	597.38
427.18	661.38
427.402	776.38
427.625	852.38
427.847	715.38
428.069	620.38
428.292	550.38
428.514	529.38
428.736	511.38
428.958	482.38
429.181	487.38
429.403	474.38
429.625	507.38
429.847	531.38
430.069	588.38
430.292	567.38
430.514	506.38
430.736	481.38
430.958	469.38
431.18	465.38
431.402	473.38
431.624	473.38
431.846	478.38
432.068	446.38
432.29	444.38
432.512	453.38
432.734	477.38
432.956	476.38
433.178	481.38
433.4	501.38
433.622	491.38
433.844	469.38
434.066	483.38
434.287	491.38
434.509	486.38
434.731	475.38
434.953	483.38
435.175	511.38
435.397	499.38
435.618	535.38
435.84	567.38
436.062	664.38
436.284	715.38
436.505	594.38
436.727	546.38
436.949	524.38
437.17	491.38
437.392	502.38
437.614	504.38
437.835	546.38
438.057	607.38
438.278	723.38
438.5	712.38
438.721	791.38
438.943	759.38
439.165	597.38
439.386	543.38
439.608	529.38
439.829	520.38
440.05	571.38
440.272	599.38
440.493	576.38
440.715	517.38
440.936	498.38
441.158	526.38
441.379	503.38
441.6	501.38
441.822	527.38
442.043	573.38
442.264	649.38
442.486	678.38
442.707	579.38
442.928	551.38
443.149	565.38
443.371	568.38
443.592	589.38
443.813	718.38
444.034	747.38
444.255	641.38
444.476	575.38
444.698	568.38
444.919	528.38
445.14	629.38
445.361	569.38
445.582	559.38
445.803	628.38
446.024	725.38
446.245	709.38
446.466	632.38
446.687	558.38
446.908	545.38
447.129	525.38
447.35	493.38
447.571	491.38
447.792	489.38
448.013	512.38
448.234	506.38
448.455	527.38
448.675	678.38
448.896	785.38
449.117	643.38
449.338	609.38
449.559	727.38
449.779	821.38
450	642.38
450.221	549.38
450.442	493.38
450.662	480.38
450.883	470.38
451.104	506.38
451.324	485.38
451.545	456.38
451.766	449.38
451.986	452.38
452.207	434.38
452.428	462.38
452.648	449.38
452.869	439.38
453.089	429.38
453.31	464.38
453.53	449.38
453.751	457.38
453.971	441.38
454.192	475.38
454.412	452.38
454.633	435.38
454.853	441.38
455.073	437.38
455.294	469.38
455.514	525.38
455.734	513.38
455.955	448.38
456.175	439.38
456.395	423.38
456.616	420.38
456.836	433.38
457.056	385.38
457.276	423.38
457.497	428.38
457.717	422.38
457.937	419.38
458.157	436.38
458.377	441.38
458.598	457.38
458.818	490.38
459.038	527.38
459.258	609.38
459.478	520.38
459.698	459.38
459.918	467.38
460.138	469.38
460.358	483.38
460.578	481.38
460.798	493.38
461.018	482.38
461.238	499.38
461.458	470.38
461.678	467.38
461.898	501.38
462.118	499.38
462.338	501.38
462.558	495.38
462.777	509.38
462.997	527.38
463.217	515.38
463.437	527.38
463.657	540.38
463.876	533.38
464.096	535.38
464.316	529.38
464.536	535.38
464.755	533.38
464.975	523.38
465.195	533.38
465.414	584.38
465.634	539.38
465.854	491.38
466.073	477.38
466.293	461.38
466.512	470.38
466.732	456.38
466.951	465.38
467.171	459.38
467.391	456.38
467.61	471.38
467.829	464.38
468.049	464.38
468.268	450.38
468.488	443.38
468.707	428.38
468.927	441.38
469.146	445.38
469.365	446.38
469.585	437.38
469.804	449.38
470.023	463.38
470.243	462.38
470.462	474.38
470.681	501.38
470.901	474.38
471.12	455.38
471.339	457.38
471.558	456.38
471.777	462.38
471.997	466.38
472.216	464.38
472.435	461.38
472.654	447.38
472.873	440.38
473.092	443.38
473.311	460.38
473.53	443.38
473.749	466.38
473.968	485.38
474.187	611.38
474.406	627.38
474.625	515.38
474.844	487.38
475.063	469.38
475.282	479.38
475.501	483.38
475.72	484.38
475.939	454.38
476.158	489.38
476.377	481.38
476.596	475.38
476.814	478.38
477.033	487.38
477.252	479.38
477.471	511.38
477.69	481.38
477.908	492.38
478.127	525.38
478.346	509.38
478.564	511.38
478.783	505.38
479.002	540.38
479.22	550.38
479.439	548.38
479.658	550.38
479.876	573.38
480.095	572.38
480.313	573.38
480.532	573.38
480.751	557.38
480.969	559.38
481.188	572.38
481.406	567.38
481.624	546.38
481.843	556.38
482.061	540.38
482.28	534.38
482.498	531.38
482.717	521.38
482.935	551.38
483.153	539.38
483.372	545.38
483.59	553.38
483.808	527.38
484.027	549.38
484.245	526.38
484.463	573.38
484.681	549.38
484.9	541.38
485.118	578.38
485.336	559.38
485.554	571.38
485.772	554.38
485.99	603.38
486.209	557.38
486.427	559.38
486.645	555.38
486.863	612.38
487.081	585.38
487.299	598.38
487.517	596.38
487.735	582.38
487.953	583.38
488.171	593.38
488.389	573.38
488.607	575.38
488.825	576.38
489.043	563.38
489.261	581.38
489.479	595.38
489.696	609.38
489.914	594.38
490.132	596.38
490.35	597.38
490.568	617.38
490.786	620.38
491.003	597.38
491.221	623.38
491.439	638.38
491.657	641.38
491.874	643.38
492.092	638.38
492.31	659.38
492.527	654.38
492.745	644.38
492.963	640.38
493.18	663.38
493.398	654.38
493.615	676.38
493.833	671.38
494.05	666.38
494.268	662.38
494.485	670.38
494.703	674.38
494.92	662.38
495.138	690.38
495.355	678.38
495.573	662.38
495.79	671.38
496.008	676.38
496.225	675.38
496.442	659.38
496.66	716.38
496.877	695.38
497.094	728.38
497.312	703.38
497.529	693.38
497.746	721.38
497.963	711.38
498.181	753.38
498.398	770.38
498.615	781.38
498.832	782.38
499.049	799.38
499.267	828.38
499.484	848.38
499.701	862.38
499.918	918.38
500.135	965.38
500.352	969.38
500.569	995.38
500.786	997.38
501.003	972.38
501.22	949.38
501.437	907.38
501.654	931.38
501.871	889.38
502.088	873.38
502.305	806.38
502.522	817.38
502.739	811.38
502.956	766.38
503.172	762.38
503.389	738.38
503.606	737.38
503.823	749.38
504.04	711.38
504.256	693.38
504.473	690.38
504.69	693.38
504.907	699.38
505.123	682.38
505.34	652.38
505.557	669.38
505.773	685.38
505.99	658.38
506.207	657.38
506.423	654.38
506.64	641.38
506.856	667.38
507.073	643.38
507.289	632.38
507.506	625.38
507.722	656.38
507.939	647.38
508.155	647.38
508.372	628.38
508.588	602.38
508.805	637.38
509.021	600.38
509.238	637.38
509.454	641.38
509.67	651.38
509.887	616.38
510.103	641.38
510.319	638.38
510.536	695.38
510.752	1050.38
510.968	891.38
511.184	648.38
511.401	605.38
511.617	595.38
511.833	588.38
512.049	573.38
512.265	568.38
512.481	585.38
512.698	581.38
512.914	576.38
513.13	575.38
513.346	593.38
513.562	577.38
513.778	599.38
513.994	565.38
514.21	588.38
514.426	614.38
514.642	653.38
514.858	645.38
515.074	694.38
515.29	804.38
515.506	1102.38
515.721	928.38
515.937	675.38
516.153	632.38
516.369	611.38
516.585	613.38
516.801	637.38
517.016	601.38
517.232	573.38
517.448	621.38
517.664	624.38
517.879	622.38
518.095	629.38
518.311	603.38
518.527	612.38
518.742	635.38
518.958	630.38
519.173	610.38
519.389	578.38
519.605	583.38
519.82	591.38
520.036	597.38
520.251	606.38
520.467	635.38
520.682	665.38
520.898	652.38
521.113	643.38
521.329	655.38
521.544	705.38
521.76	879.38
521.975	1315.38
522.19	1342.38
522.406	812.38
522.621	652.38
522.836	617.38
523.052	589.38
523.267	562.38
523.482	555.38
523.698	565.38
523.913	543.38
524.128	566.38
524.343	530.38
524.559	541.38
524.774	519.38
524.989	531.38
525.204	533.38
525.419	508.38
525.634	541.38
525.849	539.38
526.064	521.38
526.28	495.38
526.495	515.38
526.71	480.38
526.925	500.38
527.14	507.38
527.355	479.38
527.57	501.38
527.785	498.38
527.999	484.38
528.214	490.38
528.429	512.38
528.644	494.38
528.859	522.38
529.074	497.38
529.289	506.38
529.503	556.38
529.718	542.38
529.933	534.38
530.148	502.38
530.363	496.38
530.577	476.38
530.792	505.38
531.007	506.38
531.221	494.38
531.436	490.38
531.651	482.38
531.865	512.38
532.08	486.38
532.295	467.38
532.509	475.38
532.724	469.38
532.938	488.38
533.153	466.38
533.367	457.38
533.582	479.38
533.796	507.38
534.011	470.38
534.225	478.38
534.44	475.38
534.654	489.38
534.868	452.38
535.083	459.38
535.297	469.38
535.511	475.38
535.726	505.38
535.94	471.38
536.154	463.38
536.369	455.38
536.583	442.38
536.797	461.38
537.011	450.38
537.225	480.38
537.44	453.38
537.654	451.38
537.868	459.38
538.082	436.38
538.296	434.38
538.51	445.38
538.724	466.38
538.938	461.38
539.153	455.38
539.367	478.38
539.581	459.38
539.795	444.38
540.009	441.38
540.222	435.38
540.436	454.38
540.65	458.38
540.864	455.38
541.078	482.38
541.292	457.38
541.506	458.38
541.72	457.38
541.934	434.38
542.147	446.38
542.361	455.38
542.575	430.38
542.789	447.38
543.002	448.38
543.216	461.38
543.43	464.38
543.644	457.38
543.857	430.38
544.071	454.38
544.285	452.38
544.498	444.38
544.712	444.38
544.925	426.38
545.139	462.38
545.352	451.38
545.566	460.38
545.779	461.38
545.993	438.38
546.206	449.38
546.42	454.38
546.633	447.38
546.847	451.38
547.06	447.38
547.274	434.38
547.487	428.38
547.7	430.38
547.914	409.38
548.127	461.38
548.34	442.38
548.554	418.38
548.767	461.38
548.98	439.38
549.193	439.38
549.407	432.38
549.62	449.38
549.833	439.38
550.046	445.38
550.259	447.38
550.473	440.38
550.686	415.38
550.899	444.38
551.112	435.38
551.325	435.38
551.538	426.38
551.751	412.38
551.964	425.38
552.177	449.38
552.39	416.38
552.603	435.38
552.816	428.38
553.029	433.38
553.242	459.38
553.455	443.38
553.667	441.38
553.88	459.38
554.093	428.38
554.306	451.38
554.519	435.38
554.732	449.38
554.944	426.38
555.157	421.38
555.37	405.38
555.583	426.38
555.795	419.38
556.008	400.38
556.221	429.38
556.433	382.38
556.646	389.38
556.859	416.38
557.071	416.38
557.284	406.38
557.496	403.38
557.709	402.38
557.921	407.38
558.134	411.38
558.346	389.38
558.559	391.38
558.771	385.38
558.984	391.38
559.196	424.38
559.409	393.38
559.621	380.38
559.833	407.38
560.046	391.38
560.258	386.38
560.47	398.38
560.683	382.38
560.895	383.38
561.107	397.38
561.32	378.38
561.532	378.38
561.744	383.38
561.956	399.38
562.168	397.38
562.381	398.38
562.593	387.38
562.805	389.38
563.017	391.38
563.229	391.38
563.441	378.38
563.653	393.38
563.865	411.38
564.077	393.38
564.289	409.38
564.501	416.38
564.713	411.38
564.925	423.38
565.137	435.38
565.349	435.38
565.561	411.38
565.773	431.38
565.985	429.38
566.197	453.38
566.408	458.38
566.62	452.38
566.832	467.38
567.044	490.38
567.255	467.38
567.467	474.38
567.679	495.38
567.891	490.38
568.102	512.38
568.314	482.38
568.526	461.38
568.737	479.38
568.949	437.38
569.161	428.38
569.372	399.38
569.584	400.38
569.795	415.38
570.007	390.38
570.218	436.38
570.43	435.38
570.641	394.38
570.853	407.38
571.064	393.38
571.276	381.38
571.487	381.38
571.698	373.38
571.91	361.38
572.121	361.38
572.333	349.38
572.544	371.38
572.755	371.38
572.966	353.38
573.178	339.38
573.389	345.38
573.6	349.38
573.811	358.38
574.023	345.38
574.234	349.38
574.445	336.38
574.656	331.38
574.867	340.38
575.078	338.38
575.289	319.38
575.501	339.38
575.712	333.38
575.923	325.38
576.134	353.38
576.345	336.38
576.556	344.38
576.767	326.38
576.978	352.38
577.188	336.38
577.399	329.38
577.61	323.38
577.821	309.38
578.032	320.38
578.243	343.38
578.454	485.38
578.665	393.38
578.875	343.38
579.086	317.38
579.297	330.38
579.508	322.38
579.718	321.38
579.929	310.38
580.14	314.38
580.35	307.38
580.561	311.38
580.772	311.38
580.982	333.38
581.193	327.38
581.403	292.38
581.614	302.38
581.825	330.38
582.035	308.38
582.246	317.38
582.456	318.38
582.667	302.38
582.877	315.38
583.087	292.38
583.298	295.38
583.508	289.38
583.719	311.38
583.929	299.38
584.139	318.38
584.35	298.38
584.56	319.38
584.77	295.38
584.981	302.38
585.191	292.38
585.401	294.38
585.611	301.38
585.821	315.38
586.032	312.38
586.242	279.38
586.452	309.38
586.662	282.38
586.872	301.38
587.082	295.38
587.292	297.38
587.502	313.38
587.713	287.38
587.923	308.38
588.133	285.38
588.343	295.38
588.553	270.38
588.762	308.38
588.972	288.38
589.182	320.38
589.392	293.38
589.602	285.38
589.812	288.38
590.022	303.38
590.232	295.38
590.441	299.38
590.651	283.38
590.861	311.38
591.071	293.38
591.281	288.38
591.49	301.38
591.7	291.38
591.91	287.38
592.119	284.38
592.329	313.38
592.539	297.38
592.748	301.38
592.958	315.38
593.167	311.38
593.377	321.38
593.587	326.38
593.796	325.38
594.006	306.38
594.215	322.38
594.424	313.38
594.634	317.38
594.843	314.38
595.053	293.38
595.262	283.38
595.472	297.38
595.681	294.38
595.89	275.38
596.1	290.38
596.309	298.38
596.518	284.38
596.727	282.38
596.937	281.38
597.146	270.38
597.355	275.38
597.564	269.38
597.774	266.38
597.983	280.38
598.192	265.38
598.401	235.38
598.61	269.38
598.819	264.38
599.028	292.38
599.237	257.38
599.446	258.38
599.655	266.38
599.864	243.38
600.073	278.38
600.282	277.38
600.491	269.38
600.7	253.38
600.909	236.38
601.118	265.38
601.327	248.38
601.536	264.38
601.745	268.38
601.953	266.38
602.162	268.38
602.371	266.38
602.58	252.38
602.789	252.38
602.997	258.38
603.206	246.38
603.415	244.38
603.623	248.38
603.832	238.38
604.041	275.38
604.249	253.38
604.458	242.38
604.666	247.38
604.875	247.38
605.084	237.38
605.292	253.38
605.501	245.38
605.709	252.38
605.918	245.38
606.126	249.38
606.334	238.38
606.543	253.38
606.751	249.38
606.96	249.38
607.168	253.38
607.376	258.38
607.585	258.38
607.793	244.38
608.001	242.38
608.21	253.38
608.418	262.38
608.626	250.38
608.834	252.38
609.043	236.38
609.251	241.38
609.459	236.38
609.667	234.38
609.875	237.38
610.083	238.38
610.291	238.38
610.499	244.38
610.707	251.38
610.916	247.38
611.124	232.38
611.332	264.38
611.54	224.38
611.748	239.38
611.955	234.38
612.163	247.38
612.371	219.38
612.579	249.38
612.787	250.38
612.995	225.38
613.203	242.38
613.411	229.38
613.618	216.38
613.826	229.38
614.034	237.38
614.242	251.38
614.449	242.38
614.657	245.38
614.865	248.38
615.072	231.38
615.28	246.38
615.488	222.38
615.695	220.38
615.903	233.38
616.111	254.38
616.318	248.38
616.526	241.38
616.733	226.38
616.941	231.38
617.148	227.38
617.356	236.38
617.563	225.38
617.771	229.38
617.978	236.38
618.185	228.38
618.393	214.38
618.6	234.38
618.807	233.38
619.015	226.38
619.222	224.38
619.429	221.38
619.637	213.38
619.844	216.38
620.051	234.38
620.258	227.38
620.466	215.38
620.673	201.38
620.88	225.38
621.087	214.38
621.294	230.38
621.501	215.38
621.708	235.38
621.915	221.38
622.122	236.38
622.329	222.38
622.536	201.38
622.743	210.38
622.95	222.38
623.157	217.38
623.364	212.38
623.571	220.38
623.778	230.38
623.985	214.38
624.192	212.38
624.399	214.38
624.606	209.38
624.812	229.38
625.019	206.38
625.226	201.38
625.433	214.38
625.639	218.38
625.846	201.38
626.053	193.38
626.259	193.38
626.466	211.38
626.673	198.38
626.879	193.38
627.086	210.38
627.293	209.38
627.499	206.38
627.706	193.38
627.912	202.38
628.119	205.38
628.325	195.38
628.532	189.38
628.738	201.38
628.945	205.38
629.151	194.38
629.357	206.38
629.564	186.38
629.77	190.38
629.976	199.38
630.183	198.38
630.389	207.38
630.595	200.38
630.802	215.38
631.008	193.38
631.214	190.38
631.42	211.38
631.627	189.38
631.833	190.38
632.039	196.38
632.245	195.38
632.451	186.38
632.657	180.38
632.863	190.38
633.069	176.38
633.275	192.38
633.481	192.38
633.688	200.38
633.893	181.38
634.099	184.38
634.305	194.38
634.511	186.38
634.717	179.38
634.923	175.38
635.129	172.38
635.335	164.38
635.541	189.38
635.747	179.38
635.952	177.38
636.158	178.38
636.364	179.38
636.57	181.38
636.775	182.38
636.981	185.38
637.187	188.38
637.392	176.38
637.598	179.38
637.804	184.38
638.009	186.38
638.215	176.38
638.421	172.38
638.626	167.38
638.832	177.38
639.037	165.38
639.243	165.38
639.448	174.38
639.654	175.38
639.859	174.38
640.065	170.38
640.27	177.38
640.475	164.38
640.681	179.38
640.886	187.38
641.091	175.38
641.297	154.38
641.502	166.38
641.707	167.38
641.913	169.38
642.118	183.38
642.323	149.38
642.528	180.38
642.733	187.38
642.939	179.38
643.144	170.38
643.349	178.38
643.554	180.38
643.759	177.38
643.964	159.38
644.169	158.38
644.374	147.38
644.579	163.38
644.784	156.38
644.989	177.38
645.194	163.38
645.399	184.38
645.604	163.38
645.809	162.38
646.014	165.38
646.219	179.38
646.423	165.38
646.628	171.38
646.833	168.38
647.038	164.38
647.243	162.38
647.447	158.38
647.652	173.38
647.857	180.38
648.062	187.38
648.266	172.38
648.471	181.38
648.676	187.38
648.88	161.38
649.085	159.38
649.289	182.38
649.494	161.38
649.698	183.38
649.903	181.38
650.107	181.38
650.312	168.38
650.516	157.38
650.721	140.38
650.925	161.38
651.13	154.38
651.334	162.38
651.539	151.38
651.743	161.38
651.947	157.38
652.152	156.38
652.356	147.38
652.56	161.38
652.764	142.38
652.969	149.38
653.173	137.38
653.377	154.38
653.581	139.38
653.785	141.38
653.99	142.38
654.194	115.38
654.398	121.38
654.602	123.38
654.806	130.38
655.01	129.38
655.214	162.38
655.418	147.38
655.622	125.38
655.826	133.38
656.03	124.38
656.234	139.38
656.438	140.38
656.642	141.38
656.846	137.38
657.049	129.38
657.253	123.38
657.457	123.38
657.661	111.38
657.865	117.38
658.068	117.38
658.272	107.38
658.476	111.38
658.68	117.38
658.883	120.38
659.087	109.38
659.291	97.38
659.494	100.38
659.698	95.38
659.901	98.38
660.105	99.38
660.309	105.38
660.512	103.38
660.716	114.38
660.919	98.38
661.123	85.38
661.326	97.38
661.53	92.38
661.733	78.38
661.936	97.38
662.14	95.38
662.343	86.38
662.546	84.38
662.75	85.38
662.953	100.38
663.156	90.38
663.36	85.38
663.563	84.38
663.766	82.38
663.969	87.38
664.173	82.38
664.376	84.38
664.579	82.38
664.782	94.38
664.985	89.38
665.188	84.38
665.391	84.38
665.594	94.38
665.797	61.38
666	100.38
666.203	95.38
666.406	80.38
666.609	98.38
666.812	92.38
667.015	88.38
667.218	82.38
667.421	91.38
667.624	84.38
667.827	81.38
668.03	81.38
668.232	77.38
668.435	86.38
668.638	88.38
668.841	89.38
669.043	80.38
669.246	79.38
669.449	73.38
669.651	86.38
669.854	89.38
670.057	80.38
670.259	104.38
670.462	71.38
670.665	71.38
670.867	100.38
671.07	79.38
671.272	75.38
671.475	94.38
671.677	83.38
671.88	89.38
672.082	78.38
672.284	70.38
672.487	81.38
672.689	90.38
672.892	97.38
