Data from 1988.PennyLincolnUp.Lamp.En5.5.200Scan.071819.P2_HRD10591_17-21-27-972.txt Node
Date: Thu Jul 18 17:21:27 EDT 2019
User: cochatt
Spectrometer: HR+D1059
Trigger mode: 1
Integration Time (sec): 1.000000E-1
Scans to average: 1
Electric dark correction enabled: true
Nonlinearity correction enabled: false
Boxcar width: 0
XAxis mode: Wavelengths
Number of Pixels in Spectrum: 2048
>>>>>Begin Spectral Data<<<<<
223.165	-7.12
223.4	-7.12
223.635	-7.12
223.869	-21.12
224.104	-14.12
224.338	-18.12
224.573	-13.12
224.808	-12.12
225.042	-2.12
225.277	-17.12
225.511	-1.12
225.746	-17.12
225.98	14.88
226.215	9.88
226.449	12.88
226.683	16.88
226.918	41.88
227.152	26.88
227.387	35.88
227.621	32.88
227.856	47.88
228.09	42.88
228.324	50.88
228.559	58.88
228.793	72.88
229.027	103.88
229.262	113.88
229.496	131.88
229.73	133.88
229.964	148.88
230.199	142.88
230.433	106.88
230.667	124.88
230.901	128.88
231.136	130.88
231.37	112.88
231.604	129.88
231.838	124.88
232.072	132.88
232.306	111.88
232.541	136.88
232.775	120.88
233.009	123.88
233.243	131.88
233.477	139.88
233.711	124.88
233.945	125.88
234.179	126.88
234.413	123.88
234.647	119.88
234.881	117.88
235.115	132.88
235.349	129.88
235.583	135.88
235.817	132.88
236.051	136.88
236.285	128.88
236.519	124.88
236.753	135.88
236.987	158.88
237.221	205.88
237.455	254.88
237.689	217.88
237.922	161.88
238.156	144.88
238.39	137.88
238.624	132.88
238.858	146.88
239.091	126.88
239.325	136.88
239.559	140.88
239.793	149.88
240.027	146.88
240.26	173.88
240.494	182.88
240.728	160.88
240.961	154.88
241.195	162.88
241.429	154.88
241.662	142.88
241.896	146.88
242.13	144.88
242.363	146.88
242.597	149.88
242.83	149.88
243.064	154.88
243.298	150.88
243.531	154.88
243.765	143.88
243.998	133.88
244.232	157.88
244.465	153.88
244.699	161.88
244.932	155.88
245.166	157.88
245.399	152.88
245.633	155.88
245.866	151.88
246.099	147.88
246.333	154.88
246.566	172.88
246.8	153.88
247.033	172.88
247.266	161.88
247.5	188.88
247.733	200.88
247.966	193.88
248.2	180.88
248.433	198.88
248.666	166.88
248.899	182.88
249.133	212.88
249.366	213.88
249.599	215.88
249.832	204.88
250.066	193.88
250.299	196.88
250.532	200.88
250.765	219.88
250.998	227.88
251.231	240.88
251.465	232.88
251.698	226.88
251.931	230.88
252.164	211.88
252.397	207.88
252.63	219.88
252.863	217.88
253.096	241.88
253.329	250.88
253.562	235.88
253.795	246.88
254.028	231.88
254.261	236.88
254.494	241.88
254.727	304.88
254.96	308.88
255.193	288.88
255.426	280.88
255.659	265.88
255.892	251.88
256.124	249.88
256.357	235.88
256.59	220.88
256.823	234.88
257.056	226.88
257.289	229.88
257.521	245.88
257.754	235.88
257.987	217.88
258.22	226.88
258.452	219.88
258.685	236.88
258.918	223.88
259.151	233.88
259.383	245.88
259.616	248.88
259.849	244.88
260.081	248.88
260.314	274.88
260.547	292.88
260.779	269.88
261.012	246.88
261.244	262.88
261.477	245.88
261.71	253.88
261.942	238.88
262.175	248.88
262.407	257.88
262.64	256.88
262.872	232.88
263.105	248.88
263.337	241.88
263.57	245.88
263.802	233.88
264.035	228.88
264.267	234.88
264.499	240.88
264.732	211.88
264.964	231.88
265.197	229.88
265.429	225.88
265.661	236.88
265.894	235.88
266.126	222.88
266.358	238.88
266.591	251.88
266.823	247.88
267.055	235.88
267.287	252.88
267.52	249.88
267.752	244.88
267.984	255.88
268.216	258.88
268.448	251.88
268.681	247.88
268.913	264.88
269.145	277.88
269.377	296.88
269.609	284.88
269.841	293.88
270.073	304.88
270.306	344.88
270.538	348.88
270.77	357.88
271.002	332.88
271.234	324.88
271.466	327.88
271.698	341.88
271.93	354.88
272.162	353.88
272.394	356.88
272.626	321.88
272.858	314.88
273.09	313.88
273.322	293.88
273.553	282.88
273.785	284.88
274.017	298.88
274.249	297.88
274.481	274.88
274.713	297.88
274.945	289.88
275.176	288.88
275.408	295.88
275.64	294.88
275.872	289.88
276.104	305.88
276.335	284.88
276.567	304.88
276.799	330.88
277.031	331.88
277.262	362.88
277.494	355.88
277.726	335.88
277.957	333.88
278.189	315.88
278.421	312.88
278.652	306.88
278.884	304.88
279.115	292.88
279.347	295.88
279.579	288.88
279.81	297.88
280.042	300.88
280.273	292.88
280.505	298.88
280.736	286.88
280.968	308.88
281.199	308.88
281.431	307.88
281.662	298.88
281.894	292.88
282.125	305.88
282.356	335.88
282.588	361.88
282.819	354.88
283.051	326.88
283.282	313.88
283.513	280.88
283.745	327.88
283.976	308.88
284.207	330.88
284.439	319.88
284.67	294.88
284.901	305.88
285.132	310.88
285.364	305.88
285.595	322.88
285.826	293.88
286.057	311.88
286.288	309.88
286.52	309.88
286.751	324.88
286.982	329.88
287.213	325.88
287.444	322.88
287.675	320.88
287.906	320.88
288.138	333.88
288.369	320.88
288.6	334.88
288.831	318.88
289.062	327.88
289.293	336.88
289.524	327.88
289.755	305.88
289.986	326.88
290.217	318.88
290.448	301.88
290.679	333.88
290.91	335.88
291.141	315.88
291.371	316.88
291.602	332.88
291.833	323.88
292.064	313.88
292.295	313.88
292.526	317.88
292.757	333.88
292.987	312.88
293.218	319.88
293.449	322.88
293.68	337.88
293.91	334.88
294.141	324.88
294.372	333.88
294.603	322.88
294.833	340.88
295.064	332.88
295.295	334.88
295.525	324.88
295.756	334.88
295.987	349.88
296.217	365.88
296.448	386.88
296.679	342.88
296.909	361.88
297.14	338.88
297.37	328.88
297.601	352.88
297.831	336.88
298.062	348.88
298.292	341.88
298.523	340.88
298.753	347.88
298.984	356.88
299.214	348.88
299.445	340.88
299.675	360.88
299.905	360.88
300.136	350.88
300.366	351.88
300.597	353.88
300.827	355.88
301.057	352.88
301.288	364.88
301.518	363.88
301.748	363.88
301.979	360.88
302.209	378.88
302.439	378.88
302.669	362.88
302.9	370.88
303.13	350.88
303.36	374.88
303.59	358.88
303.82	394.88
304.051	364.88
304.281	379.88
304.511	378.88
304.741	375.88
304.971	359.88
305.201	347.88
305.431	354.88
305.661	385.88
305.891	386.88
306.121	389.88
306.352	379.88
306.582	359.88
306.812	379.88
307.042	374.88
307.272	389.88
307.502	390.88
307.731	385.88
307.961	373.88
308.191	382.88
308.421	380.88
308.651	385.88
308.881	364.88
309.111	405.88
309.341	388.88
309.571	400.88
309.8	402.88
310.03	421.88
310.26	430.88
310.49	434.88
310.72	426.88
310.949	458.88
311.179	453.88
311.409	448.88
311.639	439.88
311.868	434.88
312.098	432.88
312.328	456.88
312.557	448.88
312.787	470.88
313.017	464.88
313.246	450.88
313.476	444.88
313.706	446.88
313.935	430.88
314.165	469.88
314.394	446.88
314.624	444.88
314.853	440.88
315.083	433.88
315.312	430.88
315.542	423.88
315.771	428.88
316.001	432.88
316.23	422.88
316.46	406.88
316.689	438.88
316.919	427.88
317.148	442.88
317.377	454.88
317.607	441.88
317.836	430.88
318.065	430.88
318.295	420.88
318.524	423.88
318.753	412.88
318.983	418.88
319.212	431.88
319.441	437.88
319.67	464.88
319.9	451.88
320.129	446.88
320.358	416.88
320.587	435.88
320.816	456.88
321.046	456.88
321.275	454.88
321.504	444.88
321.733	449.88
321.962	466.88
322.191	498.88
322.42	486.88
322.649	523.88
322.878	523.88
323.108	541.88
323.337	556.88
323.566	555.88
323.795	609.88
324.024	706.88
324.253	803.88
324.482	1210.88
324.71	1830.88
324.939	2786.88
325.168	2405.88
325.397	1206.88
325.626	786.88
325.855	662.88
326.084	611.88
326.313	590.88
326.542	597.88
326.77	630.88
326.999	754.88
327.228	1068.88
327.457	1666.88
327.686	2088.88
327.914	1340.88
328.143	834.88
328.372	708.88
328.6	702.88
328.829	665.88
329.058	678.88
329.287	696.88
329.515	662.88
329.744	602.88
329.972	569.88
330.201	588.88
330.43	632.88
330.658	661.88
330.887	701.88
331.115	675.88
331.344	601.88
331.572	577.88
331.801	570.88
332.03	563.88
332.258	563.88
332.486	539.88
332.715	544.88
332.943	513.88
333.172	527.88
333.4	527.88
333.629	534.88
333.857	553.88
334.085	550.88
334.314	554.88
334.542	560.88
334.771	575.88
334.999	558.88
335.227	533.88
335.455	537.88
335.684	541.88
335.912	534.88
336.14	526.88
336.369	532.88
336.597	519.88
336.825	537.88
337.053	492.88
337.281	522.88
337.51	507.88
337.738	516.88
337.966	512.88
338.194	517.88
338.422	523.88
338.65	512.88
338.878	522.88
339.106	504.88
339.334	508.88
339.562	485.88
339.79	486.88
340.018	485.88
340.246	489.88
340.474	505.88
340.702	506.88
340.93	496.88
341.158	495.88
341.386	514.88
341.614	509.88
341.842	508.88
342.07	478.88
342.298	496.88
342.526	499.88
342.754	477.88
342.981	476.88
343.209	476.88
343.437	476.88
343.665	502.88
343.893	509.88
344.12	508.88
344.348	526.88
344.576	528.88
344.804	502.88
345.031	520.88
345.259	543.88
345.487	536.88
345.714	508.88
345.942	504.88
346.17	476.88
346.397	473.88
346.625	483.88
346.853	483.88
347.08	501.88
347.308	510.88
347.535	501.88
347.763	484.88
347.99	471.88
348.218	508.88
348.445	506.88
348.673	496.88
348.9	502.88
349.128	485.88
349.355	491.88
349.583	455.88
349.81	482.88
350.037	461.88
350.265	468.88
350.492	482.88
350.72	459.88
350.947	472.88
351.174	499.88
351.402	501.88
351.629	497.88
351.856	492.88
352.083	485.88
352.311	487.88
352.538	510.88
352.765	503.88
352.992	500.88
353.22	480.88
353.447	512.88
353.674	483.88
353.901	457.88
354.128	466.88
354.355	463.88
354.583	474.88
354.81	465.88
355.037	448.88
355.264	455.88
355.491	450.88
355.718	456.88
355.945	455.88
356.172	472.88
356.399	473.88
356.626	460.88
356.853	464.88
357.08	472.88
357.307	446.88
357.534	442.88
357.761	458.88
357.988	445.88
358.215	442.88
358.441	448.88
358.668	439.88
358.895	457.88
359.122	470.88
359.349	478.88
359.576	474.88
359.802	512.88
360.029	533.88
360.256	569.88
360.483	560.88
360.709	481.88
360.936	490.88
361.163	483.88
361.39	494.88
361.616	450.88
361.843	496.88
362.07	497.88
362.296	507.88
362.523	499.88
362.749	497.88
362.976	500.88
363.203	494.88
363.429	477.88
363.656	470.88
363.882	493.88
364.109	456.88
364.335	474.88
364.562	477.88
364.788	483.88
365.015	461.88
365.241	502.88
365.468	472.88
365.694	486.88
365.92	476.88
366.147	468.88
366.373	448.88
366.599	457.88
366.826	459.88
367.052	466.88
367.278	450.88
367.505	478.88
367.731	460.88
367.957	477.88
368.184	473.88
368.41	477.88
368.636	477.88
368.862	476.88
369.089	479.88
369.315	461.88
369.541	444.88
369.767	460.88
369.993	480.88
370.219	476.88
370.445	478.88
370.672	465.88
370.898	468.88
371.124	469.88
371.35	454.88
371.576	473.88
371.802	477.88
372.028	464.88
372.254	480.88
372.48	445.88
372.706	473.88
372.932	459.88
373.158	486.88
373.384	492.88
373.61	459.88
373.835	478.88
374.061	489.88
374.287	471.88
374.513	462.88
374.739	476.88
374.965	479.88
375.191	486.88
375.416	466.88
375.642	470.88
375.868	486.88
376.094	474.88
376.319	475.88
376.545	463.88
376.771	467.88
376.997	473.88
377.222	487.88
377.448	462.88
377.674	482.88
377.899	496.88
378.125	462.88
378.35	468.88
378.576	483.88
378.802	478.88
379.027	456.88
379.253	452.88
379.478	458.88
379.704	464.88
379.929	457.88
380.155	453.88
380.38	466.88
380.606	480.88
380.831	481.88
381.057	490.88
381.282	461.88
381.507	482.88
381.733	480.88
381.958	477.88
382.184	461.88
382.409	477.88
382.634	502.88
382.86	489.88
383.085	492.88
383.31	502.88
383.535	502.88
383.761	516.88
383.986	507.88
384.211	498.88
384.436	479.88
384.662	488.88
384.887	516.88
385.112	492.88
385.337	502.88
385.562	499.88
385.787	521.88
386.013	551.88
386.238	530.88
386.463	527.88
386.688	528.88
386.913	519.88
387.138	518.88
387.363	515.88
387.588	524.88
387.813	533.88
388.038	534.88
388.263	532.88
388.488	518.88
388.713	540.88
388.938	517.88
389.163	525.88
389.387	540.88
389.612	519.88
389.837	538.88
390.062	537.88
390.287	521.88
390.512	516.88
390.736	544.88
390.961	526.88
391.186	518.88
391.411	547.88
391.636	527.88
391.86	548.88
392.085	569.88
392.31	580.88
392.534	550.88
392.759	538.88
392.984	569.88
393.208	536.88
393.433	562.88
393.658	528.88
393.882	533.88
394.107	534.88
394.331	545.88
394.556	536.88
394.78	524.88
395.005	537.88
395.229	526.88
395.454	542.88
395.678	563.88
395.903	564.88
396.127	566.88
396.352	583.88
396.576	564.88
396.801	550.88
397.025	540.88
397.249	570.88
397.474	548.88
397.698	555.88
397.922	597.88
398.147	620.88
398.371	621.88
398.595	608.88
398.82	604.88
399.044	641.88
399.268	635.88
399.492	682.88
399.717	698.88
399.941	747.88
400.165	771.88
400.389	773.88
400.613	692.88
400.837	669.88
401.062	629.88
401.286	628.88
401.51	610.88
401.734	593.88
401.958	617.88
402.182	617.88
402.406	635.88
402.63	615.88
402.854	604.88
403.078	627.88
403.302	629.88
403.526	647.88
403.75	640.88
403.974	634.88
404.198	653.88
404.422	636.88
404.645	662.88
404.869	655.88
405.093	678.88
405.317	695.88
405.541	753.88
405.765	699.88
405.988	698.88
406.212	683.88
406.436	700.88
406.66	724.88
406.883	714.88
407.107	731.88
407.331	797.88
407.555	852.88
407.778	811.88
408.002	787.88
408.226	741.88
408.449	723.88
408.673	722.88
408.896	733.88
409.12	793.88
409.344	747.88
409.567	683.88
409.791	637.88
410.014	657.88
410.238	626.88
410.461	661.88
410.685	668.88
410.908	651.88
411.132	707.88
411.355	755.88
411.578	744.88
411.802	669.88
412.025	653.88
412.249	645.88
412.472	667.88
412.695	710.88
412.919	690.88
413.142	640.88
413.365	602.88
413.589	637.88
413.812	623.88
414.035	598.88
414.258	572.88
414.482	602.88
414.705	626.88
414.928	606.88
415.151	595.88
415.374	572.88
415.597	609.88
415.821	606.88
416.044	628.88
416.267	605.88
416.49	593.88
416.713	614.88
416.936	602.88
417.159	590.88
417.382	617.88
417.605	604.88
417.828	610.88
418.051	615.88
418.274	632.88
418.497	610.88
418.72	615.88
418.943	591.88
419.166	623.88
419.389	651.88
419.611	641.88
419.834	614.88
420.057	646.88
420.28	617.88
420.503	598.88
420.726	617.88
420.948	647.88
421.171	682.88
421.394	728.88
421.617	648.88
421.839	638.88
422.062	648.88
422.285	657.88
422.507	709.88
422.73	817.88
422.953	766.88
423.175	714.88
423.398	673.88
423.621	675.88
423.843	678.88
424.066	682.88
424.288	689.88
424.511	705.88
424.733	776.88
424.956	849.88
425.178	854.88
425.401	850.88
425.623	867.88
425.846	729.88
426.068	667.88
426.291	656.88
426.513	668.88
426.735	673.88
426.958	740.88
427.18	838.88
427.402	997.88
427.625	1133.88
427.847	968.88
428.069	814.88
428.292	716.88
428.514	689.88
428.736	636.88
428.958	629.88
429.181	625.88
429.403	624.88
429.625	622.88
429.847	706.88
430.069	780.88
430.292	756.88
430.514	648.88
430.736	633.88
430.958	618.88
431.18	612.88
431.402	595.88
431.624	588.88
431.846	584.88
432.068	589.88
432.29	596.88
432.512	582.88
432.734	606.88
432.956	598.88
433.178	608.88
433.4	612.88
433.622	612.88
433.844	613.88
434.066	583.88
434.287	565.88
434.509	579.88
434.731	596.88
434.953	609.88
435.175	640.88
435.397	696.88
435.618	708.88
435.84	739.88
436.062	833.88
436.284	953.88
436.505	795.88
436.727	712.88
436.949	668.88
437.17	625.88
437.392	642.88
437.614	685.88
437.835	692.88
438.057	822.88
438.278	938.88
438.5	919.88
438.721	1031.88
438.943	973.88
439.165	773.88
439.386	691.88
439.608	680.88
439.829	682.88
440.05	717.88
440.272	781.88
440.493	747.88
440.715	664.88
440.936	650.88
441.158	655.88
441.379	636.88
441.6	649.88
441.822	696.88
442.043	746.88
442.264	838.88
442.486	869.88
442.707	772.88
442.928	688.88
443.149	705.88
443.371	725.88
443.592	797.88
443.813	888.88
444.034	971.88
444.255	796.88
444.476	721.88
444.698	718.88
444.919	713.88
445.14	816.88
445.361	750.88
445.582	740.88
445.803	811.88
446.024	976.88
446.245	969.88
446.466	868.88
446.687	734.88
446.908	708.88
447.129	658.88
447.35	635.88
447.571	629.88
447.792	604.88
448.013	622.88
448.234	649.88
448.455	718.88
448.675	868.88
448.896	993.88
449.117	857.88
449.338	784.88
449.559	931.88
449.779	1078.88
450	850.88
450.221	712.88
450.442	636.88
450.662	621.88
450.883	634.88
451.104	656.88
451.324	642.88
451.545	603.88
451.766	608.88
451.986	568.88
452.207	546.88
452.428	574.88
452.648	556.88
452.869	548.88
453.089	562.88
453.31	580.88
453.53	575.88
453.751	574.88
453.971	569.88
454.192	566.88
454.412	570.88
454.633	558.88
454.853	570.88
455.073	556.88
455.294	604.88
455.514	676.88
455.734	668.88
455.955	565.88
456.175	561.88
456.395	537.88
456.616	526.88
456.836	529.88
457.056	537.88
457.276	487.88
457.497	528.88
457.717	546.88
457.937	544.88
458.157	536.88
458.377	562.88
458.598	594.88
458.818	638.88
459.038	745.88
459.258	766.88
459.478	641.88
459.698	582.88
459.918	583.88
460.138	609.88
460.358	605.88
460.578	594.88
460.798	600.88
461.018	621.88
461.238	584.88
461.458	612.88
461.678	605.88
461.898	658.88
462.118	632.88
462.338	627.88
462.558	634.88
462.777	645.88
462.997	656.88
463.217	666.88
463.437	671.88
463.657	655.88
463.876	639.88
464.096	644.88
464.316	633.88
464.536	662.88
464.755	646.88
464.975	657.88
465.195	706.88
465.414	776.88
465.634	707.88
465.854	668.88
466.073	620.88
466.293	599.88
466.512	585.88
466.732	588.88
466.951	578.88
467.171	587.88
467.391	579.88
467.61	579.88
467.829	601.88
468.049	593.88
468.268	590.88
468.488	583.88
468.707	560.88
468.927	556.88
469.146	548.88
469.365	544.88
469.585	563.88
469.804	565.88
470.023	577.88
470.243	573.88
470.462	597.88
470.681	612.88
470.901	587.88
471.12	587.88
471.339	577.88
471.558	604.88
471.777	608.88
471.997	571.88
472.216	576.88
472.435	596.88
472.654	590.88
472.873	564.88
473.092	570.88
473.311	562.88
473.53	570.88
473.749	606.88
473.968	652.88
474.187	774.88
474.406	806.88
474.625	692.88
474.844	599.88
475.063	600.88
475.282	600.88
475.501	593.88
475.72	620.88
475.939	600.88
476.158	633.88
476.377	610.88
476.596	588.88
476.814	597.88
477.033	617.88
477.252	653.88
477.471	620.88
477.69	639.88
477.908	649.88
478.127	626.88
478.346	633.88
478.564	658.88
478.783	657.88
479.002	659.88
479.22	665.88
479.439	674.88
479.658	709.88
479.876	697.88
480.095	738.88
480.313	773.88
480.532	744.88
480.751	727.88
480.969	692.88
481.188	740.88
481.406	774.88
481.624	714.88
481.843	719.88
482.061	709.88
482.28	706.88
482.498	690.88
482.717	677.88
482.935	697.88
483.153	694.88
483.372	685.88
483.59	686.88
483.808	693.88
484.027	696.88
484.245	702.88
484.463	697.88
484.681	705.88
484.9	708.88
485.118	722.88
485.336	710.88
485.554	699.88
485.772	719.88
485.99	713.88
486.209	731.88
486.427	706.88
486.645	741.88
486.863	739.88
487.081	776.88
487.299	724.88
487.517	741.88
487.735	752.88
487.953	732.88
488.171	729.88
488.389	757.88
488.607	741.88
488.825	746.88
489.043	732.88
489.261	746.88
489.479	756.88
489.696	745.88
489.914	764.88
490.132	768.88
490.35	769.88
490.568	789.88
490.786	805.88
491.003	789.88
491.221	802.88
491.439	829.88
491.657	853.88
491.874	830.88
492.092	825.88
492.31	856.88
492.527	861.88
492.745	857.88
492.963	844.88
493.18	866.88
493.398	895.88
493.615	898.88
493.833	892.88
494.05	902.88
494.268	864.88
494.485	885.88
494.703	863.88
494.92	896.88
495.138	868.88
495.355	870.88
495.573	893.88
495.79	884.88
496.008	892.88
496.225	881.88
496.442	874.88
496.66	908.88
496.877	884.88
497.094	888.88
497.312	885.88
497.529	910.88
497.746	933.88
497.963	932.88
498.181	977.88
498.398	991.88
498.615	1024.88
498.832	1028.88
499.049	1033.88
499.267	1078.88
499.484	1088.88
499.701	1101.88
499.918	1139.88
500.135	1226.88
500.352	1257.88
500.569	1304.88
500.786	1281.88
501.003	1269.88
501.22	1254.88
501.437	1190.88
501.654	1178.88
501.871	1146.88
502.088	1116.88
502.305	1052.88
502.522	985.88
502.739	1013.88
502.956	992.88
503.172	1000.88
503.389	962.88
503.606	954.88
503.823	956.88
504.04	902.88
504.256	891.88
504.473	880.88
504.69	890.88
504.907	893.88
505.123	897.88
505.34	870.88
505.557	849.88
505.773	863.88
505.99	856.88
506.207	869.88
506.423	851.88
506.64	850.88
506.856	815.88
507.073	840.88
507.289	818.88
507.506	820.88
507.722	813.88
507.939	851.88
508.155	829.88
508.372	817.88
508.588	773.88
508.805	803.88
509.021	801.88
509.238	828.88
509.454	810.88
509.67	821.88
509.887	816.88
510.103	811.88
510.319	821.88
510.536	932.88
510.752	1457.88
510.968	1232.88
511.184	831.88
511.401	780.88
511.617	779.88
511.833	756.88
512.049	766.88
512.265	767.88
512.481	741.88
512.698	716.88
512.914	734.88
513.13	759.88
513.346	763.88
513.562	776.88
513.778	744.88
513.994	790.88
514.21	789.88
514.426	808.88
514.642	852.88
514.858	914.88
515.074	936.88
515.29	1102.88
515.506	1550.88
515.721	1313.88
515.937	941.88
516.153	872.88
516.369	824.88
516.585	817.88
516.801	811.88
517.016	793.88
517.232	807.88
517.448	804.88
517.664	807.88
517.879	805.88
518.095	822.88
518.311	816.88
518.527	802.88
518.742	821.88
518.958	780.88
519.173	781.88
519.389	772.88
519.605	770.88
519.82	765.88
520.036	806.88
520.251	811.88
520.467	843.88
520.682	818.88
520.898	853.88
521.113	874.88
521.329	907.88
521.544	980.88
521.76	1235.88
521.975	2038.88
522.19	2005.88
522.406	1109.88
522.621	888.88
522.836	824.88
523.052	770.88
523.267	733.88
523.482	733.88
523.698	710.88
523.913	675.88
524.128	705.88
524.343	688.88
524.559	660.88
524.774	671.88
524.989	689.88
525.204	676.88
525.419	656.88
525.634	660.88
525.849	671.88
526.064	636.88
526.28	644.88
526.495	638.88
526.71	648.88
526.925	638.88
527.14	632.88
527.355	658.88
527.57	613.88
527.785	632.88
527.999	599.88
528.214	653.88
528.429	627.88
528.644	614.88
528.859	638.88
529.074	638.88
529.289	653.88
529.503	757.88
529.718	716.88
529.933	676.88
530.148	642.88
530.363	628.88
530.577	626.88
530.792	618.88
531.007	594.88
531.221	604.88
531.436	608.88
531.651	625.88
531.865	584.88
532.08	600.88
532.295	597.88
532.509	605.88
532.724	620.88
532.938	625.88
533.153	626.88
533.367	585.88
533.582	584.88
533.796	583.88
534.011	612.88
534.225	580.88
534.44	592.88
534.654	563.88
534.868	582.88
535.083	587.88
535.297	587.88
535.511	612.88
535.726	633.88
535.94	610.88
536.154	576.88
536.369	592.88
536.583	586.88
536.797	581.88
537.011	579.88
537.225	569.88
537.44	574.88
537.654	600.88
537.868	564.88
538.082	568.88
538.296	565.88
538.51	577.88
538.724	577.88
538.938	566.88
539.153	574.88
539.367	599.88
539.581	581.88
539.795	577.88
540.009	560.88
540.222	563.88
540.436	561.88
540.65	574.88
540.864	554.88
541.078	576.88
541.292	586.88
541.506	567.88
541.72	590.88
541.934	556.88
542.147	567.88
542.361	545.88
542.575	552.88
542.789	564.88
543.002	550.88
543.216	579.88
543.43	557.88
543.644	586.88
543.857	570.88
544.071	539.88
544.285	564.88
544.498	560.88
544.712	546.88
544.925	573.88
545.139	546.88
545.352	551.88
545.566	571.88
545.779	555.88
545.993	546.88
546.206	567.88
546.42	552.88
546.633	564.88
546.847	562.88
547.06	534.88
547.274	537.88
547.487	521.88
547.7	545.88
547.914	542.88
548.127	536.88
548.34	546.88
548.554	546.88
548.767	548.88
548.98	530.88
549.193	532.88
549.407	538.88
549.62	538.88
549.833	542.88
550.046	537.88
550.259	531.88
550.473	528.88
550.686	536.88
550.899	539.88
551.112	533.88
551.325	526.88
551.538	526.88
551.751	534.88
551.964	532.88
552.177	540.88
552.39	542.88
552.603	519.88
552.816	547.88
553.029	530.88
553.242	553.88
553.455	578.88
553.667	564.88
553.88	570.88
554.093	554.88
554.306	541.88
554.519	546.88
554.732	538.88
554.944	509.88
555.157	524.88
555.37	507.88
555.583	523.88
555.795	510.88
556.008	526.88
556.221	492.88
556.433	486.88
556.646	503.88
556.859	469.88
557.071	486.88
557.284	490.88
557.496	475.88
557.709	492.88
557.921	476.88
558.134	470.88
558.346	490.88
558.559	480.88
558.771	472.88
558.984	462.88
559.196	482.88
559.409	470.88
559.621	481.88
559.833	464.88
560.046	469.88
560.258	473.88
560.47	460.88
560.683	475.88
560.895	476.88
561.107	467.88
561.32	468.88
561.532	479.88
561.744	469.88
561.956	484.88
562.168	487.88
562.381	481.88
562.593	497.88
562.805	496.88
563.017	477.88
563.229	503.88
563.441	486.88
563.653	491.88
563.865	484.88
564.077	481.88
564.289	520.88
564.501	491.88
564.713	518.88
564.925	512.88
565.137	520.88
565.349	524.88
565.561	516.88
565.773	513.88
565.985	527.88
566.197	536.88
566.408	553.88
566.62	549.88
566.832	553.88
567.044	595.88
567.255	600.88
567.467	605.88
567.679	621.88
567.891	627.88
568.102	615.88
568.314	570.88
568.526	582.88
568.737	580.88
568.949	553.88
569.161	518.88
569.372	522.88
569.584	514.88
569.795	497.88
570.007	491.88
570.218	532.88
570.43	544.88
570.641	482.88
570.853	491.88
571.064	468.88
571.276	474.88
571.487	483.88
571.698	448.88
571.91	445.88
572.121	440.88
572.333	438.88
572.544	460.88
572.755	433.88
572.966	441.88
573.178	420.88
573.389	436.88
573.6	429.88
573.811	409.88
574.023	429.88
574.234	416.88
574.445	408.88
574.656	402.88
574.867	414.88
575.078	427.88
575.289	430.88
575.501	425.88
575.712	413.88
575.923	397.88
576.134	398.88
576.345	402.88
576.556	421.88
576.767	404.88
576.978	398.88
577.188	400.88
577.399	382.88
577.61	412.88
577.821	405.88
578.032	416.88
578.243	434.88
578.454	667.88
578.665	505.88
578.875	414.88
579.086	394.88
579.297	389.88
579.508	397.88
579.718	383.88
579.929	385.88
580.14	388.88
580.35	382.88
580.561	379.88
580.772	377.88
580.982	370.88
581.193	372.88
581.403	376.88
581.614	375.88
581.825	368.88
582.035	375.88
582.246	357.88
582.456	384.88
582.667	376.88
582.877	370.88
583.087	371.88
583.298	370.88
583.508	375.88
583.719	344.88
583.929	377.88
584.139	374.88
584.35	340.88
584.56	374.88
584.77	358.88
584.981	371.88
585.191	361.88
585.401	355.88
585.611	342.88
585.821	370.88
586.032	360.88
586.242	360.88
586.452	365.88
586.662	364.88
586.872	373.88
587.082	377.88
587.292	382.88
587.502	336.88
587.713	360.88
587.923	346.88
588.133	365.88
588.343	358.88
588.553	345.88
588.762	356.88
588.972	373.88
589.182	347.88
589.392	347.88
589.602	361.88
589.812	349.88
590.022	359.88
590.232	344.88
590.441	349.88
590.651	351.88
590.861	357.88
591.071	356.88
591.281	363.88
591.49	363.88
591.7	354.88
591.91	380.88
592.119	396.88
592.329	364.88
592.539	364.88
592.748	374.88
592.958	384.88
593.167	387.88
593.377	383.88
593.587	380.88
593.796	383.88
594.006	384.88
594.215	371.88
594.424	377.88
594.634	374.88
594.843	377.88
595.053	357.88
595.262	359.88
595.472	354.88
595.681	348.88
595.89	345.88
596.1	347.88
596.309	349.88
596.518	341.88
596.727	320.88
596.937	332.88
597.146	339.88
597.355	337.88
597.564	324.88
597.774	322.88
597.983	323.88
598.192	320.88
598.401	331.88
598.61	333.88
598.819	325.88
599.028	314.88
599.237	320.88
599.446	307.88
599.655	307.88
599.864	311.88
600.073	308.88
600.282	328.88
600.491	315.88
600.7	317.88
600.909	333.88
601.118	310.88
601.327	301.88
601.536	292.88
601.745	295.88
601.953	296.88
602.162	310.88
602.371	297.88
602.58	301.88
602.789	301.88
602.997	309.88
603.206	300.88
603.415	285.88
603.623	288.88
603.832	282.88
604.041	288.88
604.249	281.88
604.458	298.88
604.666	277.88
604.875	284.88
605.084	312.88
605.292	299.88
605.501	298.88
605.709	298.88
605.918	288.88
606.126	302.88
606.334	306.88
606.543	291.88
606.751	298.88
606.96	293.88
607.168	270.88
607.376	283.88
607.585	285.88
607.793	301.88
608.001	277.88
608.21	292.88
608.418	293.88
608.626	297.88
608.834	287.88
609.043	292.88
609.251	285.88
609.459	278.88
609.667	299.88
609.875	294.88
610.083	282.88
610.291	291.88
610.499	288.88
610.707	275.88
610.916	276.88
611.124	273.88
611.332	283.88
611.54	281.88
611.748	294.88
611.955	292.88
612.163	276.88
612.371	284.88
612.579	291.88
612.787	290.88
612.995	271.88
613.203	274.88
613.411	285.88
613.618	272.88
613.826	295.88
614.034	276.88
614.242	291.88
614.449	274.88
614.657	286.88
614.865	300.88
615.072	286.88
615.28	280.88
615.488	285.88
615.695	284.88
615.903	280.88
616.111	285.88
616.318	275.88
616.526	265.88
616.733	278.88
616.941	275.88
617.148	285.88
617.356	285.88
617.563	270.88
617.771	269.88
617.978	282.88
618.185	248.88
618.393	257.88
618.6	272.88
618.807	252.88
619.015	274.88
619.222	269.88
619.429	270.88
619.637	241.88
619.844	261.88
620.051	267.88
620.258	251.88
620.466	247.88
620.673	253.88
620.88	264.88
621.087	256.88
621.294	240.88
621.501	256.88
621.708	261.88
621.915	238.88
622.122	262.88
622.329	243.88
622.536	252.88
622.743	260.88
622.95	248.88
623.157	260.88
623.364	258.88
623.571	241.88
623.778	252.88
623.985	247.88
624.192	220.88
624.399	243.88
624.606	258.88
624.812	243.88
625.019	246.88
625.226	228.88
625.433	246.88
625.639	219.88
625.846	240.88
626.053	232.88
626.259	244.88
626.466	247.88
626.673	242.88
626.879	256.88
627.086	252.88
627.293	230.88
627.499	250.88
627.706	233.88
627.912	227.88
628.119	241.88
628.325	241.88
628.532	225.88
628.738	240.88
628.945	240.88
629.151	240.88
629.357	228.88
629.564	221.88
629.77	231.88
629.976	235.88
630.183	208.88
630.389	212.88
630.595	226.88
630.802	244.88
631.008	226.88
631.214	222.88
631.42	210.88
631.627	229.88
631.833	205.88
632.039	200.88
632.245	214.88
632.451	229.88
632.657	225.88
632.863	207.88
633.069	211.88
633.275	206.88
633.481	206.88
633.688	220.88
633.893	221.88
634.099	226.88
634.305	211.88
634.511	205.88
634.717	211.88
634.923	203.88
635.129	203.88
635.335	217.88
635.541	202.88
635.747	204.88
635.952	221.88
636.158	202.88
636.364	206.88
636.57	197.88
636.775	201.88
636.981	208.88
637.187	212.88
637.392	209.88
637.598	205.88
637.804	208.88
638.009	185.88
638.215	210.88
638.421	195.88
638.626	186.88
638.832	199.88
639.037	202.88
639.243	181.88
639.448	192.88
639.654	202.88
639.859	195.88
640.065	193.88
640.27	218.88
640.475	181.88
640.681	208.88
640.886	200.88
641.091	194.88
641.297	203.88
641.502	196.88
641.707	206.88
641.913	201.88
642.118	202.88
642.323	195.88
642.528	184.88
642.733	191.88
642.939	189.88
643.144	170.88
643.349	206.88
643.554	198.88
643.759	177.88
643.964	190.88
644.169	187.88
644.374	189.88
644.579	172.88
644.784	184.88
644.989	198.88
645.194	201.88
645.399	181.88
645.604	179.88
645.809	172.88
646.014	182.88
646.219	188.88
646.423	190.88
646.628	189.88
646.833	190.88
647.038	177.88
647.243	185.88
647.447	189.88
647.652	197.88
647.857	192.88
648.062	187.88
648.266	194.88
648.471	184.88
648.676	185.88
648.88	181.88
649.085	204.88
649.289	181.88
649.494	186.88
649.698	209.88
649.903	201.88
650.107	188.88
650.312	200.88
650.516	195.88
650.721	163.88
650.925	153.88
651.13	181.88
651.334	172.88
651.539	156.88
651.743	161.88
651.947	157.88
652.152	150.88
652.356	160.88
652.56	163.88
652.764	153.88
652.969	156.88
653.173	176.88
653.377	171.88
653.581	161.88
653.785	141.88
653.99	149.88
654.194	137.88
654.398	150.88
654.602	136.88
654.806	142.88
655.01	154.88
655.214	160.88
655.418	150.88
655.622	159.88
655.826	144.88
656.03	140.88
656.234	137.88
656.438	141.88
656.642	136.88
656.846	141.88
657.049	143.88
657.253	143.88
657.457	140.88
657.661	108.88
657.865	124.88
658.068	115.88
658.272	128.88
658.476	114.88
658.68	101.88
658.883	112.88
659.087	114.88
659.291	104.88
659.494	117.88
659.698	105.88
659.901	99.88
660.105	105.88
660.309	93.88
660.512	97.88
660.716	92.88
660.919	93.88
661.123	85.88
661.326	95.88
661.53	96.88
661.733	95.88
661.936	93.88
662.14	89.88
662.343	78.88
662.546	89.88
662.75	89.88
662.953	84.88
663.156	88.88
663.36	85.88
663.563	86.88
663.766	79.88
663.969	100.88
664.173	75.88
664.376	77.88
664.579	78.88
664.782	72.88
664.985	72.88
665.188	87.88
665.391	85.88
665.594	75.88
665.797	89.88
666	72.88
666.203	80.88
666.406	89.88
666.609	96.88
666.812	92.88
667.015	96.88
667.218	83.88
667.421	96.88
667.624	99.88
667.827	83.88
668.03	81.88
668.232	82.88
668.435	74.88
668.638	85.88
668.841	82.88
669.043	89.88
669.246	98.88
669.449	91.88
669.651	91.88
669.854	88.88
670.057	81.88
670.259	82.88
670.462	78.88
670.665	80.88
670.867	71.88
671.07	64.88
671.272	73.88
671.475	74.88
671.677	86.88
671.88	82.88
672.082	68.88
672.284	88.88
672.487	83.88
672.689	82.88
672.892	77.88
