Data from 1988.PennyLincolnUp.Lamp.En5.5.200Scan.071819.P2_HRD10591_17-18-53-972.txt Node
Date: Thu Jul 18 17:18:53 EDT 2019
User: cochatt
Spectrometer: HR+D1059
Trigger mode: 1
Integration Time (sec): 1.000000E-1
Scans to average: 1
Electric dark correction enabled: true
Nonlinearity correction enabled: false
Boxcar width: 0
XAxis mode: Wavelengths
Number of Pixels in Spectrum: 2048
>>>>>Begin Spectral Data<<<<<
223.165	-22.19
223.4	-22.19
223.635	-22.19
223.869	-19.19
224.104	-24.19
224.338	-14.19
224.573	-2.19
224.808	-4.19
225.042	-5.19
225.277	12.81
225.511	-7.19
225.746	-5.19
225.98	17.81
226.215	10.81
226.449	10.81
226.683	12.81
226.918	18.81
227.152	19.81
227.387	28.81
227.621	38.81
227.856	33.81
228.09	50.81
228.324	53.81
228.559	67.81
228.793	76.81
229.027	102.81
229.262	105.81
229.496	111.81
229.73	130.81
229.964	154.81
230.199	137.81
230.433	107.81
230.667	108.81
230.901	102.81
231.136	107.81
231.37	112.81
231.604	108.81
231.838	109.81
232.072	117.81
232.306	103.81
232.541	116.81
232.775	107.81
233.009	111.81
233.243	114.81
233.477	110.81
233.711	133.81
233.945	109.81
234.179	113.81
234.413	118.81
234.647	103.81
234.881	124.81
235.115	115.81
235.349	131.81
235.583	108.81
235.817	121.81
236.051	129.81
236.285	130.81
236.519	142.81
236.753	143.81
236.987	154.81
237.221	172.81
237.455	216.81
237.689	193.81
237.922	141.81
238.156	137.81
238.39	140.81
238.624	126.81
238.858	115.81
239.091	136.81
239.325	123.81
239.559	121.81
239.793	121.81
240.027	144.81
240.26	154.81
240.494	146.81
240.728	134.81
240.961	160.81
241.195	141.81
241.429	141.81
241.662	138.81
241.896	146.81
242.13	151.81
242.363	120.81
242.597	127.81
242.83	135.81
243.064	137.81
243.298	139.81
243.531	142.81
243.765	135.81
243.998	139.81
244.232	147.81
244.465	135.81
244.699	136.81
244.932	146.81
245.166	154.81
245.399	158.81
245.633	152.81
245.866	157.81
246.099	166.81
246.333	165.81
246.566	137.81
246.8	147.81
247.033	157.81
247.266	159.81
247.5	172.81
247.733	179.81
247.966	164.81
248.2	179.81
248.433	167.81
248.666	177.81
248.899	171.81
249.133	201.81
249.366	184.81
249.599	199.81
249.832	168.81
250.066	185.81
250.299	165.81
250.532	186.81
250.765	207.81
250.998	221.81
251.231	214.81
251.465	212.81
251.698	195.81
251.931	199.81
252.164	192.81
252.397	193.81
252.63	198.81
252.863	201.81
253.096	210.81
253.329	215.81
253.562	211.81
253.795	217.81
254.028	207.81
254.261	206.81
254.494	214.81
254.727	236.81
254.96	269.81
255.193	248.81
255.426	222.81
255.659	241.81
255.892	201.81
256.124	196.81
256.357	210.81
256.59	211.81
256.823	195.81
257.056	212.81
257.289	202.81
257.521	210.81
257.754	221.81
257.987	197.81
258.22	205.81
258.452	203.81
258.685	196.81
258.918	198.81
259.151	209.81
259.383	195.81
259.616	215.81
259.849	229.81
260.081	234.81
260.314	238.81
260.547	250.81
260.779	239.81
261.012	227.81
261.244	229.81
261.477	226.81
261.71	221.81
261.942	245.81
262.175	248.81
262.407	219.81
262.64	219.81
262.872	205.81
263.105	217.81
263.337	210.81
263.57	215.81
263.802	218.81
264.035	220.81
264.267	225.81
264.499	215.81
264.732	198.81
264.964	203.81
265.197	212.81
265.429	226.81
265.661	207.81
265.894	219.81
266.126	223.81
266.358	236.81
266.591	219.81
266.823	230.81
267.055	229.81
267.287	236.81
267.52	223.81
267.752	210.81
267.984	231.81
268.216	225.81
268.448	227.81
268.681	237.81
268.913	234.81
269.145	238.81
269.377	279.81
269.609	273.81
269.841	263.81
270.073	263.81
270.306	273.81
270.538	279.81
270.77	309.81
271.002	298.81
271.234	280.81
271.466	281.81
271.698	296.81
271.93	294.81
272.162	291.81
272.394	317.81
272.626	287.81
272.858	277.81
273.09	269.81
273.322	263.81
273.553	273.81
273.785	267.81
274.017	249.81
274.249	267.81
274.481	262.81
274.713	267.81
274.945	280.81
275.176	268.81
275.408	265.81
275.64	267.81
275.872	281.81
276.104	280.81
276.335	281.81
276.567	270.81
276.799	277.81
277.031	293.81
277.262	320.81
277.494	325.81
277.726	284.81
277.957	283.81
278.189	272.81
278.421	267.81
278.652	281.81
278.884	253.81
279.115	269.81
279.347	269.81
279.579	271.81
279.81	264.81
280.042	260.81
280.273	259.81
280.505	282.81
280.736	267.81
280.968	273.81
281.199	265.81
281.431	264.81
281.662	274.81
281.894	261.81
282.125	261.81
282.356	270.81
282.588	302.81
282.819	301.81
283.051	262.81
283.282	269.81
283.513	280.81
283.745	268.81
283.976	267.81
284.207	271.81
284.439	282.81
284.67	282.81
284.901	287.81
285.132	294.81
285.364	269.81
285.595	275.81
285.826	298.81
286.057	288.81
286.288	291.81
286.52	297.81
286.751	293.81
286.982	299.81
287.213	285.81
287.444	292.81
287.675	289.81
287.906	306.81
288.138	313.81
288.369	311.81
288.6	308.81
288.831	295.81
289.062	300.81
289.293	301.81
289.524	286.81
289.755	291.81
289.986	293.81
290.217	295.81
290.448	297.81
290.679	293.81
290.91	282.81
291.141	317.81
291.371	302.81
291.602	299.81
291.833	300.81
292.064	292.81
292.295	291.81
292.526	295.81
292.757	297.81
292.987	279.81
293.218	299.81
293.449	301.81
293.68	306.81
293.91	291.81
294.141	306.81
294.372	290.81
294.603	311.81
294.833	315.81
295.064	296.81
295.295	309.81
295.525	312.81
295.756	306.81
295.987	324.81
296.217	343.81
296.448	327.81
296.679	312.81
296.909	302.81
297.14	307.81
297.37	311.81
297.601	316.81
297.831	307.81
298.062	319.81
298.292	318.81
298.523	306.81
298.753	320.81
298.984	318.81
299.214	307.81
299.445	321.81
299.675	319.81
299.905	343.81
300.136	335.81
300.366	325.81
300.597	310.81
300.827	329.81
301.057	313.81
301.288	341.81
301.518	329.81
301.748	341.81
301.979	348.81
302.209	331.81
302.439	341.81
302.669	339.81
302.9	334.81
303.13	337.81
303.36	333.81
303.59	333.81
303.82	340.81
304.051	346.81
304.281	335.81
304.511	358.81
304.741	341.81
304.971	330.81
305.201	339.81
305.431	341.81
305.661	333.81
305.891	324.81
306.121	358.81
306.352	355.81
306.582	336.81
306.812	338.81
307.042	346.81
307.272	357.81
307.502	334.81
307.731	353.81
307.961	355.81
308.191	340.81
308.421	342.81
308.651	348.81
308.881	358.81
309.111	361.81
309.341	364.81
309.571	369.81
309.8	371.81
310.03	361.81
310.26	385.81
310.49	397.81
310.72	377.81
310.949	389.81
311.179	406.81
311.409	378.81
311.639	390.81
311.868	381.81
312.098	390.81
312.328	405.81
312.557	393.81
312.787	427.81
313.017	428.81
313.246	409.81
313.476	389.81
313.706	386.81
313.935	407.81
314.165	398.81
314.394	441.81
314.624	438.81
314.853	379.81
315.083	383.81
315.312	400.81
315.542	397.81
315.771	385.81
316.001	383.81
316.23	426.81
316.46	399.81
316.689	419.81
316.919	393.81
317.148	402.81
317.377	394.81
317.607	416.81
317.836	399.81
318.065	433.81
318.295	400.81
318.524	401.81
318.753	398.81
318.983	391.81
319.212	392.81
319.441	410.81
319.67	408.81
319.9	393.81
320.129	406.81
320.358	384.81
320.587	387.81
320.816	409.81
321.046	417.81
321.275	421.81
321.504	396.81
321.733	422.81
321.962	441.81
322.191	421.81
322.42	434.81
322.649	431.81
322.878	459.81
323.108	463.81
323.337	491.81
323.566	494.81
323.795	522.81
324.024	595.81
324.253	705.81
324.482	985.81
324.71	1500.81
324.939	2175.81
325.168	1871.81
325.397	929.81
325.626	672.81
325.855	540.81
326.084	518.81
326.313	493.81
326.542	495.81
326.77	569.81
326.999	659.81
327.228	874.81
327.457	1332.81
327.686	1583.81
327.914	1089.81
328.143	724.81
328.372	609.81
328.6	577.81
328.829	558.81
329.058	576.81
329.287	579.81
329.515	553.81
329.744	517.81
329.972	487.81
330.201	498.81
330.43	504.81
330.658	541.81
330.887	598.81
331.115	607.81
331.344	521.81
331.572	507.81
331.801	513.81
332.03	512.81
332.258	481.81
332.486	488.81
332.715	460.81
332.943	467.81
333.172	483.81
333.4	477.81
333.629	482.81
333.857	473.81
334.085	486.81
334.314	489.81
334.542	468.81
334.771	470.81
334.999	465.81
335.227	464.81
335.455	462.81
335.684	477.81
335.912	446.81
336.14	457.81
336.369	470.81
336.597	479.81
336.825	463.81
337.053	451.81
337.281	445.81
337.51	439.81
337.738	459.81
337.966	452.81
338.194	462.81
338.422	454.81
338.65	457.81
338.878	466.81
339.106	457.81
339.334	432.81
339.562	449.81
339.79	436.81
340.018	461.81
340.246	452.81
340.474	437.81
340.702	468.81
340.93	437.81
341.158	446.81
341.386	443.81
341.614	434.81
341.842	455.81
342.07	430.81
342.298	450.81
342.526	439.81
342.754	436.81
342.981	433.81
343.209	434.81
343.437	435.81
343.665	436.81
343.893	459.81
344.12	481.81
344.348	463.81
344.576	466.81
344.804	463.81
345.031	459.81
345.259	478.81
345.487	463.81
345.714	455.81
345.942	439.81
346.17	449.81
346.397	422.81
346.625	445.81
346.853	421.81
347.08	443.81
347.308	436.81
347.535	445.81
347.763	443.81
347.99	443.81
348.218	434.81
348.445	460.81
348.673	443.81
348.9	453.81
349.128	411.81
349.355	421.81
349.583	431.81
349.81	425.81
350.037	426.81
350.265	441.81
350.492	399.81
350.72	410.81
350.947	417.81
351.174	420.81
351.402	453.81
351.629	452.81
351.856	440.81
352.083	434.81
352.311	439.81
352.538	433.81
352.765	445.81
352.992	441.81
353.22	443.81
353.447	445.81
353.674	420.81
353.901	436.81
354.128	415.81
354.355	426.81
354.583	413.81
354.81	408.81
355.037	401.81
355.264	411.81
355.491	412.81
355.718	423.81
355.945	396.81
356.172	405.81
356.399	413.81
356.626	416.81
356.853	410.81
357.08	421.81
357.307	401.81
357.534	388.81
357.761	409.81
357.988	426.81
358.215	387.81
358.441	408.81
358.668	411.81
358.895	422.81
359.122	419.81
359.349	445.81
359.576	447.81
359.802	445.81
360.029	455.81
360.256	468.81
360.483	449.81
360.709	454.81
360.936	419.81
361.163	427.81
361.39	443.81
361.616	452.81
361.843	422.81
362.07	428.81
362.296	451.81
362.523	455.81
362.749	440.81
362.976	412.81
363.203	424.81
363.429	419.81
363.656	424.81
363.882	426.81
364.109	438.81
364.335	413.81
364.562	410.81
364.788	403.81
365.015	431.81
365.241	413.81
365.468	431.81
365.694	438.81
365.92	419.81
366.147	419.81
366.373	406.81
366.599	427.81
366.826	394.81
367.052	422.81
367.278	408.81
367.505	425.81
367.731	420.81
367.957	422.81
368.184	425.81
368.41	438.81
368.636	426.81
368.862	419.81
369.089	434.81
369.315	404.81
369.541	414.81
369.767	418.81
369.993	408.81
370.219	440.81
370.445	423.81
370.672	409.81
370.898	390.81
371.124	415.81
371.35	422.81
371.576	407.81
371.802	418.81
372.028	441.81
372.254	426.81
372.48	436.81
372.706	421.81
372.932	417.81
373.158	433.81
373.384	407.81
373.61	433.81
373.835	435.81
374.061	418.81
374.287	409.81
374.513	411.81
374.739	411.81
374.965	427.81
375.191	414.81
375.416	429.81
375.642	426.81
375.868	417.81
376.094	421.81
376.319	435.81
376.545	431.81
376.771	414.81
376.997	406.81
377.222	409.81
377.448	430.81
377.674	408.81
377.899	415.81
378.125	401.81
378.35	382.81
378.576	416.81
378.802	421.81
379.027	420.81
379.253	414.81
379.478	431.81
379.704	426.81
379.929	422.81
380.155	417.81
380.38	423.81
380.606	417.81
380.831	409.81
381.057	405.81
381.282	415.81
381.507	403.81
381.733	430.81
381.958	428.81
382.184	428.81
382.409	417.81
382.634	421.81
382.86	441.81
383.085	443.81
383.31	459.81
383.535	431.81
383.761	445.81
383.986	442.81
384.211	452.81
384.436	445.81
384.662	439.81
384.887	459.81
385.112	456.81
385.337	457.81
385.562	447.81
385.787	443.81
386.013	461.81
386.238	469.81
386.463	470.81
386.688	469.81
386.913	445.81
387.138	459.81
387.363	458.81
387.588	467.81
387.813	469.81
388.038	471.81
388.263	453.81
388.488	443.81
388.713	451.81
388.938	459.81
389.163	460.81
389.387	469.81
389.612	441.81
389.837	469.81
390.062	453.81
390.287	450.81
390.512	455.81
390.736	459.81
390.961	453.81
391.186	466.81
391.411	473.81
391.636	463.81
391.86	484.81
392.085	482.81
392.31	473.81
392.534	465.81
392.759	494.81
392.984	473.81
393.208	493.81
393.433	479.81
393.658	488.81
393.882	457.81
394.107	475.81
394.331	463.81
394.556	461.81
394.78	483.81
395.005	491.81
395.229	474.81
395.454	485.81
395.678	462.81
395.903	495.81
396.127	510.81
396.352	518.81
396.576	490.81
396.801	507.81
397.025	494.81
397.249	485.81
397.474	506.81
397.698	494.81
397.922	510.81
398.147	541.81
398.371	529.81
398.595	527.81
398.82	532.81
399.044	535.81
399.268	554.81
399.492	584.81
399.717	604.81
399.941	620.81
400.165	646.81
400.389	679.81
400.613	613.81
400.837	561.81
401.062	556.81
401.286	525.81
401.51	523.81
401.734	534.81
401.958	545.81
402.182	551.81
402.406	549.81
402.63	550.81
402.854	563.81
403.078	528.81
403.302	561.81
403.526	565.81
403.75	545.81
403.974	566.81
404.198	551.81
404.422	563.81
404.645	551.81
404.869	547.81
405.093	583.81
405.317	591.81
405.541	627.81
405.765	549.81
405.988	597.81
406.212	571.81
406.436	590.81
406.66	589.81
406.883	573.81
407.107	640.81
407.331	675.81
407.555	713.81
407.778	699.81
408.002	682.81
408.226	622.81
408.449	607.81
408.673	621.81
408.896	634.81
409.12	655.81
409.344	653.81
409.567	593.81
409.791	577.81
410.014	570.81
410.238	531.81
410.461	565.81
410.685	558.81
410.908	589.81
411.132	598.81
411.355	654.81
411.578	595.81
411.802	558.81
412.025	551.81
412.249	549.81
412.472	583.81
412.695	569.81
412.919	524.81
413.142	539.81
413.365	534.81
413.589	548.81
413.812	514.81
414.035	528.81
414.258	534.81
414.482	530.81
414.705	524.81
414.928	540.81
415.151	500.81
415.374	514.81
415.597	526.81
415.821	527.81
416.044	521.81
416.267	520.81
416.49	531.81
416.713	521.81
416.936	524.81
417.159	513.81
417.382	515.81
417.605	523.81
417.828	519.81
418.051	555.81
418.274	538.81
418.497	540.81
418.72	533.81
418.943	532.81
419.166	538.81
419.389	587.81
419.611	573.81
419.834	556.81
420.057	534.81
420.28	524.81
420.503	529.81
420.726	530.81
420.948	537.81
421.171	579.81
421.394	622.81
421.617	556.81
421.839	539.81
422.062	574.81
422.285	553.81
422.507	618.81
422.73	711.81
422.953	637.81
423.175	605.81
423.398	565.81
423.621	564.81
423.843	588.81
424.066	604.81
424.288	576.81
424.511	605.81
424.733	649.81
424.956	713.81
425.178	715.81
425.401	692.81
425.623	729.81
425.846	657.81
426.068	592.81
426.291	567.81
426.513	566.81
426.735	590.81
426.958	599.81
427.18	705.81
427.402	817.81
427.625	922.81
427.847	791.81
428.069	681.81
428.292	603.81
428.514	565.81
428.736	544.81
428.958	557.81
429.181	529.81
429.403	563.81
429.625	559.81
429.847	577.81
430.069	655.81
430.292	663.81
430.514	568.81
430.736	537.81
430.958	524.81
431.18	524.81
431.402	517.81
431.624	504.81
431.846	489.81
432.068	495.81
432.29	502.81
432.512	504.81
432.734	500.81
432.956	518.81
433.178	526.81
433.4	540.81
433.622	530.81
433.844	514.81
434.066	483.81
434.287	504.81
434.509	519.81
434.731	520.81
434.953	529.81
435.175	556.81
435.397	545.81
435.618	588.81
435.84	635.81
436.062	726.81
436.284	802.81
436.505	659.81
436.727	575.81
436.949	554.81
437.17	558.81
437.392	537.81
437.614	565.81
437.835	566.81
438.057	702.81
438.278	779.81
438.5	790.81
438.721	857.81
438.943	837.81
439.165	659.81
439.386	603.81
439.608	575.81
439.829	579.81
440.05	587.81
440.272	653.81
440.493	627.81
440.715	562.81
440.936	543.81
441.158	544.81
441.379	545.81
441.6	550.81
441.822	582.81
442.043	626.81
442.264	691.81
442.486	766.81
442.707	645.81
442.928	581.81
443.149	601.81
443.371	634.81
443.592	667.81
443.813	755.81
444.034	813.81
444.255	675.81
444.476	620.81
444.698	597.81
444.919	584.81
445.14	671.81
445.361	635.81
445.582	640.81
445.803	698.81
446.024	800.81
446.245	763.81
446.466	739.81
446.687	625.81
446.908	592.81
447.129	553.81
447.35	554.81
447.571	543.81
447.792	527.81
448.013	539.81
448.234	529.81
448.455	586.81
448.675	715.81
448.896	821.81
449.117	712.81
449.338	687.81
449.559	823.81
449.779	885.81
450	707.81
450.221	579.81
450.442	571.81
450.662	523.81
450.883	546.81
451.104	545.81
451.324	531.81
451.545	525.81
451.766	525.81
451.986	494.81
452.207	472.81
452.428	478.81
452.648	478.81
452.869	493.81
453.089	475.81
453.31	478.81
453.53	478.81
453.751	488.81
453.971	488.81
454.192	531.81
454.412	505.81
454.633	457.81
454.853	468.81
455.073	475.81
455.294	505.81
455.514	569.81
455.734	542.81
455.955	483.81
456.175	461.81
456.395	470.81
456.616	472.81
456.836	445.81
457.056	466.81
457.276	435.81
457.497	458.81
457.717	435.81
457.937	477.81
458.157	478.81
458.377	474.81
458.598	511.81
458.818	545.81
459.038	642.81
459.258	669.81
459.478	577.81
459.698	525.81
459.918	519.81
460.138	504.81
460.358	508.81
460.578	505.81
460.798	519.81
461.018	513.81
461.238	539.81
461.458	526.81
461.678	537.81
461.898	523.81
462.118	523.81
462.338	549.81
462.558	548.81
462.777	564.81
462.997	585.81
463.217	558.81
463.437	598.81
463.657	575.81
463.876	573.81
464.096	579.81
464.316	558.81
464.536	579.81
464.755	587.81
464.975	587.81
465.195	586.81
465.414	645.81
465.634	599.81
465.854	551.81
466.073	545.81
466.293	513.81
466.512	516.81
466.732	503.81
466.951	511.81
467.171	493.81
467.391	517.81
467.61	516.81
467.829	502.81
468.049	506.81
468.268	483.81
468.488	485.81
468.707	479.81
468.927	475.81
469.146	476.81
469.365	495.81
469.585	491.81
469.804	513.81
470.023	511.81
470.243	486.81
470.462	478.81
470.681	498.81
470.901	517.81
471.12	513.81
471.339	505.81
471.558	514.81
471.777	499.81
471.997	467.81
472.216	477.81
472.435	519.81
472.654	502.81
472.873	484.81
473.092	501.81
473.311	502.81
473.53	491.81
473.749	539.81
473.968	542.81
474.187	621.81
474.406	656.81
474.625	551.81
474.844	514.81
475.063	505.81
475.282	521.81
475.501	515.81
475.72	539.81
475.939	527.81
476.158	502.81
476.377	524.81
476.596	517.81
476.814	519.81
477.033	520.81
477.252	550.81
477.471	550.81
477.69	543.81
477.908	545.81
478.127	573.81
478.346	545.81
478.564	578.81
478.783	587.81
479.002	552.81
479.22	559.81
479.439	600.81
479.658	587.81
479.876	618.81
480.095	619.81
480.313	641.81
480.532	617.81
480.751	617.81
480.969	614.81
481.188	609.81
481.406	625.81
481.624	594.81
481.843	587.81
482.061	597.81
482.28	593.81
482.498	580.81
482.717	573.81
482.935	580.81
483.153	593.81
483.372	585.81
483.59	593.81
483.808	579.81
484.027	597.81
484.245	593.81
484.463	602.81
484.681	614.81
484.9	610.81
485.118	614.81
485.336	585.81
485.554	619.81
485.772	613.81
485.99	606.81
486.209	618.81
486.427	624.81
486.645	616.81
486.863	635.81
487.081	639.81
487.299	631.81
487.517	638.81
487.735	637.81
487.953	635.81
488.171	641.81
488.389	619.81
488.607	629.81
488.825	634.81
489.043	630.81
489.261	636.81
489.479	643.81
489.696	641.81
489.914	646.81
490.132	652.81
490.35	648.81
490.568	644.81
490.786	663.81
491.003	692.81
491.221	678.81
491.439	686.81
491.657	708.81
491.874	691.81
492.092	685.81
492.31	708.81
492.527	715.81
492.745	694.81
492.963	712.81
493.18	729.81
493.398	729.81
493.615	724.81
493.833	716.81
494.05	729.81
494.268	724.81
494.485	717.81
494.703	736.81
494.92	713.81
495.138	751.81
495.355	730.81
495.573	731.81
495.79	746.81
496.008	741.81
496.225	777.81
496.442	767.81
496.66	771.81
496.877	742.81
497.094	726.81
497.312	744.81
497.529	760.81
497.746	790.81
497.963	797.81
498.181	802.81
498.398	834.81
498.615	855.81
498.832	838.81
499.049	862.81
499.267	918.81
499.484	923.81
499.701	950.81
499.918	971.81
500.135	1031.81
500.352	1094.81
500.569	1080.81
500.786	1111.81
501.003	1049.81
501.22	1025.81
501.437	1023.81
501.654	978.81
501.871	987.81
502.088	957.81
502.305	927.81
502.522	862.81
502.739	847.81
502.956	838.81
503.172	826.81
503.389	786.81
503.606	805.81
503.823	790.81
504.04	749.81
504.256	791.81
504.473	782.81
504.69	783.81
504.907	777.81
505.123	737.81
505.34	723.81
505.557	749.81
505.773	716.81
505.99	743.81
506.207	721.81
506.423	716.81
506.64	710.81
506.856	696.81
507.073	714.81
507.289	683.81
507.506	711.81
507.722	715.81
507.939	724.81
508.155	721.81
508.372	690.81
508.588	683.81
508.805	657.81
509.021	665.81
509.238	664.81
509.454	692.81
509.67	675.81
509.887	691.81
510.103	691.81
510.319	678.81
510.536	740.81
510.752	1205.81
510.968	1037.81
511.184	693.81
511.401	651.81
511.617	634.81
511.833	638.81
512.049	627.81
512.265	638.81
512.481	666.81
512.698	629.81
512.914	617.81
513.13	641.81
513.346	630.81
513.562	641.81
513.778	660.81
513.994	657.81
514.21	658.81
514.426	704.81
514.642	722.81
514.858	716.81
515.074	783.81
515.29	913.81
515.506	1287.81
515.721	1115.81
515.937	777.81
516.153	707.81
516.369	675.81
516.585	689.81
516.801	679.81
517.016	689.81
517.232	680.81
517.448	673.81
517.664	673.81
517.879	669.81
518.095	679.81
518.311	683.81
518.527	645.81
518.742	660.81
518.958	646.81
519.173	681.81
519.389	653.81
519.605	642.81
519.82	647.81
520.036	647.81
520.251	677.81
520.467	697.81
520.682	700.81
520.898	709.81
521.113	715.81
521.329	759.81
521.544	821.81
521.76	1028.81
521.975	1636.81
522.19	1637.81
522.406	963.81
522.621	730.81
522.836	685.81
523.052	661.81
523.267	619.81
523.482	624.81
523.698	612.81
523.913	597.81
524.128	611.81
524.343	578.81
524.559	572.81
524.774	579.81
524.989	591.81
525.204	577.81
525.419	572.81
525.634	563.81
525.849	578.81
526.064	578.81
526.28	565.81
526.495	537.81
526.71	537.81
526.925	527.81
527.14	531.81
527.355	539.81
527.57	534.81
527.785	539.81
527.999	517.81
528.214	531.81
528.429	539.81
528.644	531.81
528.859	526.81
529.074	539.81
529.289	557.81
529.503	629.81
529.718	629.81
529.933	578.81
530.148	539.81
530.363	567.81
530.577	537.81
530.792	523.81
531.007	513.81
531.221	533.81
531.436	518.81
531.651	501.81
531.865	520.81
532.08	513.81
532.295	510.81
532.509	513.81
532.724	498.81
532.938	510.81
533.153	515.81
533.367	517.81
533.582	501.81
533.796	514.81
534.011	495.81
534.225	509.81
534.44	501.81
534.654	515.81
534.868	488.81
535.083	489.81
535.297	467.81
535.511	520.81
535.726	535.81
535.94	527.81
536.154	541.81
536.369	504.81
536.583	520.81
536.797	520.81
537.011	506.81
537.225	509.81
537.44	482.81
537.654	500.81
537.868	492.81
538.082	490.81
538.296	492.81
538.51	519.81
538.724	497.81
538.938	501.81
539.153	495.81
539.367	503.81
539.581	483.81
539.795	491.81
540.009	518.81
540.222	482.81
540.436	471.81
540.65	505.81
540.864	498.81
541.078	507.81
541.292	471.81
541.506	475.81
541.72	485.81
541.934	501.81
542.147	486.81
542.361	507.81
542.575	478.81
542.789	498.81
543.002	469.81
543.216	497.81
543.43	486.81
543.644	485.81
543.857	501.81
544.071	503.81
544.285	493.81
544.498	501.81
544.712	482.81
544.925	478.81
545.139	474.81
545.352	489.81
545.566	485.81
545.779	500.81
545.993	497.81
546.206	473.81
546.42	486.81
546.633	495.81
546.847	485.81
547.06	480.81
547.274	465.81
547.487	457.81
547.7	469.81
547.914	462.81
548.127	472.81
548.34	471.81
548.554	459.81
548.767	473.81
548.98	488.81
549.193	485.81
549.407	462.81
549.62	466.81
549.833	480.81
550.046	474.81
550.259	434.81
550.473	460.81
550.686	463.81
550.899	457.81
551.112	477.81
551.325	452.81
551.538	452.81
551.751	456.81
551.964	450.81
552.177	443.81
552.39	469.81
552.603	475.81
552.816	482.81
553.029	463.81
553.242	475.81
553.455	482.81
553.667	478.81
553.88	503.81
554.093	485.81
554.306	469.81
554.519	457.81
554.732	450.81
554.944	461.81
555.157	458.81
555.37	453.81
555.583	465.81
555.795	451.81
556.008	445.81
556.221	433.81
556.433	434.81
556.646	443.81
556.859	417.81
557.071	430.81
557.284	421.81
557.496	433.81
557.709	421.81
557.921	419.81
558.134	425.81
558.346	438.81
558.559	417.81
558.771	435.81
558.984	423.81
559.196	450.81
559.409	421.81
559.621	425.81
559.833	403.81
560.046	398.81
560.258	395.81
560.47	410.81
560.683	410.81
560.895	408.81
561.107	419.81
561.32	433.81
561.532	436.81
561.744	414.81
561.956	411.81
562.168	415.81
562.381	411.81
562.593	418.81
562.805	437.81
563.017	418.81
563.229	413.81
563.441	423.81
563.653	437.81
563.865	418.81
564.077	418.81
564.289	423.81
564.501	431.81
564.713	438.81
564.925	455.81
565.137	458.81
565.349	459.81
565.561	461.81
565.773	449.81
565.985	463.81
566.197	457.81
566.408	488.81
566.62	505.81
566.832	517.81
567.044	501.81
567.255	539.81
567.467	529.81
567.679	557.81
567.891	548.81
568.102	531.81
568.314	534.81
568.526	499.81
568.737	501.81
568.949	474.81
569.161	456.81
569.372	436.81
569.584	443.81
569.795	426.81
570.007	425.81
570.218	460.81
570.43	459.81
570.641	405.81
570.853	403.81
571.064	405.81
571.276	413.81
571.487	411.81
571.698	405.81
571.91	412.81
572.121	395.81
572.333	387.81
572.544	385.81
572.755	377.81
572.966	364.81
573.178	372.81
573.389	373.81
573.6	362.81
573.811	356.81
574.023	362.81
574.234	354.81
574.445	358.81
574.656	347.81
574.867	359.81
575.078	355.81
575.289	359.81
575.501	363.81
575.712	346.81
575.923	350.81
576.134	361.81
576.345	356.81
576.556	330.81
576.767	341.81
576.978	356.81
577.188	350.81
577.399	354.81
577.61	344.81
577.821	369.81
578.032	347.81
578.243	365.81
578.454	577.81
578.665	452.81
578.875	374.81
579.086	326.81
579.297	337.81
579.508	332.81
579.718	335.81
579.929	337.81
580.14	319.81
580.35	337.81
580.561	335.81
580.772	335.81
580.982	325.81
581.193	346.81
581.403	346.81
581.614	317.81
581.825	317.81
582.035	314.81
582.246	333.81
582.456	322.81
582.667	331.81
582.877	320.81
583.087	314.81
583.298	324.81
583.508	326.81
583.719	335.81
583.929	311.81
584.139	313.81
584.35	312.81
584.56	326.81
584.77	312.81
584.981	336.81
585.191	330.81
585.401	318.81
585.611	324.81
585.821	328.81
586.032	327.81
586.242	318.81
586.452	307.81
586.662	307.81
586.872	304.81
587.082	309.81
587.292	309.81
587.502	305.81
587.713	315.81
587.923	326.81
588.133	298.81
588.343	307.81
588.553	311.81
588.762	310.81
588.972	308.81
589.182	315.81
589.392	324.81
589.602	321.81
589.812	328.81
590.022	313.81
590.232	299.81
590.441	317.81
590.651	328.81
590.861	307.81
591.071	329.81
591.281	333.81
591.49	329.81
591.7	314.81
591.91	321.81
592.119	323.81
592.329	322.81
592.539	331.81
592.748	334.81
592.958	335.81
593.167	335.81
593.377	331.81
593.587	339.81
593.796	316.81
594.006	343.81
594.215	336.81
594.424	345.81
594.634	337.81
594.843	322.81
595.053	314.81
595.262	312.81
595.472	299.81
595.681	301.81
595.89	313.81
596.1	298.81
596.309	305.81
596.518	302.81
596.727	298.81
596.937	295.81
597.146	293.81
597.355	291.81
597.564	319.81
597.774	287.81
597.983	309.81
598.192	274.81
598.401	281.81
598.61	286.81
598.819	294.81
599.028	289.81
599.237	278.81
599.446	273.81
599.655	284.81
599.864	277.81
600.073	277.81
600.282	260.81
600.491	284.81
600.7	281.81
600.909	269.81
601.118	277.81
601.327	273.81
601.536	271.81
601.745	278.81
601.953	252.81
602.162	287.81
602.371	251.81
602.58	262.81
602.789	261.81
602.997	263.81
603.206	284.81
603.415	260.81
603.623	255.81
603.832	264.81
604.041	258.81
604.249	246.81
604.458	252.81
604.666	263.81
604.875	265.81
605.084	263.81
605.292	261.81
605.501	269.81
605.709	248.81
605.918	237.81
606.126	264.81
606.334	262.81
606.543	262.81
606.751	243.81
606.96	242.81
607.168	264.81
607.376	259.81
607.585	233.81
607.793	267.81
608.001	261.81
608.21	248.81
608.418	257.81
608.626	261.81
608.834	250.81
609.043	252.81
609.251	235.81
609.459	255.81
609.667	255.81
609.875	258.81
610.083	248.81
610.291	247.81
610.499	270.81
610.707	235.81
610.916	259.81
611.124	253.81
611.332	261.81
611.54	261.81
611.748	261.81
611.955	266.81
612.163	259.81
612.371	253.81
612.579	241.81
612.787	231.81
612.995	277.81
613.203	237.81
613.411	253.81
613.618	236.81
613.826	263.81
614.034	261.81
614.242	243.81
614.449	237.81
614.657	245.81
614.865	257.81
615.072	235.81
615.28	234.81
615.488	230.81
615.695	242.81
615.903	249.81
616.111	238.81
616.318	254.81
616.526	233.81
616.733	243.81
616.941	226.81
617.148	253.81
617.356	251.81
617.563	256.81
617.771	249.81
617.978	263.81
618.185	239.81
618.393	247.81
618.6	240.81
618.807	236.81
619.015	241.81
619.222	241.81
619.429	221.81
619.637	258.81
619.844	230.81
620.051	242.81
620.258	241.81
620.466	228.81
620.673	226.81
620.88	233.81
621.087	220.81
621.294	232.81
621.501	231.81
621.708	236.81
621.915	227.81
622.122	245.81
622.329	245.81
622.536	220.81
622.743	234.81
622.95	238.81
623.157	225.81
623.364	236.81
623.571	213.81
623.778	224.81
623.985	220.81
624.192	223.81
624.399	223.81
624.606	210.81
624.812	210.81
625.019	221.81
625.226	219.81
625.433	227.81
625.639	219.81
625.846	219.81
626.053	221.81
626.259	205.81
626.466	235.81
626.673	217.81
626.879	224.81
627.086	209.81
627.293	223.81
627.499	219.81
627.706	231.81
627.912	218.81
628.119	211.81
628.325	210.81
628.532	215.81
628.738	201.81
628.945	217.81
629.151	212.81
629.357	193.81
629.564	202.81
629.77	204.81
629.976	188.81
630.183	206.81
630.389	208.81
630.595	200.81
630.802	204.81
631.008	189.81
631.214	202.81
631.42	212.81
631.627	213.81
631.833	201.81
632.039	207.81
632.245	206.81
632.451	204.81
632.657	193.81
632.863	184.81
633.069	203.81
633.275	194.81
633.481	177.81
633.688	202.81
633.893	192.81
634.099	191.81
634.305	195.81
634.511	184.81
634.717	197.81
634.923	195.81
635.129	191.81
635.335	175.81
635.541	187.81
635.747	217.81
635.952	182.81
636.158	187.81
636.364	177.81
636.57	199.81
636.775	205.81
636.981	194.81
637.187	197.81
637.392	188.81
637.598	191.81
637.804	185.81
638.009	199.81
638.215	190.81
638.421	192.81
638.626	193.81
638.832	170.81
639.037	182.81
639.243	177.81
639.448	178.81
639.654	199.81
639.859	163.81
640.065	173.81
640.27	179.81
640.475	191.81
640.681	184.81
640.886	191.81
641.091	192.81
641.297	186.81
641.502	190.81
641.707	171.81
641.913	172.81
642.118	170.81
642.323	173.81
642.528	157.81
642.733	175.81
642.939	178.81
643.144	168.81
643.349	172.81
643.554	159.81
643.759	163.81
643.964	165.81
644.169	173.81
644.374	180.81
644.579	167.81
644.784	161.81
644.989	170.81
645.194	170.81
645.399	167.81
645.604	166.81
645.809	173.81
646.014	168.81
646.219	189.81
646.423	165.81
646.628	155.81
646.833	185.81
647.038	167.81
647.243	168.81
647.447	185.81
647.652	167.81
647.857	168.81
648.062	168.81
648.266	173.81
648.471	175.81
648.676	171.81
648.88	169.81
649.085	184.81
649.289	181.81
649.494	190.81
649.698	211.81
649.903	182.81
650.107	177.81
650.312	157.81
650.516	140.81
650.721	157.81
650.925	183.81
651.13	155.81
651.334	175.81
651.539	152.81
651.743	161.81
651.947	159.81
652.152	164.81
652.356	146.81
652.56	139.81
652.764	152.81
652.969	153.81
653.173	145.81
653.377	135.81
653.581	140.81
653.785	154.81
653.99	133.81
654.194	141.81
654.398	133.81
654.602	127.81
654.806	137.81
655.01	148.81
655.214	145.81
655.418	145.81
655.622	135.81
655.826	149.81
656.03	143.81
656.234	125.81
656.438	143.81
656.642	143.81
656.846	147.81
657.049	120.81
657.253	118.81
657.457	115.81
657.661	118.81
657.865	129.81
658.068	111.81
658.272	120.81
658.476	113.81
658.68	125.81
658.883	119.81
659.087	109.81
659.291	103.81
659.494	105.81
659.698	106.81
659.901	105.81
660.105	92.81
660.309	113.81
660.512	100.81
660.716	90.81
660.919	98.81
661.123	89.81
661.326	91.81
661.53	99.81
661.733	98.81
661.936	95.81
662.14	97.81
662.343	90.81
662.546	88.81
662.75	83.81
662.953	92.81
663.156	86.81
663.36	99.81
663.563	84.81
663.766	78.81
663.969	77.81
664.173	85.81
664.376	83.81
664.579	86.81
664.782	86.81
664.985	87.81
665.188	79.81
665.391	98.81
665.594	97.81
665.797	81.81
666	88.81
666.203	86.81
666.406	94.81
666.609	96.81
666.812	83.81
667.015	76.81
667.218	83.81
667.421	70.81
667.624	81.81
667.827	80.81
668.03	68.81
668.232	72.81
668.435	75.81
668.638	95.81
668.841	76.81
669.043	82.81
669.246	86.81
669.449	95.81
669.651	85.81
669.854	86.81
670.057	98.81
670.259	79.81
670.462	75.81
670.665	83.81
670.867	95.81
671.07	93.81
671.272	97.81
671.475	86.81
671.677	93.81
671.88	89.81
672.082	73.81
672.284	87.81
672.487	92.81
672.689	82.81
672.892	69.81
