Data from 1988.PennyLincolnUp.Lamp.En5.5.200Scan.071819.P2_HRD10591_17-18-17-972.txt Node
Date: Thu Jul 18 17:18:17 EDT 2019
User: cochatt
Spectrometer: HR+D1059
Trigger mode: 1
Integration Time (sec): 1.000000E-1
Scans to average: 1
Electric dark correction enabled: true
Nonlinearity correction enabled: false
Boxcar width: 0
XAxis mode: Wavelengths
Number of Pixels in Spectrum: 2048
>>>>>Begin Spectral Data<<<<<
223.165	-24.12
223.4	-24.12
223.635	-24.12
223.869	-16.12
224.104	-18.12
224.338	-21.12
224.573	-14.12
224.808	-19.12
225.042	-0.12
225.277	-3.12
225.511	0.88
225.746	11.88
225.98	9.88
226.215	11.88
226.449	10.88
226.683	13.88
226.918	11.88
227.152	44.88
227.387	40.88
227.621	40.88
227.856	38.88
228.09	50.88
228.324	48.88
228.559	52.88
228.793	59.88
229.027	114.88
229.262	116.88
229.496	138.88
229.73	146.88
229.964	212.88
230.199	166.88
230.433	136.88
230.667	139.88
230.901	132.88
231.136	131.88
231.37	122.88
231.604	118.88
231.838	148.88
232.072	132.88
232.306	136.88
232.541	134.88
232.775	132.88
233.009	141.88
233.243	125.88
233.477	127.88
233.711	130.88
233.945	128.88
234.179	140.88
234.413	117.88
234.647	122.88
234.881	138.88
235.115	140.88
235.349	125.88
235.583	130.88
235.817	114.88
236.051	138.88
236.285	138.88
236.519	135.88
236.753	130.88
236.987	154.88
237.221	194.88
237.455	260.88
237.689	199.88
237.922	151.88
238.156	155.88
238.39	147.88
238.624	146.88
238.858	134.88
239.091	131.88
239.325	142.88
239.559	136.88
239.793	178.88
240.027	165.88
240.26	165.88
240.494	167.88
240.728	158.88
240.961	170.88
241.195	163.88
241.429	158.88
241.662	150.88
241.896	148.88
242.13	160.88
242.363	147.88
242.597	134.88
242.83	137.88
243.064	135.88
243.298	152.88
243.531	149.88
243.765	132.88
243.998	152.88
244.232	159.88
244.465	159.88
244.699	165.88
244.932	130.88
245.166	152.88
245.399	129.88
245.633	150.88
245.866	156.88
246.099	137.88
246.333	146.88
246.566	160.88
246.8	160.88
247.033	162.88
247.266	165.88
247.5	151.88
247.733	186.88
247.966	200.88
248.2	215.88
248.433	211.88
248.666	193.88
248.899	201.88
249.133	230.88
249.366	237.88
249.599	234.88
249.832	206.88
250.066	180.88
250.299	187.88
250.532	188.88
250.765	200.88
250.998	232.88
251.231	234.88
251.465	245.88
251.698	244.88
251.931	260.88
252.164	256.88
252.397	235.88
252.63	224.88
252.863	250.88
253.096	264.88
253.329	267.88
253.562	249.88
253.795	229.88
254.028	228.88
254.261	220.88
254.494	229.88
254.727	240.88
254.96	248.88
255.193	250.88
255.426	232.88
255.659	222.88
255.892	222.88
256.124	205.88
256.357	201.88
256.59	217.88
256.823	210.88
257.056	199.88
257.289	189.88
257.521	210.88
257.754	203.88
257.987	222.88
258.22	209.88
258.452	205.88
258.685	217.88
258.918	219.88
259.151	196.88
259.383	230.88
259.616	222.88
259.849	227.88
260.081	267.88
260.314	288.88
260.547	278.88
260.779	244.88
261.012	265.88
261.244	257.88
261.477	236.88
261.71	256.88
261.942	280.88
262.175	327.88
262.407	304.88
262.64	268.88
262.872	256.88
263.105	251.88
263.337	270.88
263.57	237.88
263.802	238.88
264.035	223.88
264.267	238.88
264.499	214.88
264.732	221.88
264.964	223.88
265.197	208.88
265.429	215.88
265.661	232.88
265.894	226.88
266.126	212.88
266.358	220.88
266.591	234.88
266.823	231.88
267.055	219.88
267.287	235.88
267.52	228.88
267.752	249.88
267.984	234.88
268.216	220.88
268.448	224.88
268.681	235.88
268.913	240.88
269.145	276.88
269.377	284.88
269.609	288.88
269.841	269.88
270.073	261.88
270.306	297.88
270.538	306.88
270.77	307.88
271.002	276.88
271.234	294.88
271.466	307.88
271.698	320.88
271.93	328.88
272.162	346.88
272.394	326.88
272.626	314.88
272.858	299.88
273.09	276.88
273.322	278.88
273.553	282.88
273.785	288.88
274.017	290.88
274.249	300.88
274.481	314.88
274.713	327.88
274.945	338.88
275.176	355.88
275.408	334.88
275.64	328.88
275.872	297.88
276.104	294.88
276.335	309.88
276.567	326.88
276.799	368.88
277.031	386.88
277.262	357.88
277.494	357.88
277.726	342.88
277.957	345.88
278.189	335.88
278.421	330.88
278.652	315.88
278.884	318.88
279.115	341.88
279.347	437.88
279.579	606.88
279.81	782.88
280.042	677.88
280.273	553.88
280.505	602.88
280.736	503.88
280.968	332.88
281.199	312.88
281.431	293.88
281.662	313.88
281.894	296.88
282.125	293.88
282.356	376.88
282.588	406.88
282.819	399.88
283.051	333.88
283.282	322.88
283.513	294.88
283.745	301.88
283.976	294.88
284.207	317.88
284.439	301.88
284.67	312.88
284.901	309.88
285.132	342.88
285.364	420.88
285.595	429.88
285.826	360.88
286.057	312.88
286.288	315.88
286.52	297.88
286.751	300.88
286.982	303.88
287.213	310.88
287.444	307.88
287.675	328.88
287.906	356.88
288.138	380.88
288.369	492.88
288.6	476.88
288.831	368.88
289.062	342.88
289.293	317.88
289.524	322.88
289.755	306.88
289.986	297.88
290.217	283.88
290.448	296.88
290.679	282.88
290.91	305.88
291.141	308.88
291.371	309.88
291.602	292.88
291.833	292.88
292.064	292.88
292.295	307.88
292.526	313.88
292.757	321.88
292.987	299.88
293.218	306.88
293.449	322.88
293.68	313.88
293.91	293.88
294.141	324.88
294.372	323.88
294.603	320.88
294.833	315.88
295.064	345.88
295.295	336.88
295.525	317.88
295.756	336.88
295.987	350.88
296.217	411.88
296.448	446.88
296.679	359.88
296.909	325.88
297.14	336.88
297.37	341.88
297.601	334.88
297.831	324.88
298.062	318.88
298.292	352.88
298.523	346.88
298.753	357.88
298.984	339.88
299.214	361.88
299.445	365.88
299.675	381.88
299.905	397.88
300.136	385.88
300.366	428.88
300.597	430.88
300.827	398.88
301.057	409.88
301.288	429.88
301.518	414.88
301.748	383.88
301.979	390.88
302.209	423.88
302.439	423.88
302.669	387.88
302.9	381.88
303.13	361.88
303.36	357.88
303.59	368.88
303.82	420.88
304.051	411.88
304.281	371.88
304.511	360.88
304.741	377.88
304.971	398.88
305.201	388.88
305.431	420.88
305.661	415.88
305.891	419.88
306.121	418.88
306.352	412.88
306.582	402.88
306.812	389.88
307.042	362.88
307.272	377.88
307.502	396.88
307.731	427.88
307.961	414.88
308.191	436.88
308.421	475.88
308.651	481.88
308.881	457.88
309.111	491.88
309.341	536.88
309.571	599.88
309.8	584.88
310.03	539.88
310.26	549.88
310.49	581.88
310.72	558.88
310.949	585.88
311.179	568.88
311.409	484.88
311.639	466.88
311.868	484.88
312.098	476.88
312.328	496.88
312.557	537.88
312.787	613.88
313.017	568.88
313.246	538.88
313.476	476.88
313.706	497.88
313.935	496.88
314.165	494.88
314.394	538.88
314.624	525.88
314.853	504.88
315.083	498.88
315.312	472.88
315.542	458.88
315.771	455.88
316.001	504.88
316.23	517.88
316.46	505.88
316.689	467.88
316.919	483.88
317.148	470.88
317.377	509.88
317.607	504.88
317.836	530.88
318.065	589.88
318.295	556.88
318.524	522.88
318.753	478.88
318.983	477.88
319.212	484.88
319.441	514.88
319.67	507.88
319.9	480.88
320.129	463.88
320.358	450.88
320.587	462.88
320.816	510.88
321.046	517.88
321.275	532.88
321.504	514.88
321.733	529.88
321.962	562.88
322.191	593.88
322.42	613.88
322.649	691.88
322.878	694.88
323.108	740.88
323.337	797.88
323.566	937.88
323.795	1023.88
324.024	1200.88
324.253	1606.88
324.482	2623.88
324.71	4309.88
324.939	5962.88
325.168	4845.88
325.397	2284.88
325.626	1355.88
325.855	991.88
326.084	840.88
326.313	836.88
326.542	849.88
326.77	998.88
326.999	1336.88
327.228	2217.88
327.457	3688.88
327.686	4421.88
327.914	2652.88
328.143	1522.88
328.372	1240.88
328.6	1026.88
328.829	958.88
329.058	1010.88
329.287	1039.88
329.515	902.88
329.744	745.88
329.972	679.88
330.201	704.88
330.43	789.88
330.658	943.88
330.887	1124.88
331.115	1051.88
331.344	789.88
331.572	708.88
331.801	718.88
332.03	698.88
332.258	622.88
332.486	599.88
332.715	546.88
332.943	543.88
333.172	531.88
333.4	533.88
333.629	562.88
333.857	589.88
334.085	627.88
334.314	561.88
334.542	573.88
334.771	571.88
334.999	649.88
335.227	637.88
335.455	577.88
335.684	540.88
335.912	520.88
336.14	583.88
336.369	593.88
336.597	617.88
336.825	597.88
337.053	601.88
337.281	614.88
337.51	590.88
337.738	561.88
337.966	578.88
338.194	632.88
338.422	666.88
338.65	602.88
338.878	535.88
339.106	562.88
339.334	574.88
339.562	562.88
339.79	514.88
340.018	488.88
340.246	518.88
340.474	528.88
340.702	536.88
340.93	520.88
341.158	538.88
341.386	588.88
341.614	644.88
341.842	636.88
342.07	510.88
342.298	529.88
342.526	511.88
342.754	506.88
342.981	461.88
343.209	468.88
343.437	514.88
343.665	515.88
343.893	537.88
344.12	503.88
344.348	534.88
344.576	548.88
344.804	575.88
345.031	621.88
345.259	617.88
345.487	603.88
345.714	580.88
345.942	627.88
346.17	643.88
346.397	616.88
346.625	560.88
346.853	524.88
347.08	514.88
347.308	535.88
347.535	588.88
347.763	600.88
347.99	570.88
348.218	556.88
348.445	608.88
348.673	572.88
348.9	546.88
349.128	532.88
349.355	548.88
349.583	569.88
349.81	492.88
350.037	481.88
350.265	491.88
350.492	490.88
350.72	505.88
350.947	534.88
351.174	600.88
351.402	639.88
351.629	652.88
351.856	627.88
352.083	591.88
352.311	652.88
352.538	745.88
352.765	730.88
352.992	615.88
353.22	569.88
353.447	530.88
353.674	503.88
353.901	473.88
354.128	453.88
354.355	429.88
354.583	452.88
354.81	434.88
355.037	451.88
355.264	424.88
355.491	422.88
355.718	430.88
355.945	443.88
356.172	440.88
356.399	452.88
356.626	493.88
356.853	566.88
357.08	528.88
357.307	506.88
357.534	455.88
357.761	451.88
357.988	459.88
358.215	500.88
358.441	518.88
358.668	475.88
358.895	461.88
359.122	461.88
359.349	477.88
359.576	531.88
359.802	635.88
360.029	726.88
360.256	747.88
360.483	677.88
360.709	566.88
360.936	555.88
361.163	578.88
361.39	578.88
361.616	594.88
361.843	601.88
362.07	696.88
362.296	692.88
362.523	550.88
362.749	532.88
362.976	500.88
363.203	513.88
363.429	520.88
363.656	491.88
363.882	470.88
364.109	507.88
364.335	496.88
364.562	529.88
364.788	512.88
365.015	504.88
365.241	503.88
365.468	518.88
365.694	522.88
365.92	493.88
366.147	478.88
366.373	469.88
366.599	473.88
366.826	441.88
367.052	452.88
367.278	469.88
367.505	459.88
367.731	472.88
367.957	452.88
368.184	476.88
368.41	495.88
368.636	551.88
368.862	533.88
369.089	493.88
369.315	462.88
369.541	458.88
369.767	450.88
369.993	456.88
370.219	458.88
370.445	448.88
370.672	467.88
370.898	489.88
371.124	474.88
371.35	437.88
371.576	429.88
371.802	444.88
372.028	475.88
372.254	490.88
372.48	450.88
372.706	455.88
372.932	437.88
373.158	450.88
373.384	495.88
373.61	552.88
373.835	590.88
374.061	557.88
374.287	517.88
374.513	495.88
374.739	530.88
374.965	533.88
375.191	535.88
375.416	489.88
375.642	473.88
375.868	466.88
376.094	504.88
376.319	501.88
376.545	466.88
376.771	454.88
376.997	430.88
377.222	419.88
377.448	449.88
377.674	420.88
377.899	428.88
378.125	424.88
378.35	414.88
378.576	426.88
378.802	424.88
379.027	425.88
379.253	427.88
379.478	402.88
379.704	427.88
379.929	428.88
380.155	452.88
380.38	446.88
380.606	453.88
380.831	452.88
381.057	459.88
381.282	437.88
381.507	469.88
381.733	483.88
381.958	488.88
382.184	502.88
382.409	518.88
382.634	539.88
382.86	546.88
383.085	518.88
383.31	557.88
383.535	551.88
383.761	537.88
383.986	576.88
384.211	545.88
384.436	499.88
384.662	488.88
384.887	488.88
385.112	461.88
385.337	508.88
385.562	486.88
385.787	551.88
386.013	611.88
386.238	637.88
386.463	588.88
386.688	555.88
386.913	503.88
387.138	508.88
387.363	523.88
387.588	485.88
387.813	498.88
388.038	496.88
388.263	514.88
388.488	524.88
388.713	524.88
388.938	489.88
389.163	477.88
389.387	459.88
389.612	444.88
389.837	461.88
390.062	457.88
390.287	479.88
390.512	509.88
390.736	516.88
390.961	502.88
391.186	491.88
391.411	466.88
391.636	469.88
391.86	499.88
392.085	502.88
392.31	520.88
392.534	553.88
392.759	616.88
392.984	806.88
393.208	1280.88
393.433	2321.88
393.658	2490.88
393.882	1144.88
394.107	706.88
394.331	669.88
394.556	783.88
394.78	726.88
395.005	558.88
395.229	485.88
395.454	501.88
395.678	538.88
395.903	635.88
396.127	822.88
396.352	1059.88
396.576	1078.88
396.801	1330.88
397.025	1916.88
397.249	1336.88
397.474	699.88
397.698	585.88
397.922	509.88
398.147	531.88
398.371	553.88
398.595	532.88
398.82	526.88
399.044	543.88
399.268	538.88
399.492	564.88
399.717	568.88
399.941	590.88
400.165	638.88
400.389	636.88
400.613	610.88
400.837	560.88
401.062	564.88
401.286	534.88
401.51	545.88
401.734	530.88
401.958	535.88
402.182	557.88
402.406	631.88
402.63	615.88
402.854	568.88
403.078	581.88
403.302	579.88
403.526	578.88
403.75	582.88
403.974	560.88
404.198	524.88
404.422	566.88
404.645	606.88
404.869	598.88
405.093	625.88
405.317	634.88
405.541	654.88
405.765	620.88
405.988	630.88
406.212	643.88
406.436	748.88
406.66	810.88
406.883	677.88
407.107	698.88
407.331	712.88
407.555	782.88
407.778	754.88
408.002	702.88
408.226	624.88
408.449	617.88
408.673	601.88
408.896	640.88
409.12	672.88
409.344	618.88
409.567	560.88
409.791	544.88
410.014	544.88
410.238	545.88
410.461	526.88
410.685	539.88
410.908	562.88
411.132	569.88
411.355	619.88
411.578	593.88
411.802	536.88
412.025	508.88
412.249	546.88
412.472	547.88
412.695	551.88
412.919	524.88
413.142	512.88
413.365	523.88
413.589	519.88
413.812	482.88
414.035	504.88
414.258	506.88
414.482	482.88
414.705	498.88
414.928	476.88
415.151	499.88
415.374	516.88
415.597	476.88
415.821	488.88
416.044	474.88
416.267	490.88
416.49	478.88
416.713	492.88
416.936	492.88
417.159	497.88
417.382	495.88
417.605	515.88
417.828	510.88
418.051	544.88
418.274	554.88
418.497	507.88
418.72	489.88
418.943	501.88
419.166	483.88
419.389	530.88
419.611	509.88
419.834	530.88
420.057	499.88
420.28	524.88
420.503	517.88
420.726	522.88
420.948	534.88
421.171	549.88
421.394	619.88
421.617	554.88
421.839	526.88
422.062	550.88
422.285	588.88
422.507	717.88
422.73	1096.88
422.953	1304.88
423.175	762.88
423.398	585.88
423.621	539.88
423.843	563.88
424.066	571.88
424.288	546.88
424.511	571.88
424.733	660.88
424.956	752.88
425.178	718.88
425.401	729.88
425.623	724.88
425.846	645.88
426.068	578.88
426.291	611.88
426.513	597.88
426.735	588.88
426.958	656.88
427.18	743.88
427.402	923.88
427.625	1169.88
427.847	1072.88
428.069	825.88
428.292	691.88
428.514	643.88
428.736	617.88
428.958	608.88
429.181	616.88
429.403	556.88
429.625	561.88
429.847	609.88
430.069	706.88
430.292	771.88
430.514	700.88
430.736	606.88
430.958	610.88
431.18	564.88
431.402	501.88
431.624	496.88
431.846	512.88
432.068	527.88
432.29	504.88
432.512	486.88
432.734	523.88
432.956	536.88
433.178	546.88
433.4	564.88
433.622	510.88
433.844	489.88
434.066	515.88
434.287	492.88
434.509	486.88
434.731	486.88
434.953	491.88
435.175	524.88
435.397	576.88
435.618	587.88
435.84	648.88
436.062	747.88
436.284	802.88
436.505	674.88
436.727	641.88
436.949	571.88
437.17	561.88
437.392	558.88
437.614	597.88
437.835	648.88
438.057	840.88
438.278	927.88
438.5	884.88
438.721	917.88
438.943	842.88
439.165	653.88
439.386	619.88
439.608	596.88
439.829	640.88
440.05	723.88
440.272	794.88
440.493	748.88
440.715	676.88
440.936	608.88
441.158	584.88
441.379	562.88
441.6	603.88
441.822	649.88
442.043	675.88
442.264	739.88
442.486	811.88
442.707	717.88
442.928	666.88
443.149	672.88
443.371	703.88
443.592	811.88
443.813	914.88
444.034	894.88
444.255	750.88
444.476	628.88
444.698	594.88
444.919	614.88
445.14	738.88
445.361	749.88
445.582	843.88
445.803	963.88
446.024	999.88
446.245	944.88
446.466	876.88
446.687	704.88
446.908	642.88
447.129	578.88
447.35	566.88
447.571	562.88
447.792	566.88
448.013	563.88
448.234	604.88
448.455	653.88
448.675	766.88
448.896	874.88
449.117	725.88
449.338	690.88
449.559	816.88
449.779	914.88
450	722.88
450.221	597.88
450.442	586.88
450.662	598.88
450.883	680.88
451.104	741.88
451.324	717.88
451.545	626.88
451.766	556.88
451.986	525.88
452.207	489.88
452.428	515.88
452.648	518.88
452.869	550.88
453.089	577.88
453.31	624.88
453.53	640.88
453.751	632.88
453.971	636.88
454.192	687.88
454.412	649.88
454.633	554.88
454.853	536.88
455.073	525.88
455.294	569.88
455.514	657.88
455.734	627.88
455.955	519.88
456.175	499.88
456.395	462.88
456.616	457.88
456.836	460.88
457.056	443.88
457.276	447.88
457.497	476.88
457.717	496.88
457.937	500.88
458.157	491.88
458.377	517.88
458.598	584.88
458.818	783.88
459.038	960.88
459.258	834.88
459.478	692.88
459.698	636.88
459.918	571.88
460.138	573.88
460.358	548.88
460.578	546.88
460.798	561.88
461.018	572.88
461.238	514.88
461.458	518.88
461.678	520.88
461.898	504.88
462.118	516.88
462.338	511.88
462.558	548.88
462.777	554.88
462.997	554.88
463.217	578.88
463.437	596.88
463.657	594.88
463.876	573.88
464.096	581.88
464.316	581.88
464.536	599.88
464.755	618.88
464.975	632.88
465.195	889.88
465.414	1269.88
465.634	894.88
465.854	686.88
466.073	605.88
466.293	577.88
466.512	546.88
466.732	524.88
466.951	514.88
467.171	520.88
467.391	541.88
467.61	588.88
467.829	625.88
468.049	558.88
468.268	520.88
468.488	536.88
468.707	508.88
468.927	491.88
469.146	510.88
469.365	514.88
469.585	498.88
469.804	543.88
470.023	590.88
470.243	580.88
470.462	611.88
470.681	676.88
470.901	629.88
471.12	553.88
471.339	536.88
471.558	526.88
471.777	554.88
471.997	474.88
472.216	504.88
472.435	523.88
472.654	508.88
472.873	510.88
473.092	515.88
473.311	493.88
473.53	506.88
473.749	506.88
473.968	583.88
474.187	681.88
474.406	698.88
474.625	562.88
474.844	536.88
475.063	509.88
475.282	506.88
475.501	518.88
475.72	515.88
475.939	521.88
476.158	524.88
476.377	544.88
476.596	561.88
476.814	580.88
477.033	596.88
477.252	563.88
477.471	550.88
477.69	565.88
477.908	549.88
478.127	555.88
478.346	565.88
478.564	570.88
478.783	566.88
479.002	600.88
479.22	622.88
479.439	680.88
479.658	738.88
479.876	698.88
480.095	667.88
480.313	664.88
480.532	636.88
480.751	608.88
480.969	633.88
481.188	666.88
481.406	675.88
481.624	628.88
481.843	625.88
482.061	605.88
482.28	610.88
482.498	610.88
482.717	601.88
482.935	626.88
483.153	618.88
483.372	644.88
483.59	658.88
483.808	633.88
484.027	613.88
484.245	604.88
484.463	621.88
484.681	616.88
484.9	615.88
485.118	638.88
485.336	632.88
485.554	663.88
485.772	666.88
485.99	636.88
486.209	642.88
486.427	645.88
486.645	709.88
486.863	746.88
487.081	752.88
487.299	729.88
487.517	704.88
487.735	663.88
487.953	664.88
488.171	674.88
488.389	650.88
488.607	691.88
488.825	659.88
489.043	646.88
489.261	641.88
489.479	650.88
489.696	652.88
489.914	649.88
490.132	654.88
490.35	683.88
490.568	667.88
490.786	661.88
491.003	670.88
491.221	678.88
491.439	698.88
491.657	682.88
491.874	683.88
492.092	706.88
492.31	711.88
492.527	687.88
492.745	686.88
492.963	683.88
493.18	677.88
493.398	732.88
493.615	757.88
493.833	728.88
494.05	729.88
494.268	685.88
494.485	720.88
494.703	725.88
494.92	712.88
495.138	698.88
495.355	719.88
495.573	740.88
495.79	749.88
496.008	829.88
496.225	801.88
496.442	722.88
496.66	758.88
496.877	742.88
497.094	761.88
497.312	736.88
497.529	736.88
497.746	761.88
497.963	787.88
498.181	793.88
498.398	922.88
498.615	887.88
498.832	850.88
499.049	869.88
499.267	906.88
499.484	906.88
499.701	881.88
499.918	883.88
500.135	993.88
500.352	1005.88
500.569	969.88
500.786	965.88
501.003	1010.88
501.22	955.88
501.437	941.88
501.654	1056.88
501.871	1037.88
502.088	996.88
502.305	913.88
502.522	892.88
502.739	822.88
502.956	848.88
503.172	851.88
503.389	855.88
503.606	936.88
503.823	950.88
504.04	886.88
504.256	849.88
504.473	813.88
504.69	724.88
504.907	756.88
505.123	761.88
505.34	719.88
505.557	710.88
505.773	747.88
505.99	788.88
506.207	722.88
506.423	728.88
506.64	740.88
506.856	704.88
507.073	706.88
507.289	723.88
507.506	736.88
507.722	828.88
507.939	930.88
508.155	809.88
508.372	774.88
508.588	740.88
508.805	726.88
509.021	719.88
509.238	713.88
509.454	722.88
509.67	725.88
509.887	718.88
510.103	749.88
510.319	845.88
510.536	1254.88
510.752	3525.88
510.968	2551.88
511.184	992.88
511.401	824.88
511.617	800.88
511.833	754.88
512.049	709.88
512.265	698.88
512.481	691.88
512.698	721.88
512.914	731.88
513.13	745.88
513.346	736.88
513.562	754.88
513.778	801.88
513.994	860.88
514.21	898.88
514.426	1005.88
514.642	1246.88
514.858	1389.88
515.074	1634.88
515.29	2476.88
515.506	4732.88
515.721	3362.88
515.937	1544.88
516.153	1130.88
516.369	1000.88
516.585	898.88
516.801	878.88
517.016	867.88
517.232	837.88
517.448	876.88
517.664	888.88
517.879	813.88
518.095	794.88
518.311	808.88
518.527	894.88
518.742	907.88
518.958	812.88
519.173	845.88
519.389	866.88
519.605	856.88
519.82	849.88
520.036	914.88
520.251	1080.88
520.467	1123.88
520.682	1114.88
520.898	1182.88
521.113	1365.88
521.329	1644.88
521.544	2130.88
521.76	3356.88
521.975	6783.88
522.19	6523.88
522.406	2709.88
522.621	1572.88
522.836	1169.88
523.052	1005.88
523.267	924.88
523.482	854.88
523.698	824.88
523.913	816.88
524.128	821.88
524.343	716.88
524.559	708.88
524.774	694.88
524.989	706.88
525.204	732.88
525.419	734.88
525.634	669.88
525.849	638.88
526.064	656.88
526.28	653.88
526.495	683.88
526.71	711.88
526.925	648.88
527.14	674.88
527.355	710.88
527.57	593.88
527.785	584.88
527.999	580.88
528.214	592.88
528.429	588.88
528.644	602.88
528.859	581.88
529.074	614.88
529.289	713.88
529.503	1145.88
529.718	1013.88
529.933	742.88
530.148	662.88
530.363	617.88
530.577	600.88
530.792	574.88
531.007	565.88
531.221	553.88
531.436	553.88
531.651	531.88
531.865	545.88
532.08	534.88
532.295	521.88
532.509	539.88
532.724	544.88
532.938	547.88
533.153	549.88
533.367	538.88
533.582	515.88
533.796	516.88
534.011	507.88
534.225	504.88
534.44	520.88
534.654	524.88
534.868	518.88
535.083	557.88
535.297	568.88
535.511	562.88
535.726	604.88
535.94	587.88
536.154	565.88
536.369	552.88
536.583	539.88
536.797	538.88
537.011	509.88
537.225	513.88
537.44	523.88
537.654	519.88
537.868	497.88
538.082	505.88
538.296	525.88
538.51	504.88
538.724	506.88
538.938	499.88
539.153	497.88
539.367	596.88
539.581	605.88
539.795	545.88
540.009	516.88
540.222	502.88
540.436	525.88
540.65	525.88
540.864	516.88
541.078	552.88
541.292	549.88
541.506	511.88
541.72	508.88
541.934	487.88
542.147	505.88
542.361	485.88
542.575	491.88
542.789	496.88
543.002	501.88
543.216	491.88
543.43	546.88
543.644	543.88
543.857	514.88
544.071	519.88
544.285	503.88
544.498	484.88
544.712	492.88
544.925	508.88
545.139	502.88
545.352	479.88
545.566	498.88
545.779	496.88
545.993	493.88
546.206	487.88
546.42	477.88
546.633	501.88
546.847	467.88
547.06	493.88
547.274	474.88
547.487	481.88
547.7	477.88
547.914	512.88
548.127	503.88
548.34	485.88
548.554	481.88
548.767	490.88
548.98	484.88
549.193	474.88
549.407	464.88
549.62	474.88
549.833	470.88
550.046	491.88
550.259	488.88
550.473	474.88
550.686	457.88
550.899	459.88
551.112	488.88
551.325	478.88
551.538	518.88
551.751	477.88
551.964	469.88
552.177	470.88
552.39	468.88
552.603	459.88
552.816	466.88
553.029	469.88
553.242	490.88
553.455	529.88
553.667	571.88
553.88	598.88
554.093	540.88
554.306	514.88
554.519	473.88
554.732	478.88
554.944	462.88
555.157	456.88
555.37	448.88
555.583	453.88
555.795	474.88
556.008	448.88
556.221	470.88
556.433	438.88
556.646	455.88
556.859	437.88
557.071	445.88
557.284	430.88
557.496	447.88
557.709	426.88
557.921	433.88
558.134	444.88
558.346	456.88
558.559	474.88
558.771	443.88
558.984	502.88
559.196	650.88
559.409	601.88
559.621	560.88
559.833	521.88
560.046	504.88
560.258	489.88
560.47	482.88
560.683	458.88
560.895	466.88
561.107	443.88
561.32	426.88
561.532	414.88
561.744	427.88
561.956	415.88
562.168	412.88
562.381	421.88
562.593	422.88
562.805	417.88
563.017	418.88
563.229	416.88
563.441	430.88
563.653	424.88
563.865	424.88
564.077	433.88
564.289	416.88
564.501	437.88
564.713	423.88
564.925	436.88
565.137	468.88
565.349	452.88
565.561	446.88
565.773	456.88
565.985	442.88
566.197	445.88
566.408	450.88
566.62	480.88
566.832	495.88
567.044	483.88
567.255	467.88
567.467	481.88
567.679	490.88
567.891	490.88
568.102	491.88
568.314	482.88
568.526	460.88
568.737	485.88
568.949	464.88
569.161	462.88
569.372	426.88
569.584	417.88
569.795	433.88
570.007	455.88
570.218	820.88
570.43	752.88
570.641	467.88
570.853	448.88
571.064	416.88
571.276	436.88
571.487	397.88
571.698	396.88
571.91	382.88
572.121	381.88
572.333	378.88
572.544	380.88
572.755	384.88
572.966	354.88
573.178	358.88
573.389	377.88
573.6	371.88
573.811	388.88
574.023	362.88
574.234	372.88
574.445	364.88
574.656	350.88
574.867	354.88
575.078	377.88
575.289	363.88
575.501	371.88
575.712	356.88
575.923	372.88
576.134	353.88
576.345	360.88
576.556	397.88
576.767	371.88
576.978	388.88
577.188	356.88
577.399	380.88
577.61	387.88
577.821	363.88
578.032	413.88
578.243	606.88
578.454	1778.88
578.665	985.88
578.875	444.88
579.086	379.88
579.297	371.88
579.508	356.88
579.718	350.88
579.929	360.88
580.14	363.88
580.35	347.88
580.561	322.88
580.772	332.88
580.982	349.88
581.193	322.88
581.403	329.88
581.614	333.88
581.825	336.88
582.035	332.88
582.246	329.88
582.456	324.88
582.667	332.88
582.877	325.88
583.087	323.88
583.298	345.88
583.508	337.88
583.719	339.88
583.929	353.88
584.139	331.88
584.35	316.88
584.56	306.88
584.77	331.88
584.981	349.88
585.191	322.88
585.401	320.88
585.611	336.88
585.821	362.88
586.032	403.88
586.242	351.88
586.452	348.88
586.662	346.88
586.872	328.88
587.082	352.88
587.292	356.88
587.502	336.88
587.713	334.88
587.923	340.88
588.133	334.88
588.343	343.88
588.553	353.88
588.762	392.88
588.972	529.88
589.182	1447.88
589.392	1486.88
589.602	725.88
589.812	1251.88
590.022	953.88
590.232	448.88
590.441	369.88
590.651	333.88
590.861	328.88
591.071	357.88
591.281	333.88
591.49	322.88
591.7	316.88
591.91	323.88
592.119	336.88
592.329	325.88
592.539	335.88
592.748	334.88
592.958	328.88
593.167	315.88
593.377	316.88
593.587	339.88
593.796	347.88
594.006	342.88
594.215	342.88
594.424	315.88
594.634	328.88
594.843	315.88
595.053	326.88
595.262	330.88
595.472	334.88
595.681	321.88
595.89	322.88
596.1	324.88
596.309	322.88
596.518	308.88
596.727	302.88
596.937	325.88
597.146	322.88
597.355	302.88
597.564	307.88
597.774	299.88
597.983	305.88
598.192	309.88
598.401	306.88
598.61	274.88
598.819	307.88
599.028	284.88
599.237	291.88
599.446	277.88
599.655	298.88
599.864	289.88
600.073	282.88
600.282	297.88
600.491	286.88
600.7	305.88
600.909	291.88
601.118	289.88
601.327	275.88
601.536	268.88
601.745	284.88
601.953	300.88
602.162	288.88
602.371	289.88
602.58	292.88
602.789	278.88
602.997	268.88
603.206	300.88
603.415	281.88
603.623	260.88
603.832	270.88
604.041	281.88
604.249	301.88
604.458	275.88
604.666	264.88
604.875	276.88
605.084	282.88
605.292	271.88
605.501	268.88
605.709	266.88
605.918	280.88
606.126	285.88
606.334	309.88
606.543	274.88
606.751	276.88
606.96	253.88
607.168	276.88
607.376	270.88
607.585	284.88
607.793	269.88
608.001	288.88
608.21	276.88
608.418	284.88
608.626	277.88
608.834	278.88
609.043	275.88
609.251	272.88
609.459	255.88
609.667	284.88
609.875	277.88
610.083	282.88
610.291	284.88
610.499	316.88
610.707	286.88
610.916	270.88
611.124	286.88
611.332	311.88
611.54	284.88
611.748	282.88
611.955	279.88
612.163	289.88
612.371	328.88
612.579	380.88
612.787	320.88
612.995	276.88
613.203	268.88
613.411	246.88
613.618	267.88
613.826	268.88
614.034	277.88
614.242	271.88
614.449	285.88
614.657	280.88
614.865	280.88
615.072	275.88
615.28	258.88
615.488	266.88
615.695	278.88
615.903	263.88
616.111	275.88
616.318	351.88
616.526	455.88
616.733	323.88
616.941	285.88
617.148	297.88
617.356	308.88
617.563	293.88
617.771	282.88
617.978	260.88
618.185	282.88
618.393	256.88
618.6	258.88
618.807	270.88
619.015	271.88
619.222	276.88
619.429	257.88
619.637	267.88
619.844	267.88
620.051	265.88
620.258	246.88
620.466	260.88
620.673	261.88
620.88	245.88
621.087	247.88
621.294	240.88
621.501	258.88
621.708	254.88
621.915	260.88
622.122	260.88
622.329	258.88
622.536	268.88
622.743	263.88
622.95	267.88
623.157	250.88
623.364	251.88
623.571	252.88
623.778	240.88
623.985	250.88
624.192	234.88
624.399	244.88
624.606	261.88
624.812	240.88
625.019	235.88
625.226	235.88
625.433	237.88
625.639	244.88
625.846	244.88
626.053	259.88
626.259	235.88
626.466	247.88
626.673	231.88
626.879	237.88
627.086	246.88
627.293	232.88
627.499	238.88
627.706	228.88
627.912	222.88
628.119	232.88
628.325	237.88
628.532	219.88
628.738	224.88
628.945	238.88
629.151	227.88
629.357	218.88
629.564	214.88
629.77	219.88
629.976	233.88
630.183	233.88
630.389	226.88
630.595	209.88
630.802	211.88
631.008	219.88
631.214	224.88
631.42	213.88
631.627	219.88
631.833	217.88
632.039	195.88
632.245	202.88
632.451	217.88
632.657	202.88
632.863	220.88
633.069	222.88
633.275	202.88
633.481	210.88
633.688	205.88
633.893	207.88
634.099	212.88
634.305	213.88
634.511	218.88
634.717	204.88
634.923	218.88
635.129	213.88
635.335	204.88
635.541	203.88
635.747	199.88
635.952	205.88
636.158	215.88
636.364	192.88
636.57	213.88
636.775	208.88
636.981	203.88
637.187	212.88
637.392	194.88
637.598	195.88
637.804	198.88
638.009	202.88
638.215	212.88
638.421	185.88
638.626	212.88
638.832	199.88
639.037	197.88
639.243	188.88
639.448	202.88
639.654	189.88
639.859	201.88
640.065	186.88
640.27	196.88
640.475	210.88
640.681	200.88
640.886	196.88
641.091	198.88
641.297	199.88
641.502	188.88
641.707	187.88
641.913	209.88
642.118	204.88
642.323	202.88
642.528	190.88
642.733	176.88
642.939	196.88
643.144	194.88
643.349	192.88
643.554	192.88
643.759	198.88
643.964	217.88
644.169	284.88
644.374	217.88
644.579	201.88
644.784	190.88
644.989	203.88
645.194	202.88
645.399	189.88
645.604	197.88
645.809	209.88
646.014	211.88
646.219	226.88
646.423	230.88
646.628	240.88
646.833	179.88
647.038	183.88
647.243	190.88
647.447	202.88
647.652	212.88
647.857	180.88
648.062	203.88
648.266	200.88
648.471	206.88
648.676	203.88
648.88	207.88
649.085	203.88
649.289	225.88
649.494	217.88
649.698	285.88
649.903	256.88
650.107	234.88
650.312	226.88
650.516	207.88
650.721	201.88
650.925	185.88
651.13	198.88
651.334	183.88
651.539	201.88
651.743	194.88
651.947	179.88
652.152	175.88
652.356	186.88
652.56	172.88
652.764	184.88
652.969	184.88
653.173	188.88
653.377	180.88
653.581	193.88
653.785	180.88
653.99	166.88
654.194	180.88
654.398	170.88
654.602	189.88
654.806	199.88
655.01	200.88
655.214	210.88
655.418	208.88
655.622	201.88
655.826	183.88
656.03	196.88
656.234	192.88
656.438	203.88
656.642	192.88
656.846	198.88
657.049	196.88
657.253	190.88
657.457	165.88
657.661	166.88
657.865	141.88
658.068	140.88
658.272	145.88
658.476	151.88
658.68	120.88
658.883	112.88
659.087	118.88
659.291	120.88
659.494	125.88
659.698	114.88
659.901	112.88
660.105	109.88
660.309	108.88
660.512	122.88
660.716	109.88
660.919	97.88
661.123	75.88
661.326	97.88
661.53	92.88
661.733	102.88
661.936	95.88
662.14	78.88
662.343	93.88
662.546	96.88
662.75	100.88
662.953	104.88
663.156	87.88
663.36	95.88
663.563	85.88
663.766	60.88
663.969	76.88
664.173	64.88
664.376	61.88
664.579	82.88
664.782	78.88
664.985	77.88
665.188	81.88
665.391	74.88
665.594	74.88
665.797	79.88
666	74.88
666.203	67.88
666.406	65.88
666.609	77.88
666.812	99.88
667.015	80.88
667.218	93.88
667.421	92.88
667.624	78.88
667.827	80.88
668.03	90.88
668.232	79.88
668.435	78.88
668.638	88.88
668.841	79.88
669.043	86.88
669.246	69.88
669.449	84.88
669.651	76.88
669.854	77.88
670.057	76.88
670.259	92.88
670.462	91.88
670.665	92.88
670.867	72.88
671.07	70.88
671.272	72.88
671.475	83.88
671.677	86.88
671.88	87.88
672.082	82.88
672.284	72.88
672.487	76.88
672.689	77.88
672.892	76.88
