Data from 1988.PennyLincolnUp.Lamp.En5.5.200Scan.071819.P2_HRD10591_17-20-23-972.txt Node
Date: Thu Jul 18 17:20:23 EDT 2019
User: cochatt
Spectrometer: HR+D1059
Trigger mode: 1
Integration Time (sec): 1.000000E-1
Scans to average: 1
Electric dark correction enabled: true
Nonlinearity correction enabled: false
Boxcar width: 0
XAxis mode: Wavelengths
Number of Pixels in Spectrum: 2048
>>>>>Begin Spectral Data<<<<<
223.165	-11.94
223.4	-11.94
223.635	-11.94
223.869	-17.94
224.104	-15.94
224.338	-18.94
224.573	-12.94
224.808	-4.94
225.042	-6.94
225.277	1.06
225.511	1.06
225.746	-4.94
225.98	4.06
226.215	11.06
226.449	14.06
226.683	11.06
226.918	28.06
227.152	24.06
227.387	40.06
227.621	28.06
227.856	31.06
228.09	43.06
228.324	38.06
228.559	56.06
228.793	59.06
229.027	105.06
229.262	93.06
229.496	118.06
229.73	143.06
229.964	173.06
230.199	137.06
230.433	123.06
230.667	122.06
230.901	116.06
231.136	122.06
231.37	121.06
231.604	121.06
231.838	115.06
232.072	111.06
232.306	117.06
232.541	119.06
232.775	115.06
233.009	99.06
233.243	115.06
233.477	105.06
233.711	123.06
233.945	125.06
234.179	130.06
234.413	126.06
234.647	114.06
234.881	123.06
235.115	121.06
235.349	131.06
235.583	134.06
235.817	131.06
236.051	145.06
236.285	131.06
236.519	123.06
236.753	135.06
236.987	139.06
237.221	189.06
237.455	245.06
237.689	186.06
237.922	153.06
238.156	151.06
238.39	132.06
238.624	128.06
238.858	122.06
239.091	125.06
239.325	126.06
239.559	123.06
239.793	147.06
240.027	136.06
240.26	143.06
240.494	158.06
240.728	152.06
240.961	158.06
241.195	157.06
241.429	138.06
241.662	130.06
241.896	141.06
242.13	137.06
242.363	131.06
242.597	142.06
242.83	125.06
243.064	124.06
243.298	139.06
243.531	151.06
243.765	139.06
243.998	138.06
244.232	143.06
244.465	154.06
244.699	165.06
244.932	158.06
245.166	138.06
245.399	155.06
245.633	167.06
245.866	151.06
246.099	142.06
246.333	160.06
246.566	155.06
246.8	161.06
247.033	151.06
247.266	162.06
247.5	177.06
247.733	174.06
247.966	177.06
248.2	182.06
248.433	179.06
248.666	187.06
248.899	185.06
249.133	214.06
249.366	221.06
249.599	191.06
249.832	199.06
250.066	183.06
250.299	184.06
250.532	178.06
250.765	192.06
250.998	224.06
251.231	229.06
251.465	222.06
251.698	200.06
251.931	205.06
252.164	207.06
252.397	201.06
252.63	211.06
252.863	213.06
253.096	223.06
253.329	230.06
253.562	203.06
253.795	212.06
254.028	220.06
254.261	230.06
254.494	219.06
254.727	261.06
254.96	301.06
255.193	290.06
255.426	244.06
255.659	238.06
255.892	242.06
256.124	228.06
256.357	203.06
256.59	244.06
256.823	242.06
257.056	210.06
257.289	214.06
257.521	216.06
257.754	209.06
257.987	224.06
258.22	218.06
258.452	214.06
258.685	230.06
258.918	209.06
259.151	222.06
259.383	224.06
259.616	225.06
259.849	238.06
260.081	222.06
260.314	272.06
260.547	269.06
260.779	241.06
261.012	238.06
261.244	247.06
261.477	254.06
261.71	249.06
261.942	241.06
262.175	257.06
262.407	242.06
262.64	224.06
262.872	239.06
263.105	237.06
263.337	241.06
263.57	230.06
263.802	221.06
264.035	222.06
264.267	214.06
264.499	243.06
264.732	225.06
264.964	217.06
265.197	218.06
265.429	224.06
265.661	225.06
265.894	234.06
266.126	245.06
266.358	227.06
266.591	229.06
266.823	241.06
267.055	245.06
267.287	248.06
267.52	247.06
267.752	249.06
267.984	232.06
268.216	259.06
268.448	246.06
268.681	255.06
268.913	243.06
269.145	279.06
269.377	283.06
269.609	287.06
269.841	289.06
270.073	282.06
270.306	307.06
270.538	335.06
270.77	335.06
271.002	325.06
271.234	309.06
271.466	309.06
271.698	326.06
271.93	346.06
272.162	360.06
272.394	345.06
272.626	323.06
272.858	299.06
273.09	287.06
273.322	296.06
273.553	281.06
273.785	281.06
274.017	274.06
274.249	276.06
274.481	275.06
274.713	285.06
274.945	305.06
275.176	291.06
275.408	280.06
275.64	287.06
275.872	281.06
276.104	306.06
276.335	274.06
276.567	281.06
276.799	321.06
277.031	340.06
277.262	331.06
277.494	336.06
277.726	316.06
277.957	297.06
278.189	292.06
278.421	277.06
278.652	298.06
278.884	276.06
279.115	296.06
279.347	299.06
279.579	293.06
279.81	274.06
280.042	279.06
280.273	288.06
280.505	287.06
280.736	282.06
280.968	290.06
281.199	292.06
281.431	276.06
281.662	294.06
281.894	264.06
282.125	286.06
282.356	290.06
282.588	315.06
282.819	349.06
283.051	307.06
283.282	302.06
283.513	291.06
283.745	294.06
283.976	296.06
284.207	314.06
284.439	283.06
284.67	279.06
284.901	293.06
285.132	284.06
285.364	305.06
285.595	302.06
285.826	293.06
286.057	286.06
286.288	299.06
286.52	304.06
286.751	294.06
286.982	302.06
287.213	317.06
287.444	293.06
287.675	312.06
287.906	318.06
288.138	323.06
288.369	314.06
288.6	337.06
288.831	312.06
289.062	312.06
289.293	303.06
289.524	303.06
289.755	315.06
289.986	299.06
290.217	295.06
290.448	311.06
290.679	301.06
290.91	309.06
291.141	299.06
291.371	331.06
291.602	318.06
291.833	304.06
292.064	298.06
292.295	317.06
292.526	306.06
292.757	306.06
292.987	315.06
293.218	319.06
293.449	315.06
293.68	322.06
293.91	321.06
294.141	323.06
294.372	301.06
294.603	315.06
294.833	312.06
295.064	321.06
295.295	313.06
295.525	310.06
295.756	310.06
295.987	328.06
296.217	355.06
296.448	341.06
296.679	347.06
296.909	322.06
297.14	309.06
297.37	319.06
297.601	328.06
297.831	304.06
298.062	340.06
298.292	332.06
298.523	324.06
298.753	317.06
298.984	322.06
299.214	343.06
299.445	335.06
299.675	345.06
299.905	323.06
300.136	333.06
300.366	337.06
300.597	327.06
300.827	338.06
301.057	349.06
301.288	351.06
301.518	358.06
301.748	355.06
301.979	355.06
302.209	338.06
302.439	360.06
302.669	348.06
302.9	343.06
303.13	332.06
303.36	353.06
303.59	361.06
303.82	379.06
304.051	375.06
304.281	351.06
304.511	373.06
304.741	349.06
304.971	359.06
305.201	367.06
305.431	364.06
305.661	361.06
305.891	354.06
306.121	357.06
306.352	377.06
306.582	367.06
306.812	338.06
307.042	351.06
307.272	351.06
307.502	352.06
307.731	373.06
307.961	367.06
308.191	359.06
308.421	349.06
308.651	389.06
308.881	393.06
309.111	370.06
309.341	358.06
309.571	381.06
309.8	398.06
310.03	391.06
310.26	410.06
310.49	400.06
310.72	408.06
310.949	407.06
311.179	434.06
311.409	427.06
311.639	427.06
311.868	418.06
312.098	407.06
312.328	408.06
312.557	447.06
312.787	449.06
313.017	426.06
313.246	433.06
313.476	433.06
313.706	417.06
313.935	423.06
314.165	421.06
314.394	436.06
314.624	437.06
314.853	435.06
315.083	426.06
315.312	424.06
315.542	398.06
315.771	417.06
316.001	393.06
316.23	403.06
316.46	410.06
316.689	410.06
316.919	416.06
317.148	424.06
317.377	424.06
317.607	432.06
317.836	422.06
318.065	403.06
318.295	419.06
318.524	411.06
318.753	430.06
318.983	407.06
319.212	411.06
319.441	422.06
319.67	430.06
319.9	413.06
320.129	422.06
320.358	417.06
320.587	437.06
320.816	429.06
321.046	446.06
321.275	445.06
321.504	453.06
321.733	447.06
321.962	446.06
322.191	458.06
322.42	465.06
322.649	490.06
322.878	513.06
323.108	490.06
323.337	519.06
323.566	536.06
323.795	600.06
324.024	628.06
324.253	771.06
324.482	1104.06
324.71	1775.06
324.939	2569.06
325.168	2209.06
325.397	1096.06
325.626	746.06
325.855	622.06
326.084	567.06
326.313	568.06
326.542	553.06
326.77	608.06
326.999	718.06
327.228	997.06
327.457	1537.06
327.686	1981.06
327.914	1240.06
328.143	804.06
328.372	697.06
328.6	629.06
328.829	603.06
329.058	645.06
329.287	647.06
329.515	615.06
329.744	567.06
329.972	550.06
330.201	545.06
330.43	575.06
330.658	610.06
330.887	664.06
331.115	669.06
331.344	584.06
331.572	547.06
331.801	543.06
332.03	535.06
332.258	528.06
332.486	523.06
332.715	504.06
332.943	509.06
333.172	510.06
333.4	501.06
333.629	507.06
333.857	533.06
334.085	512.06
334.314	510.06
334.542	525.06
334.771	519.06
334.999	506.06
335.227	504.06
335.455	507.06
335.684	489.06
335.912	472.06
336.14	528.06
336.369	509.06
336.597	521.06
336.825	500.06
337.053	517.06
337.281	485.06
337.51	470.06
337.738	488.06
337.966	504.06
338.194	504.06
338.422	496.06
338.65	487.06
338.878	498.06
339.106	483.06
339.334	481.06
339.562	451.06
339.79	444.06
340.018	474.06
340.246	485.06
340.474	478.06
340.702	498.06
340.93	489.06
341.158	478.06
341.386	494.06
341.614	481.06
341.842	474.06
342.07	458.06
342.298	486.06
342.526	473.06
342.754	450.06
342.981	455.06
343.209	435.06
343.437	461.06
343.665	474.06
343.893	510.06
344.12	499.06
344.348	486.06
344.576	490.06
344.804	510.06
345.031	520.06
345.259	505.06
345.487	521.06
345.714	510.06
345.942	469.06
346.17	462.06
346.397	483.06
346.625	459.06
346.853	474.06
347.08	478.06
347.308	469.06
347.535	486.06
347.763	514.06
347.99	457.06
348.218	457.06
348.445	482.06
348.673	467.06
348.9	466.06
349.128	474.06
349.355	458.06
349.583	453.06
349.81	451.06
350.037	472.06
350.265	455.06
350.492	454.06
350.72	449.06
350.947	472.06
351.174	480.06
351.402	481.06
351.629	477.06
351.856	471.06
352.083	483.06
352.311	509.06
352.538	485.06
352.765	501.06
352.992	477.06
353.22	464.06
353.447	465.06
353.674	445.06
353.901	453.06
354.128	430.06
354.355	437.06
354.583	466.06
354.81	441.06
355.037	452.06
355.264	442.06
355.491	438.06
355.718	437.06
355.945	439.06
356.172	453.06
356.399	445.06
356.626	430.06
356.853	434.06
357.08	449.06
357.307	449.06
357.534	429.06
357.761	450.06
357.988	437.06
358.215	434.06
358.441	438.06
358.668	451.06
358.895	446.06
359.122	448.06
359.349	455.06
359.576	475.06
359.802	501.06
360.029	535.06
360.256	517.06
360.483	507.06
360.709	494.06
360.936	461.06
361.163	454.06
361.39	475.06
361.616	499.06
361.843	468.06
362.07	477.06
362.296	482.06
362.523	474.06
362.749	457.06
362.976	470.06
363.203	471.06
363.429	461.06
363.656	456.06
363.882	457.06
364.109	472.06
364.335	469.06
364.562	440.06
364.788	455.06
365.015	449.06
365.241	462.06
365.468	460.06
365.694	470.06
365.92	471.06
366.147	454.06
366.373	463.06
366.599	456.06
366.826	456.06
367.052	440.06
367.278	464.06
367.505	459.06
367.731	458.06
367.957	451.06
368.184	456.06
368.41	466.06
368.636	485.06
368.862	471.06
369.089	467.06
369.315	449.06
369.541	469.06
369.767	452.06
369.993	467.06
370.219	461.06
370.445	465.06
370.672	452.06
370.898	450.06
371.124	442.06
371.35	456.06
371.576	444.06
371.802	458.06
372.028	465.06
372.254	438.06
372.48	441.06
372.706	473.06
372.932	466.06
373.158	450.06
373.384	465.06
373.61	446.06
373.835	473.06
374.061	451.06
374.287	468.06
374.513	460.06
374.739	474.06
374.965	485.06
375.191	487.06
375.416	472.06
375.642	470.06
375.868	462.06
376.094	440.06
376.319	438.06
376.545	436.06
376.771	455.06
376.997	442.06
377.222	444.06
377.448	449.06
377.674	461.06
377.899	439.06
378.125	448.06
378.35	459.06
378.576	451.06
378.802	453.06
379.027	459.06
379.253	455.06
379.478	434.06
379.704	460.06
379.929	445.06
380.155	467.06
380.38	475.06
380.606	454.06
380.831	465.06
381.057	469.06
381.282	473.06
381.507	441.06
381.733	458.06
381.958	447.06
382.184	458.06
382.409	477.06
382.634	458.06
382.86	453.06
383.085	477.06
383.31	476.06
383.535	491.06
383.761	473.06
383.986	462.06
384.211	484.06
384.436	485.06
384.662	488.06
384.887	493.06
385.112	507.06
385.337	475.06
385.562	493.06
385.787	505.06
386.013	506.06
386.238	518.06
386.463	521.06
386.688	504.06
386.913	522.06
387.138	497.06
387.363	528.06
387.588	497.06
387.813	499.06
388.038	503.06
388.263	500.06
388.488	512.06
388.713	487.06
388.938	511.06
389.163	519.06
389.387	514.06
389.612	503.06
389.837	498.06
390.062	520.06
390.287	516.06
390.512	510.06
390.736	529.06
390.961	529.06
391.186	498.06
391.411	509.06
391.636	518.06
391.86	527.06
392.085	517.06
392.31	515.06
392.534	535.06
392.759	517.06
392.984	523.06
393.208	517.06
393.433	526.06
393.658	511.06
393.882	515.06
394.107	499.06
394.331	512.06
394.556	494.06
394.78	509.06
395.005	498.06
395.229	511.06
395.454	534.06
395.678	551.06
395.903	551.06
396.127	565.06
396.352	585.06
396.576	559.06
396.801	538.06
397.025	541.06
397.249	543.06
397.474	540.06
397.698	558.06
397.922	566.06
398.147	579.06
398.371	575.06
398.595	575.06
398.82	568.06
399.044	602.06
399.268	637.06
399.492	656.06
399.717	671.06
399.941	711.06
400.165	724.06
400.389	768.06
400.613	675.06
400.837	637.06
401.062	611.06
401.286	591.06
401.51	594.06
401.734	571.06
401.958	592.06
402.182	600.06
402.406	602.06
402.63	608.06
402.854	623.06
403.078	593.06
403.302	619.06
403.526	616.06
403.75	595.06
403.974	607.06
404.198	622.06
404.422	605.06
404.645	629.06
404.869	625.06
405.093	638.06
405.317	669.06
405.541	692.06
405.765	665.06
405.988	645.06
406.212	650.06
406.436	667.06
406.66	682.06
406.883	659.06
407.107	693.06
407.331	734.06
407.555	837.06
407.778	825.06
408.002	785.06
408.226	711.06
408.449	697.06
408.673	673.06
408.896	693.06
409.12	751.06
409.344	715.06
409.567	654.06
409.791	623.06
410.014	629.06
410.238	606.06
410.461	621.06
410.685	637.06
410.908	643.06
411.132	674.06
411.355	738.06
411.578	689.06
411.802	635.06
412.025	593.06
412.249	602.06
412.472	629.06
412.695	648.06
412.919	642.06
413.142	583.06
413.365	602.06
413.589	602.06
413.812	594.06
414.035	578.06
414.258	563.06
414.482	564.06
414.705	568.06
414.928	554.06
415.151	567.06
415.374	566.06
415.597	576.06
415.821	587.06
416.044	580.06
416.267	597.06
416.49	579.06
416.713	571.06
416.936	555.06
417.159	569.06
417.382	591.06
417.605	605.06
417.828	601.06
418.051	609.06
418.274	614.06
418.497	592.06
418.72	569.06
418.943	561.06
419.166	613.06
419.389	628.06
419.611	617.06
419.834	629.06
420.057	601.06
420.28	591.06
420.503	590.06
420.726	593.06
420.948	625.06
421.171	661.06
421.394	711.06
421.617	637.06
421.839	607.06
422.062	618.06
422.285	628.06
422.507	669.06
422.73	767.06
422.953	739.06
423.175	668.06
423.398	646.06
423.621	638.06
423.843	654.06
424.066	657.06
424.288	650.06
424.511	695.06
424.733	750.06
424.956	827.06
425.178	810.06
425.401	797.06
425.623	829.06
425.846	710.06
426.068	671.06
426.291	655.06
426.513	652.06
426.735	650.06
426.958	710.06
427.18	825.06
427.402	973.06
427.625	1053.06
427.847	889.06
428.069	768.06
428.292	701.06
428.514	635.06
428.736	638.06
428.958	626.06
429.181	605.06
429.403	604.06
429.625	624.06
429.847	659.06
430.069	723.06
430.292	735.06
430.514	631.06
430.736	580.06
430.958	601.06
431.18	601.06
431.402	562.06
431.624	567.06
431.846	562.06
432.068	587.06
432.29	575.06
432.512	579.06
432.734	593.06
432.956	575.06
433.178	587.06
433.4	586.06
433.622	565.06
433.844	553.06
434.066	568.06
434.287	585.06
434.509	581.06
434.731	587.06
434.953	605.06
435.175	644.06
435.397	648.06
435.618	659.06
435.84	746.06
436.062	840.06
436.284	901.06
436.505	759.06
436.727	661.06
436.949	630.06
437.17	607.06
437.392	605.06
437.614	644.06
437.835	667.06
438.057	777.06
438.278	883.06
438.5	904.06
438.721	990.06
438.943	940.06
439.165	743.06
439.386	691.06
439.608	685.06
439.829	659.06
440.05	672.06
440.272	746.06
440.493	714.06
440.715	646.06
440.936	631.06
441.158	625.06
441.379	613.06
441.6	623.06
441.822	639.06
442.043	715.06
442.264	804.06
442.486	870.06
442.707	720.06
442.928	674.06
443.149	676.06
443.371	706.06
443.592	752.06
443.813	860.06
444.034	947.06
444.255	793.06
444.476	702.06
444.698	661.06
444.919	689.06
445.14	821.06
445.361	729.06
445.582	692.06
445.803	791.06
446.024	938.06
446.245	923.06
446.466	807.06
446.687	703.06
446.908	652.06
447.129	637.06
447.35	622.06
447.571	603.06
447.792	595.06
448.013	614.06
448.234	635.06
448.455	701.06
448.675	813.06
448.896	957.06
449.117	825.06
449.338	784.06
449.559	907.06
449.779	1001.06
450	788.06
450.221	647.06
450.442	620.06
450.662	621.06
450.883	590.06
451.104	617.06
451.324	607.06
451.545	571.06
451.766	566.06
451.986	542.06
452.207	538.06
452.428	533.06
452.648	558.06
452.869	545.06
453.089	577.06
453.31	561.06
453.53	569.06
453.751	527.06
453.971	533.06
454.192	563.06
454.412	576.06
454.633	547.06
454.853	543.06
455.073	548.06
455.294	581.06
455.514	641.06
455.734	634.06
455.955	555.06
456.175	509.06
456.395	511.06
456.616	507.06
456.836	502.06
457.056	522.06
457.276	506.06
457.497	502.06
457.717	518.06
457.937	519.06
458.157	535.06
458.377	546.06
458.598	543.06
458.818	626.06
459.038	727.06
459.258	767.06
459.478	624.06
459.698	600.06
459.918	573.06
460.138	592.06
460.358	578.06
460.578	593.06
460.798	590.06
461.018	583.06
461.238	600.06
461.458	589.06
461.678	590.06
461.898	590.06
462.118	589.06
462.338	606.06
462.558	616.06
462.777	617.06
462.997	617.06
463.217	615.06
463.437	666.06
463.657	643.06
463.876	620.06
464.096	645.06
464.316	614.06
464.536	644.06
464.755	627.06
464.975	655.06
465.195	673.06
465.414	775.06
465.634	687.06
465.854	640.06
466.073	607.06
466.293	587.06
466.512	575.06
466.732	567.06
466.951	576.06
467.171	567.06
467.391	555.06
467.61	564.06
467.829	564.06
468.049	552.06
468.268	545.06
468.488	563.06
468.707	541.06
468.927	562.06
469.146	547.06
469.365	549.06
469.585	541.06
469.804	529.06
470.023	554.06
470.243	562.06
470.462	573.06
470.681	573.06
470.901	598.06
471.12	578.06
471.339	577.06
471.558	558.06
471.777	564.06
471.997	549.06
472.216	561.06
472.435	573.06
472.654	567.06
472.873	551.06
473.092	574.06
473.311	587.06
473.53	559.06
473.749	589.06
473.968	606.06
474.187	741.06
474.406	751.06
474.625	632.06
474.844	590.06
475.063	569.06
475.282	589.06
475.501	585.06
475.72	562.06
475.939	579.06
476.158	593.06
476.377	593.06
476.596	586.06
476.814	594.06
477.033	583.06
477.252	608.06
477.471	605.06
477.69	601.06
477.908	607.06
478.127	633.06
478.346	610.06
478.564	643.06
478.783	606.06
479.002	649.06
479.22	645.06
479.439	655.06
479.658	687.06
479.876	695.06
480.095	707.06
480.313	747.06
480.532	712.06
480.751	696.06
480.969	688.06
481.188	679.06
481.406	695.06
481.624	692.06
481.843	668.06
482.061	677.06
482.28	690.06
482.498	666.06
482.717	681.06
482.935	663.06
483.153	667.06
483.372	668.06
483.59	689.06
483.808	662.06
484.027	663.06
484.245	692.06
484.463	693.06
484.681	668.06
484.9	672.06
485.118	679.06
485.336	675.06
485.554	696.06
485.772	682.06
485.99	718.06
486.209	679.06
486.427	714.06
486.645	701.06
486.863	708.06
487.081	728.06
487.299	715.06
487.517	720.06
487.735	746.06
487.953	715.06
488.171	705.06
488.389	711.06
488.607	748.06
488.825	726.06
489.043	727.06
489.261	729.06
489.479	712.06
489.696	731.06
489.914	739.06
490.132	733.06
490.35	725.06
490.568	747.06
490.786	765.06
491.003	754.06
491.221	777.06
491.439	782.06
491.657	802.06
491.874	818.06
492.092	805.06
492.31	829.06
492.527	840.06
492.745	800.06
492.963	834.06
493.18	820.06
493.398	840.06
493.615	824.06
493.833	848.06
494.05	824.06
494.268	856.06
494.485	816.06
494.703	838.06
494.92	853.06
495.138	839.06
495.355	847.06
495.573	836.06
495.79	868.06
496.008	863.06
496.225	823.06
496.442	825.06
496.66	869.06
496.877	866.06
497.094	906.06
497.312	876.06
497.529	864.06
497.746	891.06
497.963	899.06
498.181	927.06
498.398	950.06
498.615	939.06
498.832	979.06
499.049	985.06
499.267	993.06
499.484	1083.06
499.701	1089.06
499.918	1115.06
500.135	1154.06
500.352	1213.06
500.569	1250.06
500.786	1209.06
501.003	1213.06
501.22	1161.06
501.437	1175.06
501.654	1109.06
501.871	1110.06
502.088	1066.06
502.305	1007.06
502.522	992.06
502.739	989.06
502.956	947.06
503.172	947.06
503.389	918.06
503.606	929.06
503.823	924.06
504.04	906.06
504.256	883.06
504.473	895.06
504.69	888.06
504.907	875.06
505.123	843.06
505.34	850.06
505.557	837.06
505.773	833.06
505.99	829.06
506.207	837.06
506.423	835.06
506.64	817.06
506.856	818.06
507.073	803.06
507.289	790.06
507.506	786.06
507.722	803.06
507.939	838.06
508.155	808.06
508.372	784.06
508.588	795.06
508.805	796.06
509.021	785.06
509.238	811.06
509.454	794.06
509.67	773.06
509.887	752.06
510.103	778.06
510.319	786.06
510.536	883.06
510.752	1394.06
510.968	1188.06
511.184	799.06
511.401	767.06
511.617	743.06
511.833	745.06
512.049	734.06
512.265	726.06
512.481	724.06
512.698	728.06
512.914	705.06
513.13	773.06
513.346	748.06
513.562	723.06
513.778	758.06
513.994	760.06
514.21	741.06
514.426	791.06
514.642	815.06
514.858	876.06
515.074	887.06
515.29	1032.06
515.506	1512.06
515.721	1233.06
515.937	895.06
516.153	824.06
516.369	800.06
516.585	805.06
516.801	776.06
517.016	769.06
517.232	758.06
517.448	778.06
517.664	779.06
517.879	771.06
518.095	761.06
518.311	773.06
518.527	786.06
518.742	776.06
518.958	794.06
519.173	742.06
519.389	745.06
519.605	746.06
519.82	751.06
520.036	769.06
520.251	766.06
520.467	786.06
520.682	810.06
520.898	820.06
521.113	818.06
521.329	882.06
521.544	971.06
521.76	1174.06
521.975	1884.06
522.19	1869.06
522.406	1078.06
522.621	840.06
522.836	746.06
523.052	733.06
523.267	705.06
523.482	678.06
523.698	679.06
523.913	686.06
524.128	712.06
524.343	671.06
524.559	633.06
524.774	636.06
524.989	646.06
525.204	655.06
525.419	663.06
525.634	631.06
525.849	646.06
526.064	631.06
526.28	601.06
526.495	610.06
526.71	609.06
526.925	597.06
527.14	630.06
527.355	608.06
527.57	612.06
527.785	591.06
527.999	606.06
528.214	611.06
528.429	603.06
528.644	611.06
528.859	637.06
529.074	591.06
529.289	637.06
529.503	730.06
529.718	699.06
529.933	687.06
530.148	645.06
530.363	624.06
530.577	598.06
530.792	599.06
531.007	594.06
531.221	573.06
531.436	593.06
531.651	590.06
531.865	593.06
532.08	588.06
532.295	589.06
532.509	581.06
532.724	587.06
532.938	578.06
533.153	582.06
533.367	539.06
533.582	585.06
533.796	590.06
534.011	573.06
534.225	563.06
534.44	561.06
534.654	570.06
534.868	568.06
535.083	555.06
535.297	557.06
535.511	575.06
535.726	608.06
535.94	569.06
536.154	578.06
536.369	574.06
536.583	537.06
536.797	552.06
537.011	560.06
537.225	537.06
537.44	553.06
537.654	540.06
537.868	549.06
538.082	578.06
538.296	545.06
538.51	563.06
538.724	567.06
538.938	546.06
539.153	555.06
539.367	562.06
539.581	569.06
539.795	575.06
540.009	559.06
540.222	530.06
540.436	546.06
540.65	549.06
540.864	563.06
541.078	567.06
541.292	578.06
541.506	557.06
541.72	549.06
541.934	542.06
542.147	552.06
542.361	563.06
542.575	559.06
542.789	534.06
543.002	559.06
543.216	534.06
543.43	561.06
543.644	583.06
543.857	554.06
544.071	531.06
544.285	543.06
544.498	539.06
544.712	555.06
544.925	549.06
545.139	541.06
545.352	521.06
545.566	532.06
545.779	523.06
545.993	520.06
546.206	535.06
546.42	542.06
546.633	527.06
546.847	532.06
547.06	525.06
547.274	529.06
547.487	516.06
547.7	531.06
547.914	515.06
548.127	522.06
548.34	513.06
548.554	524.06
548.767	511.06
548.98	539.06
549.193	531.06
549.407	525.06
549.62	520.06
549.833	525.06
550.046	522.06
550.259	521.06
550.473	499.06
550.686	509.06
550.899	509.06
551.112	530.06
551.325	489.06
551.538	524.06
551.751	526.06
551.964	520.06
552.177	528.06
552.39	537.06
552.603	538.06
552.816	517.06
553.029	534.06
553.242	526.06
553.455	553.06
553.667	540.06
553.88	541.06
554.093	529.06
554.306	547.06
554.519	546.06
554.732	518.06
554.944	524.06
555.157	509.06
555.37	480.06
555.583	504.06
555.795	493.06
556.008	486.06
556.221	500.06
556.433	482.06
556.646	459.06
556.859	506.06
557.071	456.06
557.284	483.06
557.496	462.06
557.709	473.06
557.921	463.06
558.134	485.06
558.346	471.06
558.559	477.06
558.771	459.06
558.984	464.06
559.196	474.06
559.409	475.06
559.621	479.06
559.833	453.06
560.046	462.06
560.258	476.06
560.47	474.06
560.683	465.06
560.895	465.06
561.107	458.06
561.32	462.06
561.532	464.06
561.744	467.06
561.956	458.06
562.168	453.06
562.381	468.06
562.593	483.06
562.805	483.06
563.017	468.06
563.229	470.06
563.441	463.06
563.653	456.06
563.865	472.06
564.077	480.06
564.289	460.06
564.501	481.06
564.713	490.06
564.925	485.06
565.137	495.06
565.349	537.06
565.561	499.06
565.773	517.06
565.985	527.06
566.197	508.06
566.408	538.06
566.62	569.06
566.832	593.06
567.044	567.06
567.255	574.06
567.467	564.06
567.679	608.06
567.891	614.06
568.102	583.06
568.314	562.06
568.526	563.06
568.737	546.06
568.949	544.06
569.161	502.06
569.372	498.06
569.584	495.06
569.795	488.06
570.007	487.06
570.218	523.06
570.43	515.06
570.641	464.06
570.853	458.06
571.064	441.06
571.276	464.06
571.487	441.06
571.698	447.06
571.91	426.06
572.121	432.06
572.333	426.06
572.544	420.06
572.755	422.06
572.966	410.06
573.178	418.06
573.389	395.06
573.6	405.06
573.811	433.06
574.023	416.06
574.234	402.06
574.445	403.06
574.656	402.06
574.867	403.06
575.078	416.06
575.289	410.06
575.501	399.06
575.712	391.06
575.923	398.06
576.134	398.06
576.345	394.06
576.556	390.06
576.767	376.06
576.978	416.06
577.188	391.06
577.399	388.06
577.61	386.06
577.821	390.06
578.032	399.06
578.243	413.06
578.454	669.06
578.665	504.06
578.875	408.06
579.086	388.06
579.297	373.06
579.508	380.06
579.718	373.06
579.929	371.06
580.14	383.06
580.35	391.06
580.561	378.06
580.772	346.06
580.982	361.06
581.193	375.06
581.403	341.06
581.614	355.06
581.825	369.06
582.035	373.06
582.246	372.06
582.456	365.06
582.667	370.06
582.877	361.06
583.087	362.06
583.298	362.06
583.508	349.06
583.719	345.06
583.929	345.06
584.139	351.06
584.35	340.06
584.56	370.06
584.77	353.06
584.981	360.06
585.191	350.06
585.401	342.06
585.611	358.06
585.821	369.06
586.032	349.06
586.242	342.06
586.452	352.06
586.662	342.06
586.872	355.06
587.082	352.06
587.292	355.06
587.502	349.06
587.713	366.06
587.923	365.06
588.133	344.06
588.343	345.06
588.553	356.06
588.762	350.06
588.972	345.06
589.182	331.06
589.392	348.06
589.602	338.06
589.812	354.06
590.022	350.06
590.232	343.06
590.441	346.06
590.651	346.06
590.861	333.06
591.071	352.06
591.281	349.06
591.49	356.06
591.7	352.06
591.91	344.06
592.119	337.06
592.329	360.06
592.539	351.06
592.748	364.06
592.958	366.06
593.167	361.06
593.377	357.06
593.587	380.06
593.796	357.06
594.006	356.06
594.215	358.06
594.424	358.06
594.634	362.06
594.843	351.06
595.053	329.06
595.262	351.06
595.472	351.06
595.681	360.06
595.89	344.06
596.1	333.06
596.309	346.06
596.518	339.06
596.727	315.06
596.937	333.06
597.146	334.06
597.355	336.06
597.564	327.06
597.774	301.06
597.983	318.06
598.192	314.06
598.401	321.06
598.61	327.06
598.819	299.06
599.028	310.06
599.237	320.06
599.446	309.06
599.655	312.06
599.864	298.06
600.073	308.06
600.282	298.06
600.491	286.06
600.7	284.06
600.909	291.06
601.118	277.06
601.327	286.06
601.536	295.06
601.745	295.06
601.953	291.06
602.162	275.06
602.371	278.06
602.58	288.06
602.789	278.06
602.997	288.06
603.206	290.06
603.415	294.06
603.623	294.06
603.832	288.06
604.041	294.06
604.249	286.06
604.458	288.06
604.666	288.06
604.875	282.06
605.084	285.06
605.292	290.06
605.501	280.06
605.709	294.06
605.918	281.06
606.126	285.06
606.334	278.06
606.543	273.06
606.751	280.06
606.96	283.06
607.168	285.06
607.376	263.06
607.585	279.06
607.793	267.06
608.001	295.06
608.21	286.06
608.418	291.06
608.626	289.06
608.834	257.06
609.043	270.06
609.251	305.06
609.459	279.06
609.667	273.06
609.875	268.06
610.083	288.06
610.291	285.06
610.499	269.06
610.707	269.06
610.916	283.06
611.124	284.06
611.332	283.06
611.54	303.06
611.748	278.06
611.955	298.06
612.163	290.06
612.371	282.06
612.579	278.06
612.787	279.06
612.995	266.06
613.203	288.06
613.411	279.06
613.618	282.06
613.826	274.06
614.034	263.06
614.242	259.06
614.449	268.06
614.657	267.06
614.865	263.06
615.072	267.06
615.28	274.06
615.488	261.06
615.695	261.06
615.903	272.06
616.111	281.06
616.318	282.06
616.526	272.06
616.733	263.06
616.941	260.06
617.148	274.06
617.356	265.06
617.563	261.06
617.771	266.06
617.978	268.06
618.185	266.06
618.393	253.06
618.6	251.06
618.807	267.06
619.015	257.06
619.222	263.06
619.429	255.06
619.637	251.06
619.844	257.06
620.051	264.06
620.258	250.06
620.466	247.06
620.673	256.06
620.88	242.06
621.087	256.06
621.294	249.06
621.501	248.06
621.708	246.06
621.915	253.06
622.122	237.06
622.329	241.06
622.536	233.06
622.743	248.06
622.95	248.06
623.157	244.06
623.364	243.06
623.571	237.06
623.778	259.06
623.985	235.06
624.192	240.06
624.399	240.06
624.606	245.06
624.812	231.06
625.019	246.06
625.226	251.06
625.433	239.06
625.639	233.06
625.846	230.06
626.053	227.06
626.259	236.06
626.466	246.06
626.673	215.06
626.879	233.06
627.086	223.06
627.293	230.06
627.499	235.06
627.706	214.06
627.912	235.06
628.119	254.06
628.325	234.06
628.532	229.06
628.738	201.06
628.945	225.06
629.151	230.06
629.357	217.06
629.564	206.06
629.77	221.06
629.976	220.06
630.183	218.06
630.389	217.06
630.595	212.06
630.802	218.06
631.008	218.06
631.214	226.06
631.42	203.06
631.627	217.06
631.833	214.06
632.039	197.06
632.245	211.06
632.451	209.06
632.657	223.06
632.863	200.06
633.069	202.06
633.275	206.06
633.481	218.06
633.688	204.06
633.893	210.06
634.099	208.06
634.305	215.06
634.511	209.06
634.717	208.06
634.923	197.06
635.129	194.06
635.335	217.06
635.541	206.06
635.747	209.06
635.952	206.06
636.158	192.06
636.364	202.06
636.57	209.06
636.775	197.06
636.981	204.06
637.187	198.06
637.392	191.06
637.598	202.06
637.804	190.06
638.009	190.06
638.215	191.06
638.421	199.06
638.626	184.06
638.832	190.06
639.037	207.06
639.243	200.06
639.448	196.06
639.654	212.06
639.859	200.06
640.065	192.06
640.27	186.06
640.475	186.06
640.681	187.06
640.886	202.06
641.091	197.06
641.297	200.06
641.502	184.06
641.707	189.06
641.913	187.06
642.118	193.06
642.323	193.06
642.528	189.06
642.733	173.06
642.939	180.06
643.144	189.06
643.349	174.06
643.554	171.06
643.759	176.06
643.964	166.06
644.169	171.06
644.374	177.06
644.579	184.06
644.784	175.06
644.989	189.06
645.194	178.06
645.399	181.06
645.604	185.06
645.809	195.06
646.014	182.06
646.219	179.06
646.423	178.06
646.628	169.06
646.833	169.06
647.038	175.06
647.243	186.06
647.447	183.06
647.652	190.06
647.857	182.06
648.062	170.06
648.266	169.06
648.471	170.06
648.676	186.06
648.88	190.06
649.085	204.06
649.289	174.06
649.494	181.06
649.698	215.06
649.903	189.06
650.107	179.06
650.312	191.06
650.516	167.06
650.721	180.06
650.925	168.06
651.13	169.06
651.334	151.06
651.539	170.06
651.743	166.06
651.947	158.06
652.152	150.06
652.356	167.06
652.56	151.06
652.764	150.06
652.969	145.06
653.173	145.06
653.377	150.06
653.581	135.06
653.785	153.06
653.99	140.06
654.194	148.06
654.398	147.06
654.602	145.06
654.806	133.06
655.01	152.06
655.214	145.06
655.418	127.06
655.622	145.06
655.826	147.06
656.03	143.06
656.234	154.06
656.438	160.06
656.642	139.06
656.846	119.06
657.049	125.06
657.253	135.06
657.457	120.06
657.661	117.06
657.865	103.06
658.068	118.06
658.272	117.06
658.476	122.06
658.68	105.06
658.883	101.06
659.087	97.06
659.291	100.06
659.494	84.06
659.698	105.06
659.901	106.06
660.105	99.06
660.309	107.06
660.512	106.06
660.716	89.06
660.919	85.06
661.123	101.06
661.326	81.06
661.53	93.06
661.733	83.06
661.936	92.06
662.14	89.06
662.343	73.06
662.546	86.06
662.75	81.06
662.953	88.06
663.156	74.06
663.36	73.06
663.563	82.06
663.766	70.06
663.969	85.06
664.173	75.06
664.376	84.06
664.579	77.06
664.782	75.06
664.985	77.06
665.188	91.06
665.391	67.06
665.594	83.06
665.797	79.06
666	74.06
666.203	85.06
666.406	81.06
666.609	89.06
666.812	92.06
667.015	85.06
667.218	84.06
667.421	86.06
667.624	83.06
667.827	90.06
668.03	78.06
668.232	73.06
668.435	80.06
668.638	88.06
668.841	80.06
669.043	82.06
669.246	82.06
669.449	89.06
669.651	76.06
669.854	87.06
670.057	76.06
670.259	86.06
670.462	78.06
670.665	77.06
670.867	61.06
671.07	74.06
671.272	79.06
671.475	82.06
671.677	86.06
671.88	80.06
672.082	84.06
672.284	83.06
672.487	90.06
672.689	79.06
672.892	86.06
