Data from 1988.PennyLincolnUp.Lamp.En5.5.200Scan.071819.P2_HRD10591_17-19-17-972.txt Node
Date: Thu Jul 18 17:19:17 EDT 2019
User: cochatt
Spectrometer: HR+D1059
Trigger mode: 1
Integration Time (sec): 1.000000E-1
Scans to average: 1
Electric dark correction enabled: true
Nonlinearity correction enabled: false
Boxcar width: 0
XAxis mode: Wavelengths
Number of Pixels in Spectrum: 2048
>>>>>Begin Spectral Data<<<<<
223.165	-30.94
223.4	-30.94
223.635	-30.94
223.869	-15.94
224.104	-16.94
224.338	-10.94
224.573	-19.94
224.808	-7.94
225.042	-7.94
225.277	-8.94
225.511	-7.94
225.746	-9.94
225.98	14.06
226.215	11.06
226.449	33.06
226.683	22.06
226.918	25.06
227.152	32.06
227.387	27.06
227.621	52.06
227.856	34.06
228.09	50.06
228.324	53.06
228.559	55.06
228.793	66.06
229.027	94.06
229.262	116.06
229.496	116.06
229.73	125.06
229.964	160.06
230.199	132.06
230.433	116.06
230.667	116.06
230.901	124.06
231.136	108.06
231.37	117.06
231.604	100.06
231.838	107.06
232.072	115.06
232.306	99.06
232.541	112.06
232.775	118.06
233.009	121.06
233.243	124.06
233.477	119.06
233.711	113.06
233.945	114.06
234.179	107.06
234.413	124.06
234.647	124.06
234.881	105.06
235.115	124.06
235.349	121.06
235.583	133.06
235.817	121.06
236.051	131.06
236.285	130.06
236.519	115.06
236.753	132.06
236.987	131.06
237.221	168.06
237.455	237.06
237.689	199.06
237.922	139.06
238.156	141.06
238.39	122.06
238.624	133.06
238.858	124.06
239.091	136.06
239.325	140.06
239.559	127.06
239.793	133.06
240.027	121.06
240.26	145.06
240.494	152.06
240.728	164.06
240.961	143.06
241.195	137.06
241.429	153.06
241.662	128.06
241.896	144.06
242.13	139.06
242.363	126.06
242.597	144.06
242.83	146.06
243.064	130.06
243.298	126.06
243.531	133.06
243.765	136.06
243.998	146.06
244.232	138.06
244.465	129.06
244.699	139.06
244.932	152.06
245.166	160.06
245.399	148.06
245.633	155.06
245.866	137.06
246.099	140.06
246.333	142.06
246.566	143.06
246.8	149.06
247.033	141.06
247.266	146.06
247.5	162.06
247.733	165.06
247.966	169.06
248.2	171.06
248.433	161.06
248.666	154.06
248.899	198.06
249.133	204.06
249.366	203.06
249.599	196.06
249.832	184.06
250.066	181.06
250.299	184.06
250.532	195.06
250.765	196.06
250.998	213.06
251.231	214.06
251.465	208.06
251.698	205.06
251.931	192.06
252.164	189.06
252.397	192.06
252.63	205.06
252.863	192.06
253.096	219.06
253.329	228.06
253.562	215.06
253.795	218.06
254.028	222.06
254.261	212.06
254.494	245.06
254.727	267.06
254.96	295.06
255.193	259.06
255.426	257.06
255.659	218.06
255.892	228.06
256.124	221.06
256.357	224.06
256.59	232.06
256.823	205.06
257.056	207.06
257.289	207.06
257.521	200.06
257.754	216.06
257.987	190.06
258.22	208.06
258.452	209.06
258.685	214.06
258.918	201.06
259.151	199.06
259.383	224.06
259.616	226.06
259.849	237.06
260.081	233.06
260.314	248.06
260.547	250.06
260.779	249.06
261.012	229.06
261.244	214.06
261.477	234.06
261.71	227.06
261.942	236.06
262.175	245.06
262.407	228.06
262.64	205.06
262.872	227.06
263.105	218.06
263.337	206.06
263.57	213.06
263.802	210.06
264.035	222.06
264.267	206.06
264.499	209.06
264.732	222.06
264.964	222.06
265.197	213.06
265.429	218.06
265.661	218.06
265.894	213.06
266.126	217.06
266.358	213.06
266.591	229.06
266.823	220.06
267.055	210.06
267.287	233.06
267.52	228.06
267.752	242.06
267.984	224.06
268.216	230.06
268.448	232.06
268.681	229.06
268.913	254.06
269.145	269.06
269.377	288.06
269.609	274.06
269.841	259.06
270.073	292.06
270.306	281.06
270.538	306.06
270.77	289.06
271.002	290.06
271.234	267.06
271.466	297.06
271.698	308.06
271.93	312.06
272.162	329.06
272.394	328.06
272.626	296.06
272.858	278.06
273.09	285.06
273.322	277.06
273.553	285.06
273.785	276.06
274.017	276.06
274.249	276.06
274.481	267.06
274.713	276.06
274.945	267.06
275.176	266.06
275.408	266.06
275.64	248.06
275.872	270.06
276.104	252.06
276.335	274.06
276.567	276.06
276.799	268.06
277.031	306.06
277.262	324.06
277.494	317.06
277.726	292.06
277.957	282.06
278.189	294.06
278.421	269.06
278.652	280.06
278.884	256.06
279.115	250.06
279.347	266.06
279.579	284.06
279.81	278.06
280.042	280.06
280.273	269.06
280.505	264.06
280.736	261.06
280.968	275.06
281.199	277.06
281.431	282.06
281.662	276.06
281.894	300.06
282.125	265.06
282.356	301.06
282.588	300.06
282.819	304.06
283.051	297.06
283.282	262.06
283.513	278.06
283.745	289.06
283.976	285.06
284.207	280.06
284.439	295.06
284.67	293.06
284.901	272.06
285.132	291.06
285.364	294.06
285.595	286.06
285.826	281.06
286.057	287.06
286.288	270.06
286.52	298.06
286.751	287.06
286.982	280.06
287.213	260.06
287.444	296.06
287.675	292.06
287.906	325.06
288.138	308.06
288.369	317.06
288.6	304.06
288.831	311.06
289.062	292.06
289.293	304.06
289.524	314.06
289.755	323.06
289.986	293.06
290.217	297.06
290.448	317.06
290.679	314.06
290.91	289.06
291.141	304.06
291.371	306.06
291.602	307.06
291.833	301.06
292.064	315.06
292.295	296.06
292.526	290.06
292.757	320.06
292.987	298.06
293.218	295.06
293.449	306.06
293.68	288.06
293.91	298.06
294.141	307.06
294.372	312.06
294.603	304.06
294.833	308.06
295.064	309.06
295.295	308.06
295.525	319.06
295.756	316.06
295.987	302.06
296.217	342.06
296.448	354.06
296.679	319.06
296.909	317.06
297.14	299.06
297.37	316.06
297.601	305.06
297.831	306.06
298.062	313.06
298.292	314.06
298.523	313.06
298.753	326.06
298.984	307.06
299.214	316.06
299.445	317.06
299.675	325.06
299.905	324.06
300.136	328.06
300.366	321.06
300.597	332.06
300.827	330.06
301.057	347.06
301.288	332.06
301.518	334.06
301.748	324.06
301.979	328.06
302.209	336.06
302.439	367.06
302.669	353.06
302.9	337.06
303.13	341.06
303.36	350.06
303.59	329.06
303.82	356.06
304.051	347.06
304.281	342.06
304.511	336.06
304.741	333.06
304.971	335.06
305.201	343.06
305.431	340.06
305.661	338.06
305.891	359.06
306.121	339.06
306.352	354.06
306.582	375.06
306.812	352.06
307.042	338.06
307.272	360.06
307.502	357.06
307.731	370.06
307.961	350.06
308.191	350.06
308.421	373.06
308.651	347.06
308.881	352.06
309.111	349.06
309.341	376.06
309.571	358.06
309.8	378.06
310.03	382.06
310.26	389.06
310.49	391.06
310.72	404.06
310.949	420.06
311.179	417.06
311.409	393.06
311.639	405.06
311.868	388.06
312.098	400.06
312.328	391.06
312.557	429.06
312.787	425.06
313.017	419.06
313.246	397.06
313.476	409.06
313.706	386.06
313.935	396.06
314.165	423.06
314.394	434.06
314.624	440.06
314.853	406.06
315.083	394.06
315.312	400.06
315.542	398.06
315.771	388.06
316.001	393.06
316.23	412.06
316.46	403.06
316.689	393.06
316.919	402.06
317.148	410.06
317.377	409.06
317.607	408.06
317.836	389.06
318.065	400.06
318.295	403.06
318.524	400.06
318.753	395.06
318.983	385.06
319.212	405.06
319.441	399.06
319.67	394.06
319.9	388.06
320.129	403.06
320.358	391.06
320.587	409.06
320.816	429.06
321.046	438.06
321.275	422.06
321.504	410.06
321.733	409.06
321.962	424.06
322.191	440.06
322.42	455.06
322.649	471.06
322.878	477.06
323.108	497.06
323.337	485.06
323.566	538.06
323.795	555.06
324.024	599.06
324.253	723.06
324.482	1094.06
324.71	1628.06
324.939	2364.06
325.168	2022.06
325.397	1020.06
325.626	716.06
325.855	613.06
326.084	556.06
326.313	537.06
326.542	535.06
326.77	582.06
326.999	690.06
327.228	948.06
327.457	1427.06
327.686	1746.06
327.914	1181.06
328.143	756.06
328.372	646.06
328.6	601.06
328.829	584.06
329.058	560.06
329.287	579.06
329.515	560.06
329.744	501.06
329.972	512.06
330.201	520.06
330.43	523.06
330.658	589.06
330.887	617.06
331.115	606.06
331.344	558.06
331.572	523.06
331.801	514.06
332.03	527.06
332.258	534.06
332.486	471.06
332.715	498.06
332.943	468.06
333.172	475.06
333.4	456.06
333.629	485.06
333.857	529.06
334.085	492.06
334.314	483.06
334.542	499.06
334.771	474.06
334.999	481.06
335.227	488.06
335.455	468.06
335.684	461.06
335.912	489.06
336.14	458.06
336.369	479.06
336.597	482.06
336.825	477.06
337.053	477.06
337.281	446.06
337.51	454.06
337.738	455.06
337.966	470.06
338.194	482.06
338.422	466.06
338.65	467.06
338.878	466.06
339.106	449.06
339.334	454.06
339.562	448.06
339.79	450.06
340.018	449.06
340.246	460.06
340.474	461.06
340.702	480.06
340.93	443.06
341.158	444.06
341.386	426.06
341.614	453.06
341.842	461.06
342.07	440.06
342.298	454.06
342.526	444.06
342.754	427.06
342.981	425.06
343.209	433.06
343.437	452.06
343.665	454.06
343.893	445.06
344.12	462.06
344.348	456.06
344.576	460.06
344.804	466.06
345.031	454.06
345.259	494.06
345.487	480.06
345.714	460.06
345.942	444.06
346.17	432.06
346.397	429.06
346.625	454.06
346.853	432.06
347.08	436.06
347.308	436.06
347.535	448.06
347.763	453.06
347.99	452.06
348.218	432.06
348.445	459.06
348.673	477.06
348.9	454.06
349.128	421.06
349.355	445.06
349.583	450.06
349.81	435.06
350.037	428.06
350.265	420.06
350.492	418.06
350.72	418.06
350.947	455.06
351.174	430.06
351.402	428.06
351.629	456.06
351.856	438.06
352.083	433.06
352.311	468.06
352.538	454.06
352.765	463.06
352.992	446.06
353.22	440.06
353.447	431.06
353.674	431.06
353.901	417.06
354.128	426.06
354.355	414.06
354.583	443.06
354.81	413.06
355.037	407.06
355.264	421.06
355.491	424.06
355.718	422.06
355.945	411.06
356.172	416.06
356.399	423.06
356.626	393.06
356.853	395.06
357.08	404.06
357.307	413.06
357.534	400.06
357.761	424.06
357.988	396.06
358.215	411.06
358.441	416.06
358.668	413.06
358.895	420.06
359.122	422.06
359.349	437.06
359.576	436.06
359.802	472.06
360.029	520.06
360.256	497.06
360.483	486.06
360.709	445.06
360.936	452.06
361.163	453.06
361.39	432.06
361.616	445.06
361.843	451.06
362.07	446.06
362.296	437.06
362.523	439.06
362.749	453.06
362.976	429.06
363.203	446.06
363.429	418.06
363.656	424.06
363.882	419.06
364.109	406.06
364.335	402.06
364.562	420.06
364.788	409.06
365.015	421.06
365.241	413.06
365.468	437.06
365.694	419.06
365.92	434.06
366.147	432.06
366.373	406.06
366.599	437.06
366.826	422.06
367.052	395.06
367.278	402.06
367.505	414.06
367.731	411.06
367.957	413.06
368.184	426.06
368.41	428.06
368.636	408.06
368.862	428.06
369.089	429.06
369.315	414.06
369.541	434.06
369.767	434.06
369.993	442.06
370.219	424.06
370.445	418.06
370.672	419.06
370.898	447.06
371.124	408.06
371.35	418.06
371.576	428.06
371.802	420.06
372.028	411.06
372.254	417.06
372.48	420.06
372.706	408.06
372.932	405.06
373.158	404.06
373.384	416.06
373.61	405.06
373.835	426.06
374.061	413.06
374.287	451.06
374.513	428.06
374.739	428.06
374.965	413.06
375.191	432.06
375.416	436.06
375.642	425.06
375.868	414.06
376.094	420.06
376.319	426.06
376.545	453.06
376.771	420.06
376.997	395.06
377.222	415.06
377.448	408.06
377.674	387.06
377.899	410.06
378.125	401.06
378.35	405.06
378.576	409.06
378.802	384.06
379.027	441.06
379.253	409.06
379.478	418.06
379.704	401.06
379.929	393.06
380.155	408.06
380.38	416.06
380.606	428.06
380.831	407.06
381.057	420.06
381.282	452.06
381.507	428.06
381.733	421.06
381.958	418.06
382.184	413.06
382.409	420.06
382.634	422.06
382.86	441.06
383.085	429.06
383.31	419.06
383.535	442.06
383.761	436.06
383.986	420.06
384.211	422.06
384.436	429.06
384.662	441.06
384.887	434.06
385.112	446.06
385.337	456.06
385.562	449.06
385.787	452.06
386.013	458.06
386.238	487.06
386.463	465.06
386.688	450.06
386.913	451.06
387.138	473.06
387.363	448.06
387.588	455.06
387.813	477.06
388.038	436.06
388.263	466.06
388.488	449.06
388.713	480.06
388.938	463.06
389.163	473.06
389.387	469.06
389.612	471.06
389.837	461.06
390.062	457.06
390.287	449.06
390.512	460.06
390.736	458.06
390.961	457.06
391.186	452.06
391.411	472.06
391.636	473.06
391.86	470.06
392.085	453.06
392.31	461.06
392.534	485.06
392.759	484.06
392.984	489.06
393.208	450.06
393.433	476.06
393.658	478.06
393.882	470.06
394.107	481.06
394.331	465.06
394.556	460.06
394.78	470.06
395.005	469.06
395.229	487.06
395.454	466.06
395.678	476.06
395.903	516.06
396.127	507.06
396.352	499.06
396.576	486.06
396.801	499.06
397.025	454.06
397.249	500.06
397.474	486.06
397.698	472.06
397.922	526.06
398.147	530.06
398.371	523.06
398.595	494.06
398.82	534.06
399.044	537.06
399.268	555.06
399.492	581.06
399.717	593.06
399.941	616.06
400.165	654.06
400.389	680.06
400.613	611.06
400.837	566.06
401.062	544.06
401.286	547.06
401.51	529.06
401.734	517.06
401.958	533.06
402.182	550.06
402.406	554.06
402.63	556.06
402.854	555.06
403.078	542.06
403.302	543.06
403.526	553.06
403.75	537.06
403.974	552.06
404.198	557.06
404.422	558.06
404.645	564.06
404.869	563.06
405.093	593.06
405.317	596.06
405.541	611.06
405.765	574.06
405.988	572.06
406.212	584.06
406.436	601.06
406.66	620.06
406.883	614.06
407.107	614.06
407.331	672.06
407.555	727.06
407.778	724.06
408.002	666.06
408.226	637.06
408.449	604.06
408.673	626.06
408.896	656.06
409.12	688.06
409.344	651.06
409.567	594.06
409.791	578.06
410.014	556.06
410.238	547.06
410.461	541.06
410.685	556.06
410.908	567.06
411.132	605.06
411.355	655.06
411.578	619.06
411.802	567.06
412.025	563.06
412.249	547.06
412.472	553.06
412.695	558.06
412.919	539.06
413.142	520.06
413.365	522.06
413.589	534.06
413.812	524.06
414.035	516.06
414.258	528.06
414.482	528.06
414.705	525.06
414.928	501.06
415.151	518.06
415.374	490.06
415.597	517.06
415.821	514.06
416.044	520.06
416.267	516.06
416.49	514.06
416.713	512.06
416.936	531.06
417.159	498.06
417.382	518.06
417.605	517.06
417.828	518.06
418.051	553.06
418.274	553.06
418.497	551.06
418.72	547.06
418.943	517.06
419.166	539.06
419.389	552.06
419.611	553.06
419.834	547.06
420.057	567.06
420.28	557.06
420.503	555.06
420.726	534.06
420.948	530.06
421.171	584.06
421.394	615.06
421.617	575.06
421.839	548.06
422.062	530.06
422.285	554.06
422.507	618.06
422.73	694.06
422.953	680.06
423.175	599.06
423.398	596.06
423.621	574.06
423.843	553.06
424.066	572.06
424.288	568.06
424.511	610.06
424.733	672.06
424.956	770.06
425.178	723.06
425.401	711.06
425.623	724.06
425.846	628.06
426.068	595.06
426.291	590.06
426.513	578.06
426.735	599.06
426.958	640.06
427.18	715.06
427.402	857.06
427.625	954.06
427.847	829.06
428.069	690.06
428.292	598.06
428.514	584.06
428.736	568.06
428.958	562.06
429.181	549.06
429.403	553.06
429.625	551.06
429.847	613.06
430.069	652.06
430.292	660.06
430.514	573.06
430.736	548.06
430.958	534.06
431.18	518.06
431.402	528.06
431.624	505.06
431.846	500.06
432.068	504.06
432.29	522.06
432.512	498.06
432.734	512.06
432.956	514.06
433.178	499.06
433.4	528.06
433.622	516.06
433.844	516.06
434.066	510.06
434.287	500.06
434.509	548.06
434.731	533.06
434.953	542.06
435.175	540.06
435.397	579.06
435.618	598.06
435.84	637.06
436.062	714.06
436.284	802.06
436.505	669.06
436.727	618.06
436.949	549.06
437.17	533.06
437.392	542.06
437.614	551.06
437.835	587.06
438.057	683.06
438.278	801.06
438.5	817.06
438.721	875.06
438.943	822.06
439.165	660.06
439.386	608.06
439.608	588.06
439.829	596.06
440.05	621.06
440.272	685.06
440.493	633.06
440.715	562.06
440.936	548.06
441.158	544.06
441.379	561.06
441.6	544.06
441.822	586.06
442.043	624.06
442.264	693.06
442.486	777.06
442.707	660.06
442.928	602.06
443.149	600.06
443.371	639.06
443.592	666.06
443.813	781.06
444.034	821.06
444.255	685.06
444.476	626.06
444.698	621.06
444.919	608.06
445.14	673.06
445.361	648.06
445.582	631.06
445.803	693.06
446.024	808.06
446.245	818.06
446.466	752.06
446.687	633.06
446.908	611.06
447.129	561.06
447.35	547.06
447.571	542.06
447.792	533.06
448.013	557.06
448.234	563.06
448.455	617.06
448.675	784.06
448.896	855.06
449.117	716.06
449.338	694.06
449.559	793.06
449.779	894.06
450	735.06
450.221	608.06
450.442	544.06
450.662	530.06
450.883	534.06
451.104	531.06
451.324	560.06
451.545	514.06
451.766	534.06
451.986	500.06
452.207	472.06
452.428	475.06
452.648	502.06
452.869	486.06
453.089	494.06
453.31	517.06
453.53	511.06
453.751	505.06
453.971	496.06
454.192	524.06
454.412	518.06
454.633	477.06
454.853	481.06
455.073	484.06
455.294	506.06
455.514	579.06
455.734	562.06
455.955	469.06
456.175	467.06
456.395	485.06
456.616	464.06
456.836	459.06
457.056	462.06
457.276	451.06
457.497	455.06
457.717	469.06
457.937	472.06
458.157	493.06
458.377	478.06
458.598	512.06
458.818	544.06
459.038	642.06
459.258	654.06
459.478	556.06
459.698	520.06
459.918	509.06
460.138	538.06
460.358	509.06
460.578	536.06
460.798	538.06
461.018	526.06
461.238	530.06
461.458	515.06
461.678	518.06
461.898	548.06
462.118	514.06
462.338	550.06
462.558	552.06
462.777	561.06
462.997	565.06
463.217	567.06
463.437	584.06
463.657	571.06
463.876	561.06
464.096	560.06
464.316	588.06
464.536	552.06
464.755	568.06
464.975	582.06
465.195	610.06
465.414	676.06
465.634	610.06
465.854	566.06
466.073	536.06
466.293	512.06
466.512	496.06
466.732	503.06
466.951	517.06
467.171	508.06
467.391	517.06
467.61	519.06
467.829	530.06
468.049	516.06
468.268	509.06
468.488	482.06
468.707	510.06
468.927	487.06
469.146	502.06
469.365	486.06
469.585	492.06
469.804	491.06
470.023	534.06
470.243	522.06
470.462	520.06
470.681	527.06
470.901	515.06
471.12	514.06
471.339	509.06
471.558	507.06
471.777	504.06
471.997	500.06
472.216	489.06
472.435	514.06
472.654	499.06
472.873	476.06
473.092	495.06
473.311	487.06
473.53	502.06
473.749	508.06
473.968	551.06
474.187	654.06
474.406	681.06
474.625	585.06
474.844	530.06
475.063	519.06
475.282	505.06
475.501	483.06
475.72	518.06
475.939	514.06
476.158	524.06
476.377	499.06
476.596	532.06
476.814	531.06
477.033	550.06
477.252	541.06
477.471	557.06
477.69	541.06
477.908	571.06
478.127	556.06
478.346	557.06
478.564	583.06
478.783	591.06
479.002	554.06
479.22	566.06
479.439	590.06
479.658	606.06
479.876	597.06
480.095	613.06
480.313	665.06
480.532	629.06
480.751	620.06
480.969	603.06
481.188	637.06
481.406	619.06
481.624	604.06
481.843	591.06
482.061	611.06
482.28	618.06
482.498	586.06
482.717	590.06
482.935	585.06
483.153	578.06
483.372	560.06
483.59	600.06
483.808	594.06
484.027	613.06
484.245	608.06
484.463	595.06
484.681	626.06
484.9	604.06
485.118	633.06
485.336	587.06
485.554	604.06
485.772	594.06
485.99	606.06
486.209	607.06
486.427	629.06
486.645	627.06
486.863	662.06
487.081	650.06
487.299	620.06
487.517	641.06
487.735	633.06
487.953	622.06
488.171	628.06
488.389	636.06
488.607	646.06
488.825	622.06
489.043	629.06
489.261	622.06
489.479	666.06
489.696	625.06
489.914	642.06
490.132	644.06
490.35	638.06
490.568	655.06
490.786	661.06
491.003	673.06
491.221	697.06
491.439	692.06
491.657	730.06
491.874	705.06
492.092	698.06
492.31	720.06
492.527	718.06
492.745	729.06
492.963	715.06
493.18	718.06
493.398	717.06
493.615	729.06
493.833	738.06
494.05	744.06
494.268	731.06
494.485	718.06
494.703	743.06
494.92	726.06
495.138	749.06
495.355	746.06
495.573	758.06
495.79	759.06
496.008	736.06
496.225	733.06
496.442	757.06
496.66	756.06
496.877	756.06
497.094	751.06
497.312	749.06
497.529	800.06
497.746	826.06
497.963	802.06
498.181	813.06
498.398	811.06
498.615	846.06
498.832	871.06
499.049	875.06
499.267	896.06
499.484	942.06
499.701	960.06
499.918	979.06
500.135	1057.06
500.352	1078.06
500.569	1106.06
500.786	1084.06
501.003	1095.06
501.22	1060.06
501.437	981.06
501.654	984.06
501.871	959.06
502.088	934.06
502.305	891.06
502.522	889.06
502.739	849.06
502.956	833.06
503.172	822.06
503.389	822.06
503.606	809.06
503.823	809.06
504.04	790.06
504.256	772.06
504.473	779.06
504.69	778.06
504.907	761.06
505.123	744.06
505.34	752.06
505.557	762.06
505.773	726.06
505.99	732.06
506.207	732.06
506.423	728.06
506.64	718.06
506.856	711.06
507.073	722.06
507.289	701.06
507.506	694.06
507.722	704.06
507.939	732.06
508.155	729.06
508.372	675.06
508.588	664.06
508.805	663.06
509.021	685.06
509.238	707.06
509.454	703.06
509.67	705.06
509.887	703.06
510.103	689.06
510.319	718.06
510.536	813.06
510.752	1310.06
510.968	1095.06
511.184	722.06
511.401	676.06
511.617	676.06
511.833	657.06
512.049	653.06
512.265	654.06
512.481	649.06
512.698	651.06
512.914	659.06
513.13	640.06
513.346	652.06
513.562	660.06
513.778	671.06
513.994	669.06
514.21	679.06
514.426	707.06
514.642	762.06
514.858	776.06
515.074	828.06
515.29	966.06
515.506	1385.06
515.721	1208.06
515.937	825.06
516.153	734.06
516.369	715.06
516.585	699.06
516.801	677.06
517.016	667.06
517.232	672.06
517.448	678.06
517.664	675.06
517.879	701.06
518.095	662.06
518.311	685.06
518.527	650.06
518.742	696.06
518.958	680.06
519.173	686.06
519.389	666.06
519.605	675.06
519.82	674.06
520.036	692.06
520.251	719.06
520.467	714.06
520.682	729.06
520.898	721.06
521.113	780.06
521.329	803.06
521.544	870.06
521.76	1099.06
521.975	1852.06
522.19	1818.06
522.406	1012.06
522.621	778.06
522.836	677.06
523.052	644.06
523.267	615.06
523.482	624.06
523.698	585.06
523.913	617.06
524.128	626.06
524.343	599.06
524.559	583.06
524.774	593.06
524.989	570.06
525.204	586.06
525.419	589.06
525.634	584.06
525.849	564.06
526.064	566.06
526.28	549.06
526.495	560.06
526.71	553.06
526.925	542.06
527.14	541.06
527.355	540.06
527.57	530.06
527.785	554.06
527.999	526.06
528.214	545.06
528.429	541.06
528.644	548.06
528.859	528.06
529.074	542.06
529.289	572.06
529.503	650.06
529.718	615.06
529.933	586.06
530.148	582.06
530.363	565.06
530.577	533.06
530.792	537.06
531.007	527.06
531.221	547.06
531.436	532.06
531.651	509.06
531.865	512.06
532.08	528.06
532.295	510.06
532.509	508.06
532.724	522.06
532.938	527.06
533.153	512.06
533.367	500.06
533.582	514.06
533.796	504.06
534.011	531.06
534.225	503.06
534.44	520.06
534.654	505.06
534.868	508.06
535.083	510.06
535.297	502.06
535.511	525.06
535.726	540.06
535.94	534.06
536.154	523.06
536.369	527.06
536.583	480.06
536.797	503.06
537.011	489.06
537.225	528.06
537.44	486.06
537.654	498.06
537.868	473.06
538.082	488.06
538.296	497.06
538.51	484.06
538.724	486.06
538.938	499.06
539.153	498.06
539.367	507.06
539.581	501.06
539.795	486.06
540.009	477.06
540.222	491.06
540.436	483.06
540.65	477.06
540.864	480.06
541.078	471.06
541.292	506.06
541.506	484.06
541.72	510.06
541.934	481.06
542.147	502.06
542.361	477.06
542.575	487.06
542.789	489.06
543.002	450.06
543.216	481.06
543.43	491.06
543.644	518.06
543.857	502.06
544.071	473.06
544.285	492.06
544.498	490.06
544.712	477.06
544.925	459.06
545.139	478.06
545.352	476.06
545.566	489.06
545.779	492.06
545.993	466.06
546.206	474.06
546.42	485.06
546.633	471.06
546.847	462.06
547.06	455.06
547.274	488.06
547.487	472.06
547.7	491.06
547.914	450.06
548.127	467.06
548.34	474.06
548.554	472.06
548.767	479.06
548.98	473.06
549.193	466.06
549.407	457.06
549.62	473.06
549.833	471.06
550.046	478.06
550.259	447.06
550.473	474.06
550.686	467.06
550.899	474.06
551.112	469.06
551.325	465.06
551.538	469.06
551.751	461.06
551.964	454.06
552.177	478.06
552.39	461.06
552.603	457.06
552.816	457.06
553.029	469.06
553.242	470.06
553.455	494.06
553.667	504.06
553.88	480.06
554.093	487.06
554.306	476.06
554.519	471.06
554.732	470.06
554.944	451.06
555.157	463.06
555.37	458.06
555.583	441.06
555.795	437.06
556.008	441.06
556.221	434.06
556.433	410.06
556.646	422.06
556.859	419.06
557.071	433.06
557.284	438.06
557.496	424.06
557.709	434.06
557.921	424.06
558.134	433.06
558.346	412.06
558.559	418.06
558.771	414.06
558.984	425.06
559.196	409.06
559.409	413.06
559.621	420.06
559.833	431.06
560.046	403.06
560.258	402.06
560.47	421.06
560.683	426.06
560.895	425.06
561.107	425.06
561.32	418.06
561.532	404.06
561.744	413.06
561.956	418.06
562.168	411.06
562.381	421.06
562.593	423.06
562.805	423.06
563.017	425.06
563.229	409.06
563.441	438.06
563.653	437.06
563.865	421.06
564.077	445.06
564.289	411.06
564.501	409.06
564.713	459.06
564.925	452.06
565.137	459.06
565.349	443.06
565.561	436.06
565.773	469.06
565.985	456.06
566.197	472.06
566.408	482.06
566.62	485.06
566.832	501.06
567.044	490.06
567.255	518.06
567.467	526.06
567.679	516.06
567.891	532.06
568.102	555.06
568.314	521.06
568.526	504.06
568.737	497.06
568.949	484.06
569.161	441.06
569.372	439.06
569.584	458.06
569.795	424.06
570.007	443.06
570.218	485.06
570.43	475.06
570.641	427.06
570.853	427.06
571.064	408.06
571.276	394.06
571.487	401.06
571.698	406.06
571.91	391.06
572.121	387.06
572.333	383.06
572.544	382.06
572.755	369.06
572.966	381.06
573.178	385.06
573.389	402.06
573.6	378.06
573.811	366.06
574.023	361.06
574.234	347.06
574.445	375.06
574.656	353.06
574.867	363.06
575.078	352.06
575.289	369.06
575.501	334.06
575.712	339.06
575.923	344.06
576.134	332.06
576.345	354.06
576.556	346.06
576.767	347.06
576.978	356.06
577.188	372.06
577.399	352.06
577.61	363.06
577.821	342.06
578.032	369.06
578.243	384.06
578.454	616.06
578.665	497.06
578.875	352.06
579.086	355.06
579.297	340.06
579.508	330.06
579.718	350.06
579.929	331.06
580.14	343.06
580.35	349.06
580.561	327.06
580.772	338.06
580.982	329.06
581.193	326.06
581.403	331.06
581.614	315.06
581.825	338.06
582.035	306.06
582.246	322.06
582.456	336.06
582.667	342.06
582.877	330.06
583.087	313.06
583.298	320.06
583.508	300.06
583.719	332.06
583.929	313.06
584.139	319.06
584.35	320.06
584.56	324.06
584.77	323.06
584.981	329.06
585.191	298.06
585.401	319.06
585.611	316.06
585.821	302.06
586.032	314.06
586.242	314.06
586.452	309.06
586.662	317.06
586.872	298.06
587.082	324.06
587.292	310.06
587.502	298.06
587.713	310.06
587.923	323.06
588.133	318.06
588.343	311.06
588.553	314.06
588.762	296.06
588.972	306.06
589.182	304.06
589.392	321.06
589.602	310.06
589.812	303.06
590.022	298.06
590.232	304.06
590.441	306.06
590.651	325.06
590.861	302.06
591.071	304.06
591.281	312.06
591.49	310.06
591.7	324.06
591.91	316.06
592.119	312.06
592.329	320.06
592.539	324.06
592.748	321.06
592.958	334.06
593.167	335.06
593.377	330.06
593.587	350.06
593.796	341.06
594.006	328.06
594.215	340.06
594.424	336.06
594.634	323.06
594.843	317.06
595.053	319.06
595.262	305.06
595.472	326.06
595.681	309.06
595.89	300.06
596.1	301.06
596.309	290.06
596.518	305.06
596.727	306.06
596.937	306.06
597.146	300.06
597.355	312.06
597.564	311.06
597.774	304.06
597.983	290.06
598.192	283.06
598.401	285.06
598.61	292.06
598.819	277.06
599.028	279.06
599.237	282.06
599.446	275.06
599.655	277.06
599.864	275.06
600.073	261.06
600.282	275.06
600.491	276.06
600.7	296.06
600.909	284.06
601.118	272.06
601.327	258.06
601.536	267.06
601.745	276.06
601.953	263.06
602.162	282.06
602.371	262.06
602.58	260.06
602.789	267.06
602.997	274.06
603.206	257.06
603.415	275.06
603.623	245.06
603.832	264.06
604.041	258.06
604.249	264.06
604.458	269.06
604.666	253.06
604.875	269.06
605.084	270.06
605.292	254.06
605.501	254.06
605.709	262.06
605.918	267.06
606.126	249.06
606.334	254.06
606.543	261.06
606.751	263.06
606.96	256.06
607.168	262.06
607.376	258.06
607.585	257.06
607.793	232.06
608.001	261.06
608.21	260.06
608.418	259.06
608.626	244.06
608.834	252.06
609.043	245.06
609.251	236.06
609.459	247.06
609.667	244.06
609.875	251.06
610.083	260.06
610.291	252.06
610.499	253.06
610.707	247.06
610.916	236.06
611.124	253.06
611.332	267.06
611.54	244.06
611.748	269.06
611.955	245.06
612.163	260.06
612.371	254.06
612.579	248.06
612.787	262.06
612.995	241.06
613.203	241.06
613.411	230.06
613.618	245.06
613.826	240.06
614.034	248.06
614.242	253.06
614.449	230.06
614.657	248.06
614.865	243.06
615.072	252.06
615.28	257.06
615.488	230.06
615.695	234.06
615.903	241.06
616.111	250.06
616.318	244.06
616.526	227.06
616.733	242.06
616.941	226.06
617.148	264.06
617.356	229.06
617.563	245.06
617.771	224.06
617.978	239.06
618.185	226.06
618.393	252.06
618.6	244.06
618.807	249.06
619.015	235.06
619.222	229.06
619.429	227.06
619.637	259.06
619.844	248.06
620.051	238.06
620.258	220.06
620.466	229.06
620.673	242.06
620.88	221.06
621.087	220.06
621.294	231.06
621.501	225.06
621.708	213.06
621.915	214.06
622.122	231.06
622.329	225.06
622.536	217.06
622.743	232.06
622.95	226.06
623.157	222.06
623.364	236.06
623.571	249.06
623.778	230.06
623.985	214.06
624.192	227.06
624.399	217.06
624.606	222.06
624.812	228.06
625.019	234.06
625.226	214.06
625.433	226.06
625.639	213.06
625.846	229.06
626.053	213.06
626.259	225.06
626.466	212.06
626.673	218.06
626.879	207.06
627.086	210.06
627.293	230.06
627.499	217.06
627.706	212.06
627.912	203.06
628.119	205.06
628.325	210.06
628.532	220.06
628.738	207.06
628.945	220.06
629.151	205.06
629.357	226.06
629.564	217.06
629.77	214.06
629.976	196.06
630.183	202.06
630.389	188.06
630.595	206.06
630.802	199.06
631.008	205.06
631.214	187.06
631.42	204.06
631.627	207.06
631.833	194.06
632.039	212.06
632.245	188.06
632.451	197.06
632.657	193.06
632.863	199.06
633.069	201.06
633.275	198.06
633.481	185.06
633.688	196.06
633.893	206.06
634.099	195.06
634.305	188.06
634.511	198.06
634.717	185.06
634.923	189.06
635.129	199.06
635.335	188.06
635.541	180.06
635.747	182.06
635.952	190.06
636.158	187.06
636.364	195.06
636.57	181.06
636.775	181.06
636.981	201.06
637.187	173.06
637.392	190.06
637.598	192.06
637.804	184.06
638.009	180.06
638.215	163.06
638.421	188.06
638.626	188.06
638.832	172.06
639.037	174.06
639.243	187.06
639.448	184.06
639.654	186.06
639.859	178.06
640.065	174.06
640.27	173.06
640.475	182.06
640.681	180.06
640.886	189.06
641.091	168.06
641.297	168.06
641.502	181.06
641.707	180.06
641.913	196.06
642.118	177.06
642.323	169.06
642.528	171.06
642.733	173.06
642.939	180.06
643.144	166.06
643.349	178.06
643.554	170.06
643.759	166.06
643.964	172.06
644.169	165.06
644.374	162.06
644.579	173.06
644.784	165.06
644.989	181.06
645.194	163.06
645.399	163.06
645.604	170.06
645.809	172.06
646.014	170.06
646.219	162.06
646.423	171.06
646.628	168.06
646.833	178.06
647.038	175.06
647.243	165.06
647.447	198.06
647.652	178.06
647.857	174.06
648.062	182.06
648.266	171.06
648.471	170.06
648.676	183.06
648.88	164.06
649.085	176.06
649.289	172.06
649.494	164.06
649.698	195.06
649.903	192.06
650.107	174.06
650.312	176.06
650.516	137.06
650.721	162.06
650.925	170.06
651.13	171.06
651.334	157.06
651.539	163.06
651.743	164.06
651.947	141.06
652.152	164.06
652.356	141.06
652.56	163.06
652.764	162.06
652.969	149.06
653.173	148.06
653.377	152.06
653.581	143.06
653.785	134.06
653.99	150.06
654.194	146.06
654.398	137.06
654.602	141.06
654.806	138.06
655.01	155.06
655.214	142.06
655.418	130.06
655.622	140.06
655.826	144.06
656.03	140.06
656.234	138.06
656.438	130.06
656.642	140.06
656.846	144.06
657.049	136.06
657.253	126.06
657.457	122.06
657.661	133.06
657.865	124.06
658.068	119.06
658.272	104.06
658.476	90.06
658.68	108.06
658.883	109.06
659.087	106.06
659.291	105.06
659.494	113.06
659.698	101.06
659.901	99.06
660.105	106.06
660.309	78.06
660.512	73.06
660.716	89.06
660.919	91.06
661.123	90.06
661.326	93.06
661.53	84.06
661.733	88.06
661.936	81.06
662.14	87.06
662.343	81.06
662.546	83.06
662.75	95.06
662.953	85.06
663.156	102.06
663.36	81.06
663.563	97.06
663.766	108.06
663.969	91.06
664.173	88.06
664.376	86.06
664.579	81.06
664.782	85.06
664.985	83.06
665.188	82.06
665.391	77.06
665.594	90.06
665.797	91.06
666	87.06
666.203	77.06
666.406	74.06
666.609	83.06
666.812	88.06
667.015	83.06
667.218	87.06
667.421	89.06
667.624	76.06
667.827	80.06
668.03	75.06
668.232	89.06
668.435	90.06
668.638	86.06
668.841	92.06
669.043	89.06
669.246	85.06
669.449	88.06
669.651	84.06
669.854	84.06
670.057	80.06
670.259	82.06
670.462	86.06
670.665	71.06
670.867	81.06
671.07	78.06
671.272	100.06
671.475	94.06
671.677	78.06
671.88	87.06
672.082	84.06
672.284	78.06
672.487	88.06
672.689	81.06
672.892	98.06
