Data from 1988.PennyLincolnUp.Lamp.En5.5.200Scan.071819.P2_HRD10591_17-19-41-972.txt Node
Date: Thu Jul 18 17:19:41 EDT 2019
User: cochatt
Spectrometer: HR+D1059
Trigger mode: 1
Integration Time (sec): 1.000000E-1
Scans to average: 1
Electric dark correction enabled: true
Nonlinearity correction enabled: false
Boxcar width: 0
XAxis mode: Wavelengths
Number of Pixels in Spectrum: 2048
>>>>>Begin Spectral Data<<<<<
223.165	-16.12
223.4	-16.12
223.635	-16.12
223.869	-24.12
224.104	-5.12
224.338	-21.12
224.573	-13.12
224.808	-4.12
225.042	-5.12
225.277	-9.12
225.511	-0.12
225.746	3.88
225.98	6.88
226.215	8.88
226.449	14.88
226.683	11.88
226.918	25.88
227.152	25.88
227.387	30.88
227.621	35.88
227.856	39.88
228.09	51.88
228.324	51.88
228.559	47.88
228.793	67.88
229.027	101.88
229.262	106.88
229.496	112.88
229.73	145.88
229.964	150.88
230.199	135.88
230.433	121.88
230.667	110.88
230.901	120.88
231.136	104.88
231.37	124.88
231.604	104.88
231.838	118.88
232.072	122.88
232.306	121.88
232.541	118.88
232.775	124.88
233.009	118.88
233.243	116.88
233.477	128.88
233.711	118.88
233.945	124.88
234.179	118.88
234.413	131.88
234.647	125.88
234.881	128.88
235.115	120.88
235.349	126.88
235.583	130.88
235.817	139.88
236.051	119.88
236.285	134.88
236.519	133.88
236.753	138.88
236.987	145.88
237.221	191.88
237.455	258.88
237.689	195.88
237.922	147.88
238.156	147.88
238.39	128.88
238.624	130.88
238.858	130.88
239.091	130.88
239.325	128.88
239.559	134.88
239.793	140.88
240.027	139.88
240.26	134.88
240.494	166.88
240.728	159.88
240.961	148.88
241.195	166.88
241.429	158.88
241.662	156.88
241.896	148.88
242.13	120.88
242.363	152.88
242.597	137.88
242.83	130.88
243.064	149.88
243.298	142.88
243.531	130.88
243.765	164.88
243.998	136.88
244.232	152.88
244.465	134.88
244.699	143.88
244.932	154.88
245.166	142.88
245.399	166.88
245.633	170.88
245.866	149.88
246.099	153.88
246.333	149.88
246.566	157.88
246.8	164.88
247.033	164.88
247.266	166.88
247.5	179.88
247.733	156.88
247.966	169.88
248.2	182.88
248.433	174.88
248.666	191.88
248.899	199.88
249.133	233.88
249.366	225.88
249.599	210.88
249.832	195.88
250.066	188.88
250.299	201.88
250.532	204.88
250.765	215.88
250.998	223.88
251.231	241.88
251.465	228.88
251.698	200.88
251.931	208.88
252.164	203.88
252.397	213.88
252.63	210.88
252.863	200.88
253.096	237.88
253.329	247.88
253.562	228.88
253.795	222.88
254.028	223.88
254.261	214.88
254.494	238.88
254.727	247.88
254.96	274.88
255.193	291.88
255.426	262.88
255.659	250.88
255.892	216.88
256.124	231.88
256.357	237.88
256.59	238.88
256.823	239.88
257.056	212.88
257.289	234.88
257.521	218.88
257.754	224.88
257.987	206.88
258.22	214.88
258.452	223.88
258.685	223.88
258.918	218.88
259.151	217.88
259.383	217.88
259.616	250.88
259.849	244.88
260.081	239.88
260.314	278.88
260.547	269.88
260.779	280.88
261.012	242.88
261.244	237.88
261.477	235.88
261.71	230.88
261.942	244.88
262.175	258.88
262.407	264.88
262.64	217.88
262.872	237.88
263.105	212.88
263.337	211.88
263.57	237.88
263.802	221.88
264.035	226.88
264.267	232.88
264.499	243.88
264.732	235.88
264.964	229.88
265.197	236.88
265.429	229.88
265.661	224.88
265.894	230.88
266.126	248.88
266.358	243.88
266.591	235.88
266.823	244.88
267.055	246.88
267.287	238.88
267.52	236.88
267.752	230.88
267.984	227.88
268.216	262.88
268.448	239.88
268.681	255.88
268.913	281.88
269.145	283.88
269.377	296.88
269.609	275.88
269.841	282.88
270.073	270.88
270.306	322.88
270.538	327.88
270.77	333.88
271.002	310.88
271.234	302.88
271.466	325.88
271.698	340.88
271.93	336.88
272.162	315.88
272.394	341.88
272.626	331.88
272.858	318.88
273.09	291.88
273.322	306.88
273.553	275.88
273.785	283.88
274.017	282.88
274.249	273.88
274.481	292.88
274.713	278.88
274.945	278.88
275.176	271.88
275.408	277.88
275.64	282.88
275.872	281.88
276.104	278.88
276.335	284.88
276.567	292.88
276.799	307.88
277.031	314.88
277.262	328.88
277.494	335.88
277.726	338.88
277.957	293.88
278.189	292.88
278.421	288.88
278.652	285.88
278.884	307.88
279.115	286.88
279.347	274.88
279.579	291.88
279.81	276.88
280.042	287.88
280.273	286.88
280.505	276.88
280.736	272.88
280.968	291.88
281.199	262.88
281.431	297.88
281.662	309.88
281.894	295.88
282.125	296.88
282.356	307.88
282.588	325.88
282.819	315.88
283.051	296.88
283.282	284.88
283.513	284.88
283.745	298.88
283.976	296.88
284.207	317.88
284.439	307.88
284.67	314.88
284.901	310.88
285.132	306.88
285.364	303.88
285.595	291.88
285.826	276.88
286.057	317.88
286.288	316.88
286.52	302.88
286.751	297.88
286.982	308.88
287.213	282.88
287.444	300.88
287.675	324.88
287.906	312.88
288.138	324.88
288.369	326.88
288.6	314.88
288.831	320.88
289.062	314.88
289.293	310.88
289.524	323.88
289.755	327.88
289.986	287.88
290.217	301.88
290.448	307.88
290.679	306.88
290.91	319.88
291.141	306.88
291.371	314.88
291.602	316.88
291.833	315.88
292.064	303.88
292.295	306.88
292.526	294.88
292.757	316.88
292.987	303.88
293.218	308.88
293.449	303.88
293.68	322.88
293.91	324.88
294.141	323.88
294.372	294.88
294.603	325.88
294.833	325.88
295.064	313.88
295.295	317.88
295.525	318.88
295.756	338.88
295.987	332.88
296.217	350.88
296.448	348.88
296.679	323.88
296.909	341.88
297.14	335.88
297.37	339.88
297.601	340.88
297.831	354.88
298.062	324.88
298.292	339.88
298.523	333.88
298.753	343.88
298.984	340.88
299.214	335.88
299.445	333.88
299.675	330.88
299.905	338.88
300.136	345.88
300.366	326.88
300.597	345.88
300.827	335.88
301.057	346.88
301.288	354.88
301.518	357.88
301.748	344.88
301.979	342.88
302.209	373.88
302.439	347.88
302.669	354.88
302.9	364.88
303.13	353.88
303.36	364.88
303.59	351.88
303.82	365.88
304.051	361.88
304.281	350.88
304.511	352.88
304.741	366.88
304.971	370.88
305.201	345.88
305.431	360.88
305.661	365.88
305.891	341.88
306.121	359.88
306.352	376.88
306.582	360.88
306.812	359.88
307.042	356.88
307.272	360.88
307.502	350.88
307.731	374.88
307.961	356.88
308.191	361.88
308.421	367.88
308.651	362.88
308.881	371.88
309.111	378.88
309.341	372.88
309.571	387.88
309.8	380.88
310.03	397.88
310.26	404.88
310.49	419.88
310.72	437.88
310.949	437.88
311.179	421.88
311.409	404.88
311.639	409.88
311.868	399.88
312.098	410.88
312.328	416.88
312.557	431.88
312.787	429.88
313.017	452.88
313.246	432.88
313.476	410.88
313.706	378.88
313.935	395.88
314.165	429.88
314.394	425.88
314.624	423.88
314.853	423.88
315.083	441.88
315.312	411.88
315.542	412.88
315.771	408.88
316.001	406.88
316.23	412.88
316.46	409.88
316.689	419.88
316.919	407.88
317.148	429.88
317.377	416.88
317.607	396.88
317.836	432.88
318.065	419.88
318.295	400.88
318.524	425.88
318.753	404.88
318.983	428.88
319.212	420.88
319.441	420.88
319.67	429.88
319.9	436.88
320.129	426.88
320.358	411.88
320.587	441.88
320.816	430.88
321.046	445.88
321.275	450.88
321.504	438.88
321.733	443.88
321.962	458.88
322.191	477.88
322.42	464.88
322.649	474.88
322.878	500.88
323.108	510.88
323.337	525.88
323.566	560.88
323.795	600.88
324.024	639.88
324.253	760.88
324.482	1066.88
324.71	1679.88
324.939	2490.88
325.168	2122.88
325.397	1073.88
325.626	748.88
325.855	627.88
326.084	582.88
326.313	562.88
326.542	578.88
326.77	594.88
326.999	727.88
327.228	972.88
327.457	1497.88
327.686	1886.88
327.914	1231.88
328.143	805.88
328.372	682.88
328.6	638.88
328.829	635.88
329.058	624.88
329.287	632.88
329.515	588.88
329.744	578.88
329.972	518.88
330.201	527.88
330.43	571.88
330.658	602.88
330.887	666.88
331.115	661.88
331.344	576.88
331.572	517.88
331.801	536.88
332.03	526.88
332.258	517.88
332.486	514.88
332.715	482.88
332.943	468.88
333.172	513.88
333.4	520.88
333.629	505.88
333.857	519.88
334.085	496.88
334.314	494.88
334.542	510.88
334.771	534.88
334.999	503.88
335.227	506.88
335.455	505.88
335.684	508.88
335.912	486.88
336.14	484.88
336.369	486.88
336.597	480.88
336.825	492.88
337.053	479.88
337.281	495.88
337.51	492.88
337.738	488.88
337.966	484.88
338.194	481.88
338.422	495.88
338.65	481.88
338.878	472.88
339.106	477.88
339.334	498.88
339.562	473.88
339.79	481.88
340.018	474.88
340.246	507.88
340.474	489.88
340.702	491.88
340.93	470.88
341.158	489.88
341.386	478.88
341.614	487.88
341.842	485.88
342.07	473.88
342.298	467.88
342.526	457.88
342.754	460.88
342.981	463.88
343.209	461.88
343.437	488.88
343.665	473.88
343.893	490.88
344.12	512.88
344.348	495.88
344.576	486.88
344.804	502.88
345.031	485.88
345.259	475.88
345.487	502.88
345.714	482.88
345.942	482.88
346.17	490.88
346.397	485.88
346.625	462.88
346.853	486.88
347.08	459.88
347.308	464.88
347.535	493.88
347.763	486.88
347.99	487.88
348.218	484.88
348.445	484.88
348.673	479.88
348.9	466.88
349.128	461.88
349.355	442.88
349.583	464.88
349.81	467.88
350.037	452.88
350.265	450.88
350.492	450.88
350.72	463.88
350.947	463.88
351.174	463.88
351.402	485.88
351.629	458.88
351.856	469.88
352.083	481.88
352.311	477.88
352.538	497.88
352.765	490.88
352.992	480.88
353.22	479.88
353.447	479.88
353.674	451.88
353.901	429.88
354.128	438.88
354.355	419.88
354.583	446.88
354.81	445.88
355.037	436.88
355.264	431.88
355.491	450.88
355.718	420.88
355.945	442.88
356.172	425.88
356.399	425.88
356.626	435.88
356.853	444.88
357.08	415.88
357.307	425.88
357.534	438.88
357.761	436.88
357.988	446.88
358.215	438.88
358.441	431.88
358.668	425.88
358.895	446.88
359.122	453.88
359.349	473.88
359.576	467.88
359.802	483.88
360.029	519.88
360.256	505.88
360.483	517.88
360.709	483.88
360.936	490.88
361.163	472.88
361.39	473.88
361.616	475.88
361.843	463.88
362.07	458.88
362.296	482.88
362.523	472.88
362.749	469.88
362.976	466.88
363.203	459.88
363.429	474.88
363.656	440.88
363.882	446.88
364.109	433.88
364.335	456.88
364.562	458.88
364.788	453.88
365.015	439.88
365.241	436.88
365.468	451.88
365.694	464.88
365.92	467.88
366.147	451.88
366.373	458.88
366.599	453.88
366.826	433.88
367.052	448.88
367.278	440.88
367.505	453.88
367.731	441.88
367.957	434.88
368.184	441.88
368.41	454.88
368.636	464.88
368.862	453.88
369.089	487.88
369.315	472.88
369.541	449.88
369.767	463.88
369.993	455.88
370.219	483.88
370.445	446.88
370.672	475.88
370.898	448.88
371.124	456.88
371.35	448.88
371.576	461.88
371.802	455.88
372.028	455.88
372.254	458.88
372.48	449.88
372.706	435.88
372.932	435.88
373.158	452.88
373.384	482.88
373.61	463.88
373.835	460.88
374.061	456.88
374.287	466.88
374.513	476.88
374.739	473.88
374.965	481.88
375.191	479.88
375.416	442.88
375.642	460.88
375.868	461.88
376.094	460.88
376.319	448.88
376.545	454.88
376.771	476.88
376.997	453.88
377.222	436.88
377.448	459.88
377.674	454.88
377.899	446.88
378.125	430.88
378.35	467.88
378.576	461.88
378.802	433.88
379.027	442.88
379.253	463.88
379.478	450.88
379.704	446.88
379.929	447.88
380.155	455.88
380.38	459.88
380.606	450.88
380.831	454.88
381.057	442.88
381.282	444.88
381.507	456.88
381.733	450.88
381.958	466.88
382.184	491.88
382.409	475.88
382.634	478.88
382.86	461.88
383.085	460.88
383.31	484.88
383.535	475.88
383.761	480.88
383.986	470.88
384.211	479.88
384.436	513.88
384.662	494.88
384.887	490.88
385.112	504.88
385.337	499.88
385.562	513.88
385.787	500.88
386.013	518.88
386.238	484.88
386.463	490.88
386.688	494.88
386.913	490.88
387.138	494.88
387.363	508.88
387.588	499.88
387.813	491.88
388.038	502.88
388.263	514.88
388.488	512.88
388.713	510.88
388.938	518.88
389.163	518.88
389.387	491.88
389.612	488.88
389.837	505.88
390.062	498.88
390.287	496.88
390.512	511.88
390.736	502.88
390.961	525.88
391.186	514.88
391.411	516.88
391.636	513.88
391.86	523.88
392.085	545.88
392.31	541.88
392.534	521.88
392.759	522.88
392.984	535.88
393.208	517.88
393.433	503.88
393.658	526.88
393.882	518.88
394.107	503.88
394.331	535.88
394.556	496.88
394.78	524.88
395.005	516.88
395.229	539.88
395.454	520.88
395.678	518.88
395.903	546.88
396.127	587.88
396.352	568.88
396.576	544.88
396.801	537.88
397.025	548.88
397.249	544.88
397.474	542.88
397.698	551.88
397.922	584.88
398.147	582.88
398.371	577.88
398.595	586.88
398.82	597.88
399.044	617.88
399.268	592.88
399.492	653.88
399.717	674.88
399.941	706.88
400.165	707.88
400.389	722.88
400.613	678.88
400.837	605.88
401.062	594.88
401.286	606.88
401.51	607.88
401.734	600.88
401.958	608.88
402.182	610.88
402.406	608.88
402.63	613.88
402.854	615.88
403.078	589.88
403.302	601.88
403.526	595.88
403.75	595.88
403.974	593.88
404.198	597.88
404.422	629.88
404.645	626.88
404.869	611.88
405.093	636.88
405.317	656.88
405.541	692.88
405.765	637.88
405.988	633.88
406.212	642.88
406.436	681.88
406.66	693.88
406.883	678.88
407.107	690.88
407.331	745.88
407.555	806.88
407.778	811.88
408.002	752.88
408.226	709.88
408.449	663.88
408.673	668.88
408.896	701.88
409.12	751.88
409.344	698.88
409.567	655.88
409.791	644.88
410.014	617.88
410.238	619.88
410.461	631.88
410.685	622.88
410.908	644.88
411.132	687.88
411.355	712.88
411.578	692.88
411.802	636.88
412.025	619.88
412.249	606.88
412.472	604.88
412.695	640.88
412.919	608.88
413.142	612.88
413.365	575.88
413.589	603.88
413.812	571.88
414.035	574.88
414.258	580.88
414.482	583.88
414.705	576.88
414.928	580.88
415.151	564.88
415.374	587.88
415.597	598.88
415.821	580.88
416.044	580.88
416.267	564.88
416.49	559.88
416.713	565.88
416.936	582.88
417.159	585.88
417.382	573.88
417.605	585.88
417.828	615.88
418.051	613.88
418.274	612.88
418.497	575.88
418.72	589.88
418.943	558.88
419.166	619.88
419.389	638.88
419.611	612.88
419.834	609.88
420.057	624.88
420.28	586.88
420.503	580.88
420.726	587.88
420.948	606.88
421.171	655.88
421.394	700.88
421.617	612.88
421.839	588.88
422.062	634.88
422.285	634.88
422.507	689.88
422.73	764.88
422.953	767.88
423.175	655.88
423.398	654.88
423.621	613.88
423.843	652.88
424.066	656.88
424.288	647.88
424.511	696.88
424.733	729.88
424.956	829.88
425.178	793.88
425.401	805.88
425.623	814.88
425.846	702.88
426.068	652.88
426.291	660.88
426.513	655.88
426.735	670.88
426.958	710.88
427.18	815.88
427.402	939.88
427.625	1044.88
427.847	892.88
428.069	768.88
428.292	690.88
428.514	643.88
428.736	628.88
428.958	616.88
429.181	578.88
429.403	616.88
429.625	611.88
429.847	644.88
430.069	719.88
430.292	722.88
430.514	614.88
430.736	619.88
430.958	613.88
431.18	591.88
431.402	577.88
431.624	568.88
431.846	562.88
432.068	575.88
432.29	579.88
432.512	566.88
432.734	572.88
432.956	572.88
433.178	579.88
433.4	590.88
433.622	576.88
433.844	574.88
434.066	589.88
434.287	571.88
434.509	564.88
434.731	579.88
434.953	598.88
435.175	637.88
435.397	624.88
435.618	616.88
435.84	713.88
436.062	826.88
436.284	890.88
436.505	760.88
436.727	650.88
436.949	626.88
437.17	627.88
437.392	621.88
437.614	640.88
437.835	671.88
438.057	788.88
438.278	911.88
438.5	888.88
438.721	992.88
438.943	969.88
439.165	741.88
439.386	685.88
439.608	680.88
439.829	661.88
440.05	701.88
440.272	746.88
440.493	710.88
440.715	635.88
440.936	619.88
441.158	626.88
441.379	620.88
441.6	634.88
441.822	644.88
442.043	690.88
442.264	772.88
442.486	819.88
442.707	720.88
442.928	657.88
443.149	654.88
443.371	694.88
443.592	763.88
443.813	848.88
444.034	916.88
444.255	777.88
444.476	684.88
444.698	676.88
444.919	675.88
445.14	760.88
445.361	705.88
445.582	713.88
445.803	792.88
446.024	887.88
446.245	901.88
446.466	821.88
446.687	716.88
446.908	668.88
447.129	632.88
447.35	622.88
447.571	599.88
447.792	615.88
448.013	617.88
448.234	630.88
448.455	676.88
448.675	844.88
448.896	943.88
449.117	798.88
449.338	766.88
449.559	891.88
449.779	1006.88
450	801.88
450.221	662.88
450.442	591.88
450.662	583.88
450.883	598.88
451.104	629.88
451.324	594.88
451.545	589.88
451.766	582.88
451.986	562.88
452.207	540.88
452.428	535.88
452.648	551.88
452.869	544.88
453.089	572.88
453.31	565.88
453.53	566.88
453.751	540.88
453.971	544.88
454.192	566.88
454.412	558.88
454.633	558.88
454.853	538.88
455.073	565.88
455.294	578.88
455.514	638.88
455.734	624.88
455.955	566.88
456.175	512.88
456.395	513.88
456.616	527.88
456.836	511.88
457.056	518.88
457.276	521.88
457.497	508.88
457.717	505.88
457.937	504.88
458.157	514.88
458.377	521.88
458.598	553.88
458.818	595.88
459.038	705.88
459.258	728.88
459.478	638.88
459.698	594.88
459.918	570.88
460.138	593.88
460.358	576.88
460.578	594.88
460.798	610.88
461.018	611.88
461.238	599.88
461.458	565.88
461.678	584.88
461.898	590.88
462.118	593.88
462.338	593.88
462.558	611.88
462.777	602.88
462.997	630.88
463.217	630.88
463.437	654.88
463.657	637.88
463.876	633.88
464.096	644.88
464.316	629.88
464.536	643.88
464.755	643.88
464.975	641.88
465.195	645.88
465.414	756.88
465.634	692.88
465.854	620.88
466.073	605.88
466.293	592.88
466.512	564.88
466.732	566.88
466.951	545.88
467.171	529.88
467.391	568.88
467.61	570.88
467.829	587.88
468.049	579.88
468.268	553.88
468.488	539.88
468.707	554.88
468.927	543.88
469.146	533.88
469.365	547.88
469.585	541.88
469.804	547.88
470.023	554.88
470.243	548.88
470.462	572.88
470.681	593.88
470.901	575.88
471.12	574.88
471.339	567.88
471.558	560.88
471.777	572.88
471.997	564.88
472.216	524.88
472.435	550.88
472.654	550.88
472.873	572.88
473.092	544.88
473.311	548.88
473.53	567.88
473.749	578.88
473.968	606.88
474.187	721.88
474.406	756.88
474.625	630.88
474.844	598.88
475.063	588.88
475.282	566.88
475.501	574.88
475.72	572.88
475.939	576.88
476.158	581.88
476.377	590.88
476.596	581.88
476.814	596.88
477.033	582.88
477.252	581.88
477.471	600.88
477.69	608.88
477.908	627.88
478.127	638.88
478.346	613.88
478.564	628.88
478.783	640.88
479.002	622.88
479.22	646.88
479.439	674.88
479.658	668.88
479.876	686.88
480.095	704.88
480.313	695.88
480.532	700.88
480.751	676.88
480.969	673.88
481.188	699.88
481.406	716.88
481.624	703.88
481.843	694.88
482.061	669.88
482.28	683.88
482.498	655.88
482.717	646.88
482.935	691.88
483.153	635.88
483.372	656.88
483.59	669.88
483.808	646.88
484.027	666.88
484.245	675.88
484.463	674.88
484.681	661.88
484.9	688.88
485.118	682.88
485.336	662.88
485.554	701.88
485.772	710.88
485.99	697.88
486.209	674.88
486.427	674.88
486.645	702.88
486.863	706.88
487.081	723.88
487.299	728.88
487.517	731.88
487.735	689.88
487.953	694.88
488.171	726.88
488.389	700.88
488.607	722.88
488.825	695.88
489.043	700.88
489.261	724.88
489.479	721.88
489.696	725.88
489.914	721.88
490.132	732.88
490.35	723.88
490.568	736.88
490.786	759.88
491.003	770.88
491.221	760.88
491.439	800.88
491.657	805.88
491.874	795.88
492.092	806.88
492.31	796.88
492.527	815.88
492.745	821.88
492.963	810.88
493.18	819.88
493.398	840.88
493.615	804.88
493.833	818.88
494.05	832.88
494.268	817.88
494.485	826.88
494.703	830.88
494.92	867.88
495.138	833.88
495.355	836.88
495.573	852.88
495.79	845.88
496.008	830.88
496.225	856.88
496.442	830.88
496.66	849.88
496.877	831.88
497.094	868.88
497.312	851.88
497.529	895.88
497.746	902.88
497.963	923.88
498.181	936.88
498.398	941.88
498.615	931.88
498.832	992.88
499.049	998.88
499.267	1028.88
499.484	1051.88
499.701	1061.88
499.918	1097.88
500.135	1166.88
500.352	1228.88
500.569	1214.88
500.786	1250.88
501.003	1224.88
501.22	1172.88
501.437	1124.88
501.654	1138.88
501.871	1104.88
502.088	1066.88
502.305	1019.88
502.522	973.88
502.739	964.88
502.956	926.88
503.172	938.88
503.389	900.88
503.606	898.88
503.823	906.88
504.04	891.88
504.256	874.88
504.473	891.88
504.69	889.88
504.907	874.88
505.123	854.88
505.34	822.88
505.557	827.88
505.773	824.88
505.99	813.88
506.207	805.88
506.423	795.88
506.64	805.88
506.856	784.88
507.073	797.88
507.289	772.88
507.506	788.88
507.722	794.88
507.939	804.88
508.155	794.88
508.372	789.88
508.588	782.88
508.805	788.88
509.021	792.88
509.238	787.88
509.454	813.88
509.67	790.88
509.887	783.88
510.103	780.88
510.319	786.88
510.536	904.88
510.752	1386.88
510.968	1162.88
511.184	779.88
511.401	759.88
511.617	720.88
511.833	733.88
512.049	728.88
512.265	728.88
512.481	709.88
512.698	719.88
512.914	699.88
513.13	726.88
513.346	710.88
513.562	724.88
513.778	753.88
513.994	756.88
514.21	745.88
514.426	779.88
514.642	826.88
514.858	850.88
515.074	886.88
515.29	1016.88
515.506	1433.88
515.721	1229.88
515.937	897.88
516.153	822.88
516.369	811.88
516.585	766.88
516.801	779.88
517.016	786.88
517.232	784.88
517.448	779.88
517.664	750.88
517.879	776.88
518.095	780.88
518.311	760.88
518.527	752.88
518.742	766.88
518.958	776.88
519.173	742.88
519.389	747.88
519.605	743.88
519.82	739.88
520.036	761.88
520.251	769.88
520.467	816.88
520.682	797.88
520.898	812.88
521.113	819.88
521.329	871.88
521.544	965.88
521.76	1163.88
521.975	1844.88
522.19	1860.88
522.406	1045.88
522.621	808.88
522.836	756.88
523.052	760.88
523.267	709.88
523.482	674.88
523.698	687.88
523.913	696.88
524.128	682.88
524.343	698.88
524.559	636.88
524.774	655.88
524.989	636.88
525.204	648.88
525.419	635.88
525.634	625.88
525.849	612.88
526.064	638.88
526.28	618.88
526.495	612.88
526.71	624.88
526.925	619.88
527.14	618.88
527.355	627.88
527.57	593.88
527.785	598.88
527.999	606.88
528.214	619.88
528.429	607.88
528.644	609.88
528.859	619.88
529.074	611.88
529.289	644.88
529.503	711.88
529.718	704.88
529.933	658.88
530.148	643.88
530.363	627.88
530.577	613.88
530.792	628.88
531.007	594.88
531.221	590.88
531.436	597.88
531.651	593.88
531.865	605.88
532.08	588.88
532.295	581.88
532.509	591.88
532.724	584.88
532.938	583.88
533.153	553.88
533.367	598.88
533.582	565.88
533.796	585.88
534.011	604.88
534.225	565.88
534.44	575.88
534.654	572.88
534.868	573.88
535.083	589.88
535.297	566.88
535.511	570.88
535.726	579.88
535.94	576.88
536.154	585.88
536.369	579.88
536.583	564.88
536.797	547.88
537.011	564.88
537.225	571.88
537.44	556.88
537.654	557.88
537.868	555.88
538.082	552.88
538.296	565.88
538.51	558.88
538.724	570.88
538.938	552.88
539.153	566.88
539.367	567.88
539.581	554.88
539.795	534.88
540.009	542.88
540.222	543.88
540.436	543.88
540.65	538.88
540.864	567.88
541.078	558.88
541.292	574.88
541.506	566.88
541.72	547.88
541.934	542.88
542.147	564.88
542.361	531.88
542.575	520.88
542.789	546.88
543.002	554.88
543.216	555.88
543.43	558.88
543.644	540.88
543.857	544.88
544.071	535.88
544.285	534.88
544.498	534.88
544.712	524.88
544.925	546.88
545.139	528.88
545.352	526.88
545.566	527.88
545.779	545.88
545.993	526.88
546.206	542.88
546.42	528.88
546.633	540.88
546.847	529.88
547.06	531.88
547.274	537.88
547.487	537.88
547.7	565.88
547.914	518.88
548.127	543.88
548.34	532.88
548.554	517.88
548.767	534.88
548.98	549.88
549.193	528.88
549.407	531.88
549.62	534.88
549.833	532.88
550.046	531.88
550.259	516.88
550.473	513.88
550.686	522.88
550.899	524.88
551.112	523.88
551.325	528.88
551.538	523.88
551.751	533.88
551.964	523.88
552.177	515.88
552.39	529.88
552.603	537.88
552.816	526.88
553.029	525.88
553.242	521.88
553.455	538.88
553.667	544.88
553.88	548.88
554.093	528.88
554.306	538.88
554.519	527.88
554.732	514.88
554.944	518.88
555.157	507.88
555.37	518.88
555.583	500.88
555.795	502.88
556.008	479.88
556.221	477.88
556.433	492.88
556.646	493.88
556.859	470.88
557.071	467.88
557.284	457.88
557.496	478.88
557.709	471.88
557.921	477.88
558.134	480.88
558.346	477.88
558.559	465.88
558.771	466.88
558.984	458.88
559.196	469.88
559.409	460.88
559.621	463.88
559.833	462.88
560.046	446.88
560.258	456.88
560.47	459.88
560.683	463.88
560.895	471.88
561.107	469.88
561.32	475.88
561.532	471.88
561.744	464.88
561.956	490.88
562.168	446.88
562.381	457.88
562.593	475.88
562.805	464.88
563.017	463.88
563.229	469.88
563.441	469.88
563.653	494.88
563.865	452.88
564.077	449.88
564.289	482.88
564.501	474.88
564.713	504.88
564.925	476.88
565.137	503.88
565.349	514.88
565.561	510.88
565.773	526.88
565.985	528.88
566.197	533.88
566.408	520.88
566.62	559.88
566.832	573.88
567.044	579.88
567.255	568.88
567.467	573.88
567.679	607.88
567.891	586.88
568.102	614.88
568.314	605.88
568.526	568.88
568.737	555.88
568.949	515.88
569.161	527.88
569.372	508.88
569.584	520.88
569.795	506.88
570.007	484.88
570.218	527.88
570.43	495.88
570.641	477.88
570.853	461.88
571.064	452.88
571.276	483.88
571.487	468.88
571.698	446.88
571.91	452.88
572.121	440.88
572.333	400.88
572.544	435.88
572.755	428.88
572.966	406.88
573.178	435.88
573.389	427.88
573.6	417.88
573.811	435.88
574.023	431.88
574.234	405.88
574.445	402.88
574.656	416.88
574.867	396.88
575.078	409.88
575.289	398.88
575.501	389.88
575.712	409.88
575.923	411.88
576.134	375.88
576.345	402.88
576.556	381.88
576.767	393.88
576.978	397.88
577.188	400.88
577.399	382.88
577.61	396.88
577.821	380.88
578.032	390.88
578.243	435.88
578.454	658.88
578.665	526.88
578.875	408.88
579.086	388.88
579.297	382.88
579.508	388.88
579.718	383.88
579.929	374.88
580.14	370.88
580.35	359.88
580.561	372.88
580.772	380.88
580.982	378.88
581.193	375.88
581.403	358.88
581.614	361.88
581.825	372.88
582.035	360.88
582.246	367.88
582.456	376.88
582.667	363.88
582.877	368.88
583.087	363.88
583.298	357.88
583.508	345.88
583.719	363.88
583.929	359.88
584.139	359.88
584.35	341.88
584.56	380.88
584.77	355.88
584.981	350.88
585.191	349.88
585.401	362.88
585.611	358.88
585.821	353.88
586.032	351.88
586.242	356.88
586.452	342.88
586.662	351.88
586.872	352.88
587.082	340.88
587.292	345.88
587.502	346.88
587.713	354.88
587.923	343.88
588.133	337.88
588.343	345.88
588.553	356.88
588.762	352.88
588.972	338.88
589.182	365.88
589.392	355.88
589.602	360.88
589.812	334.88
590.022	373.88
590.232	337.88
590.441	354.88
590.651	349.88
590.861	326.88
591.071	346.88
591.281	357.88
591.49	352.88
591.7	358.88
591.91	361.88
592.119	342.88
592.329	352.88
592.539	371.88
592.748	367.88
592.958	358.88
593.167	367.88
593.377	373.88
593.587	376.88
593.796	374.88
594.006	367.88
594.215	373.88
594.424	383.88
594.634	363.88
594.843	351.88
595.053	370.88
595.262	358.88
595.472	344.88
595.681	355.88
595.89	343.88
596.1	332.88
596.309	334.88
596.518	353.88
596.727	343.88
596.937	312.88
597.146	317.88
597.355	328.88
597.564	317.88
597.774	326.88
597.983	309.88
598.192	316.88
598.401	318.88
598.61	315.88
598.819	310.88
599.028	316.88
599.237	310.88
599.446	318.88
599.655	328.88
599.864	330.88
600.073	307.88
600.282	317.88
600.491	300.88
600.7	292.88
600.909	306.88
601.118	294.88
601.327	311.88
601.536	317.88
601.745	298.88
601.953	306.88
602.162	302.88
602.371	291.88
602.58	278.88
602.789	302.88
602.997	285.88
603.206	305.88
603.415	316.88
603.623	297.88
603.832	283.88
604.041	292.88
604.249	302.88
604.458	290.88
604.666	283.88
604.875	268.88
605.084	286.88
605.292	277.88
605.501	296.88
605.709	286.88
605.918	283.88
606.126	285.88
606.334	296.88
606.543	294.88
606.751	295.88
606.96	272.88
607.168	264.88
607.376	280.88
607.585	289.88
607.793	292.88
608.001	276.88
608.21	272.88
608.418	280.88
608.626	285.88
608.834	264.88
609.043	285.88
609.251	271.88
609.459	271.88
609.667	281.88
609.875	271.88
610.083	284.88
610.291	278.88
610.499	280.88
610.707	283.88
610.916	272.88
611.124	278.88
611.332	294.88
611.54	281.88
611.748	290.88
611.955	282.88
612.163	275.88
612.371	268.88
612.579	274.88
612.787	284.88
612.995	285.88
613.203	271.88
613.411	280.88
613.618	278.88
613.826	267.88
614.034	277.88
614.242	258.88
614.449	262.88
614.657	286.88
614.865	275.88
615.072	273.88
615.28	271.88
615.488	258.88
615.695	275.88
615.903	272.88
616.111	283.88
616.318	276.88
616.526	275.88
616.733	274.88
616.941	264.88
617.148	261.88
617.356	259.88
617.563	283.88
617.771	268.88
617.978	268.88
618.185	258.88
618.393	244.88
618.6	259.88
618.807	276.88
619.015	252.88
619.222	236.88
619.429	259.88
619.637	265.88
619.844	252.88
620.051	257.88
620.258	272.88
620.466	254.88
620.673	243.88
620.88	253.88
621.087	252.88
621.294	251.88
621.501	243.88
621.708	259.88
621.915	240.88
622.122	268.88
622.329	258.88
622.536	252.88
622.743	240.88
622.95	266.88
623.157	263.88
623.364	253.88
623.571	247.88
623.778	251.88
623.985	243.88
624.192	264.88
624.399	234.88
624.606	239.88
624.812	230.88
625.019	252.88
625.226	246.88
625.433	232.88
625.639	226.88
625.846	226.88
626.053	237.88
626.259	240.88
626.466	242.88
626.673	248.88
626.879	236.88
627.086	224.88
627.293	238.88
627.499	223.88
627.706	214.88
627.912	227.88
628.119	242.88
628.325	221.88
628.532	242.88
628.738	222.88
628.945	235.88
629.151	229.88
629.357	227.88
629.564	217.88
629.77	224.88
629.976	212.88
630.183	227.88
630.389	222.88
630.595	211.88
630.802	227.88
631.008	210.88
631.214	218.88
631.42	221.88
631.627	218.88
631.833	212.88
632.039	231.88
632.245	229.88
632.451	215.88
632.657	220.88
632.863	227.88
633.069	218.88
633.275	198.88
633.481	202.88
633.688	216.88
633.893	221.88
634.099	207.88
634.305	193.88
634.511	200.88
634.717	213.88
634.923	200.88
635.129	188.88
635.335	197.88
635.541	203.88
635.747	196.88
635.952	191.88
636.158	203.88
636.364	212.88
636.57	208.88
636.775	211.88
636.981	189.88
637.187	216.88
637.392	198.88
637.598	193.88
637.804	208.88
638.009	219.88
638.215	194.88
638.421	207.88
638.626	218.88
638.832	207.88
639.037	193.88
639.243	199.88
639.448	200.88
639.654	206.88
639.859	180.88
640.065	198.88
640.27	199.88
640.475	201.88
640.681	188.88
640.886	198.88
641.091	205.88
641.297	192.88
641.502	196.88
641.707	180.88
641.913	192.88
642.118	182.88
642.323	190.88
642.528	186.88
642.733	184.88
642.939	204.88
643.144	182.88
643.349	194.88
643.554	182.88
643.759	209.88
643.964	176.88
644.169	180.88
644.374	189.88
644.579	183.88
644.784	188.88
644.989	187.88
645.194	188.88
645.399	195.88
645.604	210.88
645.809	188.88
646.014	196.88
646.219	175.88
646.423	176.88
646.628	189.88
646.833	199.88
647.038	187.88
647.243	176.88
647.447	178.88
647.652	174.88
647.857	197.88
648.062	201.88
648.266	178.88
648.471	180.88
648.676	211.88
648.88	184.88
649.085	182.88
649.289	196.88
649.494	181.88
649.698	204.88
649.903	191.88
650.107	194.88
650.312	202.88
650.516	178.88
650.721	183.88
650.925	166.88
651.13	190.88
651.334	161.88
651.539	172.88
651.743	162.88
651.947	174.88
652.152	172.88
652.356	165.88
652.56	154.88
652.764	143.88
652.969	150.88
653.173	154.88
653.377	154.88
653.581	154.88
653.785	169.88
653.99	154.88
654.194	140.88
654.398	141.88
654.602	145.88
654.806	135.88
655.01	144.88
655.214	155.88
655.418	145.88
655.622	170.88
655.826	151.88
656.03	148.88
656.234	144.88
656.438	158.88
656.642	151.88
656.846	136.88
657.049	144.88
657.253	139.88
657.457	129.88
657.661	131.88
657.865	135.88
658.068	107.88
658.272	134.88
658.476	121.88
658.68	122.88
658.883	105.88
659.087	112.88
659.291	106.88
659.494	114.88
659.698	100.88
659.901	98.88
660.105	89.88
660.309	108.88
660.512	105.88
660.716	103.88
660.919	101.88
661.123	93.88
661.326	93.88
661.53	109.88
661.733	105.88
661.936	86.88
662.14	99.88
662.343	93.88
662.546	86.88
662.75	83.88
662.953	94.88
663.156	99.88
663.36	96.88
663.563	83.88
663.766	82.88
663.969	71.88
664.173	86.88
664.376	84.88
664.579	80.88
664.782	87.88
664.985	77.88
665.188	89.88
665.391	75.88
665.594	80.88
665.797	86.88
666	84.88
666.203	88.88
666.406	74.88
666.609	78.88
666.812	85.88
667.015	76.88
667.218	85.88
667.421	84.88
667.624	74.88
667.827	82.88
668.03	82.88
668.232	88.88
668.435	98.88
668.638	81.88
668.841	80.88
669.043	79.88
669.246	88.88
669.449	96.88
669.651	68.88
669.854	85.88
670.057	83.88
670.259	82.88
670.462	78.88
670.665	69.88
670.867	71.88
671.07	94.88
671.272	90.88
671.475	79.88
671.677	81.88
671.88	88.88
672.082	87.88
672.284	81.88
672.487	88.88
672.689	82.88
672.892	89.88
