Data from 1988.PennyLincolnUp.Lamp.En5.5.200Scan.071819.P2_HRD10591_17-19-46-972.txt Node
Date: Thu Jul 18 17:19:46 EDT 2019
User: cochatt
Spectrometer: HR+D1059
Trigger mode: 1
Integration Time (sec): 1.000000E-1
Scans to average: 1
Electric dark correction enabled: true
Nonlinearity correction enabled: false
Boxcar width: 0
XAxis mode: Wavelengths
Number of Pixels in Spectrum: 2048
>>>>>Begin Spectral Data<<<<<
223.165	-28.31
223.4	-28.31
223.635	-28.31
223.869	-22.31
224.104	-14.31
224.338	-17.31
224.573	-9.31
224.808	-20.31
225.042	-4.31
225.277	-15.31
225.511	-9.31
225.746	-7.31
225.98	18.69
226.215	21.69
226.449	13.69
226.683	26.69
226.918	25.69
227.152	41.69
227.387	50.69
227.621	27.69
227.856	37.69
228.09	42.69
228.324	46.69
228.559	69.69
228.793	70.69
229.027	95.69
229.262	106.69
229.496	112.69
229.73	137.69
229.964	164.69
230.199	126.69
230.433	117.69
230.667	126.69
230.901	114.69
231.136	115.69
231.37	108.69
231.604	105.69
231.838	106.69
232.072	113.69
232.306	106.69
232.541	113.69
232.775	110.69
233.009	85.69
233.243	105.69
233.477	116.69
233.711	113.69
233.945	106.69
234.179	132.69
234.413	121.69
234.647	104.69
234.881	122.69
235.115	119.69
235.349	108.69
235.583	132.69
235.817	114.69
236.051	106.69
236.285	138.69
236.519	141.69
236.753	139.69
236.987	160.69
237.221	188.69
237.455	233.69
237.689	208.69
237.922	149.69
238.156	138.69
238.39	136.69
238.624	118.69
238.858	127.69
239.091	122.69
239.325	122.69
239.559	138.69
239.793	139.69
240.027	139.69
240.26	128.69
240.494	166.69
240.728	164.69
240.961	159.69
241.195	148.69
241.429	139.69
241.662	136.69
241.896	137.69
242.13	132.69
242.363	152.69
242.597	124.69
242.83	131.69
243.064	126.69
243.298	133.69
243.531	149.69
243.765	138.69
243.998	124.69
244.232	155.69
244.465	140.69
244.699	147.69
244.932	162.69
245.166	146.69
245.399	154.69
245.633	142.69
245.866	164.69
246.099	154.69
246.333	155.69
246.566	146.69
246.8	163.69
247.033	149.69
247.266	146.69
247.5	161.69
247.733	152.69
247.966	155.69
248.2	190.69
248.433	193.69
248.666	185.69
248.899	175.69
249.133	207.69
249.366	215.69
249.599	191.69
249.832	174.69
250.066	183.69
250.299	174.69
250.532	194.69
250.765	194.69
250.998	226.69
251.231	234.69
251.465	234.69
251.698	223.69
251.931	210.69
252.164	209.69
252.397	205.69
252.63	213.69
252.863	228.69
253.096	219.69
253.329	227.69
253.562	206.69
253.795	216.69
254.028	224.69
254.261	218.69
254.494	238.69
254.727	278.69
254.96	285.69
255.193	287.69
255.426	265.69
255.659	232.69
255.892	221.69
256.124	218.69
256.357	218.69
256.59	211.69
256.823	221.69
257.056	212.69
257.289	201.69
257.521	211.69
257.754	218.69
257.987	192.69
258.22	231.69
258.452	213.69
258.685	219.69
258.918	195.69
259.151	218.69
259.383	232.69
259.616	230.69
259.849	219.69
260.081	239.69
260.314	269.69
260.547	263.69
260.779	257.69
261.012	254.69
261.244	231.69
261.477	225.69
261.71	218.69
261.942	249.69
262.175	258.69
262.407	246.69
262.64	206.69
262.872	219.69
263.105	212.69
263.337	230.69
263.57	219.69
263.802	209.69
264.035	212.69
264.267	213.69
264.499	210.69
264.732	225.69
264.964	211.69
265.197	223.69
265.429	216.69
265.661	218.69
265.894	206.69
266.126	242.69
266.358	229.69
266.591	223.69
266.823	231.69
267.055	239.69
267.287	244.69
267.52	233.69
267.752	250.69
267.984	219.69
268.216	234.69
268.448	236.69
268.681	246.69
268.913	262.69
269.145	267.69
269.377	266.69
269.609	296.69
269.841	277.69
270.073	273.69
270.306	287.69
270.538	307.69
270.77	325.69
271.002	326.69
271.234	313.69
271.466	325.69
271.698	336.69
271.93	327.69
272.162	321.69
272.394	343.69
272.626	304.69
272.858	294.69
273.09	287.69
273.322	282.69
273.553	274.69
273.785	294.69
274.017	267.69
274.249	274.69
274.481	292.69
274.713	286.69
274.945	280.69
275.176	280.69
275.408	276.69
275.64	270.69
275.872	278.69
276.104	282.69
276.335	285.69
276.567	298.69
276.799	291.69
277.031	323.69
277.262	318.69
277.494	324.69
277.726	327.69
277.957	314.69
278.189	294.69
278.421	299.69
278.652	275.69
278.884	287.69
279.115	263.69
279.347	270.69
279.579	270.69
279.81	285.69
280.042	302.69
280.273	281.69
280.505	275.69
280.736	280.69
280.968	283.69
281.199	284.69
281.431	272.69
281.662	292.69
281.894	278.69
282.125	267.69
282.356	314.69
282.588	314.69
282.819	311.69
283.051	277.69
283.282	285.69
283.513	300.69
283.745	309.69
283.976	287.69
284.207	300.69
284.439	302.69
284.67	298.69
284.901	293.69
285.132	307.69
285.364	280.69
285.595	294.69
285.826	286.69
286.057	291.69
286.288	301.69
286.52	291.69
286.751	294.69
286.982	297.69
287.213	310.69
287.444	302.69
287.675	314.69
287.906	322.69
288.138	321.69
288.369	313.69
288.6	319.69
288.831	304.69
289.062	306.69
289.293	302.69
289.524	310.69
289.755	311.69
289.986	304.69
290.217	316.69
290.448	316.69
290.679	304.69
290.91	289.69
291.141	311.69
291.371	323.69
291.602	304.69
291.833	314.69
292.064	302.69
292.295	294.69
292.526	295.69
292.757	289.69
292.987	287.69
293.218	316.69
293.449	302.69
293.68	309.69
293.91	311.69
294.141	305.69
294.372	310.69
294.603	304.69
294.833	310.69
295.064	321.69
295.295	313.69
295.525	326.69
295.756	311.69
295.987	320.69
296.217	375.69
296.448	362.69
296.679	321.69
296.909	306.69
297.14	324.69
297.37	331.69
297.601	318.69
297.831	316.69
298.062	311.69
298.292	330.69
298.523	338.69
298.753	337.69
298.984	322.69
299.214	314.69
299.445	334.69
299.675	343.69
299.905	329.69
300.136	347.69
300.366	328.69
300.597	325.69
300.827	344.69
301.057	362.69
301.288	359.69
301.518	362.69
301.748	337.69
301.979	344.69
302.209	346.69
302.439	363.69
302.669	367.69
302.9	368.69
303.13	351.69
303.36	346.69
303.59	352.69
303.82	351.69
304.051	360.69
304.281	352.69
304.511	354.69
304.741	343.69
304.971	331.69
305.201	324.69
305.431	369.69
305.661	344.69
305.891	358.69
306.121	343.69
306.352	356.69
306.582	353.69
306.812	360.69
307.042	338.69
307.272	354.69
307.502	367.69
307.731	346.69
307.961	353.69
308.191	379.69
308.421	368.69
308.651	373.69
308.881	375.69
309.111	358.69
309.341	362.69
309.571	361.69
309.8	386.69
310.03	396.69
310.26	382.69
310.49	393.69
310.72	412.69
310.949	437.69
311.179	432.69
311.409	414.69
311.639	410.69
311.868	402.69
312.098	405.69
312.328	411.69
312.557	438.69
312.787	444.69
313.017	430.69
313.246	427.69
313.476	386.69
313.706	395.69
313.935	419.69
314.165	400.69
314.394	426.69
314.624	418.69
314.853	417.69
315.083	417.69
315.312	402.69
315.542	398.69
315.771	395.69
316.001	398.69
316.23	420.69
316.46	395.69
316.689	407.69
316.919	410.69
317.148	416.69
317.377	435.69
317.607	422.69
317.836	417.69
318.065	412.69
318.295	414.69
318.524	422.69
318.753	395.69
318.983	402.69
319.212	407.69
319.441	416.69
319.67	414.69
319.9	415.69
320.129	417.69
320.358	430.69
320.587	448.69
320.816	439.69
321.046	442.69
321.275	442.69
321.504	433.69
321.733	412.69
321.962	436.69
322.191	470.69
322.42	450.69
322.649	474.69
322.878	497.69
323.108	497.69
323.337	508.69
323.566	552.69
323.795	559.69
324.024	613.69
324.253	731.69
324.482	1082.69
324.71	1648.69
324.939	2438.69
325.168	2149.69
325.397	1062.69
325.626	739.69
325.855	615.69
326.084	546.69
326.313	562.69
326.542	551.69
326.77	616.69
326.999	707.69
327.228	959.69
327.457	1466.69
327.686	1843.69
327.914	1226.69
328.143	777.69
328.372	673.69
328.6	630.69
328.829	569.69
329.058	615.69
329.287	644.69
329.515	603.69
329.744	552.69
329.972	524.69
330.201	544.69
330.43	572.69
330.658	611.69
330.887	644.69
331.115	632.69
331.344	552.69
331.572	522.69
331.801	519.69
332.03	548.69
332.258	514.69
332.486	506.69
332.715	490.69
332.943	493.69
333.172	525.69
333.4	503.69
333.629	490.69
333.857	502.69
334.085	490.69
334.314	488.69
334.542	516.69
334.771	511.69
334.999	521.69
335.227	522.69
335.455	523.69
335.684	497.69
335.912	483.69
336.14	490.69
336.369	481.69
336.597	484.69
336.825	498.69
337.053	475.69
337.281	494.69
337.51	473.69
337.738	496.69
337.966	485.69
338.194	482.69
338.422	499.69
338.65	472.69
338.878	460.69
339.106	469.69
339.334	463.69
339.562	470.69
339.79	473.69
340.018	486.69
340.246	491.69
340.474	489.69
340.702	468.69
340.93	464.69
341.158	489.69
341.386	480.69
341.614	490.69
341.842	466.69
342.07	459.69
342.298	479.69
342.526	457.69
342.754	466.69
342.981	461.69
343.209	449.69
343.437	468.69
343.665	502.69
343.893	473.69
344.12	498.69
344.348	488.69
344.576	489.69
344.804	485.69
345.031	499.69
345.259	508.69
345.487	465.69
345.714	486.69
345.942	505.69
346.17	466.69
346.397	482.69
346.625	497.69
346.853	471.69
347.08	460.69
347.308	491.69
347.535	476.69
347.763	458.69
347.99	476.69
348.218	473.69
348.445	474.69
348.673	490.69
348.9	483.69
349.128	443.69
349.355	451.69
349.583	424.69
349.81	436.69
350.037	454.69
350.265	455.69
350.492	442.69
350.72	438.69
350.947	460.69
351.174	471.69
351.402	472.69
351.629	478.69
351.856	466.69
352.083	508.69
352.311	489.69
352.538	490.69
352.765	484.69
352.992	478.69
353.22	485.69
353.447	480.69
353.674	472.69
353.901	437.69
354.128	459.69
354.355	434.69
354.583	433.69
354.81	448.69
355.037	438.69
355.264	438.69
355.491	443.69
355.718	422.69
355.945	453.69
356.172	424.69
356.399	421.69
356.626	449.69
356.853	414.69
357.08	446.69
357.307	452.69
357.534	409.69
357.761	457.69
357.988	448.69
358.215	440.69
358.441	429.69
358.668	458.69
358.895	437.69
359.122	448.69
359.349	438.69
359.576	455.69
359.802	495.69
360.029	518.69
360.256	519.69
360.483	487.69
360.709	477.69
360.936	468.69
361.163	446.69
361.39	465.69
361.616	476.69
361.843	493.69
362.07	474.69
362.296	451.69
362.523	470.69
362.749	452.69
362.976	444.69
363.203	448.69
363.429	437.69
363.656	442.69
363.882	446.69
364.109	450.69
364.335	446.69
364.562	440.69
364.788	436.69
365.015	445.69
365.241	461.69
365.468	436.69
365.694	457.69
365.92	454.69
366.147	435.69
366.373	444.69
366.599	449.69
366.826	434.69
367.052	431.69
367.278	438.69
367.505	465.69
367.731	482.69
367.957	443.69
368.184	452.69
368.41	447.69
368.636	478.69
368.862	476.69
369.089	462.69
369.315	465.69
369.541	417.69
369.767	440.69
369.993	454.69
370.219	434.69
370.445	432.69
370.672	457.69
370.898	439.69
371.124	442.69
371.35	450.69
371.576	452.69
371.802	440.69
372.028	423.69
372.254	446.69
372.48	436.69
372.706	470.69
372.932	460.69
373.158	433.69
373.384	466.69
373.61	475.69
373.835	471.69
374.061	437.69
374.287	449.69
374.513	466.69
374.739	460.69
374.965	457.69
375.191	516.69
375.416	464.69
375.642	450.69
375.868	464.69
376.094	467.69
376.319	436.69
376.545	451.69
376.771	450.69
376.997	470.69
377.222	437.69
377.448	440.69
377.674	442.69
377.899	448.69
378.125	452.69
378.35	435.69
378.576	463.69
378.802	460.69
379.027	458.69
379.253	445.69
379.478	457.69
379.704	446.69
379.929	454.69
380.155	463.69
380.38	438.69
380.606	442.69
380.831	455.69
381.057	458.69
381.282	463.69
381.507	443.69
381.733	473.69
381.958	473.69
382.184	453.69
382.409	479.69
382.634	462.69
382.86	463.69
383.085	474.69
383.31	464.69
383.535	488.69
383.761	479.69
383.986	474.69
384.211	477.69
384.436	472.69
384.662	496.69
384.887	484.69
385.112	488.69
385.337	482.69
385.562	475.69
385.787	495.69
386.013	498.69
386.238	501.69
386.463	513.69
386.688	523.69
386.913	503.69
387.138	475.69
387.363	498.69
387.588	490.69
387.813	493.69
388.038	498.69
388.263	498.69
388.488	488.69
388.713	486.69
388.938	506.69
389.163	485.69
389.387	508.69
389.612	498.69
389.837	491.69
390.062	488.69
390.287	508.69
390.512	498.69
390.736	525.69
390.961	510.69
391.186	506.69
391.411	516.69
391.636	516.69
391.86	523.69
392.085	508.69
392.31	541.69
392.534	523.69
392.759	521.69
392.984	514.69
393.208	522.69
393.433	523.69
393.658	525.69
393.882	481.69
394.107	501.69
394.331	519.69
394.556	530.69
394.78	501.69
395.005	539.69
395.229	517.69
395.454	512.69
395.678	540.69
395.903	547.69
396.127	576.69
396.352	562.69
396.576	556.69
396.801	525.69
397.025	520.69
397.249	544.69
397.474	537.69
397.698	582.69
397.922	578.69
398.147	584.69
398.371	586.69
398.595	570.69
398.82	567.69
399.044	614.69
399.268	607.69
399.492	647.69
399.717	666.69
399.941	702.69
400.165	743.69
400.389	727.69
400.613	687.69
400.837	640.69
401.062	631.69
401.286	617.69
401.51	570.69
401.734	578.69
401.958	601.69
402.182	592.69
402.406	581.69
402.63	596.69
402.854	584.69
403.078	600.69
403.302	590.69
403.526	619.69
403.75	609.69
403.974	600.69
404.198	617.69
404.422	613.69
404.645	601.69
404.869	616.69
405.093	640.69
405.317	657.69
405.541	677.69
405.765	651.69
405.988	632.69
406.212	656.69
406.436	650.69
406.66	682.69
406.883	663.69
407.107	681.69
407.331	756.69
407.555	816.69
407.778	806.69
408.002	739.69
408.226	688.69
408.449	680.69
408.673	693.69
408.896	720.69
409.12	748.69
409.344	696.69
409.567	643.69
409.791	638.69
410.014	626.69
410.238	616.69
410.461	635.69
410.685	588.69
410.908	628.69
411.132	678.69
411.355	695.69
411.578	698.69
411.802	640.69
412.025	619.69
412.249	594.69
412.472	610.69
412.695	606.69
412.919	602.69
413.142	591.69
413.365	588.69
413.589	592.69
413.812	578.69
414.035	580.69
414.258	592.69
414.482	579.69
414.705	583.69
414.928	578.69
415.151	569.69
415.374	586.69
415.597	551.69
415.821	566.69
416.044	569.69
416.267	589.69
416.49	570.69
416.713	571.69
416.936	588.69
417.159	558.69
417.382	578.69
417.605	584.69
417.828	578.69
418.051	593.69
418.274	608.69
418.497	577.69
418.72	584.69
418.943	564.69
419.166	596.69
419.389	629.69
419.611	598.69
419.834	596.69
420.057	594.69
420.28	611.69
420.503	594.69
420.726	574.69
420.948	610.69
421.171	643.69
421.394	670.69
421.617	636.69
421.839	600.69
422.062	606.69
422.285	609.69
422.507	682.69
422.73	757.69
422.953	760.69
423.175	662.69
423.398	630.69
423.621	627.69
423.843	640.69
424.066	643.69
424.288	635.69
424.511	666.69
424.733	739.69
424.956	823.69
425.178	773.69
425.401	805.69
425.623	837.69
425.846	696.69
426.068	653.69
426.291	668.69
426.513	661.69
426.735	681.69
426.958	688.69
427.18	811.69
427.402	929.69
427.625	1065.69
427.847	889.69
428.069	753.69
428.292	699.69
428.514	658.69
428.736	622.69
428.958	648.69
429.181	609.69
429.403	594.69
429.625	621.69
429.847	642.69
430.069	727.69
430.292	750.69
430.514	626.69
430.736	623.69
430.958	582.69
431.18	582.69
431.402	569.69
431.624	561.69
431.846	566.69
432.068	553.69
432.29	562.69
432.512	566.69
432.734	593.69
432.956	549.69
433.178	581.69
433.4	593.69
433.622	585.69
433.844	572.69
434.066	547.69
434.287	562.69
434.509	571.69
434.731	587.69
434.953	576.69
435.175	596.69
435.397	642.69
435.618	645.69
435.84	706.69
436.062	821.69
436.284	900.69
436.505	726.69
436.727	662.69
436.949	638.69
437.17	618.69
437.392	590.69
437.614	607.69
437.835	662.69
438.057	738.69
438.278	889.69
438.5	894.69
438.721	979.69
438.943	934.69
439.165	740.69
439.386	654.69
439.608	652.69
439.829	654.69
440.05	672.69
440.272	721.69
440.493	714.69
440.715	629.69
440.936	615.69
441.158	601.69
441.379	626.69
441.6	611.69
441.822	648.69
442.043	700.69
442.264	796.69
442.486	851.69
442.707	686.69
442.928	680.69
443.149	645.69
443.371	675.69
443.592	750.69
443.813	846.69
444.034	930.69
444.255	781.69
444.476	680.69
444.698	663.69
444.919	678.69
445.14	772.69
445.361	690.69
445.582	683.69
445.803	788.69
446.024	906.69
446.245	875.69
446.466	797.69
446.687	683.69
446.908	659.69
447.129	639.69
447.35	641.69
447.571	585.69
447.792	598.69
448.013	603.69
448.234	637.69
448.455	716.69
448.675	830.69
448.896	946.69
449.117	794.69
449.338	740.69
449.559	882.69
449.779	1028.69
450	795.69
450.221	675.69
450.442	615.69
450.662	586.69
450.883	597.69
451.104	613.69
451.324	596.69
451.545	569.69
451.766	549.69
451.986	548.69
452.207	553.69
452.428	536.69
452.648	548.69
452.869	527.69
453.089	529.69
453.31	567.69
453.53	522.69
453.751	526.69
453.971	532.69
454.192	542.69
454.412	562.69
454.633	520.69
454.853	540.69
455.073	535.69
455.294	574.69
455.514	636.69
455.734	626.69
455.955	540.69
456.175	513.69
456.395	512.69
456.616	494.69
456.836	506.69
457.056	513.69
457.276	516.69
457.497	495.69
457.717	494.69
457.937	509.69
458.157	531.69
458.377	534.69
458.598	581.69
458.818	630.69
459.038	684.69
459.258	731.69
459.478	623.69
459.698	594.69
459.918	574.69
460.138	564.69
460.358	602.69
460.578	578.69
460.798	598.69
461.018	577.69
461.238	592.69
461.458	588.69
461.678	570.69
461.898	587.69
462.118	580.69
462.338	570.69
462.558	596.69
462.777	625.69
462.997	627.69
463.217	630.69
463.437	648.69
463.657	640.69
463.876	631.69
464.096	614.69
464.316	607.69
464.536	634.69
464.755	627.69
464.975	658.69
465.195	665.69
465.414	768.69
465.634	670.69
465.854	631.69
466.073	594.69
466.293	588.69
466.512	590.69
466.732	528.69
466.951	576.69
467.171	552.69
467.391	562.69
467.61	565.69
467.829	576.69
468.049	585.69
468.268	551.69
468.488	545.69
468.707	529.69
468.927	544.69
469.146	550.69
469.365	546.69
469.585	542.69
469.804	537.69
470.023	567.69
470.243	554.69
470.462	584.69
470.681	578.69
470.901	576.69
471.12	548.69
471.339	565.69
471.558	561.69
471.777	567.69
471.997	561.69
472.216	559.69
472.435	555.69
472.654	548.69
472.873	564.69
473.092	534.69
473.311	548.69
473.53	551.69
473.749	565.69
473.968	609.69
474.187	730.69
474.406	742.69
474.625	629.69
474.844	598.69
475.063	567.69
475.282	569.69
475.501	552.69
475.72	570.69
475.939	589.69
476.158	582.69
476.377	573.69
476.596	608.69
476.814	582.69
477.033	597.69
477.252	605.69
477.471	582.69
477.69	609.69
477.908	598.69
478.127	623.69
478.346	612.69
478.564	626.69
478.783	636.69
479.002	618.69
479.22	638.69
479.439	661.69
479.658	661.69
479.876	657.69
480.095	700.69
480.313	696.69
480.532	719.69
480.751	691.69
480.969	658.69
481.188	705.69
481.406	682.69
481.624	670.69
481.843	660.69
482.061	664.69
482.28	649.69
482.498	622.69
482.717	638.69
482.935	646.69
483.153	660.69
483.372	662.69
483.59	674.69
483.808	677.69
484.027	647.69
484.245	677.69
484.463	667.69
484.681	668.69
484.9	673.69
485.118	680.69
485.336	679.69
485.554	670.69
485.772	669.69
485.99	674.69
486.209	686.69
486.427	692.69
486.645	684.69
486.863	739.69
487.081	716.69
487.299	699.69
487.517	708.69
487.735	708.69
487.953	711.69
488.171	688.69
488.389	711.69
488.607	723.69
488.825	699.69
489.043	709.69
489.261	727.69
489.479	739.69
489.696	750.69
489.914	739.69
490.132	726.69
490.35	733.69
490.568	728.69
490.786	740.69
491.003	760.69
491.221	791.69
491.439	791.69
491.657	796.69
491.874	821.69
492.092	788.69
492.31	787.69
492.527	794.69
492.745	800.69
492.963	800.69
493.18	807.69
493.398	809.69
493.615	804.69
493.833	819.69
494.05	836.69
494.268	801.69
494.485	834.69
494.703	824.69
494.92	825.69
495.138	840.69
495.355	845.69
495.573	841.69
495.79	861.69
496.008	868.69
496.225	840.69
496.442	842.69
496.66	838.69
496.877	857.69
497.094	853.69
497.312	864.69
497.529	846.69
497.746	898.69
497.963	886.69
498.181	902.69
498.398	922.69
498.615	938.69
498.832	960.69
499.049	974.69
499.267	1036.69
499.484	1028.69
499.701	1067.69
499.918	1092.69
500.135	1174.69
500.352	1219.69
500.569	1194.69
500.786	1202.69
501.003	1191.69
501.22	1172.69
501.437	1143.69
501.654	1116.69
501.871	1091.69
502.088	1046.69
502.305	1040.69
502.522	959.69
502.739	969.69
502.956	945.69
503.172	928.69
503.389	909.69
503.606	894.69
503.823	897.69
504.04	886.69
504.256	891.69
504.473	867.69
504.69	852.69
504.907	869.69
505.123	863.69
505.34	812.69
505.557	818.69
505.773	826.69
505.99	804.69
506.207	801.69
506.423	804.69
506.64	810.69
506.856	785.69
507.073	803.69
507.289	781.69
507.506	776.69
507.722	772.69
507.939	809.69
508.155	790.69
508.372	774.69
508.588	778.69
508.805	767.69
509.021	781.69
509.238	777.69
509.454	781.69
509.67	770.69
509.887	739.69
510.103	762.69
510.319	788.69
510.536	847.69
510.752	1392.69
510.968	1175.69
511.184	792.69
511.401	778.69
511.617	750.69
511.833	719.69
512.049	721.69
512.265	727.69
512.481	724.69
512.698	708.69
512.914	732.69
513.13	729.69
513.346	724.69
513.562	710.69
513.778	731.69
513.994	720.69
514.21	762.69
514.426	751.69
514.642	831.69
514.858	852.69
515.074	882.69
515.29	1002.69
515.506	1435.69
515.721	1231.69
515.937	880.69
516.153	789.69
516.369	754.69
516.585	756.69
516.801	753.69
517.016	753.69
517.232	749.69
517.448	776.69
517.664	775.69
517.879	763.69
518.095	734.69
518.311	752.69
518.527	746.69
518.742	768.69
518.958	748.69
519.173	731.69
519.389	730.69
519.605	743.69
519.82	730.69
520.036	756.69
520.251	762.69
520.467	794.69
520.682	768.69
520.898	796.69
521.113	846.69
521.329	847.69
521.544	945.69
521.76	1144.69
521.975	1814.69
522.19	1818.69
522.406	1028.69
522.621	830.69
522.836	748.69
523.052	718.69
523.267	718.69
523.482	724.69
523.698	667.69
523.913	684.69
524.128	680.69
524.343	632.69
524.559	656.69
524.774	649.69
524.989	645.69
525.204	651.69
525.419	644.69
525.634	650.69
525.849	628.69
526.064	593.69
526.28	624.69
526.495	608.69
526.71	596.69
526.925	599.69
527.14	615.69
527.355	611.69
527.57	627.69
527.785	604.69
527.999	613.69
528.214	607.69
528.429	631.69
528.644	599.69
528.859	615.69
529.074	602.69
529.289	628.69
529.503	716.69
529.718	688.69
529.933	647.69
530.148	630.69
530.363	619.69
530.577	596.69
530.792	593.69
531.007	586.69
531.221	592.69
531.436	562.69
531.651	574.69
531.865	617.69
532.08	581.69
532.295	588.69
532.509	572.69
532.724	566.69
532.938	580.69
533.153	572.69
533.367	570.69
533.582	565.69
533.796	571.69
534.011	557.69
534.225	555.69
534.44	576.69
534.654	574.69
534.868	543.69
535.083	548.69
535.297	575.69
535.511	576.69
535.726	596.69
535.94	580.69
536.154	563.69
536.369	550.69
536.583	544.69
536.797	551.69
537.011	539.69
537.225	552.69
537.44	547.69
537.654	558.69
537.868	519.69
538.082	534.69
538.296	551.69
538.51	582.69
538.724	556.69
538.938	547.69
539.153	550.69
539.367	538.69
539.581	565.69
539.795	576.69
540.009	551.69
540.222	551.69
540.436	535.69
540.65	547.69
540.864	552.69
541.078	569.69
541.292	542.69
541.506	563.69
541.72	538.69
541.934	538.69
542.147	550.69
542.361	536.69
542.575	535.69
542.789	537.69
543.002	544.69
543.216	563.69
543.43	554.69
543.644	526.69
543.857	538.69
544.071	534.69
544.285	541.69
544.498	519.69
544.712	536.69
544.925	561.69
545.139	534.69
545.352	537.69
545.566	532.69
545.779	531.69
545.993	540.69
546.206	526.69
546.42	522.69
546.633	530.69
546.847	534.69
547.06	502.69
547.274	521.69
547.487	517.69
547.7	528.69
547.914	535.69
548.127	524.69
548.34	518.69
548.554	512.69
548.767	543.69
548.98	535.69
549.193	522.69
549.407	523.69
549.62	513.69
549.833	508.69
550.046	514.69
550.259	519.69
550.473	520.69
550.686	511.69
550.899	526.69
551.112	496.69
551.325	512.69
551.538	505.69
551.751	516.69
551.964	502.69
552.177	519.69
552.39	520.69
552.603	524.69
552.816	508.69
553.029	531.69
553.242	528.69
553.455	534.69
553.667	530.69
553.88	549.69
554.093	538.69
554.306	553.69
554.519	522.69
554.732	489.69
554.944	505.69
555.157	512.69
555.37	509.69
555.583	496.69
555.795	516.69
556.008	476.69
556.221	480.69
556.433	473.69
556.646	480.69
556.859	473.69
557.071	477.69
557.284	446.69
557.496	466.69
557.709	479.69
557.921	453.69
558.134	458.69
558.346	446.69
558.559	464.69
558.771	462.69
558.984	451.69
559.196	475.69
559.409	470.69
559.621	458.69
559.833	460.69
560.046	468.69
560.258	461.69
560.47	463.69
560.683	464.69
560.895	465.69
561.107	456.69
561.32	451.69
561.532	466.69
561.744	470.69
561.956	467.69
562.168	474.69
562.381	475.69
562.593	490.69
562.805	470.69
563.017	463.69
563.229	461.69
563.441	456.69
563.653	454.69
563.865	446.69
564.077	472.69
564.289	488.69
564.501	478.69
564.713	458.69
564.925	494.69
565.137	522.69
565.349	500.69
565.561	496.69
565.773	490.69
565.985	532.69
566.197	539.69
566.408	533.69
566.62	538.69
566.832	581.69
567.044	565.69
567.255	589.69
567.467	576.69
567.679	574.69
567.891	613.69
568.102	594.69
568.314	575.69
568.526	574.69
568.737	549.69
568.949	514.69
569.161	521.69
569.372	500.69
569.584	485.69
569.795	484.69
570.007	471.69
570.218	505.69
570.43	516.69
570.641	476.69
570.853	467.69
571.064	464.69
571.276	460.69
571.487	437.69
571.698	436.69
571.91	431.69
572.121	427.69
572.333	417.69
572.544	407.69
572.755	438.69
572.966	426.69
573.178	406.69
573.389	424.69
573.6	422.69
573.811	410.69
574.023	394.69
574.234	394.69
574.445	378.69
574.656	397.69
574.867	373.69
575.078	382.69
575.289	392.69
575.501	388.69
575.712	404.69
575.923	391.69
576.134	399.69
576.345	390.69
576.556	387.69
576.767	391.69
576.978	384.69
577.188	383.69
577.399	388.69
577.61	380.69
577.821	369.69
578.032	390.69
578.243	426.69
578.454	656.69
578.665	486.69
578.875	394.69
579.086	381.69
579.297	391.69
579.508	368.69
579.718	362.69
579.929	376.69
580.14	371.69
580.35	365.69
580.561	341.69
580.772	377.69
580.982	358.69
581.193	359.69
581.403	357.69
581.614	347.69
581.825	362.69
582.035	353.69
582.246	356.69
582.456	364.69
582.667	348.69
582.877	355.69
583.087	360.69
583.298	368.69
583.508	355.69
583.719	344.69
583.929	322.69
584.139	344.69
584.35	356.69
584.56	347.69
584.77	355.69
584.981	352.69
585.191	348.69
585.401	334.69
585.611	350.69
585.821	348.69
586.032	358.69
586.242	349.69
586.452	337.69
586.662	363.69
586.872	330.69
587.082	341.69
587.292	344.69
587.502	356.69
587.713	334.69
587.923	344.69
588.133	356.69
588.343	338.69
588.553	330.69
588.762	356.69
588.972	352.69
589.182	331.69
589.392	337.69
589.602	345.69
589.812	322.69
590.022	347.69
590.232	338.69
590.441	344.69
590.651	327.69
590.861	339.69
591.071	342.69
591.281	340.69
591.49	355.69
591.7	329.69
591.91	347.69
592.119	338.69
592.329	378.69
592.539	355.69
592.748	376.69
592.958	362.69
593.167	364.69
593.377	368.69
593.587	356.69
593.796	352.69
594.006	357.69
594.215	372.69
594.424	344.69
594.634	366.69
594.843	346.69
595.053	351.69
595.262	339.69
595.472	324.69
595.681	339.69
595.89	336.69
596.1	328.69
596.309	350.69
596.518	341.69
596.727	327.69
596.937	329.69
597.146	329.69
597.355	325.69
597.564	331.69
597.774	339.69
597.983	328.69
598.192	319.69
598.401	324.69
598.61	323.69
598.819	310.69
599.028	319.69
599.237	315.69
599.446	299.69
599.655	306.69
599.864	291.69
600.073	293.69
600.282	306.69
600.491	316.69
600.7	294.69
600.909	315.69
601.118	294.69
601.327	277.69
601.536	305.69
601.745	302.69
601.953	283.69
602.162	287.69
602.371	276.69
602.58	277.69
602.789	304.69
602.997	307.69
603.206	293.69
603.415	299.69
603.623	283.69
603.832	267.69
604.041	279.69
604.249	298.69
604.458	286.69
604.666	287.69
604.875	292.69
605.084	276.69
605.292	299.69
605.501	296.69
605.709	264.69
605.918	278.69
606.126	267.69
606.334	271.69
606.543	290.69
606.751	279.69
606.96	281.69
607.168	273.69
607.376	291.69
607.585	287.69
607.793	284.69
608.001	291.69
608.21	277.69
608.418	262.69
608.626	292.69
608.834	283.69
609.043	265.69
609.251	282.69
609.459	271.69
609.667	279.69
609.875	277.69
610.083	265.69
610.291	270.69
610.499	245.69
610.707	256.69
610.916	264.69
611.124	280.69
611.332	286.69
611.54	295.69
611.748	260.69
611.955	283.69
612.163	268.69
612.371	267.69
612.579	283.69
612.787	272.69
612.995	259.69
613.203	266.69
613.411	267.69
613.618	268.69
613.826	270.69
614.034	277.69
614.242	276.69
614.449	264.69
614.657	268.69
614.865	271.69
615.072	261.69
615.28	252.69
615.488	253.69
615.695	274.69
615.903	256.69
616.111	259.69
616.318	269.69
616.526	274.69
616.733	288.69
616.941	289.69
617.148	263.69
617.356	271.69
617.563	258.69
617.771	261.69
617.978	258.69
618.185	268.69
618.393	257.69
618.6	247.69
618.807	247.69
619.015	256.69
619.222	234.69
619.429	256.69
619.637	258.69
619.844	260.69
620.051	272.69
620.258	246.69
620.466	247.69
620.673	244.69
620.88	254.69
621.087	262.69
621.294	267.69
621.501	264.69
621.708	254.69
621.915	243.69
622.122	232.69
622.329	254.69
622.536	254.69
622.743	248.69
622.95	249.69
623.157	239.69
623.364	240.69
623.571	254.69
623.778	242.69
623.985	244.69
624.192	227.69
624.399	260.69
624.606	232.69
624.812	232.69
625.019	230.69
625.226	230.69
625.433	225.69
625.639	225.69
625.846	239.69
626.053	246.69
626.259	232.69
626.466	238.69
626.673	223.69
626.879	234.69
627.086	231.69
627.293	229.69
627.499	219.69
627.706	240.69
627.912	228.69
628.119	248.69
628.325	219.69
628.532	226.69
628.738	224.69
628.945	241.69
629.151	231.69
629.357	219.69
629.564	229.69
629.77	208.69
629.976	217.69
630.183	212.69
630.389	228.69
630.595	211.69
630.802	213.69
631.008	230.69
631.214	208.69
631.42	211.69
631.627	227.69
631.833	210.69
632.039	227.69
632.245	216.69
632.451	217.69
632.657	204.69
632.863	221.69
633.069	210.69
633.275	209.69
633.481	216.69
633.688	204.69
633.893	208.69
634.099	208.69
634.305	217.69
634.511	211.69
634.717	205.69
634.923	198.69
635.129	210.69
635.335	204.69
635.541	186.69
635.747	198.69
635.952	211.69
636.158	192.69
636.364	203.69
636.57	209.69
636.775	214.69
636.981	183.69
637.187	203.69
637.392	202.69
637.598	184.69
637.804	202.69
638.009	173.69
638.215	180.69
638.421	202.69
638.626	202.69
638.832	206.69
639.037	188.69
639.243	199.69
639.448	198.69
639.654	188.69
639.859	190.69
640.065	175.69
640.27	194.69
640.475	198.69
640.681	187.69
640.886	192.69
641.091	195.69
641.297	188.69
641.502	187.69
641.707	184.69
641.913	193.69
642.118	179.69
642.323	184.69
642.528	173.69
642.733	192.69
642.939	186.69
643.144	180.69
643.349	187.69
643.554	190.69
643.759	180.69
643.964	187.69
644.169	178.69
644.374	186.69
644.579	183.69
644.784	207.69
644.989	178.69
645.194	167.69
645.399	179.69
645.604	183.69
645.809	176.69
646.014	178.69
646.219	181.69
646.423	182.69
646.628	186.69
646.833	182.69
647.038	184.69
647.243	178.69
647.447	181.69
647.652	198.69
647.857	165.69
648.062	189.69
648.266	190.69
648.471	187.69
648.676	199.69
648.88	194.69
649.085	182.69
649.289	204.69
649.494	184.69
649.698	198.69
649.903	192.69
650.107	179.69
650.312	193.69
650.516	184.69
650.721	163.69
650.925	163.69
651.13	179.69
651.334	182.69
651.539	154.69
651.743	160.69
651.947	166.69
652.152	153.69
652.356	176.69
652.56	158.69
652.764	182.69
652.969	168.69
653.173	138.69
653.377	149.69
653.581	141.69
653.785	150.69
653.99	146.69
654.194	153.69
654.398	125.69
654.602	146.69
654.806	135.69
655.01	144.69
655.214	140.69
655.418	146.69
655.622	140.69
655.826	111.69
656.03	154.69
656.234	144.69
656.438	146.69
656.642	137.69
656.846	137.69
657.049	127.69
657.253	123.69
657.457	141.69
657.661	138.69
657.865	118.69
658.068	112.69
658.272	112.69
658.476	116.69
658.68	107.69
658.883	102.69
659.087	101.69
659.291	110.69
659.494	98.69
659.698	100.69
659.901	95.69
660.105	93.69
660.309	91.69
660.512	99.69
660.716	83.69
660.919	87.69
661.123	89.69
661.326	70.69
661.53	83.69
661.733	96.69
661.936	91.69
662.14	95.69
662.343	76.69
662.546	82.69
662.75	86.69
662.953	88.69
663.156	79.69
663.36	80.69
663.563	94.69
663.766	94.69
663.969	71.69
664.173	66.69
664.376	74.69
664.579	75.69
664.782	82.69
664.985	76.69
665.188	78.69
665.391	81.69
665.594	85.69
665.797	76.69
666	70.69
666.203	81.69
666.406	91.69
666.609	75.69
666.812	86.69
667.015	91.69
667.218	86.69
667.421	85.69
667.624	67.69
667.827	79.69
668.03	83.69
668.232	82.69
668.435	88.69
668.638	92.69
668.841	80.69
669.043	82.69
669.246	91.69
669.449	82.69
669.651	82.69
669.854	97.69
670.057	72.69
670.259	89.69
670.462	83.69
670.665	76.69
670.867	78.69
671.07	93.69
671.272	87.69
671.475	88.69
671.677	94.69
671.88	84.69
672.082	80.69
672.284	84.69
672.487	80.69
672.689	80.69
672.892	72.69
