Data from 1988.PennyLincolnUp.Lamp.En5.5.200Scan.071819.P2_HRD10591_17-19-38-972.txt Node
Date: Thu Jul 18 17:19:38 EDT 2019
User: cochatt
Spectrometer: HR+D1059
Trigger mode: 1
Integration Time (sec): 1.000000E-1
Scans to average: 1
Electric dark correction enabled: true
Nonlinearity correction enabled: false
Boxcar width: 0
XAxis mode: Wavelengths
Number of Pixels in Spectrum: 2048
>>>>>Begin Spectral Data<<<<<
223.165	-8.12
223.4	-8.12
223.635	-8.12
223.869	-17.12
224.104	-19.12
224.338	-4.12
224.573	-21.12
224.808	-18.12
225.042	7.88
225.277	-3.12
225.511	-20.12
225.746	1.88
225.98	12.88
226.215	3.88
226.449	10.88
226.683	23.88
226.918	29.88
227.152	19.88
227.387	32.88
227.621	43.88
227.856	58.88
228.09	37.88
228.324	58.88
228.559	52.88
228.793	69.88
229.027	96.88
229.262	122.88
229.496	120.88
229.73	136.88
229.964	172.88
230.199	133.88
230.433	110.88
230.667	124.88
230.901	115.88
231.136	117.88
231.37	121.88
231.604	121.88
231.838	117.88
232.072	125.88
232.306	123.88
232.541	124.88
232.775	115.88
233.009	125.88
233.243	108.88
233.477	121.88
233.711	124.88
233.945	114.88
234.179	125.88
234.413	117.88
234.647	133.88
234.881	114.88
235.115	131.88
235.349	122.88
235.583	119.88
235.817	136.88
236.051	141.88
236.285	122.88
236.519	131.88
236.753	134.88
236.987	157.88
237.221	199.88
237.455	241.88
237.689	198.88
237.922	156.88
238.156	120.88
238.39	141.88
238.624	128.88
238.858	128.88
239.091	126.88
239.325	141.88
239.559	137.88
239.793	139.88
240.027	136.88
240.26	131.88
240.494	154.88
240.728	151.88
240.961	166.88
241.195	150.88
241.429	153.88
241.662	139.88
241.896	147.88
242.13	135.88
242.363	129.88
242.597	144.88
242.83	140.88
243.064	136.88
243.298	134.88
243.531	135.88
243.765	141.88
243.998	153.88
244.232	148.88
244.465	152.88
244.699	154.88
244.932	146.88
245.166	165.88
245.399	136.88
245.633	156.88
245.866	154.88
246.099	153.88
246.333	181.88
246.566	167.88
246.8	142.88
247.033	173.88
247.266	170.88
247.5	161.88
247.733	174.88
247.966	172.88
248.2	182.88
248.433	168.88
248.666	170.88
248.899	196.88
249.133	206.88
249.366	203.88
249.599	197.88
249.832	201.88
250.066	183.88
250.299	185.88
250.532	198.88
250.765	205.88
250.998	229.88
251.231	233.88
251.465	208.88
251.698	199.88
251.931	220.88
252.164	217.88
252.397	194.88
252.63	207.88
252.863	203.88
253.096	211.88
253.329	219.88
253.562	227.88
253.795	215.88
254.028	209.88
254.261	209.88
254.494	253.88
254.727	264.88
254.96	297.88
255.193	263.88
255.426	254.88
255.659	233.88
255.892	219.88
256.124	220.88
256.357	233.88
256.59	221.88
256.823	213.88
257.056	224.88
257.289	220.88
257.521	218.88
257.754	212.88
257.987	203.88
258.22	210.88
258.452	211.88
258.685	222.88
258.918	209.88
259.151	205.88
259.383	222.88
259.616	224.88
259.849	223.88
260.081	229.88
260.314	273.88
260.547	252.88
260.779	250.88
261.012	234.88
261.244	249.88
261.477	238.88
261.71	211.88
261.942	235.88
262.175	258.88
262.407	220.88
262.64	228.88
262.872	218.88
263.105	221.88
263.337	219.88
263.57	223.88
263.802	242.88
264.035	223.88
264.267	219.88
264.499	223.88
264.732	223.88
264.964	232.88
265.197	230.88
265.429	226.88
265.661	230.88
265.894	224.88
266.126	213.88
266.358	225.88
266.591	225.88
266.823	230.88
267.055	248.88
267.287	234.88
267.52	229.88
267.752	234.88
267.984	241.88
268.216	234.88
268.448	261.88
268.681	243.88
268.913	270.88
269.145	275.88
269.377	289.88
269.609	272.88
269.841	277.88
270.073	283.88
270.306	300.88
270.538	330.88
270.77	332.88
271.002	319.88
271.234	307.88
271.466	296.88
271.698	319.88
271.93	317.88
272.162	322.88
272.394	321.88
272.626	307.88
272.858	298.88
273.09	275.88
273.322	283.88
273.553	263.88
273.785	289.88
274.017	290.88
274.249	279.88
274.481	290.88
274.713	267.88
274.945	275.88
275.176	281.88
275.408	274.88
275.64	281.88
275.872	259.88
276.104	282.88
276.335	266.88
276.567	283.88
276.799	293.88
277.031	327.88
277.262	340.88
277.494	320.88
277.726	311.88
277.957	314.88
278.189	298.88
278.421	272.88
278.652	278.88
278.884	254.88
279.115	287.88
279.347	286.88
279.579	278.88
279.81	285.88
280.042	282.88
280.273	278.88
280.505	267.88
280.736	285.88
280.968	265.88
281.199	274.88
281.431	283.88
281.662	276.88
281.894	286.88
282.125	285.88
282.356	290.88
282.588	325.88
282.819	334.88
283.051	302.88
283.282	267.88
283.513	286.88
283.745	300.88
283.976	298.88
284.207	294.88
284.439	292.88
284.67	302.88
284.901	284.88
285.132	306.88
285.364	268.88
285.595	291.88
285.826	275.88
286.057	293.88
286.288	305.88
286.52	302.88
286.751	287.88
286.982	288.88
287.213	302.88
287.444	298.88
287.675	294.88
287.906	311.88
288.138	290.88
288.369	323.88
288.6	326.88
288.831	310.88
289.062	318.88
289.293	308.88
289.524	293.88
289.755	307.88
289.986	316.88
290.217	307.88
290.448	306.88
290.679	299.88
290.91	302.88
291.141	299.88
291.371	291.88
291.602	310.88
291.833	302.88
292.064	307.88
292.295	281.88
292.526	308.88
292.757	321.88
292.987	313.88
293.218	303.88
293.449	303.88
293.68	300.88
293.91	324.88
294.141	321.88
294.372	315.88
294.603	325.88
294.833	315.88
295.064	296.88
295.295	309.88
295.525	307.88
295.756	323.88
295.987	319.88
296.217	341.88
296.448	357.88
296.679	332.88
296.909	329.88
297.14	312.88
297.37	318.88
297.601	317.88
297.831	330.88
298.062	316.88
298.292	322.88
298.523	318.88
298.753	324.88
298.984	335.88
299.214	321.88
299.445	328.88
299.675	325.88
299.905	338.88
300.136	327.88
300.366	323.88
300.597	342.88
300.827	340.88
301.057	340.88
301.288	363.88
301.518	363.88
301.748	361.88
301.979	341.88
302.209	358.88
302.439	359.88
302.669	370.88
302.9	323.88
303.13	339.88
303.36	351.88
303.59	365.88
303.82	343.88
304.051	364.88
304.281	355.88
304.511	351.88
304.741	353.88
304.971	343.88
305.201	364.88
305.431	344.88
305.661	356.88
305.891	346.88
306.121	353.88
306.352	358.88
306.582	360.88
306.812	365.88
307.042	345.88
307.272	339.88
307.502	361.88
307.731	352.88
307.961	362.88
308.191	358.88
308.421	353.88
308.651	367.88
308.881	353.88
309.111	366.88
309.341	383.88
309.571	362.88
309.8	387.88
310.03	398.88
310.26	419.88
310.49	387.88
310.72	402.88
310.949	433.88
311.179	416.88
311.409	393.88
311.639	407.88
311.868	423.88
312.098	405.88
312.328	406.88
312.557	427.88
312.787	436.88
313.017	418.88
313.246	409.88
313.476	391.88
313.706	388.88
313.935	399.88
314.165	411.88
314.394	414.88
314.624	434.88
314.853	422.88
315.083	406.88
315.312	397.88
315.542	403.88
315.771	400.88
316.001	382.88
316.23	393.88
316.46	401.88
316.689	391.88
316.919	414.88
317.148	424.88
317.377	429.88
317.607	433.88
317.836	431.88
318.065	402.88
318.295	392.88
318.524	402.88
318.753	387.88
318.983	392.88
319.212	415.88
319.441	426.88
319.67	431.88
319.9	416.88
320.129	411.88
320.358	422.88
320.587	397.88
320.816	401.88
321.046	431.88
321.275	455.88
321.504	441.88
321.733	414.88
321.962	437.88
322.191	443.88
322.42	454.88
322.649	463.88
322.878	476.88
323.108	497.88
323.337	534.88
323.566	531.88
323.795	577.88
324.024	616.88
324.253	740.88
324.482	1024.88
324.71	1587.88
324.939	2360.88
325.168	2065.88
325.397	1066.88
325.626	738.88
325.855	606.88
326.084	519.88
326.313	545.88
326.542	533.88
326.77	587.88
326.999	697.88
327.228	950.88
327.457	1401.88
327.686	1745.88
327.914	1163.88
328.143	760.88
328.372	664.88
328.6	612.88
328.829	585.88
329.058	605.88
329.287	583.88
329.515	584.88
329.744	577.88
329.972	527.88
330.201	530.88
330.43	554.88
330.658	574.88
330.887	631.88
331.115	636.88
331.344	545.88
331.572	518.88
331.801	516.88
332.03	521.88
332.258	513.88
332.486	482.88
332.715	486.88
332.943	494.88
333.172	492.88
333.4	485.88
333.629	491.88
333.857	521.88
334.085	511.88
334.314	506.88
334.542	519.88
334.771	506.88
334.999	507.88
335.227	493.88
335.455	471.88
335.684	461.88
335.912	472.88
336.14	488.88
336.369	477.88
336.597	494.88
336.825	509.88
337.053	477.88
337.281	478.88
337.51	471.88
337.738	461.88
337.966	492.88
338.194	467.88
338.422	463.88
338.65	474.88
338.878	477.88
339.106	466.88
339.334	470.88
339.562	475.88
339.79	473.88
340.018	471.88
340.246	464.88
340.474	480.88
340.702	487.88
340.93	465.88
341.158	460.88
341.386	478.88
341.614	459.88
341.842	458.88
342.07	475.88
342.298	470.88
342.526	459.88
342.754	451.88
342.981	481.88
343.209	464.88
343.437	467.88
343.665	453.88
343.893	476.88
344.12	477.88
344.348	490.88
344.576	496.88
344.804	485.88
345.031	467.88
345.259	497.88
345.487	482.88
345.714	476.88
345.942	482.88
346.17	475.88
346.397	453.88
346.625	457.88
346.853	466.88
347.08	462.88
347.308	453.88
347.535	453.88
347.763	462.88
347.99	482.88
348.218	463.88
348.445	457.88
348.673	481.88
348.9	465.88
349.128	469.88
349.355	452.88
349.583	438.88
349.81	464.88
350.037	460.88
350.265	426.88
350.492	441.88
350.72	458.88
350.947	456.88
351.174	453.88
351.402	468.88
351.629	477.88
351.856	458.88
352.083	480.88
352.311	477.88
352.538	478.88
352.765	466.88
352.992	469.88
353.22	472.88
353.447	466.88
353.674	467.88
353.901	449.88
354.128	431.88
354.355	433.88
354.583	440.88
354.81	433.88
355.037	429.88
355.264	425.88
355.491	434.88
355.718	430.88
355.945	451.88
356.172	421.88
356.399	444.88
356.626	437.88
356.853	449.88
357.08	427.88
357.307	428.88
357.534	441.88
357.761	452.88
357.988	427.88
358.215	427.88
358.441	455.88
358.668	419.88
358.895	449.88
359.122	441.88
359.349	445.88
359.576	452.88
359.802	477.88
360.029	519.88
360.256	524.88
360.483	489.88
360.709	478.88
360.936	469.88
361.163	459.88
361.39	464.88
361.616	459.88
361.843	456.88
362.07	466.88
362.296	473.88
362.523	453.88
362.749	446.88
362.976	455.88
363.203	441.88
363.429	440.88
363.656	443.88
363.882	427.88
364.109	439.88
364.335	435.88
364.562	442.88
364.788	453.88
365.015	428.88
365.241	446.88
365.468	468.88
365.694	459.88
365.92	464.88
366.147	435.88
366.373	437.88
366.599	453.88
366.826	425.88
367.052	439.88
367.278	433.88
367.505	450.88
367.731	453.88
367.957	471.88
368.184	451.88
368.41	453.88
368.636	462.88
368.862	465.88
369.089	453.88
369.315	434.88
369.541	431.88
369.767	473.88
369.993	443.88
370.219	438.88
370.445	479.88
370.672	452.88
370.898	447.88
371.124	436.88
371.35	464.88
371.576	468.88
371.802	436.88
372.028	444.88
372.254	445.88
372.48	424.88
372.706	447.88
372.932	445.88
373.158	442.88
373.384	453.88
373.61	453.88
373.835	454.88
374.061	425.88
374.287	468.88
374.513	463.88
374.739	467.88
374.965	453.88
375.191	443.88
375.416	452.88
375.642	449.88
375.868	420.88
376.094	443.88
376.319	441.88
376.545	450.88
376.771	433.88
376.997	450.88
377.222	444.88
377.448	460.88
377.674	459.88
377.899	440.88
378.125	429.88
378.35	429.88
378.576	427.88
378.802	436.88
379.027	445.88
379.253	447.88
379.478	447.88
379.704	460.88
379.929	438.88
380.155	453.88
380.38	428.88
380.606	467.88
380.831	441.88
381.057	442.88
381.282	444.88
381.507	453.88
381.733	464.88
381.958	462.88
382.184	455.88
382.409	478.88
382.634	457.88
382.86	444.88
383.085	447.88
383.31	483.88
383.535	448.88
383.761	476.88
383.986	498.88
384.211	486.88
384.436	482.88
384.662	477.88
384.887	506.88
385.112	483.88
385.337	500.88
385.562	473.88
385.787	481.88
386.013	494.88
386.238	487.88
386.463	521.88
386.688	500.88
386.913	486.88
387.138	481.88
387.363	500.88
387.588	501.88
387.813	498.88
388.038	489.88
388.263	501.88
388.488	491.88
388.713	502.88
388.938	507.88
389.163	499.88
389.387	504.88
389.612	483.88
389.837	477.88
390.062	486.88
390.287	513.88
390.512	483.88
390.736	473.88
390.961	519.88
391.186	517.88
391.411	493.88
391.636	507.88
391.86	505.88
392.085	520.88
392.31	515.88
392.534	505.88
392.759	517.88
392.984	517.88
393.208	512.88
393.433	498.88
393.658	523.88
393.882	502.88
394.107	493.88
394.331	488.88
394.556	510.88
394.78	527.88
395.005	510.88
395.229	516.88
395.454	535.88
395.678	525.88
395.903	541.88
396.127	550.88
396.352	567.88
396.576	523.88
396.801	535.88
397.025	524.88
397.249	536.88
397.474	556.88
397.698	566.88
397.922	542.88
398.147	563.88
398.371	575.88
398.595	564.88
398.82	566.88
399.044	577.88
399.268	620.88
399.492	652.88
399.717	678.88
399.941	712.88
400.165	731.88
400.389	710.88
400.613	664.88
400.837	635.88
401.062	595.88
401.286	580.88
401.51	606.88
401.734	586.88
401.958	576.88
402.182	586.88
402.406	592.88
402.63	601.88
402.854	597.88
403.078	590.88
403.302	595.88
403.526	615.88
403.75	598.88
403.974	606.88
404.198	625.88
404.422	581.88
404.645	599.88
404.869	591.88
405.093	627.88
405.317	634.88
405.541	687.88
405.765	658.88
405.988	646.88
406.212	667.88
406.436	657.88
406.66	694.88
406.883	664.88
407.107	688.88
407.331	727.88
407.555	800.88
407.778	784.88
408.002	748.88
408.226	670.88
408.449	682.88
408.673	666.88
408.896	717.88
409.12	740.88
409.344	689.88
409.567	657.88
409.791	623.88
410.014	611.88
410.238	597.88
410.461	618.88
410.685	613.88
410.908	627.88
411.132	657.88
411.355	696.88
411.578	657.88
411.802	604.88
412.025	602.88
412.249	612.88
412.472	601.88
412.695	616.88
412.919	627.88
413.142	573.88
413.365	573.88
413.589	559.88
413.812	582.88
414.035	566.88
414.258	574.88
414.482	587.88
414.705	590.88
414.928	561.88
415.151	572.88
415.374	589.88
415.597	547.88
415.821	564.88
416.044	563.88
416.267	563.88
416.49	579.88
416.713	541.88
416.936	571.88
417.159	555.88
417.382	571.88
417.605	578.88
417.828	598.88
418.051	587.88
418.274	585.88
418.497	585.88
418.72	569.88
418.943	566.88
419.166	565.88
419.389	626.88
419.611	599.88
419.834	586.88
420.057	595.88
420.28	585.88
420.503	585.88
420.726	594.88
420.948	607.88
421.171	677.88
421.394	656.88
421.617	610.88
421.839	582.88
422.062	603.88
422.285	629.88
422.507	705.88
422.73	760.88
422.953	723.88
423.175	661.88
423.398	620.88
423.621	608.88
423.843	637.88
424.066	627.88
424.288	643.88
424.511	648.88
424.733	701.88
424.956	822.88
425.178	782.88
425.401	773.88
425.623	792.88
425.846	677.88
426.068	653.88
426.291	639.88
426.513	646.88
426.735	643.88
426.958	699.88
427.18	806.88
427.402	943.88
427.625	1040.88
427.847	887.88
428.069	746.88
428.292	708.88
428.514	615.88
428.736	615.88
428.958	616.88
429.181	588.88
429.403	568.88
429.625	622.88
429.847	634.88
430.069	709.88
430.292	722.88
430.514	619.88
430.736	591.88
430.958	599.88
431.18	585.88
431.402	567.88
431.624	549.88
431.846	545.88
432.068	542.88
432.29	570.88
432.512	547.88
432.734	569.88
432.956	585.88
433.178	583.88
433.4	582.88
433.622	567.88
433.844	552.88
434.066	572.88
434.287	590.88
434.509	581.88
434.731	591.88
434.953	610.88
435.175	608.88
435.397	651.88
435.618	630.88
435.84	673.88
436.062	781.88
436.284	870.88
436.505	707.88
436.727	686.88
436.949	633.88
437.17	619.88
437.392	604.88
437.614	630.88
437.835	649.88
438.057	726.88
438.278	861.88
438.5	862.88
438.721	943.88
438.943	895.88
439.165	757.88
439.386	661.88
439.608	669.88
439.829	628.88
440.05	684.88
440.272	728.88
440.493	676.88
440.715	643.88
440.936	648.88
441.158	627.88
441.379	614.88
441.6	607.88
441.822	663.88
442.043	695.88
442.264	785.88
442.486	825.88
442.707	708.88
442.928	658.88
443.149	667.88
443.371	670.88
443.592	729.88
443.813	827.88
444.034	906.88
444.255	781.88
444.476	675.88
444.698	655.88
444.919	654.88
445.14	747.88
445.361	707.88
445.582	692.88
445.803	774.88
446.024	872.88
446.245	901.88
446.466	814.88
446.687	661.88
446.908	657.88
447.129	618.88
447.35	586.88
447.571	611.88
447.792	584.88
448.013	591.88
448.234	637.88
448.455	665.88
448.675	800.88
448.896	939.88
449.117	801.88
449.338	733.88
449.559	871.88
449.779	973.88
450	804.88
450.221	647.88
450.442	623.88
450.662	597.88
450.883	581.88
451.104	596.88
451.324	569.88
451.545	562.88
451.766	555.88
451.986	531.88
452.207	536.88
452.428	530.88
452.648	530.88
452.869	534.88
453.089	523.88
453.31	561.88
453.53	535.88
453.751	553.88
453.971	529.88
454.192	521.88
454.412	557.88
454.633	533.88
454.853	549.88
455.073	536.88
455.294	549.88
455.514	622.88
455.734	601.88
455.955	533.88
456.175	511.88
456.395	506.88
456.616	511.88
456.836	506.88
457.056	502.88
457.276	512.88
457.497	505.88
457.717	518.88
457.937	515.88
458.157	517.88
458.377	538.88
458.598	557.88
458.818	588.88
459.038	679.88
459.258	730.88
459.478	620.88
459.698	589.88
459.918	554.88
460.138	563.88
460.358	588.88
460.578	580.88
460.798	573.88
461.018	581.88
461.238	573.88
461.458	592.88
461.678	575.88
461.898	589.88
462.118	581.88
462.338	591.88
462.558	591.88
462.777	607.88
462.997	632.88
463.217	617.88
463.437	659.88
463.657	633.88
463.876	644.88
464.096	642.88
464.316	604.88
464.536	620.88
464.755	618.88
464.975	638.88
465.195	685.88
465.414	725.88
465.634	627.88
465.854	618.88
466.073	601.88
466.293	567.88
466.512	562.88
466.732	577.88
466.951	570.88
467.171	535.88
467.391	549.88
467.61	569.88
467.829	541.88
468.049	558.88
468.268	537.88
468.488	565.88
468.707	552.88
468.927	523.88
469.146	543.88
469.365	545.88
469.585	539.88
469.804	533.88
470.023	550.88
470.243	561.88
470.462	566.88
470.681	563.88
470.901	574.88
471.12	553.88
471.339	535.88
471.558	552.88
471.777	563.88
471.997	544.88
472.216	520.88
472.435	543.88
472.654	553.88
472.873	549.88
473.092	539.88
473.311	570.88
473.53	559.88
473.749	555.88
473.968	589.88
474.187	702.88
474.406	738.88
474.625	608.88
474.844	591.88
475.063	565.88
475.282	568.88
475.501	563.88
475.72	577.88
475.939	570.88
476.158	575.88
476.377	579.88
476.596	574.88
476.814	583.88
477.033	580.88
477.252	591.88
477.471	590.88
477.69	595.88
477.908	595.88
478.127	618.88
478.346	604.88
478.564	608.88
478.783	617.88
479.002	636.88
479.22	649.88
479.439	632.88
479.658	657.88
479.876	661.88
480.095	661.88
480.313	676.88
480.532	696.88
480.751	673.88
480.969	667.88
481.188	666.88
481.406	690.88
481.624	694.88
481.843	673.88
482.061	645.88
482.28	663.88
482.498	669.88
482.717	627.88
482.935	657.88
483.153	644.88
483.372	645.88
483.59	652.88
483.808	634.88
484.027	667.88
484.245	653.88
484.463	667.88
484.681	672.88
484.9	661.88
485.118	701.88
485.336	681.88
485.554	651.88
485.772	700.88
485.99	685.88
486.209	681.88
486.427	686.88
486.645	679.88
486.863	713.88
487.081	680.88
487.299	704.88
487.517	691.88
487.735	682.88
487.953	686.88
488.171	703.88
488.389	720.88
488.607	733.88
488.825	689.88
489.043	709.88
489.261	684.88
489.479	715.88
489.696	713.88
489.914	709.88
490.132	731.88
490.35	751.88
490.568	757.88
490.786	761.88
491.003	741.88
491.221	780.88
491.439	769.88
491.657	759.88
491.874	747.88
492.092	791.88
492.31	794.88
492.527	781.88
492.745	769.88
492.963	779.88
493.18	807.88
493.398	821.88
493.615	809.88
493.833	830.88
494.05	803.88
494.268	809.88
494.485	797.88
494.703	775.88
494.92	826.88
495.138	816.88
495.355	816.88
495.573	846.88
495.79	839.88
496.008	835.88
496.225	826.88
496.442	828.88
496.66	831.88
496.877	863.88
497.094	856.88
497.312	856.88
497.529	859.88
497.746	891.88
497.963	892.88
498.181	915.88
498.398	945.88
498.615	954.88
498.832	957.88
499.049	966.88
499.267	1017.88
499.484	1018.88
499.701	1041.88
499.918	1077.88
500.135	1152.88
500.352	1215.88
500.569	1203.88
500.786	1195.88
501.003	1203.88
501.22	1176.88
501.437	1147.88
501.654	1105.88
501.871	1043.88
502.088	1029.88
502.305	998.88
502.522	977.88
502.739	947.88
502.956	911.88
503.172	925.88
503.389	874.88
503.606	915.88
503.823	875.88
504.04	875.88
504.256	862.88
504.473	855.88
504.69	842.88
504.907	859.88
505.123	838.88
505.34	824.88
505.557	810.88
505.773	821.88
505.99	798.88
506.207	793.88
506.423	800.88
506.64	810.88
506.856	777.88
507.073	783.88
507.289	796.88
507.506	788.88
507.722	794.88
507.939	809.88
508.155	789.88
508.372	762.88
508.588	776.88
508.805	764.88
509.021	761.88
509.238	754.88
509.454	777.88
509.67	779.88
509.887	757.88
510.103	772.88
510.319	757.88
510.536	859.88
510.752	1409.88
510.968	1133.88
511.184	762.88
511.401	733.88
511.617	719.88
511.833	715.88
512.049	703.88
512.265	708.88
512.481	716.88
512.698	694.88
512.914	707.88
513.13	732.88
513.346	746.88
513.562	682.88
513.778	716.88
513.994	706.88
514.21	718.88
514.426	758.88
514.642	749.88
514.858	811.88
515.074	852.88
515.29	1001.88
515.506	1381.88
515.721	1209.88
515.937	847.88
516.153	801.88
516.369	782.88
516.585	773.88
516.801	760.88
517.016	765.88
517.232	766.88
517.448	745.88
517.664	764.88
517.879	734.88
518.095	754.88
518.311	763.88
518.527	769.88
518.742	737.88
518.958	748.88
519.173	729.88
519.389	741.88
519.605	735.88
519.82	729.88
520.036	750.88
520.251	759.88
520.467	797.88
520.682	777.88
520.898	794.88
521.113	817.88
521.329	852.88
521.544	951.88
521.76	1117.88
521.975	1778.88
522.19	1833.88
522.406	1045.88
522.621	825.88
522.836	754.88
523.052	699.88
523.267	704.88
523.482	699.88
523.698	665.88
523.913	683.88
524.128	674.88
524.343	673.88
524.559	654.88
524.774	630.88
524.989	633.88
525.204	649.88
525.419	645.88
525.634	646.88
525.849	615.88
526.064	594.88
526.28	614.88
526.495	612.88
526.71	613.88
526.925	596.88
527.14	594.88
527.355	572.88
527.57	602.88
527.785	605.88
527.999	607.88
528.214	617.88
528.429	611.88
528.644	587.88
528.859	567.88
529.074	600.88
529.289	612.88
529.503	679.88
529.718	712.88
529.933	634.88
530.148	612.88
530.363	608.88
530.577	575.88
530.792	561.88
531.007	599.88
531.221	607.88
531.436	595.88
531.651	571.88
531.865	564.88
532.08	565.88
532.295	582.88
532.509	578.88
532.724	556.88
532.938	558.88
533.153	589.88
533.367	557.88
533.582	570.88
533.796	572.88
534.011	565.88
534.225	567.88
534.44	544.88
534.654	578.88
534.868	562.88
535.083	549.88
535.297	566.88
535.511	569.88
535.726	565.88
535.94	588.88
536.154	579.88
536.369	548.88
536.583	581.88
536.797	552.88
537.011	555.88
537.225	552.88
537.44	547.88
537.654	542.88
537.868	577.88
538.082	534.88
538.296	558.88
538.51	553.88
538.724	550.88
538.938	564.88
539.153	541.88
539.367	573.88
539.581	533.88
539.795	550.88
540.009	517.88
540.222	542.88
540.436	539.88
540.65	541.88
540.864	555.88
541.078	568.88
541.292	538.88
541.506	543.88
541.72	541.88
541.934	527.88
542.147	538.88
542.361	548.88
542.575	515.88
542.789	532.88
543.002	525.88
543.216	531.88
543.43	549.88
543.644	535.88
543.857	558.88
544.071	546.88
544.285	555.88
544.498	546.88
544.712	533.88
544.925	532.88
545.139	527.88
545.352	539.88
545.566	537.88
545.779	537.88
545.993	536.88
546.206	534.88
546.42	518.88
546.633	522.88
546.847	536.88
547.06	516.88
547.274	517.88
547.487	522.88
547.7	540.88
547.914	522.88
548.127	534.88
548.34	519.88
548.554	515.88
548.767	522.88
548.98	532.88
549.193	510.88
549.407	525.88
549.62	513.88
549.833	524.88
550.046	512.88
550.259	531.88
550.473	531.88
550.686	528.88
550.899	535.88
551.112	513.88
551.325	518.88
551.538	504.88
551.751	523.88
551.964	503.88
552.177	513.88
552.39	513.88
552.603	510.88
552.816	512.88
553.029	525.88
553.242	537.88
553.455	509.88
553.667	516.88
553.88	553.88
554.093	543.88
554.306	535.88
554.519	529.88
554.732	523.88
554.944	514.88
555.157	496.88
555.37	507.88
555.583	515.88
555.795	508.88
556.008	504.88
556.221	477.88
556.433	476.88
556.646	491.88
556.859	505.88
557.071	460.88
557.284	492.88
557.496	484.88
557.709	458.88
557.921	455.88
558.134	459.88
558.346	449.88
558.559	456.88
558.771	460.88
558.984	462.88
559.196	468.88
559.409	465.88
559.621	472.88
559.833	468.88
560.046	442.88
560.258	476.88
560.47	472.88
560.683	447.88
560.895	453.88
561.107	460.88
561.32	457.88
561.532	437.88
561.744	461.88
561.956	457.88
562.168	459.88
562.381	465.88
562.593	463.88
562.805	470.88
563.017	475.88
563.229	471.88
563.441	454.88
563.653	452.88
563.865	483.88
564.077	500.88
564.289	497.88
564.501	479.88
564.713	457.88
564.925	494.88
565.137	488.88
565.349	493.88
565.561	486.88
565.773	494.88
565.985	521.88
566.197	525.88
566.408	535.88
566.62	562.88
566.832	573.88
567.044	547.88
567.255	562.88
567.467	580.88
567.679	593.88
567.891	606.88
568.102	589.88
568.314	590.88
568.526	582.88
568.737	536.88
568.949	533.88
569.161	519.88
569.372	490.88
569.584	496.88
569.795	477.88
570.007	459.88
570.218	514.88
570.43	522.88
570.641	449.88
570.853	459.88
571.064	440.88
571.276	454.88
571.487	462.88
571.698	449.88
571.91	426.88
572.121	435.88
572.333	429.88
572.544	433.88
572.755	413.88
572.966	418.88
573.178	397.88
573.389	404.88
573.6	411.88
573.811	415.88
574.023	415.88
574.234	409.88
574.445	403.88
574.656	405.88
574.867	395.88
575.078	400.88
575.289	398.88
575.501	393.88
575.712	396.88
575.923	395.88
576.134	401.88
576.345	377.88
576.556	381.88
576.767	373.88
576.978	399.88
577.188	397.88
577.399	389.88
577.61	381.88
577.821	384.88
578.032	374.88
578.243	426.88
578.454	627.88
578.665	501.88
578.875	393.88
579.086	375.88
579.297	370.88
579.508	375.88
579.718	365.88
579.929	376.88
580.14	379.88
580.35	391.88
580.561	388.88
580.772	371.88
580.982	363.88
581.193	371.88
581.403	352.88
581.614	360.88
581.825	371.88
582.035	379.88
582.246	372.88
582.456	376.88
582.667	353.88
582.877	345.88
583.087	358.88
583.298	354.88
583.508	347.88
583.719	357.88
583.929	346.88
584.139	348.88
584.35	338.88
584.56	363.88
584.77	366.88
584.981	370.88
585.191	359.88
585.401	361.88
585.611	345.88
585.821	362.88
586.032	358.88
586.242	342.88
586.452	349.88
586.662	341.88
586.872	348.88
587.082	354.88
587.292	335.88
587.502	338.88
587.713	347.88
587.923	334.88
588.133	331.88
588.343	347.88
588.553	317.88
588.762	346.88
588.972	339.88
589.182	341.88
589.392	330.88
589.602	339.88
589.812	340.88
590.022	338.88
590.232	346.88
590.441	345.88
590.651	340.88
590.861	347.88
591.071	343.88
591.281	339.88
591.49	379.88
591.7	350.88
591.91	362.88
592.119	343.88
592.329	345.88
592.539	366.88
592.748	362.88
592.958	353.88
593.167	353.88
593.377	348.88
593.587	379.88
593.796	361.88
594.006	369.88
594.215	367.88
594.424	352.88
594.634	359.88
594.843	355.88
595.053	335.88
595.262	343.88
595.472	351.88
595.681	335.88
595.89	342.88
596.1	334.88
596.309	324.88
596.518	345.88
596.727	321.88
596.937	319.88
597.146	334.88
597.355	341.88
597.564	335.88
597.774	313.88
597.983	312.88
598.192	310.88
598.401	323.88
598.61	298.88
598.819	323.88
599.028	309.88
599.237	308.88
599.446	311.88
599.655	293.88
599.864	318.88
600.073	300.88
600.282	313.88
600.491	293.88
600.7	305.88
600.909	322.88
601.118	303.88
601.327	280.88
601.536	287.88
601.745	295.88
601.953	301.88
602.162	285.88
602.371	299.88
602.58	299.88
602.789	290.88
602.997	287.88
603.206	285.88
603.415	286.88
603.623	289.88
603.832	291.88
604.041	311.88
604.249	280.88
604.458	289.88
604.666	292.88
604.875	283.88
605.084	287.88
605.292	282.88
605.501	278.88
605.709	280.88
605.918	267.88
606.126	293.88
606.334	285.88
606.543	280.88
606.751	273.88
606.96	279.88
607.168	294.88
607.376	277.88
607.585	284.88
607.793	277.88
608.001	279.88
608.21	305.88
608.418	274.88
608.626	269.88
608.834	275.88
609.043	263.88
609.251	276.88
609.459	269.88
609.667	284.88
609.875	267.88
610.083	268.88
610.291	259.88
610.499	284.88
610.707	261.88
610.916	263.88
611.124	295.88
611.332	289.88
611.54	284.88
611.748	287.88
611.955	274.88
612.163	266.88
612.371	281.88
612.579	261.88
612.787	266.88
612.995	286.88
613.203	286.88
613.411	265.88
613.618	265.88
613.826	274.88
614.034	257.88
614.242	276.88
614.449	267.88
614.657	275.88
614.865	252.88
615.072	285.88
615.28	261.88
615.488	261.88
615.695	266.88
615.903	277.88
616.111	275.88
616.318	268.88
616.526	259.88
616.733	247.88
616.941	273.88
617.148	267.88
617.356	272.88
617.563	274.88
617.771	259.88
617.978	264.88
618.185	267.88
618.393	270.88
618.6	264.88
618.807	266.88
619.015	247.88
619.222	255.88
619.429	262.88
619.637	267.88
619.844	270.88
620.051	269.88
620.258	259.88
620.466	255.88
620.673	271.88
620.88	250.88
621.087	254.88
621.294	250.88
621.501	255.88
621.708	251.88
621.915	227.88
622.122	236.88
622.329	244.88
622.536	243.88
622.743	234.88
622.95	241.88
623.157	238.88
623.364	236.88
623.571	234.88
623.778	248.88
623.985	241.88
624.192	238.88
624.399	243.88
624.606	263.88
624.812	222.88
625.019	217.88
625.226	242.88
625.433	224.88
625.639	244.88
625.846	227.88
626.053	229.88
626.259	231.88
626.466	242.88
626.673	249.88
626.879	222.88
627.086	243.88
627.293	241.88
627.499	225.88
627.706	218.88
627.912	219.88
628.119	236.88
628.325	230.88
628.532	223.88
628.738	247.88
628.945	216.88
629.151	214.88
629.357	222.88
629.564	223.88
629.77	237.88
629.976	218.88
630.183	218.88
630.389	215.88
630.595	237.88
630.802	212.88
631.008	206.88
631.214	222.88
631.42	215.88
631.627	212.88
631.833	208.88
632.039	207.88
632.245	197.88
632.451	211.88
632.657	213.88
632.863	230.88
633.069	214.88
633.275	219.88
633.481	211.88
633.688	211.88
633.893	199.88
634.099	207.88
634.305	203.88
634.511	214.88
634.717	203.88
634.923	208.88
635.129	209.88
635.335	203.88
635.541	219.88
635.747	199.88
635.952	193.88
636.158	210.88
636.364	204.88
636.57	199.88
636.775	204.88
636.981	196.88
637.187	199.88
637.392	213.88
637.598	207.88
637.804	197.88
638.009	207.88
638.215	202.88
638.421	181.88
638.626	201.88
638.832	202.88
639.037	204.88
639.243	190.88
639.448	182.88
639.654	195.88
639.859	192.88
640.065	186.88
640.27	196.88
640.475	198.88
640.681	205.88
640.886	201.88
641.091	192.88
641.297	175.88
641.502	181.88
641.707	184.88
641.913	184.88
642.118	179.88
642.323	199.88
642.528	194.88
642.733	175.88
642.939	187.88
643.144	182.88
643.349	186.88
643.554	159.88
643.759	193.88
643.964	185.88
644.169	163.88
644.374	193.88
644.579	192.88
644.784	183.88
644.989	160.88
645.194	196.88
645.399	195.88
645.604	171.88
645.809	184.88
646.014	190.88
646.219	171.88
646.423	183.88
646.628	178.88
646.833	176.88
647.038	191.88
647.243	182.88
647.447	179.88
647.652	169.88
647.857	201.88
648.062	187.88
648.266	199.88
648.471	190.88
648.676	189.88
648.88	177.88
649.085	187.88
649.289	162.88
649.494	179.88
649.698	208.88
649.903	201.88
650.107	193.88
650.312	182.88
650.516	173.88
650.721	169.88
650.925	181.88
651.13	159.88
651.334	161.88
651.539	149.88
651.743	153.88
651.947	147.88
652.152	170.88
652.356	159.88
652.56	164.88
652.764	155.88
652.969	156.88
653.173	155.88
653.377	153.88
653.581	156.88
653.785	167.88
653.99	148.88
654.194	145.88
654.398	141.88
654.602	155.88
654.806	151.88
655.01	157.88
655.214	146.88
655.418	141.88
655.622	134.88
655.826	138.88
656.03	148.88
656.234	134.88
656.438	144.88
656.642	132.88
656.846	146.88
657.049	133.88
657.253	131.88
657.457	133.88
657.661	137.88
657.865	129.88
658.068	135.88
658.272	117.88
658.476	118.88
658.68	110.88
658.883	110.88
659.087	119.88
659.291	105.88
659.494	106.88
659.698	106.88
659.901	109.88
660.105	94.88
660.309	98.88
660.512	97.88
660.716	101.88
660.919	86.88
661.123	99.88
661.326	101.88
661.53	100.88
661.733	100.88
661.936	91.88
662.14	82.88
662.343	87.88
662.546	78.88
662.75	70.88
662.953	83.88
663.156	86.88
663.36	85.88
663.563	97.88
663.766	82.88
663.969	87.88
664.173	93.88
664.376	91.88
664.579	86.88
664.782	78.88
664.985	75.88
665.188	84.88
665.391	95.88
665.594	71.88
665.797	74.88
666	91.88
666.203	73.88
666.406	71.88
666.609	79.88
666.812	78.88
667.015	84.88
667.218	85.88
667.421	72.88
667.624	85.88
667.827	95.88
668.03	90.88
668.232	77.88
668.435	94.88
668.638	77.88
668.841	89.88
669.043	81.88
669.246	70.88
669.449	77.88
669.651	79.88
669.854	74.88
670.057	73.88
670.259	92.88
670.462	81.88
670.665	83.88
670.867	89.88
671.07	77.88
671.272	79.88
671.475	79.88
671.677	73.88
671.88	86.88
672.082	94.88
672.284	78.88
672.487	78.88
672.689	88.88
672.892	79.88
