Data from 1988.PennyLincolnUp.Lamp.En5.5.200Scan.071819.P2_HRD10591_17-20-06-972.txt Node
Date: Thu Jul 18 17:20:06 EDT 2019
User: cochatt
Spectrometer: HR+D1059
Trigger mode: 1
Integration Time (sec): 1.000000E-1
Scans to average: 1
Electric dark correction enabled: true
Nonlinearity correction enabled: false
Boxcar width: 0
XAxis mode: Wavelengths
Number of Pixels in Spectrum: 2048
>>>>>Begin Spectral Data<<<<<
223.165	-9.31
223.4	-9.31
223.635	-9.31
223.869	-4.31
224.104	-21.31
224.338	-18.31
224.573	-22.31
224.808	-16.31
225.042	-5.31
225.277	-6.31
225.511	4.69
225.746	1.69
225.98	25.69
226.215	6.69
226.449	15.69
226.683	7.69
226.918	18.69
227.152	22.69
227.387	31.69
227.621	39.69
227.856	48.69
228.09	52.69
228.324	38.69
228.559	47.69
228.793	64.69
229.027	97.69
229.262	117.69
229.496	131.69
229.73	137.69
229.964	163.69
230.199	132.69
230.433	102.69
230.667	111.69
230.901	114.69
231.136	114.69
231.37	130.69
231.604	102.69
231.838	118.69
232.072	104.69
232.306	115.69
232.541	118.69
232.775	112.69
233.009	108.69
233.243	128.69
233.477	130.69
233.711	120.69
233.945	125.69
234.179	120.69
234.413	118.69
234.647	122.69
234.881	118.69
235.115	114.69
235.349	120.69
235.583	124.69
235.817	120.69
236.051	125.69
236.285	126.69
236.519	130.69
236.753	132.69
236.987	158.69
237.221	205.69
237.455	244.69
237.689	197.69
237.922	148.69
238.156	150.69
238.39	137.69
238.624	139.69
238.858	127.69
239.091	128.69
239.325	110.69
239.559	128.69
239.793	130.69
240.027	151.69
240.26	146.69
240.494	175.69
240.728	168.69
240.961	152.69
241.195	158.69
241.429	131.69
241.662	130.69
241.896	138.69
242.13	147.69
242.363	156.69
242.597	123.69
242.83	149.69
243.064	148.69
243.298	136.69
243.531	134.69
243.765	146.69
243.998	150.69
244.232	150.69
244.465	154.69
244.699	154.69
244.932	159.69
245.166	150.69
245.399	145.69
245.633	160.69
245.866	165.69
246.099	150.69
246.333	152.69
246.566	161.69
246.8	169.69
247.033	170.69
247.266	165.69
247.5	155.69
247.733	163.69
247.966	167.69
248.2	170.69
248.433	175.69
248.666	181.69
248.899	201.69
249.133	212.69
249.366	201.69
249.599	199.69
249.832	195.69
250.066	177.69
250.299	203.69
250.532	198.69
250.765	203.69
250.998	224.69
251.231	234.69
251.465	225.69
251.698	211.69
251.931	220.69
252.164	203.69
252.397	218.69
252.63	201.69
252.863	212.69
253.096	231.69
253.329	237.69
253.562	230.69
253.795	208.69
254.028	216.69
254.261	227.69
254.494	244.69
254.727	282.69
254.96	271.69
255.193	270.69
255.426	256.69
255.659	250.69
255.892	242.69
256.124	234.69
256.357	222.69
256.59	224.69
256.823	213.69
257.056	214.69
257.289	217.69
257.521	227.69
257.754	216.69
257.987	210.69
258.22	217.69
258.452	204.69
258.685	215.69
258.918	214.69
259.151	218.69
259.383	218.69
259.616	238.69
259.849	220.69
260.081	254.69
260.314	276.69
260.547	276.69
260.779	251.69
261.012	250.69
261.244	252.69
261.477	234.69
261.71	246.69
261.942	211.69
262.175	242.69
262.407	238.69
262.64	231.69
262.872	223.69
263.105	219.69
263.337	227.69
263.57	242.69
263.802	225.69
264.035	231.69
264.267	240.69
264.499	224.69
264.732	220.69
264.964	233.69
265.197	219.69
265.429	227.69
265.661	240.69
265.894	225.69
266.126	208.69
266.358	232.69
266.591	238.69
266.823	235.69
267.055	231.69
267.287	239.69
267.52	218.69
267.752	252.69
267.984	256.69
268.216	231.69
268.448	264.69
268.681	248.69
268.913	263.69
269.145	280.69
269.377	303.69
269.609	302.69
269.841	273.69
270.073	267.69
270.306	314.69
270.538	329.69
270.77	318.69
271.002	331.69
271.234	298.69
271.466	306.69
271.698	324.69
271.93	337.69
272.162	327.69
272.394	337.69
272.626	302.69
272.858	286.69
273.09	295.69
273.322	287.69
273.553	288.69
273.785	296.69
274.017	271.69
274.249	288.69
274.481	274.69
274.713	282.69
274.945	282.69
275.176	275.69
275.408	256.69
275.64	283.69
275.872	264.69
276.104	272.69
276.335	284.69
276.567	289.69
276.799	308.69
277.031	321.69
277.262	324.69
277.494	327.69
277.726	304.69
277.957	318.69
278.189	298.69
278.421	281.69
278.652	266.69
278.884	308.69
279.115	275.69
279.347	287.69
279.579	283.69
279.81	272.69
280.042	287.69
280.273	286.69
280.505	282.69
280.736	273.69
280.968	279.69
281.199	282.69
281.431	290.69
281.662	273.69
281.894	266.69
282.125	291.69
282.356	302.69
282.588	314.69
282.819	324.69
283.051	298.69
283.282	300.69
283.513	305.69
283.745	304.69
283.976	298.69
284.207	303.69
284.439	304.69
284.67	292.69
284.901	294.69
285.132	278.69
285.364	286.69
285.595	294.69
285.826	295.69
286.057	284.69
286.288	310.69
286.52	304.69
286.751	302.69
286.982	297.69
287.213	283.69
287.444	294.69
287.675	306.69
287.906	322.69
288.138	319.69
288.369	320.69
288.6	324.69
288.831	312.69
289.062	323.69
289.293	322.69
289.524	320.69
289.755	308.69
289.986	317.69
290.217	314.69
290.448	295.69
290.679	316.69
290.91	314.69
291.141	297.69
291.371	303.69
291.602	323.69
291.833	296.69
292.064	314.69
292.295	310.69
292.526	299.69
292.757	295.69
292.987	338.69
293.218	313.69
293.449	317.69
293.68	334.69
293.91	312.69
294.141	320.69
294.372	323.69
294.603	307.69
294.833	332.69
295.064	308.69
295.295	316.69
295.525	314.69
295.756	335.69
295.987	327.69
296.217	353.69
296.448	366.69
296.679	336.69
296.909	329.69
297.14	322.69
297.37	332.69
297.601	342.69
297.831	311.69
298.062	338.69
298.292	340.69
298.523	352.69
298.753	360.69
298.984	352.69
299.214	371.69
299.445	324.69
299.675	340.69
299.905	339.69
300.136	350.69
300.366	345.69
300.597	324.69
300.827	342.69
301.057	379.69
301.288	354.69
301.518	366.69
301.748	376.69
301.979	351.69
302.209	340.69
302.439	358.69
302.669	368.69
302.9	352.69
303.13	343.69
303.36	357.69
303.59	349.69
303.82	361.69
304.051	359.69
304.281	357.69
304.511	342.69
304.741	333.69
304.971	356.69
305.201	368.69
305.431	368.69
305.661	379.69
305.891	353.69
306.121	349.69
306.352	375.69
306.582	376.69
306.812	356.69
307.042	368.69
307.272	351.69
307.502	351.69
307.731	362.69
307.961	374.69
308.191	374.69
308.421	374.69
308.651	368.69
308.881	375.69
309.111	379.69
309.341	387.69
309.571	402.69
309.8	396.69
310.03	406.69
310.26	393.69
310.49	427.69
310.72	419.69
310.949	435.69
311.179	436.69
311.409	403.69
311.639	419.69
311.868	415.69
312.098	401.69
312.328	411.69
312.557	424.69
312.787	433.69
313.017	448.69
313.246	438.69
313.476	419.69
313.706	419.69
313.935	407.69
314.165	437.69
314.394	436.69
314.624	444.69
314.853	433.69
315.083	411.69
315.312	427.69
315.542	410.69
315.771	416.69
316.001	411.69
316.23	425.69
316.46	420.69
316.689	430.69
316.919	416.69
317.148	427.69
317.377	416.69
317.607	438.69
317.836	433.69
318.065	423.69
318.295	420.69
318.524	410.69
318.753	405.69
318.983	413.69
319.212	404.69
319.441	418.69
319.67	436.69
319.9	419.69
320.129	422.69
320.358	418.69
320.587	422.69
320.816	436.69
321.046	446.69
321.275	444.69
321.504	442.69
321.733	436.69
321.962	449.69
322.191	496.69
322.42	494.69
322.649	502.69
322.878	501.69
323.108	535.69
323.337	539.69
323.566	546.69
323.795	587.69
324.024	631.69
324.253	756.69
324.482	1081.69
324.71	1681.69
324.939	2505.69
325.168	2198.69
325.397	1078.69
325.626	739.69
325.855	627.69
326.084	567.69
326.313	567.69
326.542	548.69
326.77	626.69
326.999	725.69
327.228	982.69
327.457	1506.69
327.686	1889.69
327.914	1242.69
328.143	799.69
328.372	670.69
328.6	652.69
328.829	639.69
329.058	640.69
329.287	649.69
329.515	600.69
329.744	560.69
329.972	532.69
330.201	566.69
330.43	568.69
330.658	614.69
330.887	659.69
331.115	634.69
331.344	550.69
331.572	534.69
331.801	533.69
332.03	548.69
332.258	528.69
332.486	520.69
332.715	504.69
332.943	497.69
333.172	496.69
333.4	511.69
333.629	491.69
333.857	521.69
334.085	530.69
334.314	527.69
334.542	522.69
334.771	524.69
334.999	518.69
335.227	502.69
335.455	527.69
335.684	511.69
335.912	512.69
336.14	498.69
336.369	499.69
336.597	511.69
336.825	495.69
337.053	471.69
337.281	502.69
337.51	483.69
337.738	498.69
337.966	497.69
338.194	526.69
338.422	495.69
338.65	512.69
338.878	498.69
339.106	504.69
339.334	481.69
339.562	494.69
339.79	477.69
340.018	491.69
340.246	477.69
340.474	498.69
340.702	500.69
340.93	486.69
341.158	499.69
341.386	469.69
341.614	468.69
341.842	494.69
342.07	484.69
342.298	485.69
342.526	480.69
342.754	470.69
342.981	465.69
343.209	483.69
343.437	468.69
343.665	493.69
343.893	490.69
344.12	495.69
344.348	498.69
344.576	497.69
344.804	505.69
345.031	505.69
345.259	518.69
345.487	510.69
345.714	483.69
345.942	468.69
346.17	459.69
346.397	476.69
346.625	476.69
346.853	479.69
347.08	470.69
347.308	474.69
347.535	472.69
347.763	486.69
347.99	487.69
348.218	471.69
348.445	487.69
348.673	480.69
348.9	474.69
349.128	474.69
349.355	469.69
349.583	459.69
349.81	447.69
350.037	444.69
350.265	466.69
350.492	471.69
350.72	456.69
350.947	479.69
351.174	474.69
351.402	469.69
351.629	476.69
351.856	480.69
352.083	484.69
352.311	495.69
352.538	472.69
352.765	485.69
352.992	481.69
353.22	472.69
353.447	469.69
353.674	481.69
353.901	466.69
354.128	446.69
354.355	460.69
354.583	452.69
354.81	458.69
355.037	450.69
355.264	434.69
355.491	436.69
355.718	415.69
355.945	422.69
356.172	434.69
356.399	428.69
356.626	450.69
356.853	457.69
357.08	425.69
357.307	432.69
357.534	442.69
357.761	436.69
357.988	452.69
358.215	445.69
358.441	452.69
358.668	446.69
358.895	433.69
359.122	440.69
359.349	477.69
359.576	470.69
359.802	479.69
360.029	535.69
360.256	528.69
360.483	519.69
360.709	496.69
360.936	486.69
361.163	467.69
361.39	483.69
361.616	464.69
361.843	471.69
362.07	487.69
362.296	475.69
362.523	478.69
362.749	457.69
362.976	467.69
363.203	464.69
363.429	449.69
363.656	459.69
363.882	447.69
364.109	433.69
364.335	455.69
364.562	448.69
364.788	478.69
365.015	471.69
365.241	450.69
365.468	466.69
365.694	469.69
365.92	465.69
366.147	453.69
366.373	458.69
366.599	449.69
366.826	439.69
367.052	451.69
367.278	464.69
367.505	467.69
367.731	479.69
367.957	451.69
368.184	472.69
368.41	474.69
368.636	478.69
368.862	494.69
369.089	502.69
369.315	444.69
369.541	439.69
369.767	452.69
369.993	461.69
370.219	446.69
370.445	449.69
370.672	447.69
370.898	454.69
371.124	443.69
371.35	458.69
371.576	445.69
371.802	472.69
372.028	448.69
372.254	460.69
372.48	451.69
372.706	460.69
372.932	464.69
373.158	444.69
373.384	464.69
373.61	446.69
373.835	456.69
374.061	462.69
374.287	483.69
374.513	451.69
374.739	459.69
374.965	469.69
375.191	472.69
375.416	469.69
375.642	447.69
375.868	458.69
376.094	459.69
376.319	462.69
376.545	459.69
376.771	438.69
376.997	448.69
377.222	439.69
377.448	459.69
377.674	475.69
377.899	464.69
378.125	451.69
378.35	464.69
378.576	461.69
378.802	468.69
379.027	442.69
379.253	449.69
379.478	456.69
379.704	466.69
379.929	479.69
380.155	453.69
380.38	447.69
380.606	438.69
380.831	475.69
381.057	467.69
381.282	460.69
381.507	462.69
381.733	474.69
381.958	455.69
382.184	444.69
382.409	449.69
382.634	464.69
382.86	458.69
383.085	453.69
383.31	480.69
383.535	478.69
383.761	472.69
383.986	501.69
384.211	472.69
384.436	483.69
384.662	495.69
384.887	501.69
385.112	501.69
385.337	516.69
385.562	502.69
385.787	509.69
386.013	501.69
386.238	515.69
386.463	521.69
386.688	517.69
386.913	487.69
387.138	495.69
387.363	494.69
387.588	512.69
387.813	513.69
388.038	512.69
388.263	531.69
388.488	524.69
388.713	510.69
388.938	484.69
389.163	522.69
389.387	517.69
389.612	540.69
389.837	508.69
390.062	517.69
390.287	511.69
390.512	500.69
390.736	508.69
390.961	510.69
391.186	499.69
391.411	516.69
391.636	520.69
391.86	516.69
392.085	528.69
392.31	527.69
392.534	508.69
392.759	514.69
392.984	508.69
393.208	518.69
393.433	516.69
393.658	519.69
393.882	517.69
394.107	519.69
394.331	515.69
394.556	505.69
394.78	522.69
395.005	530.69
395.229	531.69
395.454	539.69
395.678	545.69
395.903	548.69
396.127	590.69
396.352	585.69
396.576	552.69
396.801	547.69
397.025	550.69
397.249	529.69
397.474	536.69
397.698	545.69
397.922	569.69
398.147	590.69
398.371	598.69
398.595	577.69
398.82	570.69
399.044	587.69
399.268	610.69
399.492	676.69
399.717	700.69
399.941	714.69
400.165	742.69
400.389	753.69
400.613	686.69
400.837	653.69
401.062	616.69
401.286	611.69
401.51	615.69
401.734	591.69
401.958	581.69
402.182	600.69
402.406	624.69
402.63	613.69
402.854	638.69
403.078	625.69
403.302	615.69
403.526	614.69
403.75	598.69
403.974	638.69
404.198	614.69
404.422	616.69
404.645	631.69
404.869	596.69
405.093	635.69
405.317	660.69
405.541	678.69
405.765	642.69
405.988	642.69
406.212	670.69
406.436	666.69
406.66	679.69
406.883	685.69
407.107	690.69
407.331	753.69
407.555	833.69
407.778	811.69
408.002	755.69
408.226	724.69
408.449	680.69
408.673	657.69
408.896	708.69
409.12	786.69
409.344	705.69
409.567	646.69
409.791	640.69
410.014	643.69
410.238	616.69
410.461	648.69
410.685	652.69
410.908	634.69
411.132	673.69
411.355	729.69
411.578	700.69
411.802	623.69
412.025	608.69
412.249	638.69
412.472	619.69
412.695	622.69
412.919	632.69
413.142	596.69
413.365	595.69
413.589	600.69
413.812	576.69
414.035	580.69
414.258	587.69
414.482	584.69
414.705	582.69
414.928	579.69
415.151	598.69
415.374	582.69
415.597	576.69
415.821	578.69
416.044	583.69
416.267	606.69
416.49	584.69
416.713	579.69
416.936	577.69
417.159	582.69
417.382	581.69
417.605	587.69
417.828	586.69
418.051	618.69
418.274	592.69
418.497	574.69
418.72	587.69
418.943	596.69
419.166	610.69
419.389	624.69
419.611	625.69
419.834	597.69
420.057	601.69
420.28	593.69
420.503	615.69
420.726	587.69
420.948	614.69
421.171	668.69
421.394	700.69
421.617	625.69
421.839	594.69
422.062	607.69
422.285	638.69
422.507	702.69
422.73	799.69
422.953	768.69
423.175	677.69
423.398	624.69
423.621	643.69
423.843	646.69
424.066	638.69
424.288	644.69
424.511	668.69
424.733	742.69
424.956	842.69
425.178	808.69
425.401	796.69
425.623	816.69
425.846	720.69
426.068	639.69
426.291	626.69
426.513	643.69
426.735	663.69
426.958	697.69
427.18	785.69
427.402	962.69
427.625	1091.69
427.847	897.69
428.069	778.69
428.292	675.69
428.514	644.69
428.736	648.69
428.958	626.69
429.181	633.69
429.403	614.69
429.625	614.69
429.847	659.69
430.069	735.69
430.292	708.69
430.514	656.69
430.736	611.69
430.958	594.69
431.18	604.69
431.402	580.69
431.624	588.69
431.846	584.69
432.068	577.69
432.29	581.69
432.512	550.69
432.734	601.69
432.956	562.69
433.178	598.69
433.4	603.69
433.622	581.69
433.844	580.69
434.066	584.69
434.287	583.69
434.509	588.69
434.731	584.69
434.953	611.69
435.175	622.69
435.397	634.69
435.618	661.69
435.84	688.69
436.062	836.69
436.284	905.69
436.505	726.69
436.727	678.69
436.949	645.69
437.17	599.69
437.392	624.69
437.614	619.69
437.835	679.69
438.057	792.69
438.278	894.69
438.5	899.69
438.721	958.69
438.943	937.69
439.165	772.69
439.386	678.69
439.608	651.69
439.829	678.69
440.05	689.69
440.272	764.69
440.493	726.69
440.715	637.69
440.936	632.69
441.158	638.69
441.379	614.69
441.6	650.69
441.822	680.69
442.043	714.69
442.264	812.69
442.486	862.69
442.707	702.69
442.928	665.69
443.149	702.69
443.371	682.69
443.592	751.69
443.813	871.69
444.034	946.69
444.255	778.69
444.476	707.69
444.698	656.69
444.919	677.69
445.14	797.69
445.361	746.69
445.582	713.69
445.803	794.69
446.024	902.69
446.245	928.69
446.466	817.69
446.687	706.69
446.908	659.69
447.129	615.69
447.35	627.69
447.571	620.69
447.792	592.69
448.013	626.69
448.234	617.69
448.455	711.69
448.675	830.69
448.896	956.69
449.117	814.69
449.338	786.69
449.559	889.69
449.779	992.69
450	807.69
450.221	653.69
450.442	608.69
450.662	597.69
450.883	595.69
451.104	602.69
451.324	597.69
451.545	573.69
451.766	582.69
451.986	554.69
452.207	554.69
452.428	534.69
452.648	562.69
452.869	557.69
453.089	567.69
453.31	551.69
453.53	546.69
453.751	542.69
453.971	560.69
454.192	568.69
454.412	548.69
454.633	538.69
454.853	550.69
455.073	546.69
455.294	591.69
455.514	616.69
455.734	644.69
455.955	542.69
456.175	524.69
456.395	520.69
456.616	512.69
456.836	518.69
457.056	484.69
457.276	508.69
457.497	502.69
457.717	520.69
457.937	530.69
458.157	532.69
458.377	545.69
458.598	551.69
458.818	638.69
459.038	696.69
459.258	757.69
459.478	655.69
459.698	569.69
459.918	574.69
460.138	586.69
460.358	574.69
460.578	580.69
460.798	604.69
461.018	600.69
461.238	574.69
461.458	592.69
461.678	567.69
461.898	602.69
462.118	615.69
462.338	611.69
462.558	617.69
462.777	626.69
462.997	628.69
463.217	642.69
463.437	662.69
463.657	650.69
463.876	658.69
464.096	641.69
464.316	624.69
464.536	621.69
464.755	633.69
464.975	633.69
465.195	673.69
465.414	739.69
465.634	678.69
465.854	639.69
466.073	604.69
466.293	573.69
466.512	585.69
466.732	573.69
466.951	553.69
467.171	570.69
467.391	574.69
467.61	562.69
467.829	564.69
468.049	575.69
468.268	557.69
468.488	544.69
468.707	553.69
468.927	535.69
469.146	534.69
469.365	550.69
469.585	554.69
469.804	560.69
470.023	571.69
470.243	582.69
470.462	584.69
470.681	591.69
470.901	586.69
471.12	561.69
471.339	556.69
471.558	574.69
471.777	579.69
471.997	571.69
472.216	559.69
472.435	582.69
472.654	557.69
472.873	582.69
473.092	547.69
473.311	569.69
473.53	558.69
473.749	575.69
473.968	614.69
474.187	737.69
474.406	747.69
474.625	623.69
474.844	588.69
475.063	582.69
475.282	574.69
475.501	593.69
475.72	570.69
475.939	579.69
476.158	592.69
476.377	589.69
476.596	595.69
476.814	597.69
477.033	594.69
477.252	602.69
477.471	608.69
477.69	627.69
477.908	618.69
478.127	634.69
478.346	614.69
478.564	660.69
478.783	626.69
479.002	656.69
479.22	682.69
479.439	672.69
479.658	683.69
479.876	688.69
480.095	677.69
480.313	719.69
480.532	704.69
480.751	688.69
480.969	690.69
481.188	707.69
481.406	727.69
481.624	677.69
481.843	661.69
482.061	664.69
482.28	651.69
482.498	659.69
482.717	632.69
482.935	657.69
483.153	676.69
483.372	652.69
483.59	656.69
483.808	666.69
484.027	671.69
484.245	664.69
484.463	680.69
484.681	692.69
484.9	694.69
485.118	689.69
485.336	682.69
485.554	678.69
485.772	675.69
485.99	692.69
486.209	689.69
486.427	694.69
486.645	692.69
486.863	727.69
487.081	717.69
487.299	719.69
487.517	721.69
487.735	730.69
487.953	711.69
488.171	709.69
488.389	727.69
488.607	717.69
488.825	715.69
489.043	725.69
489.261	720.69
489.479	727.69
489.696	754.69
489.914	727.69
490.132	749.69
490.35	755.69
490.568	740.69
490.786	759.69
491.003	764.69
491.221	768.69
491.439	784.69
491.657	785.69
491.874	794.69
492.092	809.69
492.31	777.69
492.527	828.69
492.745	803.69
492.963	811.69
493.18	832.69
493.398	811.69
493.615	841.69
493.833	826.69
494.05	824.69
494.268	826.69
494.485	840.69
494.703	846.69
494.92	824.69
495.138	824.69
495.355	855.69
495.573	855.69
495.79	864.69
496.008	862.69
496.225	842.69
496.442	860.69
496.66	864.69
496.877	867.69
497.094	862.69
497.312	850.69
497.529	876.69
497.746	872.69
497.963	945.69
498.181	959.69
498.398	958.69
498.615	978.69
498.832	983.69
499.049	993.69
499.267	1011.69
499.484	1048.69
499.701	1100.69
499.918	1129.69
500.135	1203.69
500.352	1211.69
500.569	1209.69
500.786	1251.69
501.003	1219.69
501.22	1202.69
501.437	1140.69
501.654	1122.69
501.871	1122.69
502.088	1077.69
502.305	1018.69
502.522	990.69
502.739	956.69
502.956	954.69
503.172	938.69
503.389	936.69
503.606	910.69
503.823	907.69
504.04	894.69
504.256	892.69
504.473	871.69
504.69	860.69
504.907	870.69
505.123	858.69
505.34	865.69
505.557	861.69
505.773	828.69
505.99	816.69
506.207	818.69
506.423	810.69
506.64	774.69
506.856	807.69
507.073	790.69
507.289	809.69
507.506	777.69
507.722	804.69
507.939	827.69
508.155	808.69
508.372	785.69
508.588	759.69
508.805	752.69
509.021	769.69
509.238	802.69
509.454	796.69
509.67	799.69
509.887	772.69
510.103	750.69
510.319	795.69
510.536	906.69
510.752	1385.69
510.968	1168.69
511.184	786.69
511.401	772.69
511.617	745.69
511.833	738.69
512.049	709.69
512.265	718.69
512.481	732.69
512.698	750.69
512.914	739.69
513.13	712.69
513.346	738.69
513.562	739.69
513.778	730.69
513.994	741.69
514.21	751.69
514.426	807.69
514.642	847.69
514.858	842.69
515.074	887.69
515.29	1010.69
515.506	1477.69
515.721	1225.69
515.937	879.69
516.153	809.69
516.369	795.69
516.585	792.69
516.801	787.69
517.016	792.69
517.232	781.69
517.448	772.69
517.664	764.69
517.879	771.69
518.095	793.69
518.311	779.69
518.527	787.69
518.742	739.69
518.958	755.69
519.173	749.69
519.389	735.69
519.605	755.69
519.82	737.69
520.036	754.69
520.251	820.69
520.467	823.69
520.682	808.69
520.898	805.69
521.113	838.69
521.329	867.69
521.544	944.69
521.76	1161.69
521.975	1851.69
522.19	1850.69
522.406	1079.69
522.621	829.69
522.836	780.69
523.052	720.69
523.267	696.69
523.482	699.69
523.698	671.69
523.913	679.69
524.128	653.69
524.343	672.69
524.559	647.69
524.774	645.69
524.989	611.69
525.204	651.69
525.419	628.69
525.634	642.69
525.849	648.69
526.064	644.69
526.28	623.69
526.495	633.69
526.71	618.69
526.925	607.69
527.14	615.69
527.355	609.69
527.57	596.69
527.785	614.69
527.999	601.69
528.214	593.69
528.429	627.69
528.644	615.69
528.859	630.69
529.074	618.69
529.289	626.69
529.503	708.69
529.718	700.69
529.933	639.69
530.148	620.69
530.363	619.69
530.577	620.69
530.792	623.69
531.007	602.69
531.221	607.69
531.436	597.69
531.651	575.69
531.865	574.69
532.08	587.69
532.295	586.69
532.509	591.69
532.724	588.69
532.938	607.69
533.153	554.69
533.367	584.69
533.582	583.69
533.796	589.69
534.011	561.69
534.225	578.69
534.44	580.69
534.654	576.69
534.868	585.69
535.083	577.69
535.297	573.69
535.511	596.69
535.726	569.69
535.94	580.69
536.154	574.69
536.369	573.69
536.583	569.69
536.797	571.69
537.011	551.69
537.225	551.69
537.44	546.69
537.654	560.69
537.868	574.69
538.082	568.69
538.296	560.69
538.51	543.69
538.724	564.69
538.938	581.69
539.153	574.69
539.367	569.69
539.581	572.69
539.795	536.69
540.009	552.69
540.222	553.69
540.436	568.69
540.65	562.69
540.864	555.69
541.078	558.69
541.292	561.69
541.506	556.69
541.72	549.69
541.934	543.69
542.147	536.69
542.361	541.69
542.575	555.69
542.789	542.69
543.002	530.69
543.216	555.69
543.43	562.69
543.644	536.69
543.857	552.69
544.071	559.69
544.285	541.69
544.498	546.69
544.712	546.69
544.925	542.69
545.139	545.69
545.352	510.69
545.566	538.69
545.779	536.69
545.993	530.69
546.206	549.69
546.42	526.69
546.633	546.69
546.847	506.69
547.06	522.69
547.274	522.69
547.487	525.69
547.7	532.69
547.914	527.69
548.127	513.69
548.34	531.69
548.554	547.69
548.767	536.69
548.98	529.69
549.193	538.69
549.407	521.69
549.62	540.69
549.833	535.69
550.046	536.69
550.259	515.69
550.473	500.69
550.686	520.69
550.899	520.69
551.112	517.69
551.325	510.69
551.538	520.69
551.751	499.69
551.964	524.69
552.177	507.69
552.39	504.69
552.603	521.69
552.816	516.69
553.029	534.69
553.242	517.69
553.455	527.69
553.667	544.69
553.88	548.69
554.093	541.69
554.306	522.69
554.519	534.69
554.732	521.69
554.944	524.69
555.157	494.69
555.37	500.69
555.583	499.69
555.795	478.69
556.008	481.69
556.221	480.69
556.433	488.69
556.646	494.69
556.859	477.69
557.071	480.69
557.284	489.69
557.496	473.69
557.709	468.69
557.921	464.69
558.134	466.69
558.346	481.69
558.559	488.69
558.771	449.69
558.984	488.69
559.196	468.69
559.409	470.69
559.621	466.69
559.833	478.69
560.046	474.69
560.258	468.69
560.47	448.69
560.683	477.69
560.895	454.69
561.107	455.69
561.32	461.69
561.532	470.69
561.744	471.69
561.956	454.69
562.168	447.69
562.381	471.69
562.593	470.69
562.805	455.69
563.017	479.69
563.229	453.69
563.441	482.69
563.653	470.69
563.865	477.69
564.077	482.69
564.289	491.69
564.501	475.69
564.713	475.69
564.925	469.69
565.137	517.69
565.349	515.69
565.561	498.69
565.773	531.69
565.985	508.69
566.197	561.69
566.408	536.69
566.62	553.69
566.832	567.69
567.044	586.69
567.255	592.69
567.467	598.69
567.679	609.69
567.891	600.69
568.102	596.69
568.314	582.69
568.526	565.69
568.737	561.69
568.949	535.69
569.161	505.69
569.372	521.69
569.584	511.69
569.795	490.69
570.007	484.69
570.218	510.69
570.43	511.69
570.641	473.69
570.853	474.69
571.064	446.69
571.276	457.69
571.487	439.69
571.698	446.69
571.91	449.69
572.121	442.69
572.333	427.69
572.544	427.69
572.755	442.69
572.966	431.69
573.178	418.69
573.389	426.69
573.6	422.69
573.811	401.69
574.023	413.69
574.234	416.69
574.445	402.69
574.656	414.69
574.867	401.69
575.078	418.69
575.289	407.69
575.501	410.69
575.712	380.69
575.923	370.69
576.134	371.69
576.345	400.69
576.556	393.69
576.767	380.69
576.978	396.69
577.188	393.69
577.399	394.69
577.61	395.69
577.821	389.69
578.032	368.69
578.243	434.69
578.454	648.69
578.665	520.69
578.875	396.69
579.086	387.69
579.297	375.69
579.508	385.69
579.718	375.69
579.929	363.69
580.14	382.69
580.35	382.69
580.561	377.69
580.772	365.69
580.982	378.69
581.193	374.69
581.403	354.69
581.614	347.69
581.825	372.69
582.035	363.69
582.246	372.69
582.456	354.69
582.667	356.69
582.877	359.69
583.087	361.69
583.298	344.69
583.508	346.69
583.719	350.69
583.929	361.69
584.139	353.69
584.35	361.69
584.56	370.69
584.77	371.69
584.981	360.69
585.191	352.69
585.401	362.69
585.611	344.69
585.821	363.69
586.032	354.69
586.242	327.69
586.452	338.69
586.662	355.69
586.872	367.69
587.082	357.69
587.292	356.69
587.502	341.69
587.713	334.69
587.923	342.69
588.133	344.69
588.343	348.69
588.553	361.69
588.762	346.69
588.972	344.69
589.182	345.69
589.392	354.69
589.602	329.69
589.812	335.69
590.022	350.69
590.232	353.69
590.441	350.69
590.651	342.69
590.861	357.69
591.071	337.69
591.281	344.69
591.49	355.69
591.7	352.69
591.91	347.69
592.119	358.69
592.329	354.69
592.539	364.69
592.748	352.69
592.958	360.69
593.167	363.69
593.377	367.69
593.587	389.69
593.796	374.69
594.006	402.69
594.215	384.69
594.424	359.69
594.634	370.69
594.843	354.69
595.053	342.69
595.262	355.69
595.472	372.69
595.681	329.69
595.89	339.69
596.1	343.69
596.309	356.69
596.518	346.69
596.727	321.69
596.937	330.69
597.146	329.69
597.355	336.69
597.564	330.69
597.774	320.69
597.983	325.69
598.192	324.69
598.401	309.69
598.61	318.69
598.819	329.69
599.028	310.69
599.237	306.69
599.446	298.69
599.655	321.69
599.864	327.69
600.073	306.69
600.282	298.69
600.491	302.69
600.7	311.69
600.909	314.69
601.118	314.69
601.327	294.69
601.536	306.69
601.745	321.69
601.953	309.69
602.162	279.69
602.371	286.69
602.58	286.69
602.789	295.69
602.997	291.69
603.206	295.69
603.415	272.69
603.623	288.69
603.832	283.69
604.041	291.69
604.249	293.69
604.458	298.69
604.666	298.69
604.875	282.69
605.084	285.69
605.292	302.69
605.501	285.69
605.709	268.69
605.918	281.69
606.126	272.69
606.334	292.69
606.543	286.69
606.751	280.69
606.96	279.69
607.168	269.69
607.376	281.69
607.585	277.69
607.793	299.69
608.001	273.69
608.21	267.69
608.418	267.69
608.626	283.69
608.834	270.69
609.043	286.69
609.251	278.69
609.459	281.69
609.667	275.69
609.875	267.69
610.083	287.69
610.291	290.69
610.499	264.69
610.707	264.69
610.916	261.69
611.124	264.69
611.332	283.69
611.54	296.69
611.748	293.69
611.955	295.69
612.163	254.69
612.371	286.69
612.579	275.69
612.787	288.69
612.995	271.69
613.203	285.69
613.411	258.69
613.618	271.69
613.826	283.69
614.034	278.69
614.242	275.69
614.449	278.69
614.657	267.69
614.865	263.69
615.072	260.69
615.28	273.69
615.488	259.69
615.695	256.69
615.903	263.69
616.111	271.69
616.318	266.69
616.526	286.69
616.733	265.69
616.941	258.69
617.148	275.69
617.356	279.69
617.563	251.69
617.771	274.69
617.978	265.69
618.185	270.69
618.393	295.69
618.6	281.69
618.807	267.69
619.015	251.69
619.222	255.69
619.429	259.69
619.637	273.69
619.844	279.69
620.051	252.69
620.258	278.69
620.466	281.69
620.673	256.69
620.88	236.69
621.087	261.69
621.294	248.69
621.501	259.69
621.708	247.69
621.915	256.69
622.122	254.69
622.329	248.69
622.536	254.69
622.743	250.69
622.95	243.69
623.157	229.69
623.364	261.69
623.571	256.69
623.778	266.69
623.985	262.69
624.192	243.69
624.399	258.69
624.606	248.69
624.812	235.69
625.019	240.69
625.226	248.69
625.433	254.69
625.639	250.69
625.846	250.69
626.053	235.69
626.259	232.69
626.466	240.69
626.673	227.69
626.879	246.69
627.086	234.69
627.293	238.69
627.499	231.69
627.706	228.69
627.912	227.69
628.119	227.69
628.325	225.69
628.532	247.69
628.738	225.69
628.945	231.69
629.151	216.69
629.357	212.69
629.564	220.69
629.77	242.69
629.976	215.69
630.183	213.69
630.389	228.69
630.595	219.69
630.802	240.69
631.008	215.69
631.214	217.69
631.42	206.69
631.627	238.69
631.833	228.69
632.039	232.69
632.245	218.69
632.451	208.69
632.657	227.69
632.863	207.69
633.069	206.69
633.275	203.69
633.481	220.69
633.688	194.69
633.893	222.69
634.099	204.69
634.305	215.69
634.511	220.69
634.717	199.69
634.923	214.69
635.129	198.69
635.335	211.69
635.541	206.69
635.747	203.69
635.952	196.69
636.158	198.69
636.364	199.69
636.57	213.69
636.775	207.69
636.981	192.69
637.187	190.69
637.392	182.69
637.598	198.69
637.804	215.69
638.009	197.69
638.215	192.69
638.421	196.69
638.626	187.69
638.832	197.69
639.037	200.69
639.243	202.69
639.448	183.69
639.654	194.69
639.859	200.69
640.065	191.69
640.27	196.69
640.475	193.69
640.681	191.69
640.886	187.69
641.091	187.69
641.297	207.69
641.502	188.69
641.707	192.69
641.913	186.69
642.118	193.69
642.323	184.69
642.528	182.69
642.733	189.69
642.939	187.69
643.144	183.69
643.349	180.69
643.554	209.69
643.759	203.69
643.964	188.69
644.169	201.69
644.374	183.69
644.579	178.69
644.784	194.69
644.989	186.69
645.194	177.69
645.399	172.69
645.604	183.69
645.809	202.69
646.014	188.69
646.219	187.69
646.423	178.69
646.628	187.69
646.833	204.69
647.038	192.69
647.243	191.69
647.447	172.69
647.652	174.69
647.857	176.69
648.062	171.69
648.266	178.69
648.471	185.69
648.676	194.69
648.88	185.69
649.085	187.69
649.289	183.69
649.494	192.69
649.698	224.69
649.903	194.69
650.107	175.69
650.312	181.69
650.516	178.69
650.721	169.69
650.925	178.69
651.13	169.69
651.334	163.69
651.539	166.69
651.743	154.69
651.947	158.69
652.152	156.69
652.356	164.69
652.56	162.69
652.764	159.69
652.969	158.69
653.173	143.69
653.377	146.69
653.581	152.69
653.785	145.69
653.99	140.69
654.194	154.69
654.398	145.69
654.602	138.69
654.806	129.69
655.01	156.69
655.214	147.69
655.418	148.69
655.622	156.69
655.826	150.69
656.03	153.69
656.234	145.69
656.438	141.69
656.642	141.69
656.846	145.69
657.049	144.69
657.253	155.69
657.457	135.69
657.661	135.69
657.865	109.69
658.068	123.69
658.272	104.69
658.476	120.69
658.68	111.69
658.883	94.69
659.087	104.69
659.291	111.69
659.494	98.69
659.698	115.69
659.901	107.69
660.105	84.69
660.309	101.69
660.512	94.69
660.716	101.69
660.919	86.69
661.123	113.69
661.326	88.69
661.53	98.69
661.733	88.69
661.936	90.69
662.14	74.69
662.343	86.69
662.546	95.69
662.75	90.69
662.953	87.69
663.156	91.69
663.36	94.69
663.563	83.69
663.766	69.69
663.969	83.69
664.173	64.69
664.376	86.69
664.579	83.69
664.782	81.69
664.985	91.69
665.188	94.69
665.391	78.69
665.594	84.69
665.797	73.69
666	79.69
666.203	82.69
666.406	84.69
666.609	71.69
666.812	73.69
667.015	83.69
667.218	82.69
667.421	91.69
667.624	73.69
667.827	84.69
668.03	91.69
668.232	84.69
668.435	84.69
668.638	85.69
668.841	87.69
669.043	76.69
669.246	83.69
669.449	78.69
669.651	84.69
669.854	81.69
670.057	70.69
670.259	77.69
670.462	80.69
670.665	95.69
670.867	69.69
671.07	87.69
671.272	88.69
671.475	94.69
671.677	87.69
671.88	77.69
672.082	83.69
672.284	85.69
672.487	86.69
672.689	82.69
672.892	79.69
