Data from 1988.PennyLincolnUp.Lamp.En5.5.200Scan.071819.P2_HRD10591_17-21-26-972.txt Node
Date: Thu Jul 18 17:21:26 EDT 2019
User: cochatt
Spectrometer: HR+D1059
Trigger mode: 1
Integration Time (sec): 1.000000E-1
Scans to average: 1
Electric dark correction enabled: true
Nonlinearity correction enabled: false
Boxcar width: 0
XAxis mode: Wavelengths
Number of Pixels in Spectrum: 2048
>>>>>Begin Spectral Data<<<<<
223.165	-6.31
223.4	-6.31
223.635	-6.31
223.869	-8.31
224.104	-23.31
224.338	-15.31
224.573	-23.31
224.808	-15.31
225.042	-3.31
225.277	-10.31
225.511	-2.31
225.746	9.69
225.98	4.69
226.215	8.69
226.449	19.69
226.683	16.69
226.918	20.69
227.152	27.69
227.387	15.69
227.621	22.69
227.856	34.69
228.09	39.69
228.324	46.69
228.559	68.69
228.793	67.69
229.027	103.69
229.262	121.69
229.496	104.69
229.73	152.69
229.964	178.69
230.199	146.69
230.433	119.69
230.667	118.69
230.901	127.69
231.136	126.69
231.37	116.69
231.604	118.69
231.838	108.69
232.072	114.69
232.306	120.69
232.541	118.69
232.775	112.69
233.009	122.69
233.243	123.69
233.477	112.69
233.711	100.69
233.945	120.69
234.179	118.69
234.413	137.69
234.647	135.69
234.881	121.69
235.115	102.69
235.349	125.69
235.583	143.69
235.817	127.69
236.051	131.69
236.285	136.69
236.519	134.69
236.753	135.69
236.987	168.69
237.221	202.69
237.455	254.69
237.689	196.69
237.922	160.69
238.156	143.69
238.39	141.69
238.624	133.69
238.858	121.69
239.091	130.69
239.325	137.69
239.559	138.69
239.793	138.69
240.027	141.69
240.26	159.69
240.494	166.69
240.728	160.69
240.961	153.69
241.195	160.69
241.429	150.69
241.662	144.69
241.896	140.69
242.13	140.69
242.363	151.69
242.597	155.69
242.83	151.69
243.064	153.69
243.298	139.69
243.531	139.69
243.765	146.69
243.998	155.69
244.232	159.69
244.465	151.69
244.699	155.69
244.932	150.69
245.166	150.69
245.399	154.69
245.633	163.69
245.866	163.69
246.099	153.69
246.333	150.69
246.566	159.69
246.8	145.69
247.033	166.69
247.266	156.69
247.5	165.69
247.733	176.69
247.966	165.69
248.2	181.69
248.433	181.69
248.666	186.69
248.899	204.69
249.133	217.69
249.366	218.69
249.599	219.69
249.832	199.69
250.066	200.69
250.299	196.69
250.532	206.69
250.765	215.69
250.998	241.69
251.231	256.69
251.465	231.69
251.698	221.69
251.931	207.69
252.164	203.69
252.397	204.69
252.63	222.69
252.863	211.69
253.096	224.69
253.329	243.69
253.562	256.69
253.795	243.69
254.028	228.69
254.261	229.69
254.494	244.69
254.727	270.69
254.96	285.69
255.193	300.69
255.426	267.69
255.659	251.69
255.892	246.69
256.124	226.69
256.357	214.69
256.59	222.69
256.823	223.69
257.056	225.69
257.289	236.69
257.521	221.69
257.754	224.69
257.987	215.69
258.22	240.69
258.452	233.69
258.685	232.69
258.918	218.69
259.151	217.69
259.383	254.69
259.616	226.69
259.849	237.69
260.081	256.69
260.314	261.69
260.547	268.69
260.779	254.69
261.012	260.69
261.244	265.69
261.477	251.69
261.71	214.69
261.942	224.69
262.175	251.69
262.407	249.69
262.64	231.69
262.872	227.69
263.105	226.69
263.337	244.69
263.57	233.69
263.802	216.69
264.035	242.69
264.267	210.69
264.499	223.69
264.732	221.69
264.964	222.69
265.197	225.69
265.429	224.69
265.661	215.69
265.894	241.69
266.126	230.69
266.358	228.69
266.591	224.69
266.823	204.69
267.055	255.69
267.287	262.69
267.52	243.69
267.752	240.69
267.984	254.69
268.216	220.69
268.448	238.69
268.681	272.69
268.913	275.69
269.145	265.69
269.377	289.69
269.609	301.69
269.841	284.69
270.073	300.69
270.306	321.69
270.538	328.69
270.77	343.69
271.002	317.69
271.234	342.69
271.466	322.69
271.698	347.69
271.93	350.69
272.162	336.69
272.394	357.69
272.626	333.69
272.858	313.69
273.09	291.69
273.322	305.69
273.553	283.69
273.785	289.69
274.017	276.69
274.249	278.69
274.481	280.69
274.713	274.69
274.945	294.69
275.176	292.69
275.408	295.69
275.64	288.69
275.872	289.69
276.104	283.69
276.335	284.69
276.567	292.69
276.799	298.69
277.031	324.69
277.262	338.69
277.494	337.69
277.726	328.69
277.957	308.69
278.189	310.69
278.421	290.69
278.652	296.69
278.884	293.69
279.115	279.69
279.347	294.69
279.579	288.69
279.81	286.69
280.042	285.69
280.273	278.69
280.505	279.69
280.736	287.69
280.968	281.69
281.199	293.69
281.431	295.69
281.662	300.69
281.894	275.69
282.125	300.69
282.356	300.69
282.588	334.69
282.819	341.69
283.051	309.69
283.282	299.69
283.513	298.69
283.745	306.69
283.976	310.69
284.207	321.69
284.439	300.69
284.67	292.69
284.901	314.69
285.132	304.69
285.364	281.69
285.595	297.69
285.826	276.69
286.057	298.69
286.288	285.69
286.52	305.69
286.751	326.69
286.982	291.69
287.213	302.69
287.444	320.69
287.675	322.69
287.906	328.69
288.138	329.69
288.369	340.69
288.6	334.69
288.831	317.69
289.062	302.69
289.293	312.69
289.524	312.69
289.755	303.69
289.986	305.69
290.217	330.69
290.448	302.69
290.679	304.69
290.91	315.69
291.141	316.69
291.371	319.69
291.602	316.69
291.833	314.69
292.064	315.69
292.295	312.69
292.526	327.69
292.757	305.69
292.987	320.69
293.218	308.69
293.449	300.69
293.68	322.69
293.91	315.69
294.141	322.69
294.372	332.69
294.603	323.69
294.833	310.69
295.064	314.69
295.295	313.69
295.525	320.69
295.756	340.69
295.987	321.69
296.217	355.69
296.448	377.69
296.679	334.69
296.909	331.69
297.14	334.69
297.37	318.69
297.601	323.69
297.831	334.69
298.062	336.69
298.292	333.69
298.523	328.69
298.753	331.69
298.984	337.69
299.214	339.69
299.445	336.69
299.675	340.69
299.905	353.69
300.136	335.69
300.366	328.69
300.597	347.69
300.827	339.69
301.057	362.69
301.288	356.69
301.518	360.69
301.748	352.69
301.979	360.69
302.209	368.69
302.439	368.69
302.669	360.69
302.9	344.69
303.13	357.69
303.36	351.69
303.59	365.69
303.82	377.69
304.051	386.69
304.281	350.69
304.511	359.69
304.741	362.69
304.971	376.69
305.201	360.69
305.431	368.69
305.661	349.69
305.891	356.69
306.121	376.69
306.352	386.69
306.582	375.69
306.812	370.69
307.042	374.69
307.272	377.69
307.502	366.69
307.731	370.69
307.961	357.69
308.191	361.69
308.421	353.69
308.651	389.69
308.881	374.69
309.111	391.69
309.341	394.69
309.571	373.69
309.8	389.69
310.03	420.69
310.26	414.69
310.49	407.69
310.72	419.69
310.949	451.69
311.179	438.69
311.409	411.69
311.639	421.69
311.868	409.69
312.098	420.69
312.328	420.69
312.557	441.69
312.787	466.69
313.017	451.69
313.246	425.69
313.476	415.69
313.706	416.69
313.935	432.69
314.165	436.69
314.394	445.69
314.624	444.69
314.853	412.69
315.083	422.69
315.312	417.69
315.542	432.69
315.771	414.69
316.001	407.69
316.23	404.69
316.46	409.69
316.689	425.69
316.919	434.69
317.148	430.69
317.377	441.69
317.607	443.69
317.836	428.69
318.065	411.69
318.295	447.69
318.524	419.69
318.753	424.69
318.983	423.69
319.212	416.69
319.441	425.69
319.67	444.69
319.9	435.69
320.129	444.69
320.358	432.69
320.587	442.69
320.816	435.69
321.046	440.69
321.275	436.69
321.504	443.69
321.733	475.69
321.962	458.69
322.191	468.69
322.42	489.69
322.649	519.69
322.878	534.69
323.108	524.69
323.337	539.69
323.566	562.69
323.795	611.69
324.024	670.69
324.253	816.69
324.482	1180.69
324.71	1834.69
324.939	2778.69
325.168	2398.69
325.397	1185.69
325.626	796.69
325.855	632.69
326.084	599.69
326.313	598.69
326.542	630.69
326.77	665.69
326.999	790.69
327.228	1074.69
327.457	1626.69
327.686	2062.69
327.914	1352.69
328.143	841.69
328.372	719.69
328.6	677.69
328.829	656.69
329.058	664.69
329.287	652.69
329.515	613.69
329.744	588.69
329.972	584.69
330.201	598.69
330.43	615.69
330.658	660.69
330.887	698.69
331.115	673.69
331.344	587.69
331.572	562.69
331.801	562.69
332.03	579.69
332.258	554.69
332.486	519.69
332.715	512.69
332.943	495.69
333.172	504.69
333.4	520.69
333.629	527.69
333.857	540.69
334.085	543.69
334.314	566.69
334.542	554.69
334.771	553.69
334.999	562.69
335.227	548.69
335.455	506.69
335.684	530.69
335.912	485.69
336.14	516.69
336.369	495.69
336.597	518.69
336.825	514.69
337.053	490.69
337.281	505.69
337.51	502.69
337.738	498.69
337.966	498.69
338.194	513.69
338.422	527.69
338.65	471.69
338.878	487.69
339.106	484.69
339.334	519.69
339.562	491.69
339.79	472.69
340.018	500.69
340.246	482.69
340.474	510.69
340.702	494.69
340.93	492.69
341.158	499.69
341.386	475.69
341.614	496.69
341.842	485.69
342.07	478.69
342.298	447.69
342.526	485.69
342.754	470.69
342.981	475.69
343.209	465.69
343.437	479.69
343.665	494.69
343.893	473.69
344.12	510.69
344.348	504.69
344.576	507.69
344.804	517.69
345.031	522.69
345.259	538.69
345.487	515.69
345.714	502.69
345.942	463.69
346.17	471.69
346.397	467.69
346.625	474.69
346.853	469.69
347.08	481.69
347.308	494.69
347.535	510.69
347.763	496.69
347.99	495.69
348.218	488.69
348.445	501.69
348.673	499.69
348.9	465.69
349.128	467.69
349.355	484.69
349.583	466.69
349.81	462.69
350.037	454.69
350.265	462.69
350.492	461.69
350.72	446.69
350.947	465.69
351.174	477.69
351.402	486.69
351.629	482.69
351.856	483.69
352.083	477.69
352.311	504.69
352.538	502.69
352.765	502.69
352.992	480.69
353.22	494.69
353.447	498.69
353.674	485.69
353.901	446.69
354.128	441.69
354.355	453.69
354.583	447.69
354.81	438.69
355.037	428.69
355.264	418.69
355.491	444.69
355.718	427.69
355.945	458.69
356.172	439.69
356.399	440.69
356.626	448.69
356.853	439.69
357.08	444.69
357.307	440.69
357.534	441.69
357.761	453.69
357.988	428.69
358.215	447.69
358.441	448.69
358.668	455.69
358.895	446.69
359.122	441.69
359.349	466.69
359.576	495.69
359.802	494.69
360.029	529.69
360.256	549.69
360.483	511.69
360.709	498.69
360.936	476.69
361.163	474.69
361.39	490.69
361.616	473.69
361.843	468.69
362.07	471.69
362.296	483.69
362.523	462.69
362.749	482.69
362.976	491.69
363.203	449.69
363.429	458.69
363.656	458.69
363.882	472.69
364.109	479.69
364.335	451.69
364.562	457.69
364.788	456.69
365.015	459.69
365.241	458.69
365.468	446.69
365.694	469.69
365.92	458.69
366.147	451.69
366.373	464.69
366.599	450.69
366.826	448.69
367.052	446.69
367.278	474.69
367.505	458.69
367.731	459.69
367.957	460.69
368.184	477.69
368.41	460.69
368.636	483.69
368.862	498.69
369.089	467.69
369.315	475.69
369.541	452.69
369.767	464.69
369.993	456.69
370.219	466.69
370.445	469.69
370.672	451.69
370.898	445.69
371.124	469.69
371.35	456.69
371.576	464.69
371.802	464.69
372.028	443.69
372.254	459.69
372.48	451.69
372.706	471.69
372.932	452.69
373.158	455.69
373.384	440.69
373.61	460.69
373.835	486.69
374.061	467.69
374.287	454.69
374.513	457.69
374.739	487.69
374.965	487.69
375.191	449.69
375.416	456.69
375.642	456.69
375.868	456.69
376.094	469.69
376.319	464.69
376.545	443.69
376.771	449.69
376.997	454.69
377.222	445.69
377.448	446.69
377.674	447.69
377.899	441.69
378.125	459.69
378.35	449.69
378.576	449.69
378.802	451.69
379.027	472.69
379.253	452.69
379.478	457.69
379.704	478.69
379.929	460.69
380.155	464.69
380.38	463.69
380.606	463.69
380.831	444.69
381.057	470.69
381.282	482.69
381.507	469.69
381.733	456.69
381.958	481.69
382.184	463.69
382.409	470.69
382.634	472.69
382.86	475.69
383.085	472.69
383.31	481.69
383.535	486.69
383.761	478.69
383.986	494.69
384.211	482.69
384.436	473.69
384.662	510.69
384.887	503.69
385.112	481.69
385.337	491.69
385.562	523.69
385.787	509.69
386.013	516.69
386.238	510.69
386.463	521.69
386.688	510.69
386.913	527.69
387.138	514.69
387.363	514.69
387.588	513.69
387.813	513.69
388.038	507.69
388.263	522.69
388.488	524.69
388.713	515.69
388.938	516.69
389.163	512.69
389.387	523.69
389.612	503.69
389.837	503.69
390.062	495.69
390.287	484.69
390.512	496.69
390.736	500.69
390.961	491.69
391.186	500.69
391.411	524.69
391.636	508.69
391.86	532.69
392.085	536.69
392.31	549.69
392.534	523.69
392.759	535.69
392.984	525.69
393.208	530.69
393.433	535.69
393.658	524.69
393.882	494.69
394.107	505.69
394.331	540.69
394.556	513.69
394.78	510.69
395.005	518.69
395.229	520.69
395.454	531.69
395.678	531.69
395.903	545.69
396.127	574.69
396.352	564.69
396.576	543.69
396.801	537.69
397.025	530.69
397.249	538.69
397.474	535.69
397.698	550.69
397.922	566.69
398.147	573.69
398.371	593.69
398.595	599.69
398.82	583.69
399.044	602.69
399.268	610.69
399.492	635.69
399.717	707.69
399.941	727.69
400.165	745.69
400.389	760.69
400.613	663.69
400.837	632.69
401.062	633.69
401.286	615.69
401.51	580.69
401.734	564.69
401.958	594.69
402.182	602.69
402.406	616.69
402.63	608.69
402.854	605.69
403.078	606.69
403.302	620.69
403.526	634.69
403.75	634.69
403.974	634.69
404.198	616.69
404.422	593.69
404.645	642.69
404.869	624.69
405.093	663.69
405.317	694.69
405.541	711.69
405.765	649.69
405.988	634.69
406.212	660.69
406.436	682.69
406.66	699.69
406.883	687.69
407.107	701.69
407.331	773.69
407.555	866.69
407.778	855.69
408.002	756.69
408.226	709.69
408.449	679.69
408.673	674.69
408.896	686.69
409.12	762.69
409.344	714.69
409.567	688.69
409.791	645.69
410.014	647.69
410.238	624.69
410.461	644.69
410.685	630.69
410.908	628.69
411.132	683.69
411.355	741.69
411.578	707.69
411.802	624.69
412.025	600.69
412.249	640.69
412.472	648.69
412.695	663.69
412.919	659.69
413.142	640.69
413.365	598.69
413.589	602.69
413.812	615.69
414.035	590.69
414.258	576.69
414.482	579.69
414.705	591.69
414.928	572.69
415.151	537.69
415.374	576.69
415.597	597.69
415.821	598.69
416.044	595.69
416.267	615.69
416.49	573.69
416.713	587.69
416.936	597.69
417.159	585.69
417.382	584.69
417.605	588.69
417.828	607.69
418.051	618.69
418.274	614.69
418.497	597.69
418.72	587.69
418.943	587.69
419.166	622.69
419.389	630.69
419.611	660.69
419.834	602.69
420.057	623.69
420.28	610.69
420.503	596.69
420.726	596.69
420.948	627.69
421.171	674.69
421.394	726.69
421.617	638.69
421.839	616.69
422.062	613.69
422.285	640.69
422.507	702.69
422.73	804.69
422.953	800.69
423.175	690.69
423.398	640.69
423.621	641.69
423.843	660.69
424.066	659.69
424.288	664.69
424.511	694.69
424.733	766.69
424.956	858.69
425.178	789.69
425.401	820.69
425.623	822.69
425.846	741.69
426.068	681.69
426.291	652.69
426.513	643.69
426.735	668.69
426.958	706.69
427.18	835.69
427.402	958.69
427.625	1103.69
427.847	962.69
428.069	836.69
428.292	731.69
428.514	651.69
428.736	644.69
428.958	637.69
429.181	605.69
429.403	611.69
429.625	611.69
429.847	664.69
430.069	740.69
430.292	734.69
430.514	630.69
430.736	590.69
430.958	612.69
431.18	597.69
431.402	566.69
431.624	541.69
431.846	586.69
432.068	598.69
432.29	589.69
432.512	578.69
432.734	596.69
432.956	574.69
433.178	596.69
433.4	591.69
433.622	574.69
433.844	565.69
434.066	580.69
434.287	601.69
434.509	588.69
434.731	592.69
434.953	580.69
435.175	627.69
435.397	642.69
435.618	678.69
435.84	705.69
436.062	826.69
436.284	930.69
436.505	786.69
436.727	699.69
436.949	630.69
437.17	613.69
437.392	636.69
437.614	652.69
437.835	663.69
438.057	818.69
438.278	916.69
438.5	919.69
438.721	1011.69
438.943	971.69
439.165	790.69
439.386	696.69
439.608	690.69
439.829	681.69
440.05	721.69
440.272	775.69
440.493	736.69
440.715	636.69
440.936	648.69
441.158	627.69
441.379	643.69
441.6	655.69
441.822	654.69
442.043	711.69
442.264	840.69
442.486	896.69
442.707	743.69
442.928	684.69
443.149	673.69
443.371	720.69
443.592	760.69
443.813	909.69
444.034	965.69
444.255	779.69
444.476	699.69
444.698	660.69
444.919	680.69
445.14	759.69
445.361	715.69
445.582	762.69
445.803	804.69
446.024	908.69
446.245	934.69
446.466	864.69
446.687	723.69
446.908	668.69
447.129	635.69
447.35	637.69
447.571	615.69
447.792	612.69
448.013	624.69
448.234	628.69
448.455	695.69
448.675	857.69
448.896	1010.69
449.117	834.69
449.338	759.69
449.559	898.69
449.779	1064.69
450	842.69
450.221	681.69
450.442	628.69
450.662	574.69
450.883	603.69
451.104	631.69
451.324	606.69
451.545	562.69
451.766	564.69
451.986	564.69
452.207	541.69
452.428	521.69
452.648	545.69
452.869	531.69
453.089	556.69
453.31	570.69
453.53	583.69
453.751	562.69
453.971	570.69
454.192	574.69
454.412	563.69
454.633	547.69
454.853	543.69
455.073	556.69
455.294	584.69
455.514	669.69
455.734	651.69
455.955	534.69
456.175	538.69
456.395	515.69
456.616	500.69
456.836	522.69
457.056	510.69
457.276	505.69
457.497	512.69
457.717	526.69
457.937	529.69
458.157	542.69
458.377	548.69
458.598	568.69
458.818	641.69
459.038	720.69
459.258	738.69
459.478	640.69
459.698	588.69
459.918	573.69
460.138	593.69
460.358	585.69
460.578	588.69
460.798	603.69
461.018	609.69
461.238	604.69
461.458	591.69
461.678	571.69
461.898	580.69
462.118	594.69
462.338	602.69
462.558	616.69
462.777	626.69
462.997	640.69
463.217	653.69
463.437	658.69
463.657	650.69
463.876	612.69
464.096	620.69
464.316	599.69
464.536	642.69
464.755	672.69
464.975	649.69
465.195	710.69
465.414	788.69
465.634	700.69
465.854	635.69
466.073	619.69
466.293	583.69
466.512	596.69
466.732	551.69
466.951	567.69
467.171	566.69
467.391	566.69
467.61	572.69
467.829	577.69
468.049	579.69
468.268	564.69
468.488	581.69
468.707	573.69
468.927	564.69
469.146	544.69
469.365	559.69
469.585	543.69
469.804	568.69
470.023	564.69
470.243	565.69
470.462	574.69
470.681	587.69
470.901	614.69
471.12	570.69
471.339	585.69
471.558	578.69
471.777	578.69
471.997	568.69
472.216	557.69
472.435	587.69
472.654	584.69
472.873	540.69
473.092	554.69
473.311	559.69
473.53	568.69
473.749	597.69
473.968	623.69
474.187	759.69
474.406	771.69
474.625	632.69
474.844	615.69
475.063	585.69
475.282	580.69
475.501	578.69
475.72	584.69
475.939	588.69
476.158	604.69
476.377	589.69
476.596	572.69
476.814	622.69
477.033	599.69
477.252	615.69
477.471	630.69
477.69	614.69
477.908	636.69
478.127	636.69
478.346	617.69
478.564	612.69
478.783	634.69
479.002	628.69
479.22	649.69
479.439	664.69
479.658	705.69
479.876	704.69
480.095	684.69
480.313	721.69
480.532	724.69
480.751	716.69
480.969	705.69
481.188	727.69
481.406	762.69
481.624	703.69
481.843	704.69
482.061	710.69
482.28	685.69
482.498	668.69
482.717	670.69
482.935	687.69
483.153	690.69
483.372	664.69
483.59	686.69
483.808	696.69
484.027	698.69
484.245	640.69
484.463	672.69
484.681	700.69
484.9	684.69
485.118	671.69
485.336	678.69
485.554	696.69
485.772	688.69
485.99	709.69
486.209	706.69
486.427	724.69
486.645	716.69
486.863	717.69
487.081	735.69
487.299	739.69
487.517	723.69
487.735	722.69
487.953	750.69
488.171	734.69
488.389	721.69
488.607	724.69
488.825	734.69
489.043	718.69
489.261	712.69
489.479	735.69
489.696	748.69
489.914	724.69
490.132	723.69
490.35	742.69
490.568	753.69
490.786	806.69
491.003	759.69
491.221	794.69
491.439	819.69
491.657	807.69
491.874	822.69
492.092	823.69
492.31	830.69
492.527	826.69
492.745	842.69
492.963	867.69
493.18	848.69
493.398	842.69
493.615	855.69
493.833	865.69
494.05	852.69
494.268	866.69
494.485	867.69
494.703	852.69
494.92	864.69
495.138	836.69
495.355	831.69
495.573	856.69
495.79	856.69
496.008	882.69
496.225	879.69
496.442	889.69
496.66	878.69
496.877	886.69
497.094	849.69
497.312	876.69
497.529	896.69
497.746	928.69
497.963	908.69
498.181	963.69
498.398	929.69
498.615	993.69
498.832	999.69
499.049	1015.69
499.267	1026.69
499.484	1050.69
499.701	1055.69
499.918	1129.69
500.135	1189.69
500.352	1203.69
500.569	1244.69
500.786	1244.69
501.003	1218.69
501.22	1174.69
501.437	1136.69
501.654	1143.69
501.871	1126.69
502.088	1075.69
502.305	1034.69
502.522	984.69
502.739	1020.69
502.956	951.69
503.172	956.69
503.389	944.69
503.606	922.69
503.823	919.69
504.04	913.69
504.256	902.69
504.473	870.69
504.69	880.69
504.907	903.69
505.123	878.69
505.34	850.69
505.557	849.69
505.773	838.69
505.99	859.69
506.207	846.69
506.423	838.69
506.64	826.69
506.856	824.69
507.073	804.69
507.289	816.69
507.506	808.69
507.722	788.69
507.939	846.69
508.155	810.69
508.372	809.69
508.588	801.69
508.805	805.69
509.021	775.69
509.238	820.69
509.454	811.69
509.67	812.69
509.887	793.69
510.103	806.69
510.319	812.69
510.536	887.69
510.752	1471.69
510.968	1227.69
511.184	816.69
511.401	769.69
511.617	761.69
511.833	722.69
512.049	743.69
512.265	733.69
512.481	723.69
512.698	742.69
512.914	742.69
513.13	751.69
513.346	727.69
513.562	749.69
513.778	775.69
513.994	751.69
514.21	769.69
514.426	816.69
514.642	858.69
514.858	884.69
515.074	933.69
515.29	1070.69
515.506	1552.69
515.721	1284.69
515.937	908.69
516.153	832.69
516.369	801.69
516.585	798.69
516.801	806.69
517.016	792.69
517.232	802.69
517.448	786.69
517.664	776.69
517.879	786.69
518.095	768.69
518.311	811.69
518.527	774.69
518.742	777.69
518.958	753.69
519.173	742.69
519.389	750.69
519.605	745.69
519.82	750.69
520.036	800.69
520.251	785.69
520.467	830.69
520.682	822.69
520.898	841.69
521.113	861.69
521.329	890.69
521.544	1001.69
521.76	1234.69
521.975	1993.69
522.19	2029.69
522.406	1134.69
522.621	881.69
522.836	816.69
523.052	726.69
523.267	719.69
523.482	683.69
523.698	690.69
523.913	702.69
524.128	693.69
524.343	679.69
524.559	677.69
524.774	633.69
524.989	639.69
525.204	664.69
525.419	670.69
525.634	658.69
525.849	631.69
526.064	622.69
526.28	640.69
526.495	623.69
526.71	609.69
526.925	616.69
527.14	639.69
527.355	624.69
527.57	622.69
527.785	600.69
527.999	604.69
528.214	617.69
528.429	605.69
528.644	636.69
528.859	603.69
529.074	594.69
529.289	631.69
529.503	735.69
529.718	702.69
529.933	640.69
530.148	657.69
530.363	636.69
530.577	602.69
530.792	608.69
531.007	614.69
531.221	606.69
531.436	614.69
531.651	594.69
531.865	575.69
532.08	579.69
532.295	594.69
532.509	582.69
532.724	597.69
532.938	573.69
533.153	571.69
533.367	578.69
533.582	604.69
533.796	568.69
534.011	590.69
534.225	574.69
534.44	568.69
534.654	571.69
534.868	579.69
535.083	588.69
535.297	586.69
535.511	575.69
535.726	588.69
535.94	578.69
536.154	588.69
536.369	580.69
536.583	578.69
536.797	546.69
537.011	555.69
537.225	520.69
537.44	576.69
537.654	570.69
537.868	555.69
538.082	565.69
538.296	552.69
538.51	563.69
538.724	560.69
538.938	562.69
539.153	567.69
539.367	561.69
539.581	566.69
539.795	563.69
540.009	534.69
540.222	545.69
540.436	592.69
540.65	536.69
540.864	546.69
541.078	590.69
541.292	579.69
541.506	552.69
541.72	546.69
541.934	562.69
542.147	567.69
542.361	558.69
542.575	534.69
542.789	527.69
543.002	559.69
543.216	571.69
543.43	563.69
543.644	549.69
543.857	533.69
544.071	547.69
544.285	560.69
544.498	540.69
544.712	543.69
544.925	528.69
545.139	548.69
545.352	544.69
545.566	548.69
545.779	535.69
545.993	513.69
546.206	576.69
546.42	553.69
546.633	518.69
546.847	537.69
547.06	521.69
547.274	546.69
547.487	533.69
547.7	538.69
547.914	506.69
548.127	549.69
548.34	549.69
548.554	505.69
548.767	536.69
548.98	545.69
549.193	513.69
549.407	517.69
549.62	525.69
549.833	524.69
550.046	539.69
550.259	528.69
550.473	544.69
550.686	533.69
550.899	529.69
551.112	498.69
551.325	498.69
551.538	515.69
551.751	520.69
551.964	518.69
552.177	508.69
552.39	522.69
552.603	539.69
552.816	514.69
553.029	496.69
553.242	511.69
553.455	537.69
553.667	548.69
553.88	566.69
554.093	537.69
554.306	525.69
554.519	506.69
554.732	527.69
554.944	519.69
555.157	513.69
555.37	513.69
555.583	503.69
555.795	512.69
556.008	500.69
556.221	479.69
556.433	472.69
556.646	477.69
556.859	504.69
557.071	509.69
557.284	501.69
557.496	475.69
557.709	466.69
557.921	458.69
558.134	484.69
558.346	467.69
558.559	475.69
558.771	463.69
558.984	481.69
559.196	472.69
559.409	462.69
559.621	443.69
559.833	448.69
560.046	445.69
560.258	471.69
560.47	472.69
560.683	478.69
560.895	468.69
561.107	458.69
561.32	469.69
561.532	446.69
561.744	469.69
561.956	491.69
562.168	485.69
562.381	428.69
562.593	473.69
562.805	473.69
563.017	451.69
563.229	470.69
563.441	466.69
563.653	486.69
563.865	484.69
564.077	468.69
564.289	461.69
564.501	491.69
564.713	497.69
564.925	479.69
565.137	519.69
565.349	485.69
565.561	498.69
565.773	512.69
565.985	534.69
566.197	522.69
566.408	506.69
566.62	567.69
566.832	584.69
567.044	558.69
567.255	566.69
567.467	579.69
567.679	606.69
567.891	594.69
568.102	579.69
568.314	584.69
568.526	563.69
568.737	554.69
568.949	521.69
569.161	498.69
569.372	484.69
569.584	514.69
569.795	496.69
570.007	480.69
570.218	528.69
570.43	535.69
570.641	491.69
570.853	475.69
571.064	472.69
571.276	435.69
571.487	462.69
571.698	444.69
571.91	437.69
572.121	423.69
572.333	436.69
572.544	418.69
572.755	404.69
572.966	408.69
573.178	410.69
573.389	427.69
573.6	412.69
573.811	417.69
574.023	399.69
574.234	416.69
574.445	385.69
574.656	385.69
574.867	400.69
575.078	404.69
575.289	420.69
575.501	405.69
575.712	386.69
575.923	403.69
576.134	392.69
576.345	390.69
576.556	396.69
576.767	401.69
576.978	386.69
577.188	386.69
577.399	387.69
577.61	380.69
577.821	402.69
578.032	392.69
578.243	425.69
578.454	664.69
578.665	510.69
578.875	396.69
579.086	399.69
579.297	382.69
579.508	375.69
579.718	371.69
579.929	357.69
580.14	357.69
580.35	348.69
580.561	355.69
580.772	360.69
580.982	378.69
581.193	344.69
581.403	373.69
581.614	368.69
581.825	358.69
582.035	364.69
582.246	370.69
582.456	368.69
582.667	378.69
582.877	366.69
583.087	363.69
583.298	370.69
583.508	357.69
583.719	334.69
583.929	366.69
584.139	339.69
584.35	355.69
584.56	358.69
584.77	376.69
584.981	359.69
585.191	362.69
585.401	344.69
585.611	347.69
585.821	345.69
586.032	359.69
586.242	348.69
586.452	370.69
586.662	366.69
586.872	351.69
587.082	347.69
587.292	336.69
587.502	330.69
587.713	339.69
587.923	349.69
588.133	357.69
588.343	350.69
588.553	355.69
588.762	340.69
588.972	327.69
589.182	329.69
589.392	342.69
589.602	340.69
589.812	343.69
590.022	354.69
590.232	338.69
590.441	338.69
590.651	335.69
590.861	331.69
591.071	344.69
591.281	361.69
591.49	348.69
591.7	342.69
591.91	365.69
592.119	354.69
592.329	350.69
592.539	370.69
592.748	375.69
592.958	365.69
593.167	361.69
593.377	362.69
593.587	373.69
593.796	378.69
594.006	348.69
594.215	380.69
594.424	358.69
594.634	351.69
594.843	357.69
595.053	359.69
595.262	346.69
595.472	346.69
595.681	347.69
595.89	324.69
596.1	328.69
596.309	330.69
596.518	350.69
596.727	340.69
596.937	325.69
597.146	330.69
597.355	323.69
597.564	324.69
597.774	332.69
597.983	318.69
598.192	318.69
598.401	309.69
598.61	315.69
598.819	321.69
599.028	305.69
599.237	308.69
599.446	308.69
599.655	322.69
599.864	303.69
600.073	325.69
600.282	312.69
600.491	293.69
600.7	315.69
600.909	304.69
601.118	290.69
601.327	297.69
601.536	313.69
601.745	302.69
601.953	311.69
602.162	294.69
602.371	285.69
602.58	299.69
602.789	282.69
602.997	294.69
603.206	272.69
603.415	280.69
603.623	273.69
603.832	302.69
604.041	308.69
604.249	288.69
604.458	279.69
604.666	295.69
604.875	296.69
605.084	286.69
605.292	284.69
605.501	286.69
605.709	290.69
605.918	290.69
606.126	268.69
606.334	276.69
606.543	267.69
606.751	286.69
606.96	278.69
607.168	268.69
607.376	274.69
607.585	284.69
607.793	290.69
608.001	274.69
608.21	262.69
608.418	294.69
608.626	271.69
608.834	266.69
609.043	281.69
609.251	292.69
609.459	284.69
609.667	284.69
609.875	283.69
610.083	280.69
610.291	287.69
610.499	292.69
610.707	281.69
610.916	290.69
611.124	281.69
611.332	286.69
611.54	267.69
611.748	262.69
611.955	268.69
612.163	269.69
612.371	281.69
612.579	274.69
612.787	269.69
612.995	263.69
613.203	282.69
613.411	269.69
613.618	261.69
613.826	279.69
614.034	262.69
614.242	259.69
614.449	266.69
614.657	269.69
614.865	274.69
615.072	270.69
615.28	265.69
615.488	278.69
615.695	263.69
615.903	262.69
616.111	269.69
616.318	261.69
616.526	268.69
616.733	269.69
616.941	262.69
617.148	272.69
617.356	268.69
617.563	258.69
617.771	258.69
617.978	242.69
618.185	258.69
618.393	275.69
618.6	263.69
618.807	258.69
619.015	264.69
619.222	248.69
619.429	235.69
619.637	266.69
619.844	263.69
620.051	263.69
620.258	247.69
620.466	245.69
620.673	246.69
620.88	256.69
621.087	245.69
621.294	245.69
621.501	244.69
621.708	247.69
621.915	254.69
622.122	265.69
622.329	239.69
622.536	262.69
622.743	249.69
622.95	262.69
623.157	260.69
623.364	281.69
623.571	253.69
623.778	239.69
623.985	246.69
624.192	258.69
624.399	236.69
624.606	247.69
624.812	242.69
625.019	225.69
625.226	233.69
625.433	236.69
625.639	242.69
625.846	238.69
626.053	233.69
626.259	233.69
626.466	222.69
626.673	233.69
626.879	214.69
627.086	218.69
627.293	218.69
627.499	240.69
627.706	232.69
627.912	224.69
628.119	232.69
628.325	221.69
628.532	231.69
628.738	228.69
628.945	243.69
629.151	211.69
629.357	214.69
629.564	219.69
629.77	220.69
629.976	216.69
630.183	215.69
630.389	228.69
630.595	247.69
630.802	232.69
631.008	219.69
631.214	214.69
631.42	228.69
631.627	210.69
631.833	213.69
632.039	201.69
632.245	212.69
632.451	208.69
632.657	217.69
632.863	204.69
633.069	204.69
633.275	196.69
633.481	204.69
633.688	216.69
633.893	202.69
634.099	198.69
634.305	203.69
634.511	205.69
634.717	201.69
634.923	195.69
635.129	203.69
635.335	202.69
635.541	200.69
635.747	200.69
635.952	195.69
636.158	203.69
636.364	208.69
636.57	194.69
636.775	201.69
636.981	197.69
637.187	188.69
637.392	192.69
637.598	195.69
637.804	180.69
638.009	191.69
638.215	186.69
638.421	196.69
638.626	192.69
638.832	202.69
639.037	191.69
639.243	197.69
639.448	187.69
639.654	166.69
639.859	194.69
640.065	186.69
640.27	182.69
640.475	186.69
640.681	184.69
640.886	187.69
641.091	192.69
641.297	187.69
641.502	185.69
641.707	195.69
641.913	184.69
642.118	174.69
642.323	184.69
642.528	196.69
642.733	187.69
642.939	188.69
643.144	184.69
643.349	192.69
643.554	188.69
643.759	180.69
643.964	172.69
644.169	176.69
644.374	177.69
644.579	184.69
644.784	181.69
644.989	169.69
645.194	194.69
645.399	182.69
645.604	176.69
645.809	182.69
646.014	183.69
646.219	175.69
646.423	178.69
646.628	186.69
646.833	167.69
647.038	179.69
647.243	184.69
647.447	178.69
647.652	170.69
647.857	182.69
648.062	184.69
648.266	181.69
648.471	169.69
648.676	169.69
648.88	181.69
649.085	184.69
649.289	184.69
649.494	193.69
649.698	211.69
649.903	200.69
650.107	192.69
650.312	196.69
650.516	178.69
650.721	176.69
650.925	169.69
651.13	170.69
651.334	153.69
651.539	149.69
651.743	168.69
651.947	154.69
652.152	168.69
652.356	153.69
652.56	139.69
652.764	156.69
652.969	155.69
653.173	140.69
653.377	146.69
653.581	148.69
653.785	146.69
653.99	150.69
654.194	151.69
654.398	146.69
654.602	158.69
654.806	137.69
655.01	152.69
655.214	150.69
655.418	137.69
655.622	138.69
655.826	147.69
656.03	127.69
656.234	149.69
656.438	149.69
656.642	146.69
656.846	135.69
657.049	146.69
657.253	138.69
657.457	135.69
657.661	120.69
657.865	123.69
658.068	110.69
658.272	122.69
658.476	101.69
658.68	96.69
658.883	94.69
659.087	101.69
659.291	111.69
659.494	105.69
659.698	104.69
659.901	104.69
660.105	99.69
660.309	96.69
660.512	92.69
660.716	91.69
660.919	108.69
661.123	106.69
661.326	82.69
661.53	83.69
661.733	80.69
661.936	96.69
662.14	81.69
662.343	96.69
662.546	75.69
662.75	106.69
662.953	89.69
663.156	79.69
663.36	95.69
663.563	80.69
663.766	80.69
663.969	82.69
664.173	67.69
664.376	78.69
664.579	80.69
664.782	92.69
664.985	90.69
665.188	81.69
665.391	80.69
665.594	67.69
665.797	76.69
666	86.69
666.203	69.69
666.406	85.69
666.609	78.69
666.812	85.69
667.015	90.69
667.218	86.69
667.421	92.69
667.624	75.69
667.827	82.69
668.03	70.69
668.232	89.69
668.435	90.69
668.638	95.69
668.841	80.69
669.043	82.69
669.246	81.69
669.449	76.69
669.651	80.69
669.854	87.69
670.057	82.69
670.259	75.69
670.462	83.69
670.665	75.69
670.867	76.69
671.07	85.69
671.272	92.69
671.475	96.69
671.677	76.69
671.88	73.69
672.082	74.69
672.284	92.69
672.487	75.69
672.689	75.69
672.892	79.69
