Data from 1988.PennyLincolnUp.Lamp.En5.5.200Scan.071819.P2_HRD10591_17-19-24-975.txt Node
Date: Thu Jul 18 17:19:24 EDT 2019
User: cochatt
Spectrometer: HR+D1059
Trigger mode: 1
Integration Time (sec): 1.000000E-1
Scans to average: 1
Electric dark correction enabled: true
Nonlinearity correction enabled: false
Boxcar width: 0
XAxis mode: Wavelengths
Number of Pixels in Spectrum: 2048
>>>>>Begin Spectral Data<<<<<
223.165	-24.31
223.4	-24.31
223.635	-24.31
223.869	-11.31
224.104	-25.31
224.338	-14.31
224.573	-23.31
224.808	-16.31
225.042	-22.31
225.277	0.69
225.511	4.69
225.746	-18.31
225.98	14.69
226.215	14.69
226.449	15.69
226.683	32.69
226.918	28.69
227.152	43.69
227.387	37.69
227.621	34.69
227.856	45.69
228.09	48.69
228.324	48.69
228.559	40.69
228.793	72.69
229.027	94.69
229.262	108.69
229.496	106.69
229.73	145.69
229.964	164.69
230.199	144.69
230.433	113.69
230.667	109.69
230.901	109.69
231.136	115.69
231.37	99.69
231.604	106.69
231.838	101.69
232.072	112.69
232.306	94.69
232.541	112.69
232.775	108.69
233.009	103.69
233.243	124.69
233.477	116.69
233.711	110.69
233.945	125.69
234.179	111.69
234.413	118.69
234.647	115.69
234.881	114.69
235.115	114.69
235.349	128.69
235.583	134.69
235.817	126.69
236.051	128.69
236.285	101.69
236.519	124.69
236.753	119.69
236.987	147.69
237.221	190.69
237.455	229.69
237.689	199.69
237.922	157.69
238.156	144.69
238.39	137.69
238.624	132.69
238.858	127.69
239.091	136.69
239.325	126.69
239.559	134.69
239.793	136.69
240.027	140.69
240.26	139.69
240.494	154.69
240.728	154.69
240.961	147.69
241.195	152.69
241.429	137.69
241.662	145.69
241.896	146.69
242.13	139.69
242.363	138.69
242.597	138.69
242.83	132.69
243.064	145.69
243.298	135.69
243.531	156.69
243.765	154.69
243.998	132.69
244.232	142.69
244.465	137.69
244.699	146.69
244.932	137.69
245.166	134.69
245.399	139.69
245.633	125.69
245.866	145.69
246.099	135.69
246.333	137.69
246.566	157.69
246.8	153.69
247.033	160.69
247.266	156.69
247.5	156.69
247.733	170.69
247.966	169.69
248.2	179.69
248.433	170.69
248.666	175.69
248.899	186.69
249.133	210.69
249.366	206.69
249.599	196.69
249.832	180.69
250.066	164.69
250.299	172.69
250.532	193.69
250.765	191.69
250.998	201.69
251.231	229.69
251.465	209.69
251.698	186.69
251.931	208.69
252.164	180.69
252.397	194.69
252.63	190.69
252.863	191.69
253.096	200.69
253.329	227.69
253.562	219.69
253.795	220.69
254.028	217.69
254.261	213.69
254.494	229.69
254.727	252.69
254.96	259.69
255.193	263.69
255.426	240.69
255.659	225.69
255.892	208.69
256.124	203.69
256.357	212.69
256.59	204.69
256.823	212.69
257.056	215.69
257.289	222.69
257.521	218.69
257.754	206.69
257.987	197.69
258.22	206.69
258.452	212.69
258.685	203.69
258.918	195.69
259.151	218.69
259.383	224.69
259.616	209.69
259.849	215.69
260.081	231.69
260.314	251.69
260.547	246.69
260.779	244.69
261.012	237.69
261.244	228.69
261.477	220.69
261.71	209.69
261.942	231.69
262.175	241.69
262.407	230.69
262.64	215.69
262.872	209.69
263.105	220.69
263.337	227.69
263.57	222.69
263.802	208.69
264.035	222.69
264.267	211.69
264.499	206.69
264.732	232.69
264.964	216.69
265.197	215.69
265.429	217.69
265.661	227.69
265.894	216.69
266.126	218.69
266.358	211.69
266.591	222.69
266.823	225.69
267.055	237.69
267.287	226.69
267.52	220.69
267.752	233.69
267.984	242.69
268.216	200.69
268.448	247.69
268.681	235.69
268.913	242.69
269.145	243.69
269.377	257.69
269.609	264.69
269.841	285.69
270.073	266.69
270.306	292.69
270.538	331.69
270.77	328.69
271.002	303.69
271.234	287.69
271.466	281.69
271.698	305.69
271.93	318.69
272.162	320.69
272.394	311.69
272.626	301.69
272.858	298.69
273.09	283.69
273.322	277.69
273.553	262.69
273.785	265.69
274.017	271.69
274.249	279.69
274.481	280.69
274.713	271.69
274.945	278.69
275.176	281.69
275.408	283.69
275.64	266.69
275.872	257.69
276.104	246.69
276.335	281.69
276.567	278.69
276.799	291.69
277.031	312.69
277.262	326.69
277.494	317.69
277.726	299.69
277.957	301.69
278.189	289.69
278.421	278.69
278.652	289.69
278.884	288.69
279.115	282.69
279.347	281.69
279.579	269.69
279.81	274.69
280.042	278.69
280.273	282.69
280.505	268.69
280.736	284.69
280.968	266.69
281.199	282.69
281.431	282.69
281.662	277.69
281.894	251.69
282.125	278.69
282.356	292.69
282.588	308.69
282.819	305.69
283.051	278.69
283.282	292.69
283.513	268.69
283.745	280.69
283.976	288.69
284.207	293.69
284.439	277.69
284.67	294.69
284.901	286.69
285.132	299.69
285.364	298.69
285.595	288.69
285.826	295.69
286.057	302.69
286.288	272.69
286.52	291.69
286.751	279.69
286.982	306.69
287.213	290.69
287.444	293.69
287.675	286.69
287.906	310.69
288.138	311.69
288.369	324.69
288.6	325.69
288.831	301.69
289.062	322.69
289.293	301.69
289.524	281.69
289.755	304.69
289.986	313.69
290.217	300.69
290.448	300.69
290.679	310.69
290.91	299.69
291.141	290.69
291.371	304.69
291.602	295.69
291.833	300.69
292.064	301.69
292.295	306.69
292.526	286.69
292.757	310.69
292.987	311.69
293.218	310.69
293.449	304.69
293.68	287.69
293.91	320.69
294.141	292.69
294.372	304.69
294.603	289.69
294.833	307.69
295.064	314.69
295.295	298.69
295.525	310.69
295.756	316.69
295.987	329.69
296.217	341.69
296.448	362.69
296.679	320.69
296.909	312.69
297.14	293.69
297.37	297.69
297.601	309.69
297.831	317.69
298.062	315.69
298.292	306.69
298.523	319.69
298.753	326.69
298.984	312.69
299.214	305.69
299.445	317.69
299.675	316.69
299.905	338.69
300.136	330.69
300.366	322.69
300.597	313.69
300.827	348.69
301.057	340.69
301.288	351.69
301.518	327.69
301.748	333.69
301.979	340.69
302.209	344.69
302.439	340.69
302.669	318.69
302.9	356.69
303.13	329.69
303.36	334.69
303.59	363.69
303.82	341.69
304.051	359.69
304.281	354.69
304.511	347.69
304.741	335.69
304.971	358.69
305.201	360.69
305.431	333.69
305.661	350.69
305.891	341.69
306.121	334.69
306.352	348.69
306.582	349.69
306.812	354.69
307.042	344.69
307.272	339.69
307.502	339.69
307.731	353.69
307.961	345.69
308.191	344.69
308.421	341.69
308.651	376.69
308.881	368.69
309.111	360.69
309.341	370.69
309.571	363.69
309.8	378.69
310.03	398.69
310.26	380.69
310.49	390.69
310.72	426.69
310.949	398.69
311.179	428.69
311.409	388.69
311.639	389.69
311.868	398.69
312.098	416.69
312.328	413.69
312.557	428.69
312.787	446.69
313.017	430.69
313.246	411.69
313.476	388.69
313.706	390.69
313.935	406.69
314.165	418.69
314.394	429.69
314.624	414.69
314.853	411.69
315.083	408.69
315.312	405.69
315.542	401.69
315.771	397.69
316.001	380.69
316.23	400.69
316.46	390.69
316.689	379.69
316.919	416.69
317.148	400.69
317.377	408.69
317.607	416.69
317.836	392.69
318.065	414.69
318.295	399.69
318.524	379.69
318.753	391.69
318.983	402.69
319.212	384.69
319.441	406.69
319.67	425.69
319.9	422.69
320.129	393.69
320.358	394.69
320.587	394.69
320.816	409.69
321.046	428.69
321.275	408.69
321.504	433.69
321.733	409.69
321.962	427.69
322.191	435.69
322.42	463.69
322.649	463.69
322.878	473.69
323.108	480.69
323.337	525.69
323.566	544.69
323.795	553.69
324.024	602.69
324.253	751.69
324.482	1050.69
324.71	1600.69
324.939	2335.69
325.168	1956.69
325.397	1009.69
325.626	696.69
325.855	594.69
326.084	558.69
326.313	529.69
326.542	541.69
326.77	574.69
326.999	682.69
327.228	933.69
327.457	1461.69
327.686	1732.69
327.914	1131.69
328.143	724.69
328.372	648.69
328.6	605.69
328.829	587.69
329.058	605.69
329.287	599.69
329.515	575.69
329.744	522.69
329.972	516.69
330.201	509.69
330.43	548.69
330.658	593.69
330.887	612.69
331.115	621.69
331.344	557.69
331.572	537.69
331.801	511.69
332.03	512.69
332.258	496.69
332.486	478.69
332.715	479.69
332.943	478.69
333.172	482.69
333.4	481.69
333.629	479.69
333.857	485.69
334.085	487.69
334.314	499.69
334.542	485.69
334.771	514.69
334.999	492.69
335.227	500.69
335.455	490.69
335.684	481.69
335.912	485.69
336.14	457.69
336.369	484.69
336.597	490.69
336.825	496.69
337.053	477.69
337.281	472.69
337.51	445.69
337.738	468.69
337.966	457.69
338.194	471.69
338.422	468.69
338.65	466.69
338.878	462.69
339.106	457.69
339.334	466.69
339.562	450.69
339.79	439.69
340.018	471.69
340.246	442.69
340.474	457.69
340.702	458.69
340.93	450.69
341.158	453.69
341.386	458.69
341.614	472.69
341.842	443.69
342.07	441.69
342.298	449.69
342.526	448.69
342.754	454.69
342.981	413.69
343.209	447.69
343.437	453.69
343.665	446.69
343.893	472.69
344.12	456.69
344.348	490.69
344.576	473.69
344.804	470.69
345.031	466.69
345.259	482.69
345.487	488.69
345.714	450.69
345.942	444.69
346.17	452.69
346.397	441.69
346.625	464.69
346.853	414.69
347.08	439.69
347.308	448.69
347.535	429.69
347.763	452.69
347.99	461.69
348.218	444.69
348.445	468.69
348.673	457.69
348.9	448.69
349.128	448.69
349.355	432.69
349.583	446.69
349.81	424.69
350.037	419.69
350.265	439.69
350.492	436.69
350.72	429.69
350.947	438.69
351.174	431.69
351.402	438.69
351.629	457.69
351.856	421.69
352.083	463.69
352.311	456.69
352.538	468.69
352.765	456.69
352.992	457.69
353.22	431.69
353.447	446.69
353.674	439.69
353.901	427.69
354.128	422.69
354.355	412.69
354.583	409.69
354.81	426.69
355.037	428.69
355.264	404.69
355.491	401.69
355.718	398.69
355.945	405.69
356.172	418.69
356.399	408.69
356.626	406.69
356.853	405.69
357.08	395.69
357.307	398.69
357.534	420.69
357.761	405.69
357.988	397.69
358.215	398.69
358.441	408.69
358.668	394.69
358.895	421.69
359.122	409.69
359.349	432.69
359.576	425.69
359.802	464.69
360.029	489.69
360.256	515.69
360.483	488.69
360.709	451.69
360.936	469.69
361.163	439.69
361.39	438.69
361.616	424.69
361.843	436.69
362.07	459.69
362.296	441.69
362.523	452.69
362.749	449.69
362.976	450.69
363.203	440.69
363.429	434.69
363.656	408.69
363.882	430.69
364.109	430.69
364.335	421.69
364.562	445.69
364.788	424.69
365.015	428.69
365.241	405.69
365.468	414.69
365.694	430.69
365.92	449.69
366.147	416.69
366.373	428.69
366.599	425.69
366.826	433.69
367.052	425.69
367.278	419.69
367.505	420.69
367.731	426.69
367.957	416.69
368.184	420.69
368.41	424.69
368.636	445.69
368.862	442.69
369.089	425.69
369.315	435.69
369.541	432.69
369.767	420.69
369.993	424.69
370.219	422.69
370.445	432.69
370.672	408.69
370.898	434.69
371.124	417.69
371.35	406.69
371.576	408.69
371.802	417.69
372.028	417.69
372.254	415.69
372.48	418.69
372.706	423.69
372.932	403.69
373.158	421.69
373.384	422.69
373.61	405.69
373.835	428.69
374.061	417.69
374.287	420.69
374.513	433.69
374.739	424.69
374.965	413.69
375.191	424.69
375.416	430.69
375.642	437.69
375.868	443.69
376.094	421.69
376.319	414.69
376.545	421.69
376.771	421.69
376.997	415.69
377.222	395.69
377.448	415.69
377.674	419.69
377.899	406.69
378.125	417.69
378.35	417.69
378.576	422.69
378.802	427.69
379.027	417.69
379.253	424.69
379.478	413.69
379.704	419.69
379.929	418.69
380.155	413.69
380.38	424.69
380.606	424.69
380.831	417.69
381.057	428.69
381.282	408.69
381.507	419.69
381.733	427.69
381.958	410.69
382.184	406.69
382.409	418.69
382.634	452.69
382.86	415.69
383.085	430.69
383.31	449.69
383.535	441.69
383.761	443.69
383.986	420.69
384.211	421.69
384.436	440.69
384.662	431.69
384.887	443.69
385.112	442.69
385.337	450.69
385.562	462.69
385.787	456.69
386.013	482.69
386.238	467.69
386.463	448.69
386.688	462.69
386.913	464.69
387.138	486.69
387.363	461.69
387.588	461.69
387.813	475.69
388.038	465.69
388.263	471.69
388.488	455.69
388.713	461.69
388.938	444.69
389.163	462.69
389.387	476.69
389.612	446.69
389.837	467.69
390.062	464.69
390.287	447.69
390.512	466.69
390.736	472.69
390.961	447.69
391.186	450.69
391.411	471.69
391.636	474.69
391.86	485.69
392.085	493.69
392.31	481.69
392.534	478.69
392.759	482.69
392.984	469.69
393.208	489.69
393.433	479.69
393.658	476.69
393.882	467.69
394.107	457.69
394.331	496.69
394.556	466.69
394.78	467.69
395.005	471.69
395.229	483.69
395.454	474.69
395.678	477.69
395.903	482.69
396.127	518.69
396.352	532.69
396.576	491.69
396.801	488.69
397.025	501.69
397.249	479.69
397.474	472.69
397.698	487.69
397.922	516.69
398.147	539.69
398.371	517.69
398.595	535.69
398.82	541.69
399.044	528.69
399.268	564.69
399.492	601.69
399.717	632.69
399.941	653.69
400.165	678.69
400.389	661.69
400.613	603.69
400.837	567.69
401.062	554.69
401.286	564.69
401.51	522.69
401.734	562.69
401.958	554.69
402.182	544.69
402.406	568.69
402.63	540.69
402.854	547.69
403.078	558.69
403.302	553.69
403.526	567.69
403.75	545.69
403.974	551.69
404.198	540.69
404.422	573.69
404.645	553.69
404.869	566.69
405.093	592.69
405.317	611.69
405.541	633.69
405.765	591.69
405.988	580.69
406.212	576.69
406.436	599.69
406.66	610.69
406.883	597.69
407.107	624.69
407.331	660.69
407.555	749.69
407.778	717.69
408.002	655.69
408.226	611.69
408.449	620.69
408.673	598.69
408.896	651.69
409.12	695.69
409.344	687.69
409.567	603.69
409.791	580.69
410.014	548.69
410.238	560.69
410.461	542.69
410.685	562.69
410.908	564.69
411.132	629.69
411.355	654.69
411.578	626.69
411.802	572.69
412.025	541.69
412.249	560.69
412.472	568.69
412.695	558.69
412.919	568.69
413.142	563.69
413.365	532.69
413.589	533.69
413.812	540.69
414.035	553.69
414.258	540.69
414.482	526.69
414.705	532.69
414.928	517.69
415.151	536.69
415.374	529.69
415.597	537.69
415.821	498.69
416.044	522.69
416.267	540.69
416.49	550.69
416.713	506.69
416.936	532.69
417.159	514.69
417.382	512.69
417.605	527.69
417.828	540.69
418.051	540.69
418.274	542.69
418.497	530.69
418.72	521.69
418.943	502.69
419.166	551.69
419.389	547.69
419.611	568.69
419.834	552.69
420.057	552.69
420.28	535.69
420.503	513.69
420.726	534.69
420.948	560.69
421.171	621.69
421.394	626.69
421.617	590.69
421.839	544.69
422.062	544.69
422.285	573.69
422.507	634.69
422.73	715.69
422.953	681.69
423.175	583.69
423.398	581.69
423.621	575.69
423.843	560.69
424.066	585.69
424.288	560.69
424.511	615.69
424.733	677.69
424.956	745.69
425.178	727.69
425.401	705.69
425.623	739.69
425.846	645.69
426.068	568.69
426.291	574.69
426.513	593.69
426.735	602.69
426.958	627.69
427.18	714.69
427.402	866.69
427.625	941.69
427.847	795.69
428.069	714.69
428.292	606.69
428.514	578.69
428.736	567.69
428.958	563.69
429.181	539.69
429.403	563.69
429.625	533.69
429.847	585.69
430.069	644.69
430.292	642.69
430.514	573.69
430.736	537.69
430.958	510.69
431.18	501.69
431.402	521.69
431.624	518.69
431.846	522.69
432.068	517.69
432.29	517.69
432.512	524.69
432.734	510.69
432.956	534.69
433.178	546.69
433.4	531.69
433.622	552.69
433.844	508.69
434.066	531.69
434.287	535.69
434.509	518.69
434.731	525.69
434.953	541.69
435.175	551.69
435.397	577.69
435.618	604.69
435.84	635.69
436.062	726.69
436.284	827.69
436.505	658.69
436.727	626.69
436.949	555.69
437.17	566.69
437.392	544.69
437.614	555.69
437.835	603.69
438.057	719.69
438.278	802.69
438.5	811.69
438.721	875.69
438.943	838.69
439.165	646.69
439.386	612.69
439.608	602.69
439.829	580.69
440.05	637.69
440.272	662.69
440.493	617.69
440.715	578.69
440.936	572.69
441.158	571.69
441.379	562.69
441.6	560.69
441.822	583.69
442.043	633.69
442.264	713.69
442.486	772.69
442.707	647.69
442.928	610.69
443.149	609.69
443.371	636.69
443.592	677.69
443.813	771.69
444.034	842.69
444.255	688.69
444.476	620.69
444.698	567.69
444.919	580.69
445.14	676.69
445.361	631.69
445.582	632.69
445.803	692.69
446.024	815.69
446.245	786.69
446.466	715.69
446.687	644.69
446.908	610.69
447.129	569.69
447.35	527.69
447.571	548.69
447.792	552.69
448.013	549.69
448.234	588.69
448.455	604.69
448.675	752.69
448.896	872.69
449.117	731.69
449.338	697.69
449.559	788.69
449.779	901.69
450	725.69
450.221	580.69
450.442	538.69
450.662	548.69
450.883	556.69
451.104	541.69
451.324	539.69
451.545	522.69
451.766	509.69
451.986	497.69
452.207	458.69
452.428	463.69
452.648	514.69
452.869	480.69
453.089	512.69
453.31	509.69
453.53	479.69
453.751	487.69
453.971	478.69
454.192	489.69
454.412	515.69
454.633	496.69
454.853	485.69
455.073	491.69
455.294	530.69
455.514	589.69
455.734	558.69
455.955	506.69
456.175	471.69
456.395	445.69
456.616	452.69
456.836	440.69
457.056	473.69
457.276	448.69
457.497	442.69
457.717	471.69
457.937	476.69
458.157	458.69
458.377	478.69
458.598	494.69
458.818	557.69
459.038	642.69
459.258	652.69
459.478	567.69
459.698	533.69
459.918	498.69
460.138	510.69
460.358	514.69
460.578	529.69
460.798	560.69
461.018	535.69
461.238	532.69
461.458	533.69
461.678	511.69
461.898	544.69
462.118	533.69
462.338	545.69
462.558	556.69
462.777	546.69
462.997	568.69
463.217	564.69
463.437	594.69
463.657	583.69
463.876	577.69
464.096	583.69
464.316	573.69
464.536	581.69
464.755	584.69
464.975	582.69
465.195	591.69
465.414	680.69
465.634	599.69
465.854	568.69
466.073	542.69
466.293	531.69
466.512	534.69
466.732	514.69
466.951	507.69
467.171	490.69
467.391	523.69
467.61	534.69
467.829	525.69
468.049	510.69
468.268	504.69
468.488	512.69
468.707	493.69
468.927	480.69
469.146	513.69
469.365	497.69
469.585	503.69
469.804	510.69
470.023	506.69
470.243	505.69
470.462	517.69
470.681	524.69
470.901	544.69
471.12	518.69
471.339	512.69
471.558	501.69
471.777	490.69
471.997	492.69
472.216	496.69
472.435	509.69
472.654	510.69
472.873	496.69
473.092	480.69
473.311	501.69
473.53	510.69
473.749	514.69
473.968	540.69
474.187	660.69
474.406	657.69
474.625	580.69
474.844	522.69
475.063	491.69
475.282	524.69
475.501	505.69
475.72	522.69
475.939	527.69
476.158	518.69
476.377	546.69
476.596	527.69
476.814	541.69
477.033	525.69
477.252	531.69
477.471	537.69
477.69	537.69
477.908	538.69
478.127	543.69
478.346	555.69
478.564	563.69
478.783	581.69
479.002	607.69
479.22	590.69
479.439	608.69
479.658	609.69
479.876	614.69
480.095	633.69
480.313	638.69
480.532	648.69
480.751	635.69
480.969	615.69
481.188	613.69
481.406	626.69
481.624	588.69
481.843	609.69
482.061	600.69
482.28	597.69
482.498	583.69
482.717	586.69
482.935	578.69
483.153	589.69
483.372	618.69
483.59	599.69
483.808	619.69
484.027	599.69
484.245	601.69
484.463	600.69
484.681	611.69
484.9	605.69
485.118	596.69
485.336	597.69
485.554	640.69
485.772	596.69
485.99	609.69
486.209	600.69
486.427	633.69
486.645	628.69
486.863	642.69
487.081	656.69
487.299	629.69
487.517	630.69
487.735	626.69
487.953	636.69
488.171	625.69
488.389	636.69
488.607	644.69
488.825	626.69
489.043	641.69
489.261	633.69
489.479	640.69
489.696	642.69
489.914	624.69
490.132	654.69
490.35	660.69
490.568	670.69
490.786	677.69
491.003	681.69
491.221	708.69
491.439	696.69
491.657	714.69
491.874	722.69
492.092	712.69
492.31	691.69
492.527	703.69
492.745	730.69
492.963	715.69
493.18	728.69
493.398	697.69
493.615	763.69
493.833	737.69
494.05	733.69
494.268	713.69
494.485	736.69
494.703	738.69
494.92	755.69
495.138	760.69
495.355	741.69
495.573	761.69
495.79	726.69
496.008	767.69
496.225	756.69
496.442	756.69
496.66	779.69
496.877	755.69
497.094	787.69
497.312	762.69
497.529	766.69
497.746	753.69
497.963	818.69
498.181	817.69
498.398	853.69
498.615	860.69
498.832	894.69
499.049	864.69
499.267	885.69
499.484	920.69
499.701	964.69
499.918	987.69
500.135	1045.69
500.352	1094.69
500.569	1075.69
500.786	1097.69
501.003	1092.69
501.22	1056.69
501.437	1024.69
501.654	1016.69
501.871	994.69
502.088	959.69
502.305	916.69
502.522	878.69
502.739	860.69
502.956	843.69
503.172	816.69
503.389	809.69
503.606	819.69
503.823	782.69
504.04	799.69
504.256	778.69
504.473	766.69
504.69	788.69
504.907	773.69
505.123	741.69
505.34	732.69
505.557	762.69
505.773	741.69
505.99	728.69
506.207	729.69
506.423	722.69
506.64	711.69
506.856	725.69
507.073	733.69
507.289	708.69
507.506	714.69
507.722	729.69
507.939	728.69
508.155	718.69
508.372	715.69
508.588	709.69
508.805	708.69
509.021	670.69
509.238	691.69
509.454	685.69
509.67	711.69
509.887	682.69
510.103	714.69
510.319	714.69
510.536	782.69
510.752	1293.69
510.968	1090.69
511.184	704.69
511.401	692.69
511.617	645.69
511.833	629.69
512.049	651.69
512.265	645.69
512.481	636.69
512.698	641.69
512.914	638.69
513.13	640.69
513.346	662.69
513.562	650.69
513.778	641.69
513.994	640.69
514.21	681.69
514.426	724.69
514.642	746.69
514.858	749.69
515.074	806.69
515.29	933.69
515.506	1371.69
515.721	1204.69
515.937	796.69
516.153	752.69
516.369	716.69
516.585	717.69
516.801	682.69
517.016	693.69
517.232	686.69
517.448	682.69
517.664	706.69
517.879	689.69
518.095	736.69
518.311	698.69
518.527	688.69
518.742	659.69
518.958	651.69
519.173	657.69
519.389	677.69
519.605	661.69
519.82	668.69
520.036	680.69
520.251	689.69
520.467	740.69
520.682	744.69
520.898	724.69
521.113	725.69
521.329	764.69
521.544	892.69
521.76	1107.69
521.975	1816.69
522.19	1835.69
522.406	1009.69
522.621	770.69
522.836	684.69
523.052	658.69
523.267	640.69
523.482	606.69
523.698	621.69
523.913	606.69
524.128	598.69
524.343	576.69
524.559	591.69
524.774	574.69
524.989	571.69
525.204	579.69
525.419	558.69
525.634	561.69
525.849	589.69
526.064	567.69
526.28	562.69
526.495	558.69
526.71	549.69
526.925	562.69
527.14	558.69
527.355	547.69
527.57	553.69
527.785	535.69
527.999	557.69
528.214	547.69
528.429	541.69
528.644	546.69
528.859	540.69
529.074	563.69
529.289	566.69
529.503	674.69
529.718	647.69
529.933	581.69
530.148	554.69
530.363	554.69
530.577	555.69
530.792	552.69
531.007	551.69
531.221	547.69
531.436	551.69
531.651	540.69
531.865	508.69
532.08	542.69
532.295	506.69
532.509	511.69
532.724	518.69
532.938	524.69
533.153	522.69
533.367	533.69
533.582	528.69
533.796	533.69
534.011	524.69
534.225	500.69
534.44	511.69
534.654	500.69
534.868	500.69
535.083	497.69
535.297	525.69
535.511	523.69
535.726	522.69
535.94	530.69
536.154	527.69
536.369	509.69
536.583	493.69
536.797	508.69
537.011	514.69
537.225	508.69
537.44	498.69
537.654	487.69
537.868	485.69
538.082	488.69
538.296	496.69
538.51	492.69
538.724	492.69
538.938	489.69
539.153	510.69
539.367	516.69
539.581	510.69
539.795	499.69
540.009	505.69
540.222	468.69
540.436	483.69
540.65	495.69
540.864	514.69
541.078	526.69
541.292	511.69
541.506	479.69
541.72	497.69
541.934	461.69
542.147	501.69
542.361	468.69
542.575	470.69
542.789	472.69
543.002	479.69
543.216	483.69
543.43	506.69
543.644	488.69
543.857	475.69
544.071	497.69
544.285	496.69
544.498	486.69
544.712	482.69
544.925	480.69
545.139	484.69
545.352	466.69
545.566	493.69
545.779	456.69
545.993	483.69
546.206	489.69
546.42	485.69
546.633	473.69
546.847	471.69
547.06	471.69
547.274	464.69
547.487	469.69
547.7	466.69
547.914	465.69
548.127	466.69
548.34	471.69
548.554	512.69
548.767	479.69
548.98	473.69
549.193	476.69
549.407	501.69
549.62	490.69
549.833	462.69
550.046	464.69
550.259	477.69
550.473	496.69
550.686	462.69
550.899	483.69
551.112	468.69
551.325	466.69
551.538	471.69
551.751	450.69
551.964	470.69
552.177	466.69
552.39	462.69
552.603	481.69
552.816	459.69
553.029	477.69
553.242	469.69
553.455	480.69
553.667	483.69
553.88	489.69
554.093	486.69
554.306	485.69
554.519	474.69
554.732	480.69
554.944	473.69
555.157	444.69
555.37	450.69
555.583	444.69
555.795	445.69
556.008	435.69
556.221	444.69
556.433	437.69
556.646	416.69
556.859	444.69
557.071	436.69
557.284	431.69
557.496	428.69
557.709	416.69
557.921	402.69
558.134	424.69
558.346	424.69
558.559	419.69
558.771	433.69
558.984	432.69
559.196	399.69
559.409	386.69
559.621	392.69
559.833	420.69
560.046	407.69
560.258	403.69
560.47	420.69
560.683	426.69
560.895	403.69
561.107	416.69
561.32	402.69
561.532	410.69
561.744	408.69
561.956	412.69
562.168	416.69
562.381	434.69
562.593	440.69
562.805	424.69
563.017	418.69
563.229	429.69
563.441	428.69
563.653	429.69
563.865	420.69
564.077	409.69
564.289	422.69
564.501	425.69
564.713	438.69
564.925	450.69
565.137	443.69
565.349	467.69
565.561	458.69
565.773	447.69
565.985	451.69
566.197	475.69
566.408	496.69
566.62	496.69
566.832	521.69
567.044	512.69
567.255	509.69
567.467	546.69
567.679	530.69
567.891	533.69
568.102	538.69
568.314	528.69
568.526	515.69
568.737	480.69
568.949	483.69
569.161	462.69
569.372	452.69
569.584	428.69
569.795	440.69
570.007	428.69
570.218	472.69
570.43	474.69
570.641	436.69
570.853	397.69
571.064	415.69
571.276	418.69
571.487	396.69
571.698	390.69
571.91	387.69
572.121	397.69
572.333	380.69
572.544	383.69
572.755	378.69
572.966	388.69
573.178	381.69
573.389	367.69
573.6	373.69
573.811	361.69
574.023	360.69
574.234	364.69
574.445	369.69
574.656	368.69
574.867	357.69
575.078	358.69
575.289	353.69
575.501	388.69
575.712	339.69
575.923	356.69
576.134	372.69
576.345	346.69
576.556	357.69
576.767	344.69
576.978	346.69
577.188	359.69
577.399	345.69
577.61	353.69
577.821	361.69
578.032	355.69
578.243	397.69
578.454	611.69
578.665	486.69
578.875	378.69
579.086	340.69
579.297	359.69
579.508	360.69
579.718	345.69
579.929	334.69
580.14	332.69
580.35	328.69
580.561	343.69
580.772	322.69
580.982	342.69
581.193	330.69
581.403	341.69
581.614	333.69
581.825	339.69
582.035	337.69
582.246	322.69
582.456	321.69
582.667	336.69
582.877	329.69
583.087	320.69
583.298	327.69
583.508	326.69
583.719	317.69
583.929	308.69
584.139	329.69
584.35	329.69
584.56	342.69
584.77	329.69
584.981	300.69
585.191	318.69
585.401	332.69
585.611	315.69
585.821	328.69
586.032	321.69
586.242	317.69
586.452	329.69
586.662	318.69
586.872	302.69
587.082	315.69
587.292	298.69
587.502	346.69
587.713	301.69
587.923	317.69
588.133	316.69
588.343	304.69
588.553	307.69
588.762	318.69
588.972	301.69
589.182	306.69
589.392	321.69
589.602	311.69
589.812	321.69
590.022	322.69
590.232	305.69
590.441	296.69
590.651	323.69
590.861	317.69
591.071	301.69
591.281	300.69
591.49	317.69
591.7	330.69
591.91	324.69
592.119	318.69
592.329	310.69
592.539	336.69
592.748	323.69
592.958	316.69
593.167	326.69
593.377	341.69
593.587	347.69
593.796	339.69
594.006	348.69
594.215	334.69
594.424	336.69
594.634	317.69
594.843	323.69
595.053	321.69
595.262	309.69
595.472	331.69
595.681	322.69
595.89	310.69
596.1	315.69
596.309	306.69
596.518	297.69
596.727	298.69
596.937	289.69
597.146	281.69
597.355	309.69
597.564	298.69
597.774	276.69
597.983	283.69
598.192	302.69
598.401	295.69
598.61	266.69
598.819	276.69
599.028	294.69
599.237	281.69
599.446	282.69
599.655	276.69
599.864	289.69
600.073	283.69
600.282	294.69
600.491	281.69
600.7	294.69
600.909	269.69
601.118	278.69
601.327	264.69
601.536	267.69
601.745	273.69
601.953	260.69
602.162	263.69
602.371	269.69
602.58	289.69
602.789	270.69
602.997	262.69
603.206	270.69
603.415	253.69
603.623	276.69
603.832	270.69
604.041	254.69
604.249	268.69
604.458	285.69
604.666	261.69
604.875	276.69
605.084	280.69
605.292	256.69
605.501	244.69
605.709	247.69
605.918	260.69
606.126	265.69
606.334	254.69
606.543	261.69
606.751	258.69
606.96	244.69
607.168	249.69
607.376	256.69
607.585	261.69
607.793	253.69
608.001	270.69
608.21	256.69
608.418	246.69
608.626	252.69
608.834	255.69
609.043	262.69
609.251	252.69
609.459	248.69
609.667	273.69
609.875	254.69
610.083	258.69
610.291	248.69
610.499	258.69
610.707	275.69
610.916	243.69
611.124	246.69
611.332	239.69
611.54	260.69
611.748	252.69
611.955	250.69
612.163	241.69
612.371	247.69
612.579	234.69
612.787	231.69
612.995	237.69
613.203	237.69
613.411	233.69
613.618	233.69
613.826	232.69
614.034	252.69
614.242	264.69
614.449	241.69
614.657	251.69
614.865	225.69
615.072	243.69
615.28	248.69
615.488	249.69
615.695	245.69
615.903	240.69
616.111	245.69
616.318	251.69
616.526	242.69
616.733	269.69
616.941	234.69
617.148	241.69
617.356	234.69
617.563	239.69
617.771	252.69
617.978	224.69
618.185	237.69
618.393	220.69
618.6	241.69
618.807	230.69
619.015	242.69
619.222	236.69
619.429	248.69
619.637	230.69
619.844	248.69
620.051	230.69
620.258	228.69
620.466	221.69
620.673	210.69
620.88	211.69
621.087	227.69
621.294	255.69
621.501	245.69
621.708	220.69
621.915	240.69
622.122	226.69
622.329	236.69
622.536	230.69
622.743	226.69
622.95	227.69
623.157	228.69
623.364	227.69
623.571	226.69
623.778	222.69
623.985	223.69
624.192	213.69
624.399	213.69
624.606	224.69
624.812	217.69
625.019	216.69
625.226	222.69
625.433	225.69
625.639	222.69
625.846	210.69
626.053	224.69
626.259	227.69
626.466	222.69
626.673	209.69
626.879	206.69
627.086	193.69
627.293	203.69
627.499	213.69
627.706	216.69
627.912	213.69
628.119	212.69
628.325	206.69
628.532	213.69
628.738	209.69
628.945	219.69
629.151	240.69
629.357	204.69
629.564	206.69
629.77	188.69
629.976	210.69
630.183	210.69
630.389	187.69
630.595	193.69
630.802	203.69
631.008	190.69
631.214	178.69
631.42	196.69
631.627	187.69
631.833	187.69
632.039	189.69
632.245	194.69
632.451	201.69
632.657	197.69
632.863	210.69
633.069	183.69
633.275	202.69
633.481	173.69
633.688	192.69
633.893	188.69
634.099	193.69
634.305	189.69
634.511	185.69
634.717	179.69
634.923	187.69
635.129	174.69
635.335	202.69
635.541	209.69
635.747	197.69
635.952	184.69
636.158	180.69
636.364	186.69
636.57	200.69
636.775	188.69
636.981	185.69
637.187	185.69
637.392	185.69
637.598	180.69
637.804	187.69
638.009	186.69
638.215	189.69
638.421	185.69
638.626	192.69
638.832	188.69
639.037	189.69
639.243	161.69
639.448	186.69
639.654	198.69
639.859	173.69
640.065	181.69
640.27	189.69
640.475	174.69
640.681	179.69
640.886	184.69
641.091	187.69
641.297	201.69
641.502	184.69
641.707	178.69
641.913	187.69
642.118	183.69
642.323	184.69
642.528	170.69
642.733	176.69
642.939	184.69
643.144	168.69
643.349	171.69
643.554	170.69
643.759	165.69
643.964	167.69
644.169	169.69
644.374	172.69
644.579	174.69
644.784	162.69
644.989	187.69
645.194	186.69
645.399	181.69
645.604	167.69
645.809	167.69
646.014	166.69
646.219	178.69
646.423	176.69
646.628	166.69
646.833	174.69
647.038	165.69
647.243	164.69
647.447	181.69
647.652	181.69
647.857	169.69
648.062	158.69
648.266	172.69
648.471	187.69
648.676	176.69
648.88	169.69
649.085	184.69
649.289	157.69
649.494	183.69
649.698	203.69
649.903	201.69
650.107	185.69
650.312	170.69
650.516	160.69
650.721	163.69
650.925	164.69
651.13	163.69
651.334	156.69
651.539	154.69
651.743	165.69
651.947	153.69
652.152	154.69
652.356	165.69
652.56	155.69
652.764	155.69
652.969	156.69
653.173	162.69
653.377	157.69
653.581	142.69
653.785	147.69
653.99	140.69
654.194	156.69
654.398	144.69
654.602	153.69
654.806	144.69
655.01	145.69
655.214	156.69
655.418	128.69
655.622	154.69
655.826	147.69
656.03	154.69
656.234	134.69
656.438	127.69
656.642	138.69
656.846	132.69
657.049	125.69
657.253	134.69
657.457	119.69
657.661	122.69
657.865	123.69
658.068	115.69
658.272	112.69
658.476	109.69
658.68	104.69
658.883	107.69
659.087	109.69
659.291	102.69
659.494	107.69
659.698	101.69
659.901	111.69
660.105	94.69
660.309	99.69
660.512	101.69
660.716	108.69
660.919	102.69
661.123	89.69
661.326	93.69
661.53	90.69
661.733	96.69
661.936	92.69
662.14	84.69
662.343	105.69
662.546	83.69
662.75	93.69
662.953	87.69
663.156	84.69
663.36	75.69
663.563	86.69
663.766	83.69
663.969	85.69
664.173	89.69
664.376	83.69
664.579	83.69
664.782	85.69
664.985	97.69
665.188	82.69
665.391	79.69
665.594	82.69
665.797	87.69
666	79.69
666.203	68.69
666.406	73.69
666.609	88.69
666.812	84.69
667.015	70.69
667.218	88.69
667.421	86.69
667.624	82.69
667.827	85.69
668.03	81.69
668.232	82.69
668.435	82.69
668.638	71.69
668.841	85.69
669.043	84.69
669.246	91.69
669.449	95.69
669.651	75.69
669.854	77.69
670.057	74.69
670.259	73.69
670.462	83.69
670.665	93.69
670.867	90.69
671.07	89.69
671.272	86.69
671.475	72.69
671.677	84.69
671.88	80.69
672.082	74.69
672.284	87.69
672.487	89.69
672.689	83.69
672.892	88.69
