Data from 1988.PennyLincolnUp.Lamp.En5.5.200Scan.071819.P2_HRD10591_17-21-22-972.txt Node
Date: Thu Jul 18 17:21:22 EDT 2019
User: cochatt
Spectrometer: HR+D1059
Trigger mode: 1
Integration Time (sec): 1.000000E-1
Scans to average: 1
Electric dark correction enabled: true
Nonlinearity correction enabled: false
Boxcar width: 0
XAxis mode: Wavelengths
Number of Pixels in Spectrum: 2048
>>>>>Begin Spectral Data<<<<<
223.165	-18.19
223.4	-18.19
223.635	-18.19
223.869	-13.19
224.104	-12.19
224.338	-20.19
224.573	-13.19
224.808	-12.19
225.042	-4.19
225.277	-7.19
225.511	-11.19
225.746	4.81
225.98	3.81
226.215	10.81
226.449	10.81
226.683	16.81
226.918	21.81
227.152	42.81
227.387	40.81
227.621	48.81
227.856	42.81
228.09	48.81
228.324	41.81
228.559	59.81
228.793	64.81
229.027	105.81
229.262	114.81
229.496	135.81
229.73	134.81
229.964	165.81
230.199	139.81
230.433	115.81
230.667	111.81
230.901	117.81
231.136	119.81
231.37	131.81
231.604	120.81
231.838	113.81
232.072	108.81
232.306	109.81
232.541	112.81
232.775	117.81
233.009	124.81
233.243	124.81
233.477	115.81
233.711	107.81
233.945	127.81
234.179	119.81
234.413	127.81
234.647	127.81
234.881	122.81
235.115	113.81
235.349	120.81
235.583	123.81
235.817	130.81
236.051	132.81
236.285	148.81
236.519	114.81
236.753	141.81
236.987	158.81
237.221	203.81
237.455	248.81
237.689	204.81
237.922	150.81
238.156	139.81
238.39	152.81
238.624	129.81
238.858	140.81
239.091	123.81
239.325	121.81
239.559	120.81
239.793	145.81
240.027	138.81
240.26	153.81
240.494	169.81
240.728	160.81
240.961	159.81
241.195	152.81
241.429	145.81
241.662	137.81
241.896	137.81
242.13	137.81
242.363	136.81
242.597	163.81
242.83	143.81
243.064	145.81
243.298	147.81
243.531	161.81
243.765	142.81
243.998	152.81
244.232	157.81
244.465	140.81
244.699	149.81
244.932	147.81
245.166	155.81
245.399	152.81
245.633	157.81
245.866	155.81
246.099	151.81
246.333	160.81
246.566	150.81
246.8	165.81
247.033	152.81
247.266	183.81
247.5	172.81
247.733	183.81
247.966	177.81
248.2	178.81
248.433	188.81
248.666	191.81
248.899	210.81
249.133	226.81
249.366	221.81
249.599	213.81
249.832	190.81
250.066	203.81
250.299	189.81
250.532	188.81
250.765	207.81
250.998	228.81
251.231	258.81
251.465	233.81
251.698	212.81
251.931	199.81
252.164	195.81
252.397	197.81
252.63	216.81
252.863	231.81
253.096	221.81
253.329	246.81
253.562	222.81
253.795	240.81
254.028	229.81
254.261	224.81
254.494	229.81
254.727	275.81
254.96	291.81
255.193	285.81
255.426	281.81
255.659	245.81
255.892	236.81
256.124	226.81
256.357	219.81
256.59	233.81
256.823	217.81
257.056	220.81
257.289	220.81
257.521	229.81
257.754	215.81
257.987	224.81
258.22	229.81
258.452	218.81
258.685	219.81
258.918	212.81
259.151	227.81
259.383	222.81
259.616	226.81
259.849	228.81
260.081	241.81
260.314	255.81
260.547	290.81
260.779	259.81
261.012	249.81
261.244	247.81
261.477	237.81
261.71	221.81
261.942	228.81
262.175	241.81
262.407	231.81
262.64	225.81
262.872	234.81
263.105	235.81
263.337	233.81
263.57	213.81
263.802	232.81
264.035	229.81
264.267	226.81
264.499	232.81
264.732	241.81
264.964	221.81
265.197	256.81
265.429	229.81
265.661	230.81
265.894	230.81
266.126	216.81
266.358	224.81
266.591	220.81
266.823	245.81
267.055	227.81
267.287	241.81
267.52	230.81
267.752	242.81
267.984	226.81
268.216	239.81
268.448	248.81
268.681	241.81
268.913	265.81
269.145	286.81
269.377	284.81
269.609	295.81
269.841	279.81
270.073	294.81
270.306	308.81
270.538	330.81
270.77	329.81
271.002	332.81
271.234	306.81
271.466	315.81
271.698	326.81
271.93	340.81
272.162	337.81
272.394	325.81
272.626	315.81
272.858	319.81
273.09	285.81
273.322	294.81
273.553	308.81
273.785	286.81
274.017	267.81
274.249	281.81
274.481	299.81
274.713	281.81
274.945	297.81
275.176	273.81
275.408	275.81
275.64	282.81
275.872	282.81
276.104	287.81
276.335	292.81
276.567	306.81
276.799	289.81
277.031	330.81
277.262	346.81
277.494	339.81
277.726	322.81
277.957	312.81
278.189	305.81
278.421	287.81
278.652	291.81
278.884	292.81
279.115	282.81
279.347	305.81
279.579	289.81
279.81	294.81
280.042	276.81
280.273	291.81
280.505	298.81
280.736	290.81
280.968	293.81
281.199	295.81
281.431	293.81
281.662	274.81
281.894	307.81
282.125	319.81
282.356	319.81
282.588	332.81
282.819	332.81
283.051	305.81
283.282	291.81
283.513	284.81
283.745	305.81
283.976	297.81
284.207	312.81
284.439	285.81
284.67	305.81
284.901	313.81
285.132	297.81
285.364	301.81
285.595	297.81
285.826	292.81
286.057	304.81
286.288	296.81
286.52	306.81
286.751	291.81
286.982	306.81
287.213	291.81
287.444	280.81
287.675	308.81
287.906	324.81
288.138	320.81
288.369	315.81
288.6	313.81
288.831	329.81
289.062	324.81
289.293	314.81
289.524	318.81
289.755	317.81
289.986	324.81
290.217	313.81
290.448	301.81
290.679	306.81
290.91	301.81
291.141	313.81
291.371	308.81
291.602	294.81
291.833	311.81
292.064	316.81
292.295	296.81
292.526	321.81
292.757	312.81
292.987	332.81
293.218	309.81
293.449	322.81
293.68	313.81
293.91	332.81
294.141	296.81
294.372	297.81
294.603	297.81
294.833	319.81
295.064	315.81
295.295	329.81
295.525	309.81
295.756	302.81
295.987	352.81
296.217	355.81
296.448	368.81
296.679	331.81
296.909	330.81
297.14	335.81
297.37	333.81
297.601	305.81
297.831	311.81
298.062	348.81
298.292	337.81
298.523	328.81
298.753	347.81
298.984	317.81
299.214	332.81
299.445	343.81
299.675	326.81
299.905	353.81
300.136	355.81
300.366	324.81
300.597	348.81
300.827	358.81
301.057	355.81
301.288	367.81
301.518	360.81
301.748	359.81
301.979	351.81
302.209	368.81
302.439	364.81
302.669	348.81
302.9	355.81
303.13	349.81
303.36	368.81
303.59	375.81
303.82	370.81
304.051	384.81
304.281	367.81
304.511	353.81
304.741	361.81
304.971	353.81
305.201	353.81
305.431	373.81
305.661	377.81
305.891	362.81
306.121	355.81
306.352	362.81
306.582	379.81
306.812	375.81
307.042	368.81
307.272	378.81
307.502	344.81
307.731	355.81
307.961	373.81
308.191	353.81
308.421	376.81
308.651	367.81
308.881	374.81
309.111	384.81
309.341	367.81
309.571	398.81
309.8	394.81
310.03	397.81
310.26	390.81
310.49	395.81
310.72	438.81
310.949	433.81
311.179	435.81
311.409	418.81
311.639	400.81
311.868	397.81
312.098	413.81
312.328	416.81
312.557	439.81
312.787	450.81
313.017	446.81
313.246	437.81
313.476	411.81
313.706	404.81
313.935	413.81
314.165	423.81
314.394	463.81
314.624	436.81
314.853	404.81
315.083	431.81
315.312	421.81
315.542	429.81
315.771	386.81
316.001	410.81
316.23	416.81
316.46	412.81
316.689	410.81
316.919	427.81
317.148	437.81
317.377	421.81
317.607	431.81
317.836	435.81
318.065	396.81
318.295	403.81
318.524	383.81
318.753	410.81
318.983	414.81
319.212	426.81
319.441	429.81
319.67	442.81
319.9	417.81
320.129	428.81
320.358	440.81
320.587	450.81
320.816	433.81
321.046	450.81
321.275	429.81
321.504	427.81
321.733	457.81
321.962	435.81
322.191	474.81
322.42	468.81
322.649	501.81
322.878	502.81
323.108	493.81
323.337	538.81
323.566	555.81
323.795	589.81
324.024	665.81
324.253	793.81
324.482	1106.81
324.71	1727.81
324.939	2653.81
325.168	2315.81
325.397	1146.81
325.626	771.81
325.855	630.81
326.084	583.81
326.313	568.81
326.542	567.81
326.77	614.81
326.999	751.81
327.228	1023.81
327.457	1603.81
327.686	2014.81
327.914	1283.81
328.143	835.81
328.372	700.81
328.6	660.81
328.829	630.81
329.058	639.81
329.287	660.81
329.515	624.81
329.744	579.81
329.972	570.81
330.201	562.81
330.43	608.81
330.658	612.81
330.887	669.81
331.115	661.81
331.344	603.81
331.572	556.81
331.801	550.81
332.03	549.81
332.258	519.81
332.486	529.81
332.715	516.81
332.943	489.81
333.172	495.81
333.4	483.81
333.629	513.81
333.857	543.81
334.085	548.81
334.314	525.81
334.542	537.81
334.771	555.81
334.999	543.81
335.227	509.81
335.455	519.81
335.684	515.81
335.912	496.81
336.14	488.81
336.369	509.81
336.597	517.81
336.825	507.81
337.053	481.81
337.281	489.81
337.51	480.81
337.738	512.81
337.966	486.81
338.194	505.81
338.422	491.81
338.65	480.81
338.878	496.81
339.106	469.81
339.334	484.81
339.562	481.81
339.79	467.81
340.018	491.81
340.246	489.81
340.474	464.81
340.702	483.81
340.93	491.81
341.158	442.81
341.386	493.81
341.614	476.81
341.842	472.81
342.07	470.81
342.298	470.81
342.526	484.81
342.754	474.81
342.981	464.81
343.209	473.81
343.437	487.81
343.665	480.81
343.893	491.81
344.12	519.81
344.348	502.81
344.576	486.81
344.804	504.81
345.031	512.81
345.259	506.81
345.487	474.81
345.714	495.81
345.942	491.81
346.17	481.81
346.397	468.81
346.625	451.81
346.853	467.81
347.08	458.81
347.308	474.81
347.535	471.81
347.763	511.81
347.99	475.81
348.218	497.81
348.445	511.81
348.673	485.81
348.9	459.81
349.128	457.81
349.355	440.81
349.583	459.81
349.81	456.81
350.037	441.81
350.265	457.81
350.492	451.81
350.72	463.81
350.947	453.81
351.174	475.81
351.402	501.81
351.629	482.81
351.856	466.81
352.083	470.81
352.311	487.81
352.538	497.81
352.765	487.81
352.992	470.81
353.22	465.81
353.447	453.81
353.674	460.81
353.901	457.81
354.128	453.81
354.355	442.81
354.583	430.81
354.81	429.81
355.037	428.81
355.264	432.81
355.491	432.81
355.718	410.81
355.945	435.81
356.172	456.81
356.399	449.81
356.626	444.81
356.853	445.81
357.08	448.81
357.307	433.81
357.534	443.81
357.761	439.81
357.988	443.81
358.215	438.81
358.441	436.81
358.668	439.81
358.895	465.81
359.122	460.81
359.349	456.81
359.576	461.81
359.802	490.81
360.029	516.81
360.256	540.81
360.483	515.81
360.709	468.81
360.936	478.81
361.163	491.81
361.39	459.81
361.616	496.81
361.843	464.81
362.07	476.81
362.296	477.81
362.523	469.81
362.749	476.81
362.976	474.81
363.203	468.81
363.429	459.81
363.656	466.81
363.882	467.81
364.109	449.81
364.335	467.81
364.562	446.81
364.788	457.81
365.015	451.81
365.241	444.81
365.468	455.81
365.694	473.81
365.92	461.81
366.147	464.81
366.373	457.81
366.599	449.81
366.826	446.81
367.052	441.81
367.278	452.81
367.505	455.81
367.731	439.81
367.957	442.81
368.184	459.81
368.41	461.81
368.636	467.81
368.862	480.81
369.089	477.81
369.315	453.81
369.541	462.81
369.767	479.81
369.993	466.81
370.219	463.81
370.445	485.81
370.672	462.81
370.898	483.81
371.124	466.81
371.35	444.81
371.576	452.81
371.802	444.81
372.028	450.81
372.254	438.81
372.48	443.81
372.706	437.81
372.932	468.81
373.158	453.81
373.384	469.81
373.61	456.81
373.835	459.81
374.061	445.81
374.287	477.81
374.513	470.81
374.739	461.81
374.965	463.81
375.191	464.81
375.416	484.81
375.642	441.81
375.868	452.81
376.094	469.81
376.319	476.81
376.545	461.81
376.771	467.81
376.997	454.81
377.222	468.81
377.448	461.81
377.674	454.81
377.899	448.81
378.125	447.81
378.35	465.81
378.576	445.81
378.802	453.81
379.027	447.81
379.253	465.81
379.478	433.81
379.704	454.81
379.929	463.81
380.155	436.81
380.38	436.81
380.606	467.81
380.831	465.81
381.057	482.81
381.282	455.81
381.507	487.81
381.733	484.81
381.958	469.81
382.184	452.81
382.409	466.81
382.634	504.81
382.86	475.81
383.085	458.81
383.31	480.81
383.535	493.81
383.761	487.81
383.986	461.81
384.211	488.81
384.436	495.81
384.662	490.81
384.887	478.81
385.112	512.81
385.337	490.81
385.562	495.81
385.787	499.81
386.013	533.81
386.238	516.81
386.463	505.81
386.688	513.81
386.913	501.81
387.138	515.81
387.363	501.81
387.588	500.81
387.813	511.81
388.038	479.81
388.263	502.81
388.488	495.81
388.713	500.81
388.938	503.81
389.163	505.81
389.387	515.81
389.612	518.81
389.837	509.81
390.062	490.81
390.287	533.81
390.512	507.81
390.736	524.81
390.961	502.81
391.186	503.81
391.411	498.81
391.636	489.81
391.86	518.81
392.085	524.81
392.31	516.81
392.534	524.81
392.759	520.81
392.984	517.81
393.208	511.81
393.433	514.81
393.658	506.81
393.882	519.81
394.107	509.81
394.331	516.81
394.556	503.81
394.78	520.81
395.005	509.81
395.229	515.81
395.454	524.81
395.678	531.81
395.903	527.81
396.127	571.81
396.352	576.81
396.576	548.81
396.801	536.81
397.025	516.81
397.249	531.81
397.474	550.81
397.698	535.81
397.922	566.81
398.147	563.81
398.371	583.81
398.595	576.81
398.82	575.81
399.044	598.81
399.268	621.81
399.492	640.81
399.717	691.81
399.941	715.81
400.165	728.81
400.389	770.81
400.613	679.81
400.837	618.81
401.062	599.81
401.286	599.81
401.51	576.81
401.734	591.81
401.958	600.81
402.182	591.81
402.406	605.81
402.63	601.81
402.854	599.81
403.078	593.81
403.302	628.81
403.526	609.81
403.75	639.81
403.974	612.81
404.198	613.81
404.422	635.81
404.645	623.81
404.869	620.81
405.093	661.81
405.317	640.81
405.541	712.81
405.765	644.81
405.988	650.81
406.212	662.81
406.436	675.81
406.66	697.81
406.883	665.81
407.107	694.81
407.331	724.81
407.555	818.81
407.778	811.81
408.002	748.81
408.226	681.81
408.449	669.81
408.673	680.81
408.896	708.81
409.12	756.81
409.344	729.81
409.567	643.81
409.791	616.81
410.014	604.81
410.238	608.81
410.461	635.81
410.685	651.81
410.908	661.81
411.132	685.81
411.355	724.81
411.578	696.81
411.802	624.81
412.025	597.81
412.249	616.81
412.472	629.81
412.695	652.81
412.919	646.81
413.142	622.81
413.365	589.81
413.589	588.81
413.812	590.81
414.035	571.81
414.258	607.81
414.482	591.81
414.705	599.81
414.928	589.81
415.151	579.81
415.374	599.81
415.597	580.81
415.821	573.81
416.044	565.81
416.267	603.81
416.49	594.81
416.713	593.81
416.936	577.81
417.159	572.81
417.382	595.81
417.605	587.81
417.828	608.81
418.051	610.81
418.274	597.81
418.497	582.81
418.72	589.81
418.943	575.81
419.166	621.81
419.389	620.81
419.611	626.81
419.834	606.81
420.057	611.81
420.28	607.81
420.503	569.81
420.726	603.81
420.948	633.81
421.171	681.81
421.394	704.81
421.617	623.81
421.839	621.81
422.062	599.81
422.285	620.81
422.507	711.81
422.73	788.81
422.953	755.81
423.175	679.81
423.398	651.81
423.621	652.81
423.843	660.81
424.066	645.81
424.288	657.81
424.511	674.81
424.733	732.81
424.956	845.81
425.178	823.81
425.401	796.81
425.623	823.81
425.846	713.81
426.068	657.81
426.291	644.81
426.513	647.81
426.735	657.81
426.958	691.81
427.18	827.81
427.402	967.81
427.625	1079.81
427.847	919.81
428.069	801.81
428.292	726.81
428.514	637.81
428.736	613.81
428.958	620.81
429.181	613.81
429.403	600.81
429.625	607.81
429.847	638.81
430.069	734.81
430.292	751.81
430.514	629.81
430.736	586.81
430.958	583.81
431.18	613.81
431.402	588.81
431.624	577.81
431.846	577.81
432.068	584.81
432.29	581.81
432.512	585.81
432.734	591.81
432.956	572.81
433.178	574.81
433.4	585.81
433.622	580.81
433.844	580.81
434.066	572.81
434.287	581.81
434.509	603.81
434.731	593.81
434.953	597.81
435.175	638.81
435.397	639.81
435.618	664.81
435.84	700.81
436.062	864.81
436.284	921.81
436.505	761.81
436.727	686.81
436.949	612.81
437.17	608.81
437.392	601.81
437.614	642.81
437.835	662.81
438.057	788.81
438.278	909.81
438.5	889.81
438.721	968.81
438.943	964.81
439.165	730.81
439.386	699.81
439.608	680.81
439.829	681.81
440.05	694.81
440.272	753.81
440.493	699.81
440.715	638.81
440.936	618.81
441.158	619.81
441.379	639.81
441.6	635.81
441.822	642.81
442.043	706.81
442.264	820.81
442.486	861.81
442.707	719.81
442.928	667.81
443.149	685.81
443.371	701.81
443.592	740.81
443.813	872.81
444.034	920.81
444.255	741.81
444.476	703.81
444.698	669.81
444.919	675.81
445.14	786.81
445.361	719.81
445.582	701.81
445.803	782.81
446.024	917.81
446.245	930.81
446.466	829.81
446.687	724.81
446.908	667.81
447.129	636.81
447.35	617.81
447.571	604.81
447.792	595.81
448.013	609.81
448.234	616.81
448.455	699.81
448.675	845.81
448.896	968.81
449.117	831.81
449.338	735.81
449.559	907.81
449.779	1018.81
450	813.81
450.221	654.81
450.442	616.81
450.662	594.81
450.883	599.81
451.104	602.81
451.324	593.81
451.545	614.81
451.766	586.81
451.986	529.81
452.207	534.81
452.428	522.81
452.648	547.81
452.869	536.81
453.089	559.81
453.31	583.81
453.53	548.81
453.751	544.81
453.971	547.81
454.192	575.81
454.412	545.81
454.633	502.81
454.853	523.81
455.073	554.81
455.294	578.81
455.514	653.81
455.734	628.81
455.955	556.81
456.175	524.81
456.395	533.81
456.616	529.81
456.836	512.81
457.056	526.81
457.276	502.81
457.497	504.81
457.717	531.81
457.937	515.81
458.157	522.81
458.377	544.81
458.598	565.81
458.818	628.81
459.038	712.81
459.258	733.81
459.478	637.81
459.698	577.81
459.918	581.81
460.138	601.81
460.358	578.81
460.578	579.81
460.798	592.81
461.018	591.81
461.238	616.81
461.458	580.81
461.678	571.81
461.898	603.81
462.118	621.81
462.338	595.81
462.558	595.81
462.777	626.81
462.997	636.81
463.217	659.81
463.437	641.81
463.657	616.81
463.876	630.81
464.096	645.81
464.316	622.81
464.536	639.81
464.755	631.81
464.975	613.81
465.195	684.81
465.414	784.81
465.634	669.81
465.854	610.81
466.073	610.81
466.293	598.81
466.512	580.81
466.732	579.81
466.951	570.81
467.171	545.81
467.391	559.81
467.61	575.81
467.829	585.81
468.049	579.81
468.268	563.81
468.488	566.81
468.707	536.81
468.927	553.81
469.146	557.81
469.365	542.81
469.585	550.81
469.804	568.81
470.023	549.81
470.243	559.81
470.462	583.81
470.681	599.81
470.901	610.81
471.12	584.81
471.339	586.81
471.558	565.81
471.777	569.81
471.997	559.81
472.216	554.81
472.435	575.81
472.654	562.81
472.873	559.81
473.092	577.81
473.311	572.81
473.53	536.81
473.749	562.81
473.968	617.81
474.187	738.81
474.406	753.81
474.625	628.81
474.844	601.81
475.063	587.81
475.282	565.81
475.501	600.81
475.72	587.81
475.939	584.81
476.158	593.81
476.377	569.81
476.596	585.81
476.814	623.81
477.033	594.81
477.252	612.81
477.471	607.81
477.69	597.81
477.908	612.81
478.127	607.81
478.346	601.81
478.564	653.81
478.783	650.81
479.002	650.81
479.22	649.81
479.439	681.81
479.658	687.81
479.876	689.81
480.095	704.81
480.313	712.81
480.532	702.81
480.751	697.81
480.969	684.81
481.188	699.81
481.406	727.81
481.624	713.81
481.843	672.81
482.061	689.81
482.28	679.81
482.498	653.81
482.717	644.81
482.935	662.81
483.153	659.81
483.372	669.81
483.59	653.81
483.808	652.81
484.027	646.81
484.245	659.81
484.463	680.81
484.681	693.81
484.9	679.81
485.118	665.81
485.336	694.81
485.554	698.81
485.772	687.81
485.99	648.81
486.209	687.81
486.427	683.81
486.645	715.81
486.863	730.81
487.081	706.81
487.299	724.81
487.517	703.81
487.735	716.81
487.953	716.81
488.171	716.81
488.389	739.81
488.607	723.81
488.825	706.81
489.043	701.81
489.261	748.81
489.479	732.81
489.696	717.81
489.914	748.81
490.132	737.81
490.35	735.81
490.568	756.81
490.786	761.81
491.003	782.81
491.221	764.81
491.439	787.81
491.657	792.81
491.874	807.81
492.092	818.81
492.31	837.81
492.527	816.81
492.745	830.81
492.963	837.81
493.18	855.81
493.398	872.81
493.615	825.81
493.833	839.81
494.05	844.81
494.268	836.81
494.485	839.81
494.703	827.81
494.92	838.81
495.138	869.81
495.355	860.81
495.573	848.81
495.79	849.81
496.008	825.81
496.225	878.81
496.442	871.81
496.66	881.81
496.877	855.81
497.094	839.81
497.312	866.81
497.529	888.81
497.746	885.81
497.963	893.81
498.181	916.81
498.398	947.81
498.615	947.81
498.832	989.81
499.049	994.81
499.267	1017.81
499.484	1049.81
499.701	1065.81
499.918	1108.81
500.135	1162.81
500.352	1197.81
500.569	1203.81
500.786	1251.81
501.003	1227.81
501.22	1207.81
501.437	1111.81
501.654	1111.81
501.871	1106.81
502.088	1048.81
502.305	1016.81
502.522	974.81
502.739	975.81
502.956	921.81
503.172	912.81
503.389	891.81
503.606	924.81
503.823	929.81
504.04	903.81
504.256	885.81
504.473	866.81
504.69	868.81
504.907	868.81
505.123	848.81
505.34	827.81
505.557	827.81
505.773	857.81
505.99	814.81
506.207	817.81
506.423	827.81
506.64	816.81
506.856	815.81
507.073	813.81
507.289	821.81
507.506	783.81
507.722	794.81
507.939	815.81
508.155	811.81
508.372	776.81
508.588	775.81
508.805	780.81
509.021	791.81
509.238	812.81
509.454	822.81
509.67	757.81
509.887	807.81
510.103	791.81
510.319	769.81
510.536	883.81
510.752	1421.81
510.968	1218.81
511.184	827.81
511.401	786.81
511.617	776.81
511.833	750.81
512.049	735.81
512.265	725.81
512.481	731.81
512.698	735.81
512.914	723.81
513.13	732.81
513.346	713.81
513.562	741.81
513.778	735.81
513.994	741.81
514.21	761.81
514.426	811.81
514.642	852.81
514.858	867.81
515.074	909.81
515.29	1064.81
515.506	1489.81
515.721	1265.81
515.937	887.81
516.153	812.81
516.369	805.81
516.585	767.81
516.801	776.81
517.016	747.81
517.232	777.81
517.448	769.81
517.664	760.81
517.879	778.81
518.095	762.81
518.311	773.81
518.527	746.81
518.742	755.81
518.958	743.81
519.173	744.81
519.389	732.81
519.605	736.81
519.82	769.81
520.036	763.81
520.251	792.81
520.467	824.81
520.682	806.81
520.898	812.81
521.113	817.81
521.329	905.81
521.544	996.81
521.76	1187.81
521.975	1922.81
522.19	1941.81
522.406	1093.81
522.621	871.81
522.836	785.81
523.052	740.81
523.267	725.81
523.482	672.81
523.698	676.81
523.913	679.81
524.128	667.81
524.343	664.81
524.559	665.81
524.774	647.81
524.989	659.81
525.204	660.81
525.419	648.81
525.634	664.81
525.849	649.81
526.064	639.81
526.28	641.81
526.495	611.81
526.71	603.81
526.925	613.81
527.14	608.81
527.355	589.81
527.57	628.81
527.785	615.81
527.999	613.81
528.214	607.81
528.429	603.81
528.644	616.81
528.859	626.81
529.074	629.81
529.289	642.81
529.503	743.81
529.718	695.81
529.933	649.81
530.148	611.81
530.363	632.81
530.577	601.81
530.792	595.81
531.007	601.81
531.221	589.81
531.436	603.81
531.651	570.81
531.865	603.81
532.08	573.81
532.295	580.81
532.509	587.81
532.724	596.81
532.938	584.81
533.153	565.81
533.367	568.81
533.582	584.81
533.796	604.81
534.011	595.81
534.225	568.81
534.44	574.81
534.654	573.81
534.868	559.81
535.083	546.81
535.297	567.81
535.511	559.81
535.726	572.81
535.94	595.81
536.154	560.81
536.369	553.81
536.583	554.81
536.797	549.81
537.011	541.81
537.225	572.81
537.44	550.81
537.654	584.81
537.868	566.81
538.082	554.81
538.296	545.81
538.51	556.81
538.724	538.81
538.938	552.81
539.153	545.81
539.367	591.81
539.581	572.81
539.795	548.81
540.009	544.81
540.222	561.81
540.436	563.81
540.65	551.81
540.864	561.81
541.078	579.81
541.292	555.81
541.506	557.81
541.72	556.81
541.934	545.81
542.147	562.81
542.361	550.81
542.575	541.81
542.789	552.81
543.002	564.81
543.216	548.81
543.43	548.81
543.644	533.81
543.857	536.81
544.071	549.81
544.285	546.81
544.498	528.81
544.712	526.81
544.925	539.81
545.139	536.81
545.352	526.81
545.566	518.81
545.779	525.81
545.993	522.81
546.206	548.81
546.42	547.81
546.633	543.81
546.847	543.81
547.06	518.81
547.274	521.81
547.487	532.81
547.7	545.81
547.914	517.81
548.127	527.81
548.34	532.81
548.554	523.81
548.767	531.81
548.98	508.81
549.193	522.81
549.407	518.81
549.62	512.81
549.833	523.81
550.046	527.81
550.259	525.81
550.473	511.81
550.686	525.81
550.899	521.81
551.112	509.81
551.325	516.81
551.538	511.81
551.751	512.81
551.964	495.81
552.177	518.81
552.39	536.81
552.603	531.81
552.816	531.81
553.029	508.81
553.242	538.81
553.455	530.81
553.667	539.81
553.88	553.81
554.093	536.81
554.306	545.81
554.519	527.81
554.732	525.81
554.944	520.81
555.157	501.81
555.37	513.81
555.583	513.81
555.795	524.81
556.008	500.81
556.221	467.81
556.433	488.81
556.646	489.81
556.859	491.81
557.071	460.81
557.284	465.81
557.496	477.81
557.709	466.81
557.921	473.81
558.134	466.81
558.346	468.81
558.559	461.81
558.771	462.81
558.984	450.81
559.196	466.81
559.409	460.81
559.621	467.81
559.833	453.81
560.046	450.81
560.258	466.81
560.47	454.81
560.683	465.81
560.895	477.81
561.107	446.81
561.32	479.81
561.532	447.81
561.744	479.81
561.956	452.81
562.168	469.81
562.381	464.81
562.593	461.81
562.805	485.81
563.017	467.81
563.229	460.81
563.441	453.81
563.653	470.81
563.865	478.81
564.077	482.81
564.289	466.81
564.501	480.81
564.713	475.81
564.925	475.81
565.137	493.81
565.349	472.81
565.561	506.81
565.773	529.81
565.985	531.81
566.197	502.81
566.408	539.81
566.62	526.81
566.832	549.81
567.044	562.81
567.255	563.81
567.467	582.81
567.679	592.81
567.891	596.81
568.102	602.81
568.314	579.81
568.526	557.81
568.737	528.81
568.949	532.81
569.161	533.81
569.372	497.81
569.584	480.81
569.795	479.81
570.007	497.81
570.218	521.81
570.43	514.81
570.641	477.81
570.853	442.81
571.064	448.81
571.276	449.81
571.487	449.81
571.698	444.81
571.91	436.81
572.121	447.81
572.333	434.81
572.544	413.81
572.755	406.81
572.966	419.81
573.178	417.81
573.389	396.81
573.6	403.81
573.811	420.81
574.023	418.81
574.234	392.81
574.445	393.81
574.656	376.81
574.867	395.81
575.078	395.81
575.289	394.81
575.501	404.81
575.712	395.81
575.923	406.81
576.134	408.81
576.345	397.81
576.556	379.81
576.767	376.81
576.978	372.81
577.188	386.81
577.399	395.81
577.61	403.81
577.821	380.81
578.032	400.81
578.243	415.81
578.454	657.81
578.665	536.81
578.875	383.81
579.086	379.81
579.297	382.81
579.508	371.81
579.718	373.81
579.929	370.81
580.14	356.81
580.35	385.81
580.561	379.81
580.772	360.81
580.982	367.81
581.193	362.81
581.403	357.81
581.614	367.81
581.825	346.81
582.035	376.81
582.246	376.81
582.456	349.81
582.667	354.81
582.877	362.81
583.087	354.81
583.298	370.81
583.508	335.81
583.719	331.81
583.929	374.81
584.139	357.81
584.35	348.81
584.56	347.81
584.77	342.81
584.981	342.81
585.191	343.81
585.401	335.81
585.611	349.81
585.821	353.81
586.032	370.81
586.242	346.81
586.452	346.81
586.662	356.81
586.872	332.81
587.082	338.81
587.292	344.81
587.502	345.81
587.713	361.81
587.923	351.81
588.133	353.81
588.343	348.81
588.553	347.81
588.762	341.81
588.972	347.81
589.182	347.81
589.392	346.81
589.602	336.81
589.812	316.81
590.022	342.81
590.232	340.81
590.441	343.81
590.651	340.81
590.861	345.81
591.071	344.81
591.281	361.81
591.49	348.81
591.7	345.81
591.91	349.81
592.119	343.81
592.329	331.81
592.539	362.81
592.748	357.81
592.958	365.81
593.167	347.81
593.377	357.81
593.587	383.81
593.796	362.81
594.006	356.81
594.215	376.81
594.424	359.81
594.634	361.81
594.843	358.81
595.053	360.81
595.262	341.81
595.472	354.81
595.681	351.81
595.89	347.81
596.1	347.81
596.309	332.81
596.518	329.81
596.727	328.81
596.937	321.81
597.146	319.81
597.355	323.81
597.564	313.81
597.774	314.81
597.983	307.81
598.192	321.81
598.401	325.81
598.61	308.81
598.819	319.81
599.028	306.81
599.237	291.81
599.446	311.81
599.655	304.81
599.864	297.81
600.073	307.81
600.282	294.81
600.491	314.81
600.7	322.81
600.909	291.81
601.118	293.81
601.327	307.81
601.536	306.81
601.745	300.81
601.953	294.81
602.162	286.81
602.371	295.81
602.58	291.81
602.789	298.81
602.997	286.81
603.206	293.81
603.415	290.81
603.623	291.81
603.832	293.81
604.041	285.81
604.249	296.81
604.458	287.81
604.666	292.81
604.875	275.81
605.084	291.81
605.292	288.81
605.501	262.81
605.709	288.81
605.918	286.81
606.126	280.81
606.334	275.81
606.543	288.81
606.751	297.81
606.96	278.81
607.168	276.81
607.376	263.81
607.585	286.81
607.793	273.81
608.001	286.81
608.21	282.81
608.418	261.81
608.626	271.81
608.834	284.81
609.043	287.81
609.251	272.81
609.459	279.81
609.667	268.81
609.875	279.81
610.083	276.81
610.291	271.81
610.499	283.81
610.707	252.81
610.916	268.81
611.124	275.81
611.332	273.81
611.54	267.81
611.748	275.81
611.955	259.81
612.163	267.81
612.371	277.81
612.579	268.81
612.787	268.81
612.995	286.81
613.203	271.81
613.411	275.81
613.618	262.81
613.826	260.81
614.034	276.81
614.242	269.81
614.449	276.81
614.657	256.81
614.865	275.81
615.072	270.81
615.28	265.81
615.488	263.81
615.695	260.81
615.903	258.81
616.111	278.81
616.318	274.81
616.526	290.81
616.733	280.81
616.941	254.81
617.148	275.81
617.356	261.81
617.563	265.81
617.771	252.81
617.978	264.81
618.185	260.81
618.393	280.81
618.6	262.81
618.807	259.81
619.015	248.81
619.222	272.81
619.429	272.81
619.637	280.81
619.844	265.81
620.051	257.81
620.258	264.81
620.466	249.81
620.673	254.81
620.88	268.81
621.087	240.81
621.294	260.81
621.501	231.81
621.708	235.81
621.915	244.81
622.122	253.81
622.329	244.81
622.536	252.81
622.743	248.81
622.95	242.81
623.157	236.81
623.364	260.81
623.571	245.81
623.778	239.81
623.985	232.81
624.192	243.81
624.399	247.81
624.606	266.81
624.812	245.81
625.019	236.81
625.226	244.81
625.433	237.81
625.639	247.81
625.846	235.81
626.053	241.81
626.259	211.81
626.466	224.81
626.673	243.81
626.879	232.81
627.086	235.81
627.293	224.81
627.499	236.81
627.706	216.81
627.912	234.81
628.119	234.81
628.325	243.81
628.532	229.81
628.738	236.81
628.945	220.81
629.151	211.81
629.357	221.81
629.564	220.81
629.77	215.81
629.976	208.81
630.183	212.81
630.389	206.81
630.595	210.81
630.802	215.81
631.008	204.81
631.214	197.81
631.42	233.81
631.627	212.81
631.833	220.81
632.039	212.81
632.245	211.81
632.451	232.81
632.657	204.81
632.863	205.81
633.069	218.81
633.275	213.81
633.481	205.81
633.688	207.81
633.893	194.81
634.099	202.81
634.305	208.81
634.511	207.81
634.717	199.81
634.923	211.81
635.129	186.81
635.335	200.81
635.541	203.81
635.747	197.81
635.952	198.81
636.158	201.81
636.364	217.81
636.57	199.81
636.775	191.81
636.981	197.81
637.187	200.81
637.392	191.81
637.598	200.81
637.804	207.81
638.009	195.81
638.215	199.81
638.421	202.81
638.626	197.81
638.832	201.81
639.037	193.81
639.243	190.81
639.448	183.81
639.654	186.81
639.859	196.81
640.065	180.81
640.27	198.81
640.475	180.81
640.681	216.81
640.886	212.81
641.091	185.81
641.297	198.81
641.502	195.81
641.707	190.81
641.913	194.81
642.118	184.81
642.323	185.81
642.528	210.81
642.733	179.81
642.939	182.81
643.144	180.81
643.349	167.81
643.554	184.81
643.759	175.81
643.964	184.81
644.169	192.81
644.374	183.81
644.579	187.81
644.784	164.81
644.989	186.81
645.194	172.81
645.399	192.81
645.604	192.81
645.809	182.81
646.014	182.81
646.219	165.81
646.423	163.81
646.628	185.81
646.833	175.81
647.038	177.81
647.243	192.81
647.447	191.81
647.652	170.81
647.857	181.81
648.062	187.81
648.266	184.81
648.471	184.81
648.676	192.81
648.88	177.81
649.085	180.81
649.289	189.81
649.494	180.81
649.698	209.81
649.903	209.81
650.107	188.81
650.312	197.81
650.516	169.81
650.721	186.81
650.925	183.81
651.13	163.81
651.334	154.81
651.539	177.81
651.743	177.81
651.947	173.81
652.152	163.81
652.356	147.81
652.56	177.81
652.764	168.81
652.969	163.81
653.173	165.81
653.377	148.81
653.581	144.81
653.785	150.81
653.99	149.81
654.194	145.81
654.398	148.81
654.602	140.81
654.806	156.81
655.01	159.81
655.214	150.81
655.418	146.81
655.622	139.81
655.826	119.81
656.03	147.81
656.234	155.81
656.438	150.81
656.642	133.81
656.846	147.81
657.049	151.81
657.253	144.81
657.457	119.81
657.661	127.81
657.865	127.81
658.068	120.81
658.272	118.81
658.476	119.81
658.68	114.81
658.883	112.81
659.087	125.81
659.291	109.81
659.494	100.81
659.698	101.81
659.901	103.81
660.105	106.81
660.309	104.81
660.512	90.81
660.716	99.81
660.919	87.81
661.123	95.81
661.326	99.81
661.53	107.81
661.733	97.81
661.936	88.81
662.14	85.81
662.343	91.81
662.546	95.81
662.75	85.81
662.953	86.81
663.156	93.81
663.36	97.81
663.563	95.81
663.766	91.81
663.969	92.81
664.173	84.81
664.376	76.81
664.579	87.81
664.782	97.81
664.985	85.81
665.188	78.81
665.391	93.81
665.594	92.81
665.797	84.81
666	85.81
666.203	96.81
666.406	80.81
666.609	81.81
666.812	72.81
667.015	85.81
667.218	97.81
667.421	102.81
667.624	82.81
667.827	89.81
668.03	77.81
668.232	79.81
668.435	74.81
668.638	82.81
668.841	81.81
669.043	81.81
669.246	84.81
669.449	87.81
669.651	93.81
669.854	82.81
670.057	75.81
670.259	75.81
670.462	76.81
670.665	88.81
670.867	85.81
671.07	99.81
671.272	87.81
671.475	89.81
671.677	88.81
671.88	77.81
672.082	74.81
672.284	84.81
672.487	81.81
672.689	80.81
672.892	71.81
