Data from 1988.PennyLincolnUp.Lamp.En5.5.200Scan.071819.P2_HRD10591_17-20-42-972.txt Node
Date: Thu Jul 18 17:20:42 EDT 2019
User: cochatt
Spectrometer: HR+D1059
Trigger mode: 1
Integration Time (sec): 1.000000E-1
Scans to average: 1
Electric dark correction enabled: true
Nonlinearity correction enabled: false
Boxcar width: 0
XAxis mode: Wavelengths
Number of Pixels in Spectrum: 2048
>>>>>Begin Spectral Data<<<<<
223.165	-20.31
223.4	-20.31
223.635	-20.31
223.869	-5.31
224.104	-10.31
224.338	-4.31
224.573	-20.31
224.808	-17.31
225.042	-15.31
225.277	-18.31
225.511	14.69
225.746	6.69
225.98	-0.31
226.215	13.69
226.449	8.69
226.683	21.69
226.918	13.69
227.152	32.69
227.387	38.69
227.621	36.69
227.856	46.69
228.09	38.69
228.324	47.69
228.559	71.69
228.793	72.69
229.027	103.69
229.262	114.69
229.496	136.69
229.73	162.69
229.964	164.69
230.199	124.69
230.433	134.69
230.667	115.69
230.901	119.69
231.136	120.69
231.37	138.69
231.604	120.69
231.838	134.69
232.072	121.69
232.306	104.69
232.541	128.69
232.775	114.69
233.009	131.69
233.243	124.69
233.477	115.69
233.711	134.69
233.945	112.69
234.179	116.69
234.413	128.69
234.647	135.69
234.881	111.69
235.115	136.69
235.349	119.69
235.583	126.69
235.817	130.69
236.051	136.69
236.285	121.69
236.519	133.69
236.753	139.69
236.987	136.69
237.221	192.69
237.455	252.69
237.689	208.69
237.922	163.69
238.156	141.69
238.39	137.69
238.624	136.69
238.858	131.69
239.091	148.69
239.325	134.69
239.559	128.69
239.793	129.69
240.027	136.69
240.26	157.69
240.494	190.69
240.728	175.69
240.961	175.69
241.195	159.69
241.429	156.69
241.662	145.69
241.896	158.69
242.13	155.69
242.363	133.69
242.597	141.69
242.83	145.69
243.064	161.69
243.298	159.69
243.531	138.69
243.765	153.69
243.998	149.69
244.232	152.69
244.465	154.69
244.699	147.69
244.932	158.69
245.166	139.69
245.399	154.69
245.633	152.69
245.866	159.69
246.099	149.69
246.333	167.69
246.566	150.69
246.8	141.69
247.033	161.69
247.266	180.69
247.5	162.69
247.733	192.69
247.966	182.69
248.2	187.69
248.433	183.69
248.666	188.69
248.899	192.69
249.133	214.69
249.366	220.69
249.599	211.69
249.832	192.69
250.066	198.69
250.299	191.69
250.532	199.69
250.765	200.69
250.998	228.69
251.231	235.69
251.465	239.69
251.698	201.69
251.931	226.69
252.164	218.69
252.397	202.69
252.63	221.69
252.863	217.69
253.096	230.69
253.329	236.69
253.562	250.69
253.795	230.69
254.028	231.69
254.261	226.69
254.494	235.69
254.727	272.69
254.96	295.69
255.193	302.69
255.426	271.69
255.659	251.69
255.892	247.69
256.124	240.69
256.357	206.69
256.59	223.69
256.823	228.69
257.056	234.69
257.289	222.69
257.521	211.69
257.754	218.69
257.987	221.69
258.22	218.69
258.452	205.69
258.685	216.69
258.918	228.69
259.151	220.69
259.383	234.69
259.616	254.69
259.849	234.69
260.081	264.69
260.314	267.69
260.547	278.69
260.779	260.69
261.012	268.69
261.244	245.69
261.477	227.69
261.71	244.69
261.942	246.69
262.175	241.69
262.407	246.69
262.64	240.69
262.872	213.69
263.105	221.69
263.337	226.69
263.57	222.69
263.802	240.69
264.035	244.69
264.267	225.69
264.499	207.69
264.732	218.69
264.964	228.69
265.197	227.69
265.429	219.69
265.661	222.69
265.894	230.69
266.126	230.69
266.358	240.69
266.591	240.69
266.823	229.69
267.055	247.69
267.287	239.69
267.52	231.69
267.752	234.69
267.984	239.69
268.216	237.69
268.448	266.69
268.681	266.69
268.913	270.69
269.145	288.69
269.377	282.69
269.609	290.69
269.841	296.69
270.073	272.69
270.306	310.69
270.538	323.69
270.77	341.69
271.002	304.69
271.234	307.69
271.466	316.69
271.698	333.69
271.93	327.69
272.162	332.69
272.394	347.69
272.626	314.69
272.858	308.69
273.09	279.69
273.322	311.69
273.553	283.69
273.785	277.69
274.017	298.69
274.249	285.69
274.481	271.69
274.713	285.69
274.945	283.69
275.176	271.69
275.408	286.69
275.64	285.69
275.872	295.69
276.104	294.69
276.335	279.69
276.567	297.69
276.799	308.69
277.031	315.69
277.262	313.69
277.494	324.69
277.726	315.69
277.957	293.69
278.189	297.69
278.421	300.69
278.652	293.69
278.884	278.69
279.115	280.69
279.347	282.69
279.579	272.69
279.81	306.69
280.042	293.69
280.273	272.69
280.505	283.69
280.736	276.69
280.968	292.69
281.199	282.69
281.431	258.69
281.662	299.69
281.894	288.69
282.125	292.69
282.356	319.69
282.588	349.69
282.819	330.69
283.051	300.69
283.282	276.69
283.513	290.69
283.745	268.69
283.976	295.69
284.207	303.69
284.439	302.69
284.67	281.69
284.901	288.69
285.132	292.69
285.364	308.69
285.595	293.69
285.826	290.69
286.057	316.69
286.288	310.69
286.52	322.69
286.751	288.69
286.982	296.69
287.213	310.69
287.444	288.69
287.675	308.69
287.906	314.69
288.138	324.69
288.369	317.69
288.6	337.69
288.831	327.69
289.062	316.69
289.293	320.69
289.524	311.69
289.755	341.69
289.986	316.69
290.217	310.69
290.448	333.69
290.679	321.69
290.91	316.69
291.141	318.69
291.371	306.69
291.602	324.69
291.833	303.69
292.064	313.69
292.295	306.69
292.526	301.69
292.757	298.69
292.987	313.69
293.218	303.69
293.449	328.69
293.68	319.69
293.91	340.69
294.141	324.69
294.372	320.69
294.603	318.69
294.833	311.69
295.064	313.69
295.295	327.69
295.525	320.69
295.756	342.69
295.987	320.69
296.217	346.69
296.448	359.69
296.679	328.69
296.909	336.69
297.14	332.69
297.37	328.69
297.601	331.69
297.831	336.69
298.062	316.69
298.292	304.69
298.523	358.69
298.753	327.69
298.984	339.69
299.214	312.69
299.445	330.69
299.675	340.69
299.905	334.69
300.136	328.69
300.366	345.69
300.597	337.69
300.827	347.69
301.057	353.69
301.288	350.69
301.518	360.69
301.748	370.69
301.979	342.69
302.209	362.69
302.439	336.69
302.669	355.69
302.9	353.69
303.13	359.69
303.36	360.69
303.59	363.69
303.82	373.69
304.051	362.69
304.281	350.69
304.511	350.69
304.741	343.69
304.971	356.69
305.201	363.69
305.431	350.69
305.661	356.69
305.891	357.69
306.121	348.69
306.352	363.69
306.582	384.69
306.812	355.69
307.042	372.69
307.272	372.69
307.502	361.69
307.731	363.69
307.961	378.69
308.191	359.69
308.421	355.69
308.651	361.69
308.881	376.69
309.111	376.69
309.341	405.69
309.571	377.69
309.8	412.69
310.03	412.69
310.26	398.69
310.49	399.69
310.72	436.69
310.949	425.69
311.179	445.69
311.409	428.69
311.639	420.69
311.868	438.69
312.098	426.69
312.328	439.69
312.557	451.69
312.787	458.69
313.017	466.69
313.246	446.69
313.476	407.69
313.706	406.69
313.935	423.69
314.165	431.69
314.394	442.69
314.624	440.69
314.853	448.69
315.083	424.69
315.312	409.69
315.542	416.69
315.771	401.69
316.001	414.69
316.23	437.69
316.46	405.69
316.689	408.69
316.919	420.69
317.148	440.69
317.377	436.69
317.607	413.69
317.836	408.69
318.065	423.69
318.295	407.69
318.524	411.69
318.753	414.69
318.983	421.69
319.212	420.69
319.441	432.69
319.67	421.69
319.9	411.69
320.129	420.69
320.358	452.69
320.587	417.69
320.816	436.69
321.046	440.69
321.275	471.69
321.504	445.69
321.733	438.69
321.962	457.69
322.191	459.69
322.42	485.69
322.649	475.69
322.878	496.69
323.108	508.69
323.337	516.69
323.566	557.69
323.795	586.69
324.024	636.69
324.253	787.69
324.482	1092.69
324.71	1716.69
324.939	2596.69
325.168	2206.69
325.397	1120.69
325.626	731.69
325.855	640.69
326.084	586.69
326.313	568.69
326.542	586.69
326.77	631.69
326.999	709.69
327.228	982.69
327.457	1552.69
327.686	1954.69
327.914	1245.69
328.143	813.69
328.372	680.69
328.6	644.69
328.829	620.69
329.058	656.69
329.287	639.69
329.515	592.69
329.744	567.69
329.972	542.69
330.201	572.69
330.43	576.69
330.658	620.69
330.887	642.69
331.115	647.69
331.344	597.69
331.572	548.69
331.801	552.69
332.03	517.69
332.258	532.69
332.486	505.69
332.715	524.69
332.943	495.69
333.172	494.69
333.4	504.69
333.629	530.69
333.857	508.69
334.085	532.69
334.314	504.69
334.542	516.69
334.771	518.69
334.999	538.69
335.227	530.69
335.455	496.69
335.684	481.69
335.912	522.69
336.14	486.69
336.369	499.69
336.597	503.69
336.825	505.69
337.053	495.69
337.281	526.69
337.51	498.69
337.738	514.69
337.966	498.69
338.194	499.69
338.422	487.69
338.65	486.69
338.878	493.69
339.106	500.69
339.334	496.69
339.562	488.69
339.79	483.69
340.018	489.69
340.246	469.69
340.474	491.69
340.702	476.69
340.93	494.69
341.158	495.69
341.386	458.69
341.614	489.69
341.842	479.69
342.07	474.69
342.298	479.69
342.526	486.69
342.754	485.69
342.981	469.69
343.209	433.69
343.437	479.69
343.665	477.69
343.893	483.69
344.12	468.69
344.348	493.69
344.576	488.69
344.804	500.69
345.031	519.69
345.259	519.69
345.487	508.69
345.714	507.69
345.942	483.69
346.17	471.69
346.397	468.69
346.625	466.69
346.853	470.69
347.08	463.69
347.308	472.69
347.535	477.69
347.763	481.69
347.99	477.69
348.218	483.69
348.445	461.69
348.673	485.69
348.9	462.69
349.128	469.69
349.355	448.69
349.583	458.69
349.81	462.69
350.037	456.69
350.265	444.69
350.492	444.69
350.72	450.69
350.947	484.69
351.174	495.69
351.402	483.69
351.629	477.69
351.856	499.69
352.083	482.69
352.311	483.69
352.538	493.69
352.765	496.69
352.992	482.69
353.22	472.69
353.447	461.69
353.674	458.69
353.901	462.69
354.128	461.69
354.355	464.69
354.583	457.69
354.81	451.69
355.037	448.69
355.264	436.69
355.491	444.69
355.718	455.69
355.945	442.69
356.172	418.69
356.399	441.69
356.626	430.69
356.853	443.69
357.08	441.69
357.307	422.69
357.534	439.69
357.761	440.69
357.988	419.69
358.215	436.69
358.441	431.69
358.668	430.69
358.895	445.69
359.122	456.69
359.349	438.69
359.576	464.69
359.802	482.69
360.029	512.69
360.256	540.69
360.483	506.69
360.709	486.69
360.936	462.69
361.163	447.69
361.39	487.69
361.616	472.69
361.843	474.69
362.07	472.69
362.296	479.69
362.523	475.69
362.749	474.69
362.976	468.69
363.203	465.69
363.429	460.69
363.656	455.69
363.882	457.69
364.109	458.69
364.335	474.69
364.562	441.69
364.788	442.69
365.015	419.69
365.241	463.69
365.468	460.69
365.694	469.69
365.92	461.69
366.147	470.69
366.373	446.69
366.599	450.69
366.826	445.69
367.052	443.69
367.278	457.69
367.505	448.69
367.731	471.69
367.957	457.69
368.184	438.69
368.41	454.69
368.636	447.69
368.862	479.69
369.089	442.69
369.315	442.69
369.541	455.69
369.767	445.69
369.993	464.69
370.219	457.69
370.445	452.69
370.672	457.69
370.898	447.69
371.124	443.69
371.35	446.69
371.576	459.69
371.802	477.69
372.028	458.69
372.254	462.69
372.48	439.69
372.706	456.69
372.932	451.69
373.158	461.69
373.384	465.69
373.61	450.69
373.835	463.69
374.061	464.69
374.287	478.69
374.513	452.69
374.739	490.69
374.965	469.69
375.191	490.69
375.416	452.69
375.642	458.69
375.868	455.69
376.094	461.69
376.319	458.69
376.545	449.69
376.771	470.69
376.997	457.69
377.222	455.69
377.448	460.69
377.674	474.69
377.899	453.69
378.125	468.69
378.35	450.69
378.576	454.69
378.802	460.69
379.027	431.69
379.253	448.69
379.478	462.69
379.704	447.69
379.929	452.69
380.155	456.69
380.38	463.69
380.606	467.69
380.831	455.69
381.057	449.69
381.282	466.69
381.507	471.69
381.733	452.69
381.958	474.69
382.184	484.69
382.409	460.69
382.634	485.69
382.86	478.69
383.085	503.69
383.31	468.69
383.535	486.69
383.761	472.69
383.986	496.69
384.211	487.69
384.436	482.69
384.662	485.69
384.887	479.69
385.112	483.69
385.337	489.69
385.562	500.69
385.787	508.69
386.013	515.69
386.238	503.69
386.463	509.69
386.688	529.69
386.913	513.69
387.138	514.69
387.363	476.69
387.588	508.69
387.813	480.69
388.038	498.69
388.263	492.69
388.488	502.69
388.713	536.69
388.938	514.69
389.163	489.69
389.387	506.69
389.612	486.69
389.837	493.69
390.062	484.69
390.287	528.69
390.512	510.69
390.736	504.69
390.961	498.69
391.186	503.69
391.411	509.69
391.636	513.69
391.86	531.69
392.085	533.69
392.31	529.69
392.534	526.69
392.759	534.69
392.984	523.69
393.208	521.69
393.433	528.69
393.658	545.69
393.882	510.69
394.107	537.69
394.331	509.69
394.556	539.69
394.78	496.69
395.005	501.69
395.229	517.69
395.454	540.69
395.678	554.69
395.903	568.69
396.127	574.69
396.352	604.69
396.576	542.69
396.801	533.69
397.025	536.69
397.249	538.69
397.474	532.69
397.698	572.69
397.922	553.69
398.147	585.69
398.371	586.69
398.595	582.69
398.82	587.69
399.044	559.69
399.268	620.69
399.492	635.69
399.717	675.69
399.941	706.69
400.165	741.69
400.389	744.69
400.613	678.69
400.837	641.69
401.062	611.69
401.286	592.69
401.51	600.69
401.734	602.69
401.958	606.69
402.182	608.69
402.406	606.69
402.63	620.69
402.854	602.69
403.078	600.69
403.302	608.69
403.526	607.69
403.75	611.69
403.974	596.69
404.198	615.69
404.422	600.69
404.645	616.69
404.869	602.69
405.093	638.69
405.317	658.69
405.541	695.69
405.765	669.69
405.988	628.69
406.212	640.69
406.436	652.69
406.66	690.69
406.883	666.69
407.107	684.69
407.331	730.69
407.555	830.69
407.778	834.69
408.002	758.69
408.226	676.69
408.449	679.69
408.673	696.69
408.896	696.69
409.12	751.69
409.344	722.69
409.567	656.69
409.791	660.69
410.014	626.69
410.238	633.69
410.461	627.69
410.685	612.69
410.908	651.69
411.132	686.69
411.355	726.69
411.578	696.69
411.802	633.69
412.025	601.69
412.249	628.69
412.472	620.69
412.695	655.69
412.919	635.69
413.142	622.69
413.365	614.69
413.589	593.69
413.812	593.69
414.035	576.69
414.258	586.69
414.482	580.69
414.705	581.69
414.928	588.69
415.151	585.69
415.374	596.69
415.597	596.69
415.821	578.69
416.044	590.69
416.267	599.69
416.49	584.69
416.713	583.69
416.936	590.69
417.159	559.69
417.382	602.69
417.605	598.69
417.828	589.69
418.051	600.69
418.274	582.69
418.497	584.69
418.72	580.69
418.943	586.69
419.166	614.69
419.389	618.69
419.611	644.69
419.834	602.69
420.057	598.69
420.28	589.69
420.503	572.69
420.726	603.69
420.948	600.69
421.171	664.69
421.394	729.69
421.617	637.69
421.839	610.69
422.062	605.69
422.285	617.69
422.507	680.69
422.73	784.69
422.953	765.69
423.175	655.69
423.398	637.69
423.621	635.69
423.843	656.69
424.066	669.69
424.288	648.69
424.511	709.69
424.733	740.69
424.956	842.69
425.178	800.69
425.401	778.69
425.623	835.69
425.846	710.69
426.068	662.69
426.291	652.69
426.513	639.69
426.735	660.69
426.958	699.69
427.18	823.69
427.402	968.69
427.625	1056.69
427.847	923.69
428.069	776.69
428.292	700.69
428.514	660.69
428.736	623.69
428.958	628.69
429.181	598.69
429.403	604.69
429.625	617.69
429.847	628.69
430.069	743.69
430.292	700.69
430.514	636.69
430.736	612.69
430.958	608.69
431.18	587.69
431.402	589.69
431.624	561.69
431.846	574.69
432.068	582.69
432.29	594.69
432.512	600.69
432.734	571.69
432.956	607.69
433.178	597.69
433.4	600.69
433.622	592.69
433.844	584.69
434.066	569.69
434.287	584.69
434.509	602.69
434.731	610.69
434.953	586.69
435.175	635.69
435.397	644.69
435.618	634.69
435.84	708.69
436.062	806.69
436.284	885.69
436.505	748.69
436.727	657.69
436.949	598.69
437.17	621.69
437.392	629.69
437.614	625.69
437.835	668.69
438.057	786.69
438.278	886.69
438.5	898.69
438.721	980.69
438.943	943.69
439.165	741.69
439.386	701.69
439.608	685.69
439.829	661.69
440.05	663.69
440.272	757.69
440.493	691.69
440.715	632.69
440.936	634.69
441.158	618.69
441.379	616.69
441.6	620.69
441.822	656.69
442.043	709.69
442.264	793.69
442.486	846.69
442.707	713.69
442.928	693.69
443.149	690.69
443.371	719.69
443.592	748.69
443.813	871.69
444.034	941.69
444.255	778.69
444.476	678.69
444.698	666.69
444.919	692.69
445.14	806.69
445.361	745.69
445.582	715.69
445.803	782.69
446.024	903.69
446.245	928.69
446.466	832.69
446.687	724.69
446.908	669.69
447.129	657.69
447.35	615.69
447.571	603.69
447.792	581.69
448.013	590.69
448.234	634.69
448.455	683.69
448.675	845.69
448.896	971.69
449.117	815.69
449.338	771.69
449.559	898.69
449.779	997.69
450	815.69
450.221	662.69
450.442	634.69
450.662	591.69
450.883	613.69
451.104	615.69
451.324	604.69
451.545	588.69
451.766	568.69
451.986	558.69
452.207	531.69
452.428	536.69
452.648	547.69
452.869	536.69
453.089	553.69
453.31	560.69
453.53	573.69
453.751	552.69
453.971	557.69
454.192	571.69
454.412	574.69
454.633	545.69
454.853	541.69
455.073	522.69
455.294	580.69
455.514	648.69
455.734	644.69
455.955	550.69
456.175	556.69
456.395	528.69
456.616	528.69
456.836	528.69
457.056	530.69
457.276	495.69
457.497	493.69
457.717	520.69
457.937	522.69
458.157	525.69
458.377	531.69
458.598	562.69
458.818	618.69
459.038	717.69
459.258	744.69
459.478	664.69
459.698	595.69
459.918	592.69
460.138	590.69
460.358	583.69
460.578	590.69
460.798	602.69
461.018	600.69
461.238	583.69
461.458	576.69
461.678	570.69
461.898	585.69
462.118	593.69
462.338	633.69
462.558	605.69
462.777	615.69
462.997	648.69
463.217	642.69
463.437	655.69
463.657	636.69
463.876	639.69
464.096	659.69
464.316	612.69
464.536	646.69
464.755	637.69
464.975	624.69
465.195	664.69
465.414	740.69
465.634	669.69
465.854	620.69
466.073	603.69
466.293	596.69
466.512	581.69
466.732	572.69
466.951	563.69
467.171	567.69
467.391	563.69
467.61	565.69
467.829	579.69
468.049	575.69
468.268	568.69
468.488	525.69
468.707	532.69
468.927	545.69
469.146	539.69
469.365	568.69
469.585	555.69
469.804	550.69
470.023	572.69
470.243	562.69
470.462	551.69
470.681	581.69
470.901	598.69
471.12	582.69
471.339	554.69
471.558	563.69
471.777	555.69
471.997	575.69
472.216	580.69
472.435	551.69
472.654	578.69
472.873	559.69
473.092	550.69
473.311	535.69
473.53	571.69
473.749	575.69
473.968	607.69
474.187	722.69
474.406	761.69
474.625	624.69
474.844	597.69
475.063	574.69
475.282	570.69
475.501	574.69
475.72	589.69
475.939	614.69
476.158	580.69
476.377	604.69
476.596	577.69
476.814	600.69
477.033	593.69
477.252	589.69
477.471	602.69
477.69	616.69
477.908	618.69
478.127	631.69
478.346	635.69
478.564	643.69
478.783	648.69
479.002	654.69
479.22	653.69
479.439	670.69
479.658	680.69
479.876	694.69
480.095	687.69
480.313	728.69
480.532	715.69
480.751	697.69
480.969	691.69
481.188	729.69
481.406	722.69
481.624	718.69
481.843	676.69
482.061	673.69
482.28	663.69
482.498	685.69
482.717	671.69
482.935	668.69
483.153	663.69
483.372	672.69
483.59	653.69
483.808	651.69
484.027	676.69
484.245	668.69
484.463	682.69
484.681	676.69
484.9	660.69
485.118	682.69
485.336	670.69
485.554	691.69
485.772	693.69
485.99	692.69
486.209	707.69
486.427	694.69
486.645	679.69
486.863	727.69
487.081	707.69
487.299	730.69
487.517	710.69
487.735	731.69
487.953	716.69
488.171	714.69
488.389	707.69
488.607	725.69
488.825	734.69
489.043	697.69
489.261	744.69
489.479	717.69
489.696	738.69
489.914	726.69
490.132	731.69
490.35	744.69
490.568	762.69
490.786	737.69
491.003	782.69
491.221	768.69
491.439	792.69
491.657	774.69
491.874	823.69
492.092	812.69
492.31	830.69
492.527	824.69
492.745	805.69
492.963	802.69
493.18	811.69
493.398	847.69
493.615	831.69
493.833	834.69
494.05	848.69
494.268	880.69
494.485	834.69
494.703	831.69
494.92	840.69
495.138	852.69
495.355	839.69
495.573	876.69
495.79	857.69
496.008	876.69
496.225	839.69
496.442	855.69
496.66	847.69
496.877	831.69
497.094	864.69
497.312	875.69
497.529	880.69
497.746	902.69
497.963	904.69
498.181	926.69
498.398	929.69
498.615	975.69
498.832	980.69
499.049	983.69
499.267	1039.69
499.484	1039.69
499.701	1100.69
499.918	1088.69
500.135	1171.69
500.352	1214.69
500.569	1206.69
500.786	1230.69
501.003	1222.69
501.22	1181.69
501.437	1145.69
501.654	1079.69
501.871	1109.69
502.088	1046.69
502.305	1018.69
502.522	998.69
502.739	974.69
502.956	939.69
503.172	961.69
503.389	944.69
503.606	916.69
503.823	904.69
504.04	894.69
504.256	885.69
504.473	859.69
504.69	861.69
504.907	828.69
505.123	843.69
505.34	853.69
505.557	835.69
505.773	840.69
505.99	812.69
506.207	822.69
506.423	831.69
506.64	802.69
506.856	811.69
507.073	789.69
507.289	802.69
507.506	776.69
507.722	791.69
507.939	839.69
508.155	804.69
508.372	772.69
508.588	789.69
508.805	786.69
509.021	785.69
509.238	799.69
509.454	778.69
509.67	794.69
509.887	782.69
510.103	789.69
510.319	772.69
510.536	876.69
510.752	1403.69
510.968	1203.69
511.184	806.69
511.401	745.69
511.617	738.69
511.833	734.69
512.049	727.69
512.265	732.69
512.481	712.69
512.698	731.69
512.914	742.69
513.13	726.69
513.346	718.69
513.562	731.69
513.778	759.69
513.994	743.69
514.21	760.69
514.426	802.69
514.642	836.69
514.858	854.69
515.074	851.69
515.29	1019.69
515.506	1440.69
515.721	1269.69
515.937	893.69
516.153	828.69
516.369	822.69
516.585	783.69
516.801	781.69
517.016	780.69
517.232	759.69
517.448	779.69
517.664	772.69
517.879	784.69
518.095	788.69
518.311	755.69
518.527	756.69
518.742	785.69
518.958	766.69
519.173	751.69
519.389	744.69
519.605	760.69
519.82	754.69
520.036	763.69
520.251	809.69
520.467	806.69
520.682	804.69
520.898	791.69
521.113	843.69
521.329	860.69
521.544	950.69
521.76	1224.69
521.975	1862.69
522.19	1878.69
522.406	1063.69
522.621	854.69
522.836	781.69
523.052	740.69
523.267	719.69
523.482	712.69
523.698	670.69
523.913	655.69
524.128	662.69
524.343	690.69
524.559	672.69
524.774	656.69
524.989	657.69
525.204	675.69
525.419	643.69
525.634	657.69
525.849	616.69
526.064	639.69
526.28	627.69
526.495	633.69
526.71	629.69
526.925	620.69
527.14	605.69
527.355	617.69
527.57	588.69
527.785	592.69
527.999	606.69
528.214	590.69
528.429	582.69
528.644	600.69
528.859	602.69
529.074	597.69
529.289	629.69
529.503	718.69
529.718	713.69
529.933	648.69
530.148	619.69
530.363	616.69
530.577	612.69
530.792	597.69
531.007	590.69
531.221	605.69
531.436	609.69
531.651	610.69
531.865	587.69
532.08	590.69
532.295	572.69
532.509	585.69
532.724	579.69
532.938	577.69
533.153	569.69
533.367	582.69
533.582	584.69
533.796	595.69
534.011	575.69
534.225	580.69
534.44	575.69
534.654	566.69
534.868	556.69
535.083	574.69
535.297	583.69
535.511	588.69
535.726	593.69
535.94	589.69
536.154	587.69
536.369	595.69
536.583	550.69
536.797	563.69
537.011	568.69
537.225	576.69
537.44	594.69
537.654	540.69
537.868	584.69
538.082	529.69
538.296	555.69
538.51	573.69
538.724	566.69
538.938	559.69
539.153	532.69
539.367	558.69
539.581	581.69
539.795	559.69
540.009	556.69
540.222	540.69
540.436	578.69
540.65	564.69
540.864	567.69
541.078	546.69
541.292	562.69
541.506	562.69
541.72	543.69
541.934	550.69
542.147	552.69
542.361	545.69
542.575	548.69
542.789	559.69
543.002	537.69
543.216	558.69
543.43	551.69
543.644	559.69
543.857	550.69
544.071	540.69
544.285	540.69
544.498	531.69
544.712	555.69
544.925	539.69
545.139	540.69
545.352	523.69
545.566	503.69
545.779	539.69
545.993	544.69
546.206	543.69
546.42	535.69
546.633	537.69
546.847	543.69
547.06	529.69
547.274	529.69
547.487	529.69
547.7	543.69
547.914	535.69
548.127	507.69
548.34	525.69
548.554	525.69
548.767	530.69
548.98	543.69
549.193	516.69
549.407	496.69
549.62	532.69
549.833	529.69
550.046	503.69
550.259	524.69
550.473	525.69
550.686	518.69
550.899	501.69
551.112	527.69
551.325	509.69
551.538	529.69
551.751	514.69
551.964	498.69
552.177	511.69
552.39	520.69
552.603	516.69
552.816	526.69
553.029	518.69
553.242	530.69
553.455	525.69
553.667	540.69
553.88	521.69
554.093	532.69
554.306	550.69
554.519	532.69
554.732	516.69
554.944	527.69
555.157	499.69
555.37	490.69
555.583	500.69
555.795	513.69
556.008	488.69
556.221	501.69
556.433	468.69
556.646	501.69
556.859	478.69
557.071	470.69
557.284	475.69
557.496	486.69
557.709	477.69
557.921	471.69
558.134	473.69
558.346	469.69
558.559	446.69
558.771	471.69
558.984	476.69
559.196	459.69
559.409	466.69
559.621	461.69
559.833	456.69
560.046	458.69
560.258	466.69
560.47	470.69
560.683	472.69
560.895	461.69
561.107	448.69
561.32	471.69
561.532	471.69
561.744	474.69
561.956	460.69
562.168	498.69
562.381	470.69
562.593	461.69
562.805	456.69
563.017	464.69
563.229	465.69
563.441	471.69
563.653	466.69
563.865	465.69
564.077	466.69
564.289	494.69
564.501	495.69
564.713	488.69
564.925	507.69
565.137	500.69
565.349	508.69
565.561	519.69
565.773	508.69
565.985	527.69
566.197	526.69
566.408	541.69
566.62	542.69
566.832	578.69
567.044	575.69
567.255	597.69
567.467	600.69
567.679	600.69
567.891	587.69
568.102	585.69
568.314	593.69
568.526	575.69
568.737	560.69
568.949	544.69
569.161	508.69
569.372	484.69
569.584	506.69
569.795	473.69
570.007	484.69
570.218	520.69
570.43	528.69
570.641	471.69
570.853	450.69
571.064	462.69
571.276	454.69
571.487	426.69
571.698	437.69
571.91	439.69
572.121	438.69
572.333	435.69
572.544	421.69
572.755	423.69
572.966	398.69
573.178	414.69
573.389	412.69
573.6	420.69
573.811	410.69
574.023	414.69
574.234	408.69
574.445	409.69
574.656	386.69
574.867	408.69
575.078	398.69
575.289	395.69
575.501	406.69
575.712	390.69
575.923	403.69
576.134	386.69
576.345	386.69
576.556	403.69
576.767	380.69
576.978	389.69
577.188	397.69
577.399	400.69
577.61	379.69
577.821	373.69
578.032	392.69
578.243	429.69
578.454	667.69
578.665	516.69
578.875	406.69
579.086	382.69
579.297	390.69
579.508	387.69
579.718	391.69
579.929	386.69
580.14	392.69
580.35	364.69
580.561	382.69
580.772	373.69
580.982	358.69
581.193	363.69
581.403	371.69
581.614	359.69
581.825	360.69
582.035	334.69
582.246	358.69
582.456	363.69
582.667	382.69
582.877	383.69
583.087	361.69
583.298	352.69
583.508	366.69
583.719	367.69
583.929	363.69
584.139	354.69
584.35	352.69
584.56	352.69
584.77	352.69
584.981	359.69
585.191	363.69
585.401	321.69
585.611	353.69
585.821	353.69
586.032	350.69
586.242	353.69
586.452	339.69
586.662	368.69
586.872	334.69
587.082	345.69
587.292	354.69
587.502	348.69
587.713	344.69
587.923	336.69
588.133	366.69
588.343	358.69
588.553	366.69
588.762	359.69
588.972	342.69
589.182	346.69
589.392	338.69
589.602	324.69
589.812	362.69
590.022	340.69
590.232	336.69
590.441	375.69
590.651	350.69
590.861	342.69
591.071	356.69
591.281	361.69
591.49	345.69
591.7	370.69
591.91	378.69
592.119	367.69
592.329	355.69
592.539	359.69
592.748	354.69
592.958	376.69
593.167	363.69
593.377	362.69
593.587	382.69
593.796	374.69
594.006	382.69
594.215	376.69
594.424	359.69
594.634	358.69
594.843	378.69
595.053	363.69
595.262	354.69
595.472	340.69
595.681	339.69
595.89	325.69
596.1	356.69
596.309	335.69
596.518	324.69
596.727	330.69
596.937	354.69
597.146	327.69
597.355	330.69
597.564	318.69
597.774	312.69
597.983	300.69
598.192	318.69
598.401	313.69
598.61	297.69
598.819	308.69
599.028	306.69
599.237	341.69
599.446	319.69
599.655	300.69
599.864	314.69
600.073	310.69
600.282	313.69
600.491	309.69
600.7	311.69
600.909	306.69
601.118	296.69
601.327	303.69
601.536	284.69
601.745	296.69
601.953	310.69
602.162	306.69
602.371	302.69
602.58	314.69
602.789	287.69
602.997	311.69
603.206	303.69
603.415	286.69
603.623	297.69
603.832	303.69
604.041	291.69
604.249	294.69
604.458	294.69
604.666	291.69
604.875	292.69
605.084	298.69
605.292	286.69
605.501	278.69
605.709	279.69
605.918	285.69
606.126	280.69
606.334	277.69
606.543	286.69
606.751	285.69
606.96	269.69
607.168	298.69
607.376	285.69
607.585	286.69
607.793	266.69
608.001	310.69
608.21	272.69
608.418	290.69
608.626	285.69
608.834	273.69
609.043	271.69
609.251	281.69
609.459	300.69
609.667	286.69
609.875	278.69
610.083	263.69
610.291	287.69
610.499	274.69
610.707	281.69
610.916	277.69
611.124	288.69
611.332	273.69
611.54	279.69
611.748	293.69
611.955	269.69
612.163	294.69
612.371	269.69
612.579	278.69
612.787	262.69
612.995	285.69
613.203	263.69
613.411	264.69
613.618	283.69
613.826	280.69
614.034	277.69
614.242	274.69
614.449	283.69
614.657	262.69
614.865	268.69
615.072	254.69
615.28	266.69
615.488	266.69
615.695	285.69
615.903	262.69
616.111	260.69
616.318	272.69
616.526	267.69
616.733	284.69
616.941	267.69
617.148	257.69
617.356	263.69
617.563	263.69
617.771	264.69
617.978	261.69
618.185	261.69
618.393	261.69
618.6	266.69
618.807	273.69
619.015	264.69
619.222	252.69
619.429	246.69
619.637	247.69
619.844	259.69
620.051	263.69
620.258	253.69
620.466	266.69
620.673	260.69
620.88	251.69
621.087	245.69
621.294	267.69
621.501	254.69
621.708	246.69
621.915	260.69
622.122	258.69
622.329	269.69
622.536	244.69
622.743	250.69
622.95	260.69
623.157	242.69
623.364	253.69
623.571	245.69
623.778	245.69
623.985	258.69
624.192	247.69
624.399	237.69
624.606	246.69
624.812	239.69
625.019	245.69
625.226	228.69
625.433	240.69
625.639	223.69
625.846	228.69
626.053	232.69
626.259	224.69
626.466	222.69
626.673	238.69
626.879	239.69
627.086	241.69
627.293	228.69
627.499	243.69
627.706	242.69
627.912	212.69
628.119	242.69
628.325	230.69
628.532	231.69
628.738	228.69
628.945	203.69
629.151	210.69
629.357	214.69
629.564	206.69
629.77	220.69
629.976	221.69
630.183	220.69
630.389	218.69
630.595	223.69
630.802	216.69
631.008	210.69
631.214	216.69
631.42	219.69
631.627	206.69
631.833	225.69
632.039	218.69
632.245	229.69
632.451	229.69
632.657	202.69
632.863	204.69
633.069	198.69
633.275	203.69
633.481	207.69
633.688	212.69
633.893	210.69
634.099	202.69
634.305	211.69
634.511	194.69
634.717	215.69
634.923	206.69
635.129	190.69
635.335	201.69
635.541	208.69
635.747	222.69
635.952	208.69
636.158	210.69
636.364	214.69
636.57	198.69
636.775	192.69
636.981	210.69
637.187	221.69
637.392	205.69
637.598	207.69
637.804	214.69
638.009	202.69
638.215	206.69
638.421	205.69
638.626	196.69
638.832	204.69
639.037	192.69
639.243	172.69
639.448	192.69
639.654	193.69
639.859	184.69
640.065	196.69
640.27	196.69
640.475	192.69
640.681	194.69
640.886	193.69
641.091	181.69
641.297	197.69
641.502	191.69
641.707	203.69
641.913	195.69
642.118	185.69
642.323	187.69
642.528	203.69
642.733	190.69
642.939	188.69
643.144	184.69
643.349	191.69
643.554	193.69
643.759	192.69
643.964	188.69
644.169	185.69
644.374	184.69
644.579	189.69
644.784	191.69
644.989	181.69
645.194	182.69
645.399	180.69
645.604	186.69
645.809	190.69
646.014	184.69
646.219	192.69
646.423	173.69
646.628	173.69
646.833	187.69
647.038	184.69
647.243	182.69
647.447	181.69
647.652	170.69
647.857	190.69
648.062	182.69
648.266	181.69
648.471	196.69
648.676	193.69
648.88	188.69
649.085	173.69
649.289	195.69
649.494	194.69
649.698	202.69
649.903	209.69
650.107	170.69
650.312	186.69
650.516	173.69
650.721	176.69
650.925	168.69
651.13	166.69
651.334	178.69
651.539	169.69
651.743	158.69
651.947	164.69
652.152	169.69
652.356	159.69
652.56	156.69
652.764	152.69
652.969	160.69
653.173	149.69
653.377	144.69
653.581	138.69
653.785	153.69
653.99	148.69
654.194	151.69
654.398	154.69
654.602	151.69
654.806	143.69
655.01	145.69
655.214	153.69
655.418	146.69
655.622	154.69
655.826	140.69
656.03	148.69
656.234	153.69
656.438	151.69
656.642	154.69
656.846	126.69
657.049	144.69
657.253	130.69
657.457	130.69
657.661	131.69
657.865	112.69
658.068	126.69
658.272	111.69
658.476	107.69
658.68	117.69
658.883	111.69
659.087	111.69
659.291	107.69
659.494	109.69
659.698	96.69
659.901	114.69
660.105	115.69
660.309	109.69
660.512	101.69
660.716	91.69
660.919	92.69
661.123	104.69
661.326	96.69
661.53	90.69
661.733	85.69
661.936	83.69
662.14	76.69
662.343	80.69
662.546	87.69
662.75	94.69
662.953	82.69
663.156	84.69
663.36	85.69
663.563	70.69
663.766	78.69
663.969	87.69
664.173	90.69
664.376	76.69
664.579	85.69
664.782	87.69
664.985	84.69
665.188	86.69
665.391	81.69
665.594	87.69
665.797	89.69
666	73.69
666.203	89.69
666.406	92.69
666.609	93.69
666.812	92.69
667.015	86.69
667.218	84.69
667.421	96.69
667.624	93.69
667.827	69.69
668.03	93.69
668.232	85.69
668.435	84.69
668.638	84.69
668.841	85.69
669.043	83.69
669.246	78.69
669.449	86.69
669.651	93.69
669.854	84.69
670.057	98.69
670.259	84.69
670.462	75.69
670.665	90.69
670.867	74.69
671.07	88.69
671.272	84.69
671.475	99.69
671.677	86.69
671.88	93.69
672.082	85.69
672.284	91.69
672.487	90.69
672.689	95.69
672.892	89.69
