Data from 1988.PennyLincolnUp.Lamp.En5.5.200Scan.071819.P2_HRD10591_17-19-53-971.txt Node
Date: Thu Jul 18 17:19:53 EDT 2019
User: cochatt
Spectrometer: HR+D1059
Trigger mode: 1
Integration Time (sec): 1.000000E-1
Scans to average: 1
Electric dark correction enabled: true
Nonlinearity correction enabled: false
Boxcar width: 0
XAxis mode: Wavelengths
Number of Pixels in Spectrum: 2048
>>>>>Begin Spectral Data<<<<<
223.165	-1.94
223.4	-1.94
223.635	-1.94
223.869	-28.94
224.104	-1.94
224.338	-20.94
224.573	-16.94
224.808	-13.94
225.042	3.06
225.277	-8.94
225.511	-3.94
225.746	11.06
225.98	3.06
226.215	10.06
226.449	9.06
226.683	9.06
226.918	25.06
227.152	27.06
227.387	29.06
227.621	35.06
227.856	41.06
228.09	53.06
228.324	57.06
228.559	58.06
228.793	61.06
229.027	104.06
229.262	109.06
229.496	112.06
229.73	141.06
229.964	179.06
230.199	140.06
230.433	124.06
230.667	115.06
230.901	128.06
231.136	118.06
231.37	118.06
231.604	132.06
231.838	119.06
232.072	118.06
232.306	137.06
232.541	104.06
232.775	120.06
233.009	121.06
233.243	128.06
233.477	113.06
233.711	125.06
233.945	124.06
234.179	137.06
234.413	113.06
234.647	109.06
234.881	109.06
235.115	127.06
235.349	142.06
235.583	123.06
235.817	120.06
236.051	141.06
236.285	125.06
236.519	141.06
236.753	141.06
236.987	153.06
237.221	213.06
237.455	252.06
237.689	199.06
237.922	155.06
238.156	155.06
238.39	133.06
238.624	142.06
238.858	141.06
239.091	143.06
239.325	128.06
239.559	142.06
239.793	149.06
240.027	141.06
240.26	153.06
240.494	159.06
240.728	167.06
240.961	155.06
241.195	171.06
241.429	146.06
241.662	148.06
241.896	163.06
242.13	157.06
242.363	144.06
242.597	144.06
242.83	139.06
243.064	152.06
243.298	153.06
243.531	153.06
243.765	154.06
243.998	160.06
244.232	149.06
244.465	165.06
244.699	151.06
244.932	157.06
245.166	173.06
245.399	166.06
245.633	151.06
245.866	141.06
246.099	153.06
246.333	152.06
246.566	163.06
246.8	169.06
247.033	175.06
247.266	166.06
247.5	179.06
247.733	184.06
247.966	186.06
248.2	185.06
248.433	192.06
248.666	184.06
248.899	200.06
249.133	207.06
249.366	209.06
249.599	214.06
249.832	187.06
250.066	194.06
250.299	185.06
250.532	204.06
250.765	210.06
250.998	227.06
251.231	229.06
251.465	240.06
251.698	228.06
251.931	215.06
252.164	196.06
252.397	202.06
252.63	201.06
252.863	231.06
253.096	223.06
253.329	258.06
253.562	254.06
253.795	255.06
254.028	230.06
254.261	229.06
254.494	254.06
254.727	278.06
254.96	291.06
255.193	289.06
255.426	272.06
255.659	256.06
255.892	271.06
256.124	233.06
256.357	230.06
256.59	231.06
256.823	214.06
257.056	227.06
257.289	209.06
257.521	226.06
257.754	245.06
257.987	221.06
258.22	214.06
258.452	231.06
258.685	216.06
258.918	204.06
259.151	235.06
259.383	233.06
259.616	244.06
259.849	263.06
260.081	257.06
260.314	278.06
260.547	279.06
260.779	271.06
261.012	254.06
261.244	270.06
261.477	243.06
261.71	225.06
261.942	246.06
262.175	261.06
262.407	255.06
262.64	233.06
262.872	251.06
263.105	259.06
263.337	239.06
263.57	231.06
263.802	240.06
264.035	232.06
264.267	221.06
264.499	215.06
264.732	220.06
264.964	243.06
265.197	228.06
265.429	236.06
265.661	253.06
265.894	237.06
266.126	232.06
266.358	251.06
266.591	238.06
266.823	231.06
267.055	243.06
267.287	248.06
267.52	246.06
267.752	254.06
267.984	248.06
268.216	252.06
268.448	234.06
268.681	250.06
268.913	272.06
269.145	296.06
269.377	307.06
269.609	291.06
269.841	280.06
270.073	290.06
270.306	310.06
270.538	356.06
270.77	334.06
271.002	313.06
271.234	319.06
271.466	318.06
271.698	325.06
271.93	328.06
272.162	345.06
272.394	334.06
272.626	328.06
272.858	303.06
273.09	312.06
273.322	277.06
273.553	294.06
273.785	286.06
274.017	292.06
274.249	297.06
274.481	280.06
274.713	284.06
274.945	307.06
275.176	285.06
275.408	279.06
275.64	283.06
275.872	287.06
276.104	295.06
276.335	294.06
276.567	298.06
276.799	297.06
277.031	335.06
277.262	332.06
277.494	346.06
277.726	318.06
277.957	338.06
278.189	308.06
278.421	297.06
278.652	303.06
278.884	294.06
279.115	302.06
279.347	287.06
279.579	280.06
279.81	300.06
280.042	285.06
280.273	294.06
280.505	293.06
280.736	290.06
280.968	277.06
281.199	298.06
281.431	294.06
281.662	281.06
281.894	297.06
282.125	285.06
282.356	292.06
282.588	346.06
282.819	336.06
283.051	304.06
283.282	284.06
283.513	308.06
283.745	319.06
283.976	301.06
284.207	303.06
284.439	301.06
284.67	299.06
284.901	311.06
285.132	287.06
285.364	310.06
285.595	294.06
285.826	317.06
286.057	307.06
286.288	305.06
286.52	314.06
286.751	301.06
286.982	313.06
287.213	310.06
287.444	308.06
287.675	312.06
287.906	344.06
288.138	312.06
288.369	335.06
288.6	343.06
288.831	321.06
289.062	328.06
289.293	323.06
289.524	328.06
289.755	336.06
289.986	341.06
290.217	327.06
290.448	303.06
290.679	317.06
290.91	310.06
291.141	313.06
291.371	329.06
291.602	319.06
291.833	329.06
292.064	323.06
292.295	316.06
292.526	332.06
292.757	320.06
292.987	331.06
293.218	330.06
293.449	313.06
293.68	323.06
293.91	320.06
294.141	313.06
294.372	329.06
294.603	318.06
294.833	334.06
295.064	319.06
295.295	340.06
295.525	325.06
295.756	337.06
295.987	327.06
296.217	348.06
296.448	355.06
296.679	333.06
296.909	330.06
297.14	343.06
297.37	318.06
297.601	339.06
297.831	333.06
298.062	346.06
298.292	349.06
298.523	335.06
298.753	343.06
298.984	332.06
299.214	348.06
299.445	342.06
299.675	360.06
299.905	351.06
300.136	364.06
300.366	344.06
300.597	362.06
300.827	344.06
301.057	357.06
301.288	375.06
301.518	351.06
301.748	357.06
301.979	382.06
302.209	374.06
302.439	360.06
302.669	355.06
302.9	371.06
303.13	355.06
303.36	330.06
303.59	367.06
303.82	360.06
304.051	366.06
304.281	358.06
304.511	356.06
304.741	363.06
304.971	348.06
305.201	356.06
305.431	366.06
305.661	364.06
305.891	365.06
306.121	353.06
306.352	383.06
306.582	386.06
306.812	379.06
307.042	356.06
307.272	373.06
307.502	375.06
307.731	379.06
307.961	349.06
308.191	365.06
308.421	386.06
308.651	381.06
308.881	387.06
309.111	386.06
309.341	385.06
309.571	387.06
309.8	401.06
310.03	394.06
310.26	421.06
310.49	407.06
310.72	427.06
310.949	425.06
311.179	431.06
311.409	414.06
311.639	416.06
311.868	398.06
312.098	430.06
312.328	432.06
312.557	455.06
312.787	463.06
313.017	455.06
313.246	452.06
313.476	429.06
313.706	428.06
313.935	425.06
314.165	446.06
314.394	423.06
314.624	449.06
314.853	428.06
315.083	412.06
315.312	408.06
315.542	415.06
315.771	430.06
316.001	419.06
316.23	403.06
316.46	416.06
316.689	445.06
316.919	425.06
317.148	437.06
317.377	429.06
317.607	419.06
317.836	430.06
318.065	421.06
318.295	431.06
318.524	423.06
318.753	414.06
318.983	430.06
319.212	427.06
319.441	437.06
319.67	414.06
319.9	419.06
320.129	441.06
320.358	425.06
320.587	437.06
320.816	426.06
321.046	463.06
321.275	434.06
321.504	439.06
321.733	460.06
321.962	465.06
322.191	460.06
322.42	483.06
322.649	501.06
322.878	493.06
323.108	509.06
323.337	532.06
323.566	544.06
323.795	595.06
324.024	642.06
324.253	771.06
324.482	1100.06
324.71	1696.06
324.939	2522.06
325.168	2187.06
325.397	1093.06
325.626	756.06
325.855	634.06
326.084	573.06
326.313	597.06
326.542	561.06
326.77	629.06
326.999	740.06
327.228	990.06
327.457	1545.06
327.686	1887.06
327.914	1228.06
328.143	807.06
328.372	701.06
328.6	661.06
328.829	651.06
329.058	642.06
329.287	646.06
329.515	615.06
329.744	569.06
329.972	542.06
330.201	564.06
330.43	590.06
330.658	613.06
330.887	649.06
331.115	662.06
331.344	583.06
331.572	544.06
331.801	558.06
332.03	544.06
332.258	548.06
332.486	516.06
332.715	501.06
332.943	523.06
333.172	516.06
333.4	520.06
333.629	529.06
333.857	544.06
334.085	529.06
334.314	553.06
334.542	537.06
334.771	544.06
334.999	529.06
335.227	530.06
335.455	514.06
335.684	501.06
335.912	518.06
336.14	504.06
336.369	484.06
336.597	541.06
336.825	518.06
337.053	520.06
337.281	499.06
337.51	496.06
337.738	481.06
337.966	512.06
338.194	505.06
338.422	523.06
338.65	518.06
338.878	499.06
339.106	483.06
339.334	485.06
339.562	480.06
339.79	467.06
340.018	498.06
340.246	488.06
340.474	489.06
340.702	500.06
340.93	479.06
341.158	509.06
341.386	477.06
341.614	508.06
341.842	474.06
342.07	483.06
342.298	466.06
342.526	478.06
342.754	472.06
342.981	469.06
343.209	460.06
343.437	465.06
343.665	463.06
343.893	492.06
344.12	499.06
344.348	501.06
344.576	520.06
344.804	510.06
345.031	508.06
345.259	512.06
345.487	505.06
345.714	517.06
345.942	482.06
346.17	485.06
346.397	484.06
346.625	477.06
346.853	500.06
347.08	481.06
347.308	505.06
347.535	471.06
347.763	485.06
347.99	476.06
348.218	483.06
348.445	480.06
348.673	489.06
348.9	465.06
349.128	459.06
349.355	471.06
349.583	475.06
349.81	469.06
350.037	435.06
350.265	456.06
350.492	475.06
350.72	462.06
350.947	475.06
351.174	485.06
351.402	473.06
351.629	477.06
351.856	464.06
352.083	479.06
352.311	469.06
352.538	491.06
352.765	500.06
352.992	491.06
353.22	471.06
353.447	487.06
353.674	478.06
353.901	452.06
354.128	438.06
354.355	448.06
354.583	455.06
354.81	455.06
355.037	459.06
355.264	431.06
355.491	425.06
355.718	448.06
355.945	451.06
356.172	445.06
356.399	432.06
356.626	425.06
356.853	435.06
357.08	435.06
357.307	444.06
357.534	468.06
357.761	437.06
357.988	459.06
358.215	447.06
358.441	437.06
358.668	457.06
358.895	439.06
359.122	419.06
359.349	463.06
359.576	485.06
359.802	492.06
360.029	519.06
360.256	548.06
360.483	499.06
360.709	492.06
360.936	500.06
361.163	482.06
361.39	489.06
361.616	490.06
361.843	460.06
362.07	469.06
362.296	463.06
362.523	476.06
362.749	496.06
362.976	464.06
363.203	467.06
363.429	460.06
363.656	454.06
363.882	473.06
364.109	496.06
364.335	454.06
364.562	457.06
364.788	469.06
365.015	463.06
365.241	479.06
365.468	480.06
365.694	470.06
365.92	500.06
366.147	450.06
366.373	457.06
366.599	466.06
366.826	463.06
367.052	461.06
367.278	468.06
367.505	461.06
367.731	457.06
367.957	456.06
368.184	457.06
368.41	472.06
368.636	477.06
368.862	484.06
369.089	450.06
369.315	485.06
369.541	453.06
369.767	480.06
369.993	466.06
370.219	457.06
370.445	445.06
370.672	442.06
370.898	446.06
371.124	486.06
371.35	472.06
371.576	458.06
371.802	472.06
372.028	457.06
372.254	456.06
372.48	436.06
372.706	462.06
372.932	461.06
373.158	483.06
373.384	469.06
373.61	482.06
373.835	477.06
374.061	469.06
374.287	470.06
374.513	480.06
374.739	468.06
374.965	464.06
375.191	476.06
375.416	475.06
375.642	467.06
375.868	466.06
376.094	485.06
376.319	461.06
376.545	461.06
376.771	460.06
376.997	461.06
377.222	459.06
377.448	464.06
377.674	443.06
377.899	456.06
378.125	472.06
378.35	478.06
378.576	454.06
378.802	450.06
379.027	456.06
379.253	465.06
379.478	448.06
379.704	454.06
379.929	477.06
380.155	457.06
380.38	475.06
380.606	472.06
380.831	458.06
381.057	491.06
381.282	477.06
381.507	467.06
381.733	469.06
381.958	495.06
382.184	464.06
382.409	465.06
382.634	474.06
382.86	464.06
383.085	494.06
383.31	470.06
383.535	473.06
383.761	473.06
383.986	494.06
384.211	483.06
384.436	514.06
384.662	495.06
384.887	527.06
385.112	509.06
385.337	516.06
385.562	508.06
385.787	519.06
386.013	523.06
386.238	526.06
386.463	533.06
386.688	523.06
386.913	523.06
387.138	503.06
387.363	512.06
387.588	516.06
387.813	524.06
388.038	495.06
388.263	490.06
388.488	524.06
388.713	508.06
388.938	520.06
389.163	531.06
389.387	544.06
389.612	499.06
389.837	506.06
390.062	536.06
390.287	511.06
390.512	501.06
390.736	526.06
390.961	522.06
391.186	518.06
391.411	524.06
391.636	517.06
391.86	539.06
392.085	521.06
392.31	533.06
392.534	534.06
392.759	541.06
392.984	532.06
393.208	533.06
393.433	505.06
393.658	524.06
393.882	538.06
394.107	527.06
394.331	535.06
394.556	509.06
394.78	509.06
395.005	543.06
395.229	541.06
395.454	535.06
395.678	558.06
395.903	565.06
396.127	609.06
396.352	581.06
396.576	552.06
396.801	536.06
397.025	548.06
397.249	559.06
397.474	551.06
397.698	573.06
397.922	587.06
398.147	604.06
398.371	595.06
398.595	597.06
398.82	597.06
399.044	600.06
399.268	609.06
399.492	675.06
399.717	717.06
399.941	728.06
400.165	769.06
400.389	768.06
400.613	669.06
400.837	643.06
401.062	617.06
401.286	613.06
401.51	616.06
401.734	606.06
401.958	601.06
402.182	583.06
402.406	612.06
402.63	636.06
402.854	635.06
403.078	609.06
403.302	635.06
403.526	606.06
403.75	610.06
403.974	644.06
404.198	620.06
404.422	615.06
404.645	628.06
404.869	633.06
405.093	655.06
405.317	660.06
405.541	689.06
405.765	667.06
405.988	659.06
406.212	650.06
406.436	676.06
406.66	750.06
406.883	700.06
407.107	687.06
407.331	743.06
407.555	840.06
407.778	839.06
408.002	768.06
408.226	705.06
408.449	708.06
408.673	712.06
408.896	704.06
409.12	755.06
409.344	742.06
409.567	671.06
409.791	641.06
410.014	644.06
410.238	616.06
410.461	621.06
410.685	639.06
410.908	647.06
411.132	704.06
411.355	701.06
411.578	688.06
411.802	637.06
412.025	645.06
412.249	588.06
412.472	623.06
412.695	627.06
412.919	616.06
413.142	606.06
413.365	595.06
413.589	622.06
413.812	597.06
414.035	592.06
414.258	592.06
414.482	586.06
414.705	598.06
414.928	573.06
415.151	590.06
415.374	589.06
415.597	565.06
415.821	581.06
416.044	583.06
416.267	596.06
416.49	585.06
416.713	582.06
416.936	604.06
417.159	585.06
417.382	595.06
417.605	589.06
417.828	606.06
418.051	614.06
418.274	611.06
418.497	614.06
418.72	580.06
418.943	561.06
419.166	618.06
419.389	612.06
419.611	639.06
419.834	619.06
420.057	623.06
420.28	640.06
420.503	604.06
420.726	609.06
420.948	626.06
421.171	693.06
421.394	740.06
421.617	642.06
421.839	628.06
422.062	622.06
422.285	648.06
422.507	683.06
422.73	791.06
422.953	765.06
423.175	667.06
423.398	637.06
423.621	637.06
423.843	684.06
424.066	672.06
424.288	672.06
424.511	687.06
424.733	741.06
424.956	863.06
425.178	841.06
425.401	815.06
425.623	825.06
425.846	740.06
426.068	658.06
426.291	662.06
426.513	667.06
426.735	696.06
426.958	716.06
427.18	810.06
427.402	967.06
427.625	1079.06
427.847	932.06
428.069	793.06
428.292	714.06
428.514	669.06
428.736	633.06
428.958	618.06
429.181	604.06
429.403	621.06
429.625	629.06
429.847	664.06
430.069	730.06
430.292	744.06
430.514	639.06
430.736	614.06
430.958	593.06
431.18	600.06
431.402	580.06
431.624	593.06
431.846	589.06
432.068	603.06
432.29	606.06
432.512	583.06
432.734	606.06
432.956	590.06
433.178	598.06
433.4	615.06
433.622	589.06
433.844	593.06
434.066	588.06
434.287	586.06
434.509	588.06
434.731	613.06
434.953	627.06
435.175	638.06
435.397	639.06
435.618	679.06
435.84	726.06
436.062	832.06
436.284	895.06
436.505	771.06
436.727	693.06
436.949	638.06
437.17	613.06
437.392	629.06
437.614	622.06
437.835	667.06
438.057	806.06
438.278	895.06
438.5	884.06
438.721	981.06
438.943	943.06
439.165	768.06
439.386	679.06
439.608	691.06
439.829	672.06
440.05	728.06
440.272	749.06
440.493	710.06
440.715	657.06
440.936	633.06
441.158	648.06
441.379	627.06
441.6	634.06
441.822	679.06
442.043	712.06
442.264	828.06
442.486	887.06
442.707	737.06
442.928	688.06
443.149	704.06
443.371	729.06
443.592	746.06
443.813	904.06
444.034	949.06
444.255	800.06
444.476	717.06
444.698	677.06
444.919	685.06
445.14	784.06
445.361	742.06
445.582	735.06
445.803	808.06
446.024	920.06
446.245	911.06
446.466	852.06
446.687	719.06
446.908	676.06
447.129	638.06
447.35	632.06
447.571	621.06
447.792	615.06
448.013	625.06
448.234	637.06
448.455	668.06
448.675	824.06
448.896	1010.06
449.117	805.06
449.338	771.06
449.559	903.06
449.779	1037.06
450	821.06
450.221	663.06
450.442	640.06
450.662	633.06
450.883	617.06
451.104	639.06
451.324	608.06
451.545	579.06
451.766	571.06
451.986	568.06
452.207	544.06
452.428	560.06
452.648	557.06
452.869	558.06
453.089	566.06
453.31	568.06
453.53	561.06
453.751	549.06
453.971	556.06
454.192	571.06
454.412	585.06
454.633	563.06
454.853	550.06
455.073	557.06
455.294	579.06
455.514	651.06
455.734	624.06
455.955	566.06
456.175	535.06
456.395	508.06
456.616	517.06
456.836	520.06
457.056	536.06
457.276	513.06
457.497	538.06
457.717	528.06
457.937	547.06
458.157	531.06
458.377	557.06
458.598	567.06
458.818	631.06
459.038	720.06
459.258	761.06
459.478	646.06
459.698	594.06
459.918	583.06
460.138	591.06
460.358	608.06
460.578	587.06
460.798	614.06
461.018	595.06
461.238	598.06
461.458	600.06
461.678	587.06
461.898	588.06
462.118	617.06
462.338	627.06
462.558	624.06
462.777	633.06
462.997	639.06
463.217	667.06
463.437	671.06
463.657	642.06
463.876	648.06
464.096	666.06
464.316	624.06
464.536	661.06
464.755	657.06
464.975	646.06
465.195	725.06
465.414	745.06
465.634	662.06
465.854	634.06
466.073	616.06
466.293	598.06
466.512	588.06
466.732	566.06
466.951	560.06
467.171	578.06
467.391	573.06
467.61	594.06
467.829	614.06
468.049	588.06
468.268	568.06
468.488	564.06
468.707	542.06
468.927	541.06
469.146	557.06
469.365	549.06
469.585	550.06
469.804	579.06
470.023	575.06
470.243	569.06
470.462	553.06
470.681	617.06
470.901	615.06
471.12	584.06
471.339	563.06
471.558	600.06
471.777	559.06
471.997	571.06
472.216	578.06
472.435	583.06
472.654	552.06
472.873	551.06
473.092	544.06
473.311	550.06
473.53	568.06
473.749	567.06
473.968	632.06
474.187	751.06
474.406	759.06
474.625	641.06
474.844	608.06
475.063	581.06
475.282	583.06
475.501	611.06
475.72	581.06
475.939	587.06
476.158	597.06
476.377	583.06
476.596	604.06
476.814	612.06
477.033	589.06
477.252	629.06
477.471	624.06
477.69	608.06
477.908	639.06
478.127	605.06
478.346	640.06
478.564	637.06
478.783	647.06
479.002	642.06
479.22	655.06
479.439	682.06
479.658	685.06
479.876	700.06
480.095	698.06
480.313	741.06
480.532	687.06
480.751	696.06
480.969	718.06
481.188	744.06
481.406	728.06
481.624	698.06
481.843	683.06
482.061	678.06
482.28	647.06
482.498	674.06
482.717	676.06
482.935	685.06
483.153	667.06
483.372	700.06
483.59	675.06
483.808	680.06
484.027	676.06
484.245	680.06
484.463	652.06
484.681	697.06
484.9	705.06
485.118	680.06
485.336	711.06
485.554	694.06
485.772	697.06
485.99	705.06
486.209	688.06
486.427	711.06
486.645	721.06
486.863	734.06
487.081	740.06
487.299	742.06
487.517	752.06
487.735	729.06
487.953	739.06
488.171	716.06
488.389	712.06
488.607	731.06
488.825	718.06
489.043	729.06
489.261	735.06
489.479	748.06
489.696	726.06
489.914	739.06
490.132	736.06
490.35	744.06
490.568	761.06
490.786	769.06
491.003	744.06
491.221	821.06
491.439	802.06
491.657	837.06
491.874	822.06
492.092	830.06
492.31	815.06
492.527	844.06
492.745	821.06
492.963	836.06
493.18	838.06
493.398	842.06
493.615	859.06
493.833	857.06
494.05	855.06
494.268	839.06
494.485	864.06
494.703	861.06
494.92	845.06
495.138	835.06
495.355	835.06
495.573	860.06
495.79	847.06
496.008	867.06
496.225	860.06
496.442	869.06
496.66	887.06
496.877	865.06
497.094	898.06
497.312	880.06
497.529	880.06
497.746	896.06
497.963	947.06
498.181	937.06
498.398	972.06
498.615	971.06
498.832	968.06
499.049	1021.06
499.267	1046.06
499.484	1051.06
499.701	1107.06
499.918	1105.06
500.135	1222.06
500.352	1241.06
500.569	1240.06
500.786	1244.06
501.003	1213.06
501.22	1215.06
501.437	1179.06
501.654	1149.06
501.871	1098.06
502.088	1085.06
502.305	1040.06
502.522	1003.06
502.739	974.06
502.956	955.06
503.172	924.06
503.389	955.06
503.606	924.06
503.823	904.06
504.04	906.06
504.256	887.06
504.473	883.06
504.69	874.06
504.907	895.06
505.123	881.06
505.34	891.06
505.557	876.06
505.773	863.06
505.99	839.06
506.207	849.06
506.423	825.06
506.64	807.06
506.856	834.06
507.073	794.06
507.289	790.06
507.506	804.06
507.722	796.06
507.939	821.06
508.155	792.06
508.372	814.06
508.588	812.06
508.805	796.06
509.021	781.06
509.238	799.06
509.454	813.06
509.67	799.06
509.887	808.06
510.103	793.06
510.319	812.06
510.536	885.06
510.752	1405.06
510.968	1173.06
511.184	808.06
511.401	769.06
511.617	787.06
511.833	763.06
512.049	736.06
512.265	749.06
512.481	726.06
512.698	742.06
512.914	739.06
513.13	750.06
513.346	737.06
513.562	737.06
513.778	747.06
513.994	754.06
514.21	758.06
514.426	799.06
514.642	841.06
514.858	866.06
515.074	899.06
515.29	1045.06
515.506	1490.06
515.721	1247.06
515.937	905.06
516.153	820.06
516.369	789.06
516.585	788.06
516.801	776.06
517.016	759.06
517.232	762.06
517.448	764.06
517.664	796.06
517.879	799.06
518.095	773.06
518.311	791.06
518.527	769.06
518.742	767.06
518.958	767.06
519.173	776.06
519.389	755.06
519.605	742.06
519.82	748.06
520.036	760.06
520.251	821.06
520.467	830.06
520.682	827.06
520.898	824.06
521.113	844.06
521.329	881.06
521.544	964.06
521.76	1165.06
521.975	1851.06
522.19	1871.06
522.406	1078.06
522.621	869.06
522.836	781.06
523.052	755.06
523.267	712.06
523.482	708.06
523.698	693.06
523.913	692.06
524.128	693.06
524.343	657.06
524.559	673.06
524.774	653.06
524.989	660.06
525.204	679.06
525.419	663.06
525.634	643.06
525.849	639.06
526.064	663.06
526.28	643.06
526.495	633.06
526.71	640.06
526.925	628.06
527.14	629.06
527.355	629.06
527.57	606.06
527.785	613.06
527.999	607.06
528.214	622.06
528.429	618.06
528.644	643.06
528.859	609.06
529.074	626.06
529.289	636.06
529.503	719.06
529.718	707.06
529.933	649.06
530.148	660.06
530.363	619.06
530.577	599.06
530.792	627.06
531.007	611.06
531.221	588.06
531.436	577.06
531.651	594.06
531.865	592.06
532.08	587.06
532.295	609.06
532.509	588.06
532.724	585.06
532.938	585.06
533.153	595.06
533.367	600.06
533.582	585.06
533.796	571.06
534.011	534.06
534.225	579.06
534.44	573.06
534.654	573.06
534.868	594.06
535.083	590.06
535.297	581.06
535.511	589.06
535.726	601.06
535.94	588.06
536.154	613.06
536.369	572.06
536.583	566.06
536.797	564.06
537.011	574.06
537.225	571.06
537.44	558.06
537.654	544.06
537.868	564.06
538.082	569.06
538.296	567.06
538.51	588.06
538.724	557.06
538.938	560.06
539.153	573.06
539.367	579.06
539.581	591.06
539.795	569.06
540.009	586.06
540.222	558.06
540.436	575.06
540.65	545.06
540.864	582.06
541.078	581.06
541.292	573.06
541.506	577.06
541.72	572.06
541.934	564.06
542.147	555.06
542.361	550.06
542.575	557.06
542.789	568.06
543.002	549.06
543.216	569.06
543.43	565.06
543.644	566.06
543.857	547.06
544.071	542.06
544.285	558.06
544.498	565.06
544.712	557.06
544.925	553.06
545.139	539.06
545.352	531.06
545.566	540.06
545.779	559.06
545.993	568.06
546.206	546.06
546.42	523.06
546.633	518.06
546.847	539.06
547.06	533.06
547.274	542.06
547.487	555.06
547.7	530.06
547.914	543.06
548.127	535.06
548.34	543.06
548.554	545.06
548.767	545.06
548.98	524.06
549.193	524.06
549.407	546.06
549.62	541.06
549.833	528.06
550.046	551.06
550.259	537.06
550.473	512.06
550.686	529.06
550.899	517.06
551.112	518.06
551.325	515.06
551.538	519.06
551.751	526.06
551.964	521.06
552.177	546.06
552.39	524.06
552.603	539.06
552.816	529.06
553.029	535.06
553.242	524.06
553.455	545.06
553.667	581.06
553.88	577.06
554.093	565.06
554.306	541.06
554.519	539.06
554.732	522.06
554.944	522.06
555.157	525.06
555.37	531.06
555.583	499.06
555.795	534.06
556.008	517.06
556.221	483.06
556.433	509.06
556.646	495.06
556.859	491.06
557.071	490.06
557.284	472.06
557.496	481.06
557.709	475.06
557.921	498.06
558.134	487.06
558.346	480.06
558.559	469.06
558.771	453.06
558.984	480.06
559.196	469.06
559.409	491.06
559.621	477.06
559.833	470.06
560.046	451.06
560.258	477.06
560.47	476.06
560.683	478.06
560.895	464.06
561.107	459.06
561.32	464.06
561.532	480.06
561.744	490.06
561.956	485.06
562.168	504.06
562.381	477.06
562.593	491.06
562.805	487.06
563.017	490.06
563.229	471.06
563.441	463.06
563.653	477.06
563.865	480.06
564.077	494.06
564.289	517.06
564.501	491.06
564.713	496.06
564.925	499.06
565.137	523.06
565.349	533.06
565.561	502.06
565.773	506.06
565.985	533.06
566.197	565.06
566.408	548.06
566.62	581.06
566.832	589.06
567.044	575.06
567.255	592.06
567.467	604.06
567.679	601.06
567.891	624.06
568.102	615.06
568.314	585.06
568.526	571.06
568.737	565.06
568.949	520.06
569.161	544.06
569.372	502.06
569.584	483.06
569.795	508.06
570.007	486.06
570.218	523.06
570.43	523.06
570.641	489.06
570.853	465.06
571.064	469.06
571.276	491.06
571.487	448.06
571.698	454.06
571.91	424.06
572.121	457.06
572.333	433.06
572.544	453.06
572.755	422.06
572.966	429.06
573.178	437.06
573.389	423.06
573.6	421.06
573.811	413.06
574.023	417.06
574.234	427.06
574.445	408.06
574.656	421.06
574.867	427.06
575.078	395.06
575.289	429.06
575.501	405.06
575.712	404.06
575.923	412.06
576.134	415.06
576.345	412.06
576.556	380.06
576.767	407.06
576.978	387.06
577.188	402.06
577.399	410.06
577.61	386.06
577.821	400.06
578.032	402.06
578.243	440.06
578.454	643.06
578.665	517.06
578.875	401.06
579.086	400.06
579.297	377.06
579.508	381.06
579.718	392.06
579.929	389.06
580.14	383.06
580.35	359.06
580.561	351.06
580.772	366.06
580.982	390.06
581.193	366.06
581.403	389.06
581.614	375.06
581.825	375.06
582.035	363.06
582.246	384.06
582.456	377.06
582.667	369.06
582.877	381.06
583.087	362.06
583.298	354.06
583.508	364.06
583.719	375.06
583.929	369.06
584.139	367.06
584.35	360.06
584.56	375.06
584.77	377.06
584.981	389.06
585.191	366.06
585.401	345.06
585.611	363.06
585.821	355.06
586.032	357.06
586.242	355.06
586.452	365.06
586.662	348.06
586.872	351.06
587.082	358.06
587.292	358.06
587.502	359.06
587.713	373.06
587.923	358.06
588.133	347.06
588.343	359.06
588.553	364.06
588.762	363.06
588.972	363.06
589.182	350.06
589.392	323.06
589.602	353.06
589.812	355.06
590.022	350.06
590.232	364.06
590.441	359.06
590.651	360.06
590.861	369.06
591.071	344.06
591.281	352.06
591.49	344.06
591.7	351.06
591.91	362.06
592.119	372.06
592.329	359.06
592.539	371.06
592.748	381.06
592.958	389.06
593.167	377.06
593.377	375.06
593.587	367.06
593.796	375.06
594.006	387.06
594.215	362.06
594.424	379.06
594.634	364.06
594.843	352.06
595.053	365.06
595.262	363.06
595.472	349.06
595.681	348.06
595.89	358.06
596.1	360.06
596.309	351.06
596.518	363.06
596.727	351.06
596.937	329.06
597.146	316.06
597.355	318.06
597.564	324.06
597.774	320.06
597.983	342.06
598.192	344.06
598.401	335.06
598.61	321.06
598.819	318.06
599.028	320.06
599.237	306.06
599.446	328.06
599.655	321.06
599.864	303.06
600.073	336.06
600.282	309.06
600.491	307.06
600.7	327.06
600.909	301.06
601.118	281.06
601.327	312.06
601.536	315.06
601.745	314.06
601.953	299.06
602.162	303.06
602.371	312.06
602.58	313.06
602.789	307.06
602.997	292.06
603.206	280.06
603.415	294.06
603.623	287.06
603.832	294.06
604.041	282.06
604.249	309.06
604.458	296.06
604.666	299.06
604.875	286.06
605.084	291.06
605.292	300.06
605.501	287.06
605.709	279.06
605.918	296.06
606.126	293.06
606.334	272.06
606.543	279.06
606.751	284.06
606.96	289.06
607.168	287.06
607.376	260.06
607.585	280.06
607.793	299.06
608.001	276.06
608.21	299.06
608.418	286.06
608.626	286.06
608.834	290.06
609.043	273.06
609.251	295.06
609.459	291.06
609.667	269.06
609.875	270.06
610.083	283.06
610.291	293.06
610.499	288.06
610.707	286.06
610.916	281.06
611.124	293.06
611.332	287.06
611.54	306.06
611.748	277.06
611.955	271.06
612.163	276.06
612.371	291.06
612.579	292.06
612.787	295.06
612.995	302.06
613.203	282.06
613.411	261.06
613.618	277.06
613.826	281.06
614.034	271.06
614.242	260.06
614.449	257.06
614.657	291.06
614.865	284.06
615.072	277.06
615.28	265.06
615.488	302.06
615.695	269.06
615.903	289.06
616.111	290.06
616.318	266.06
616.526	284.06
616.733	271.06
616.941	277.06
617.148	272.06
617.356	283.06
617.563	291.06
617.771	271.06
617.978	272.06
618.185	249.06
618.393	276.06
618.6	264.06
618.807	278.06
619.015	262.06
619.222	263.06
619.429	269.06
619.637	274.06
619.844	281.06
620.051	260.06
620.258	265.06
620.466	262.06
620.673	260.06
620.88	257.06
621.087	267.06
621.294	251.06
621.501	262.06
621.708	267.06
621.915	250.06
622.122	250.06
622.329	252.06
622.536	245.06
622.743	259.06
622.95	269.06
623.157	259.06
623.364	265.06
623.571	268.06
623.778	253.06
623.985	273.06
624.192	241.06
624.399	246.06
624.606	234.06
624.812	248.06
625.019	253.06
625.226	243.06
625.433	265.06
625.639	258.06
625.846	232.06
626.053	253.06
626.259	250.06
626.466	237.06
626.673	231.06
626.879	241.06
627.086	247.06
627.293	236.06
627.499	250.06
627.706	245.06
627.912	237.06
628.119	247.06
628.325	252.06
628.532	232.06
628.738	243.06
628.945	233.06
629.151	214.06
629.357	207.06
629.564	199.06
629.77	217.06
629.976	211.06
630.183	223.06
630.389	240.06
630.595	218.06
630.802	216.06
631.008	226.06
631.214	248.06
631.42	221.06
631.627	214.06
631.833	221.06
632.039	206.06
632.245	223.06
632.451	208.06
632.657	208.06
632.863	204.06
633.069	220.06
633.275	217.06
633.481	208.06
633.688	199.06
633.893	200.06
634.099	205.06
634.305	195.06
634.511	195.06
634.717	219.06
634.923	213.06
635.129	210.06
635.335	220.06
635.541	219.06
635.747	222.06
635.952	198.06
636.158	211.06
636.364	215.06
636.57	200.06
636.775	195.06
636.981	206.06
637.187	213.06
637.392	199.06
637.598	205.06
637.804	188.06
638.009	200.06
638.215	196.06
638.421	214.06
638.626	193.06
638.832	205.06
639.037	204.06
639.243	211.06
639.448	204.06
639.654	201.06
639.859	206.06
640.065	197.06
640.27	202.06
640.475	194.06
640.681	189.06
640.886	200.06
641.091	194.06
641.297	212.06
641.502	192.06
641.707	177.06
641.913	198.06
642.118	195.06
642.323	181.06
642.528	198.06
642.733	180.06
642.939	196.06
643.144	187.06
643.349	185.06
643.554	190.06
643.759	177.06
643.964	202.06
644.169	186.06
644.374	184.06
644.579	191.06
644.784	191.06
644.989	190.06
645.194	183.06
645.399	200.06
645.604	189.06
645.809	199.06
646.014	191.06
646.219	197.06
646.423	205.06
646.628	187.06
646.833	202.06
647.038	197.06
647.243	181.06
647.447	182.06
647.652	180.06
647.857	192.06
648.062	196.06
648.266	186.06
648.471	198.06
648.676	205.06
648.88	193.06
649.085	191.06
649.289	201.06
649.494	192.06
649.698	208.06
649.903	200.06
650.107	194.06
650.312	189.06
650.516	179.06
650.721	171.06
650.925	179.06
651.13	178.06
651.334	203.06
651.539	174.06
651.743	160.06
651.947	150.06
652.152	179.06
652.356	164.06
652.56	178.06
652.764	164.06
652.969	159.06
653.173	172.06
653.377	159.06
653.581	152.06
653.785	165.06
653.99	161.06
654.194	152.06
654.398	141.06
654.602	145.06
654.806	137.06
655.01	165.06
655.214	159.06
655.418	152.06
655.622	145.06
655.826	139.06
656.03	145.06
656.234	140.06
656.438	145.06
656.642	144.06
656.846	150.06
657.049	145.06
657.253	139.06
657.457	133.06
657.661	124.06
657.865	108.06
658.068	124.06
658.272	124.06
658.476	126.06
658.68	98.06
658.883	108.06
659.087	107.06
659.291	104.06
659.494	93.06
659.698	123.06
659.901	88.06
660.105	97.06
660.309	97.06
660.512	104.06
660.716	100.06
660.919	110.06
661.123	101.06
661.326	102.06
661.53	90.06
661.733	80.06
661.936	97.06
662.14	89.06
662.343	88.06
662.546	83.06
662.75	85.06
662.953	90.06
663.156	104.06
663.36	88.06
663.563	82.06
663.766	90.06
663.969	84.06
664.173	88.06
664.376	88.06
664.579	79.06
664.782	77.06
664.985	89.06
665.188	90.06
665.391	101.06
665.594	81.06
665.797	80.06
666	84.06
666.203	95.06
666.406	73.06
666.609	78.06
666.812	101.06
667.015	103.06
667.218	92.06
667.421	99.06
667.624	67.06
667.827	93.06
668.03	85.06
668.232	90.06
668.435	84.06
668.638	72.06
668.841	87.06
669.043	87.06
669.246	79.06
669.449	77.06
669.651	86.06
669.854	85.06
670.057	93.06
670.259	102.06
670.462	81.06
670.665	84.06
670.867	83.06
671.07	91.06
671.272	79.06
671.475	89.06
671.677	77.06
671.88	73.06
672.082	80.06
672.284	87.06
672.487	94.06
672.689	99.06
672.892	69.06
