Data from 1988.PennyLincolnUp.Lamp.En5.5.200Scan.071819.P2_HRD10591_17-19-25-971.txt Node
Date: Thu Jul 18 17:19:25 EDT 2019
User: cochatt
Spectrometer: HR+D1059
Trigger mode: 1
Integration Time (sec): 1.000000E-1
Scans to average: 1
Electric dark correction enabled: true
Nonlinearity correction enabled: false
Boxcar width: 0
XAxis mode: Wavelengths
Number of Pixels in Spectrum: 2048
>>>>>Begin Spectral Data<<<<<
223.165	-14.31
223.4	-14.31
223.635	-14.31
223.869	-19.31
224.104	-17.31
224.338	-19.31
224.573	3.69
224.808	-20.31
225.042	-4.31
225.277	-11.31
225.511	-0.31
225.746	11.69
225.98	9.69
226.215	3.69
226.449	-2.31
226.683	20.69
226.918	25.69
227.152	33.69
227.387	31.69
227.621	33.69
227.856	35.69
228.09	37.69
228.324	50.69
228.559	54.69
228.793	80.69
229.027	82.69
229.262	96.69
229.496	108.69
229.73	134.69
229.964	154.69
230.199	137.69
230.433	117.69
230.667	122.69
230.901	121.69
231.136	111.69
231.37	111.69
231.604	92.69
231.838	128.69
232.072	92.69
232.306	117.69
232.541	120.69
232.775	118.69
233.009	114.69
233.243	108.69
233.477	116.69
233.711	122.69
233.945	116.69
234.179	122.69
234.413	107.69
234.647	123.69
234.881	121.69
235.115	121.69
235.349	119.69
235.583	119.69
235.817	124.69
236.051	119.69
236.285	135.69
236.519	121.69
236.753	136.69
236.987	139.69
237.221	171.69
237.455	242.69
237.689	177.69
237.922	142.69
238.156	119.69
238.39	115.69
238.624	133.69
238.858	133.69
239.091	124.69
239.325	132.69
239.559	131.69
239.793	133.69
240.027	119.69
240.26	152.69
240.494	157.69
240.728	150.69
240.961	152.69
241.195	152.69
241.429	140.69
241.662	125.69
241.896	130.69
242.13	130.69
242.363	129.69
242.597	117.69
242.83	135.69
243.064	138.69
243.298	131.69
243.531	136.69
243.765	139.69
243.998	153.69
244.232	147.69
244.465	150.69
244.699	143.69
244.932	149.69
245.166	143.69
245.399	138.69
245.633	147.69
245.866	141.69
246.099	140.69
246.333	162.69
246.566	127.69
246.8	144.69
247.033	172.69
247.266	161.69
247.5	168.69
247.733	164.69
247.966	166.69
248.2	177.69
248.433	163.69
248.666	184.69
248.899	187.69
249.133	193.69
249.366	208.69
249.599	184.69
249.832	202.69
250.066	197.69
250.299	185.69
250.532	185.69
250.765	199.69
250.998	199.69
251.231	232.69
251.465	213.69
251.698	215.69
251.931	204.69
252.164	189.69
252.397	206.69
252.63	199.69
252.863	207.69
253.096	202.69
253.329	222.69
253.562	231.69
253.795	212.69
254.028	217.69
254.261	222.69
254.494	219.69
254.727	263.69
254.96	282.69
255.193	273.69
255.426	247.69
255.659	220.69
255.892	231.69
256.124	200.69
256.357	212.69
256.59	224.69
256.823	211.69
257.056	201.69
257.289	202.69
257.521	186.69
257.754	202.69
257.987	215.69
258.22	213.69
258.452	209.69
258.685	202.69
258.918	216.69
259.151	199.69
259.383	217.69
259.616	213.69
259.849	221.69
260.081	247.69
260.314	257.69
260.547	254.69
260.779	232.69
261.012	231.69
261.244	241.69
261.477	224.69
261.71	232.69
261.942	205.69
262.175	224.69
262.407	239.69
262.64	214.69
262.872	224.69
263.105	203.69
263.337	209.69
263.57	224.69
263.802	215.69
264.035	211.69
264.267	230.69
264.499	224.69
264.732	218.69
264.964	223.69
265.197	215.69
265.429	214.69
265.661	217.69
265.894	223.69
266.126	219.69
266.358	229.69
266.591	230.69
266.823	213.69
267.055	243.69
267.287	236.69
267.52	224.69
267.752	237.69
267.984	235.69
268.216	243.69
268.448	231.69
268.681	233.69
268.913	242.69
269.145	263.69
269.377	279.69
269.609	282.69
269.841	263.69
270.073	269.69
270.306	283.69
270.538	297.69
270.77	329.69
271.002	290.69
271.234	282.69
271.466	298.69
271.698	311.69
271.93	321.69
272.162	316.69
272.394	296.69
272.626	310.69
272.858	287.69
273.09	273.69
273.322	285.69
273.553	276.69
273.785	276.69
274.017	270.69
274.249	262.69
274.481	263.69
274.713	268.69
274.945	273.69
275.176	255.69
275.408	263.69
275.64	275.69
275.872	284.69
276.104	260.69
276.335	283.69
276.567	285.69
276.799	282.69
277.031	287.69
277.262	331.69
277.494	311.69
277.726	308.69
277.957	296.69
278.189	269.69
278.421	294.69
278.652	264.69
278.884	248.69
279.115	252.69
279.347	269.69
279.579	267.69
279.81	289.69
280.042	281.69
280.273	283.69
280.505	266.69
280.736	273.69
280.968	262.69
281.199	280.69
281.431	270.69
281.662	266.69
281.894	269.69
282.125	291.69
282.356	321.69
282.588	298.69
282.819	321.69
283.051	273.69
283.282	276.69
283.513	285.69
283.745	288.69
283.976	277.69
284.207	268.69
284.439	290.69
284.67	282.69
284.901	291.69
285.132	294.69
285.364	265.69
285.595	278.69
285.826	299.69
286.057	273.69
286.288	296.69
286.52	304.69
286.751	305.69
286.982	295.69
287.213	293.69
287.444	280.69
287.675	309.69
287.906	313.69
288.138	326.69
288.369	311.69
288.6	323.69
288.831	315.69
289.062	288.69
289.293	295.69
289.524	275.69
289.755	290.69
289.986	276.69
290.217	300.69
290.448	283.69
290.679	306.69
290.91	291.69
291.141	272.69
291.371	291.69
291.602	288.69
291.833	300.69
292.064	298.69
292.295	294.69
292.526	305.69
292.757	300.69
292.987	299.69
293.218	301.69
293.449	290.69
293.68	304.69
293.91	288.69
294.141	296.69
294.372	291.69
294.603	312.69
294.833	295.69
295.064	291.69
295.295	314.69
295.525	307.69
295.756	318.69
295.987	325.69
296.217	322.69
296.448	351.69
296.679	327.69
296.909	327.69
297.14	322.69
297.37	303.69
297.601	307.69
297.831	310.69
298.062	319.69
298.292	308.69
298.523	329.69
298.753	313.69
298.984	325.69
299.214	315.69
299.445	319.69
299.675	300.69
299.905	317.69
300.136	320.69
300.366	337.69
300.597	331.69
300.827	330.69
301.057	340.69
301.288	350.69
301.518	338.69
301.748	331.69
301.979	347.69
302.209	351.69
302.439	345.69
302.669	349.69
302.9	353.69
303.13	348.69
303.36	345.69
303.59	352.69
303.82	339.69
304.051	342.69
304.281	355.69
304.511	343.69
304.741	339.69
304.971	336.69
305.201	344.69
305.431	344.69
305.661	354.69
305.891	349.69
306.121	337.69
306.352	349.69
306.582	365.69
306.812	377.69
307.042	356.69
307.272	355.69
307.502	339.69
307.731	341.69
307.961	335.69
308.191	336.69
308.421	341.69
308.651	340.69
308.881	368.69
309.111	359.69
309.341	344.69
309.571	387.69
309.8	375.69
310.03	383.69
310.26	410.69
310.49	403.69
310.72	394.69
310.949	394.69
311.179	419.69
311.409	397.69
311.639	424.69
311.868	397.69
312.098	410.69
312.328	399.69
312.557	425.69
312.787	425.69
313.017	422.69
313.246	419.69
313.476	393.69
313.706	397.69
313.935	397.69
314.165	423.69
314.394	405.69
314.624	422.69
314.853	424.69
315.083	396.69
315.312	397.69
315.542	406.69
315.771	397.69
316.001	393.69
316.23	396.69
316.46	378.69
316.689	399.69
316.919	393.69
317.148	431.69
317.377	422.69
317.607	394.69
317.836	397.69
318.065	404.69
318.295	387.69
318.524	404.69
318.753	403.69
318.983	414.69
319.212	394.69
319.441	406.69
319.67	427.69
319.9	411.69
320.129	402.69
320.358	397.69
320.587	400.69
320.816	419.69
321.046	404.69
321.275	424.69
321.504	421.69
321.733	424.69
321.962	419.69
322.191	448.69
322.42	464.69
322.649	462.69
322.878	486.69
323.108	484.69
323.337	500.69
323.566	516.69
323.795	577.69
324.024	612.69
324.253	721.69
324.482	1055.69
324.71	1653.69
324.939	2334.69
325.168	2041.69
325.397	1023.69
325.626	706.69
325.855	595.69
326.084	555.69
326.313	544.69
326.542	545.69
326.77	572.69
326.999	678.69
327.228	955.69
327.457	1474.69
327.686	1731.69
327.914	1150.69
328.143	767.69
328.372	643.69
328.6	605.69
328.829	586.69
329.058	621.69
329.287	615.69
329.515	582.69
329.744	536.69
329.972	504.69
330.201	525.69
330.43	555.69
330.658	584.69
330.887	619.69
331.115	636.69
331.344	545.69
331.572	529.69
331.801	502.69
332.03	528.69
332.258	509.69
332.486	485.69
332.715	474.69
332.943	469.69
333.172	481.69
333.4	485.69
333.629	457.69
333.857	508.69
334.085	505.69
334.314	486.69
334.542	485.69
334.771	503.69
334.999	495.69
335.227	477.69
335.455	459.69
335.684	476.69
335.912	475.69
336.14	464.69
336.369	476.69
336.597	468.69
336.825	486.69
337.053	457.69
337.281	489.69
337.51	484.69
337.738	470.69
337.966	465.69
338.194	461.69
338.422	456.69
338.65	464.69
338.878	445.69
339.106	461.69
339.334	442.69
339.562	426.69
339.79	447.69
340.018	467.69
340.246	457.69
340.474	479.69
340.702	460.69
340.93	450.69
341.158	452.69
341.386	466.69
341.614	477.69
341.842	456.69
342.07	457.69
342.298	452.69
342.526	445.69
342.754	425.69
342.981	433.69
343.209	431.69
343.437	451.69
343.665	446.69
343.893	453.69
344.12	465.69
344.348	470.69
344.576	475.69
344.804	457.69
345.031	473.69
345.259	496.69
345.487	476.69
345.714	470.69
345.942	463.69
346.17	451.69
346.397	434.69
346.625	426.69
346.853	459.69
347.08	435.69
347.308	438.69
347.535	448.69
347.763	457.69
347.99	452.69
348.218	444.69
348.445	442.69
348.673	436.69
348.9	434.69
349.128	432.69
349.355	450.69
349.583	444.69
349.81	426.69
350.037	416.69
350.265	436.69
350.492	434.69
350.72	432.69
350.947	427.69
351.174	453.69
351.402	440.69
351.629	441.69
351.856	451.69
352.083	439.69
352.311	469.69
352.538	452.69
352.765	452.69
352.992	448.69
353.22	438.69
353.447	421.69
353.674	422.69
353.901	419.69
354.128	405.69
354.355	417.69
354.583	405.69
354.81	415.69
355.037	408.69
355.264	415.69
355.491	406.69
355.718	410.69
355.945	409.69
356.172	404.69
356.399	408.69
356.626	426.69
356.853	413.69
357.08	383.69
357.307	417.69
357.534	412.69
357.761	407.69
357.988	412.69
358.215	438.69
358.441	420.69
358.668	401.69
358.895	424.69
359.122	425.69
359.349	422.69
359.576	439.69
359.802	460.69
360.029	487.69
360.256	493.69
360.483	503.69
360.709	459.69
360.936	440.69
361.163	412.69
361.39	451.69
361.616	465.69
361.843	440.69
362.07	433.69
362.296	449.69
362.523	448.69
362.749	439.69
362.976	427.69
363.203	435.69
363.429	419.69
363.656	443.69
363.882	405.69
364.109	410.69
364.335	425.69
364.562	421.69
364.788	415.69
365.015	413.69
365.241	413.69
365.468	412.69
365.694	445.69
365.92	424.69
366.147	403.69
366.373	418.69
366.599	405.69
366.826	421.69
367.052	417.69
367.278	420.69
367.505	434.69
367.731	434.69
367.957	421.69
368.184	424.69
368.41	411.69
368.636	434.69
368.862	433.69
369.089	440.69
369.315	408.69
369.541	404.69
369.767	422.69
369.993	429.69
370.219	421.69
370.445	424.69
370.672	411.69
370.898	399.69
371.124	426.69
371.35	437.69
371.576	413.69
371.802	421.69
372.028	418.69
372.254	433.69
372.48	414.69
372.706	404.69
372.932	411.69
373.158	431.69
373.384	445.69
373.61	417.69
373.835	405.69
374.061	436.69
374.287	429.69
374.513	438.69
374.739	435.69
374.965	442.69
375.191	439.69
375.416	438.69
375.642	431.69
375.868	405.69
376.094	416.69
376.319	426.69
376.545	419.69
376.771	434.69
376.997	403.69
377.222	419.69
377.448	419.69
377.674	424.69
377.899	411.69
378.125	412.69
378.35	418.69
378.576	407.69
378.802	395.69
379.027	411.69
379.253	415.69
379.478	433.69
379.704	427.69
379.929	436.69
380.155	433.69
380.38	426.69
380.606	438.69
380.831	458.69
381.057	428.69
381.282	452.69
381.507	413.69
381.733	412.69
381.958	434.69
382.184	435.69
382.409	428.69
382.634	423.69
382.86	435.69
383.085	433.69
383.31	444.69
383.535	435.69
383.761	446.69
383.986	443.69
384.211	459.69
384.436	451.69
384.662	465.69
384.887	456.69
385.112	449.69
385.337	456.69
385.562	460.69
385.787	471.69
386.013	481.69
386.238	479.69
386.463	453.69
386.688	455.69
386.913	455.69
387.138	483.69
387.363	437.69
387.588	477.69
387.813	450.69
388.038	467.69
388.263	476.69
388.488	475.69
388.713	468.69
388.938	459.69
389.163	458.69
389.387	469.69
389.612	452.69
389.837	467.69
390.062	474.69
390.287	459.69
390.512	482.69
390.736	454.69
390.961	437.69
391.186	481.69
391.411	454.69
391.636	471.69
391.86	490.69
392.085	481.69
392.31	472.69
392.534	454.69
392.759	479.69
392.984	468.69
393.208	475.69
393.433	481.69
393.658	470.69
393.882	449.69
394.107	451.69
394.331	468.69
394.556	461.69
394.78	449.69
395.005	467.69
395.229	485.69
395.454	475.69
395.678	471.69
395.903	506.69
396.127	501.69
396.352	520.69
396.576	480.69
396.801	486.69
397.025	488.69
397.249	502.69
397.474	500.69
397.698	505.69
397.922	519.69
398.147	535.69
398.371	546.69
398.595	528.69
398.82	520.69
399.044	556.69
399.268	567.69
399.492	576.69
399.717	608.69
399.941	639.69
400.165	672.69
400.389	673.69
400.613	602.69
400.837	575.69
401.062	563.69
401.286	540.69
401.51	546.69
401.734	535.69
401.958	549.69
402.182	569.69
402.406	545.69
402.63	545.69
402.854	548.69
403.078	512.69
403.302	547.69
403.526	520.69
403.75	561.69
403.974	553.69
404.198	548.69
404.422	571.69
404.645	577.69
404.869	585.69
405.093	573.69
405.317	603.69
405.541	633.69
405.765	597.69
405.988	584.69
406.212	584.69
406.436	613.69
406.66	650.69
406.883	585.69
407.107	635.69
407.331	670.69
407.555	742.69
407.778	755.69
408.002	700.69
408.226	619.69
408.449	612.69
408.673	614.69
408.896	653.69
409.12	679.69
409.344	635.69
409.567	569.69
409.791	570.69
410.014	567.69
410.238	565.69
410.461	563.69
410.685	573.69
410.908	595.69
411.132	614.69
411.355	642.69
411.578	623.69
411.802	571.69
412.025	571.69
412.249	554.69
412.472	567.69
412.695	583.69
412.919	570.69
413.142	537.69
413.365	554.69
413.589	557.69
413.812	541.69
414.035	545.69
414.258	533.69
414.482	527.69
414.705	516.69
414.928	533.69
415.151	539.69
415.374	535.69
415.597	508.69
415.821	507.69
416.044	523.69
416.267	531.69
416.49	515.69
416.713	529.69
416.936	521.69
417.159	519.69
417.382	527.69
417.605	492.69
417.828	510.69
418.051	519.69
418.274	521.69
418.497	500.69
418.72	516.69
418.943	493.69
419.166	529.69
419.389	587.69
419.611	569.69
419.834	541.69
420.057	550.69
420.28	530.69
420.503	539.69
420.726	536.69
420.948	546.69
421.171	584.69
421.394	633.69
421.617	580.69
421.839	569.69
422.062	554.69
422.285	561.69
422.507	615.69
422.73	691.69
422.953	684.69
423.175	614.69
423.398	563.69
423.621	559.69
423.843	576.69
424.066	586.69
424.288	589.69
424.511	610.69
424.733	667.69
424.956	754.69
425.178	723.69
425.401	703.69
425.623	771.69
425.846	625.69
426.068	607.69
426.291	594.69
426.513	580.69
426.735	601.69
426.958	644.69
427.18	699.69
427.402	850.69
427.625	942.69
427.847	823.69
428.069	693.69
428.292	629.69
428.514	585.69
428.736	556.69
428.958	573.69
429.181	572.69
429.403	537.69
429.625	547.69
429.847	589.69
430.069	665.69
430.292	670.69
430.514	575.69
430.736	562.69
430.958	545.69
431.18	532.69
431.402	498.69
431.624	515.69
431.846	513.69
432.068	524.69
432.29	513.69
432.512	525.69
432.734	507.69
432.956	516.69
433.178	545.69
433.4	535.69
433.622	510.69
433.844	496.69
434.066	492.69
434.287	520.69
434.509	513.69
434.731	519.69
434.953	552.69
435.175	570.69
435.397	588.69
435.618	589.69
435.84	643.69
436.062	761.69
436.284	799.69
436.505	650.69
436.727	594.69
436.949	551.69
437.17	557.69
437.392	541.69
437.614	563.69
437.835	578.69
438.057	688.69
438.278	801.69
438.5	808.69
438.721	888.69
438.943	849.69
439.165	691.69
439.386	634.69
439.608	591.69
439.829	591.69
440.05	605.69
440.272	647.69
440.493	623.69
440.715	572.69
440.936	543.69
441.158	539.69
441.379	535.69
441.6	564.69
441.822	577.69
442.043	644.69
442.264	739.69
442.486	760.69
442.707	655.69
442.928	593.69
443.149	629.69
443.371	645.69
443.592	666.69
443.813	777.69
444.034	847.69
444.255	705.69
444.476	626.69
444.698	633.69
444.919	598.69
445.14	697.69
445.361	641.69
445.582	644.69
445.803	711.69
446.024	779.69
446.245	847.69
446.466	730.69
446.687	623.69
446.908	589.69
447.129	569.69
447.35	523.69
447.571	547.69
447.792	524.69
448.013	538.69
448.234	563.69
448.455	613.69
448.675	725.69
448.896	861.69
449.117	713.69
449.338	680.69
449.559	785.69
449.779	909.69
450	719.69
450.221	579.69
450.442	551.69
450.662	547.69
450.883	542.69
451.104	562.69
451.324	534.69
451.545	526.69
451.766	492.69
451.986	513.69
452.207	490.69
452.428	504.69
452.648	498.69
452.869	508.69
453.089	503.69
453.31	532.69
453.53	511.69
453.751	493.69
453.971	484.69
454.192	520.69
454.412	516.69
454.633	485.69
454.853	488.69
455.073	497.69
455.294	524.69
455.514	585.69
455.734	577.69
455.955	482.69
456.175	466.69
456.395	459.69
456.616	453.69
456.836	456.69
457.056	440.69
457.276	453.69
457.497	479.69
457.717	447.69
457.937	479.69
458.157	484.69
458.377	470.69
458.598	509.69
458.818	566.69
459.038	639.69
459.258	657.69
459.478	560.69
459.698	524.69
459.918	521.69
460.138	514.69
460.358	512.69
460.578	525.69
460.798	538.69
461.018	536.69
461.238	519.69
461.458	555.69
461.678	526.69
461.898	524.69
462.118	506.69
462.338	553.69
462.558	545.69
462.777	550.69
462.997	575.69
463.217	563.69
463.437	576.69
463.657	570.69
463.876	563.69
464.096	567.69
464.316	570.69
464.536	572.69
464.755	550.69
464.975	552.69
465.195	616.69
465.414	658.69
465.634	607.69
465.854	553.69
466.073	553.69
466.293	528.69
466.512	511.69
466.732	508.69
466.951	496.69
467.171	503.69
467.391	498.69
467.61	518.69
467.829	551.69
468.049	524.69
468.268	505.69
468.488	490.69
468.707	486.69
468.927	486.69
469.146	486.69
469.365	501.69
469.585	489.69
469.804	489.69
470.023	513.69
470.243	513.69
470.462	524.69
470.681	540.69
470.901	535.69
471.12	533.69
471.339	487.69
471.558	533.69
471.777	501.69
471.997	485.69
472.216	501.69
472.435	495.69
472.654	486.69
472.873	490.69
473.092	487.69
473.311	492.69
473.53	499.69
473.749	530.69
473.968	573.69
474.187	669.69
474.406	696.69
474.625	592.69
474.844	515.69
475.063	509.69
475.282	508.69
475.501	499.69
475.72	524.69
475.939	514.69
476.158	533.69
476.377	531.69
476.596	518.69
476.814	523.69
477.033	523.69
477.252	533.69
477.471	521.69
477.69	580.69
477.908	545.69
478.127	556.69
478.346	564.69
478.564	559.69
478.783	594.69
479.002	581.69
479.22	589.69
479.439	588.69
479.658	620.69
479.876	624.69
480.095	617.69
480.313	662.69
480.532	638.69
480.751	613.69
480.969	617.69
481.188	611.69
481.406	635.69
481.624	641.69
481.843	610.69
482.061	601.69
482.28	585.69
482.498	572.69
482.717	600.69
482.935	607.69
483.153	597.69
483.372	609.69
483.59	605.69
483.808	588.69
484.027	587.69
484.245	572.69
484.463	601.69
484.681	612.69
484.9	582.69
485.118	593.69
485.336	617.69
485.554	620.69
485.772	620.69
485.99	616.69
486.209	644.69
486.427	634.69
486.645	643.69
486.863	672.69
487.081	638.69
487.299	645.69
487.517	643.69
487.735	644.69
487.953	639.69
488.171	660.69
488.389	673.69
488.607	645.69
488.825	645.69
489.043	635.69
489.261	639.69
489.479	661.69
489.696	638.69
489.914	651.69
490.132	643.69
490.35	674.69
490.568	652.69
490.786	688.69
491.003	682.69
491.221	678.69
491.439	724.69
491.657	707.69
491.874	708.69
492.092	711.69
492.31	710.69
492.527	726.69
492.745	730.69
492.963	714.69
493.18	748.69
493.398	739.69
493.615	740.69
493.833	735.69
494.05	749.69
494.268	742.69
494.485	759.69
494.703	732.69
494.92	754.69
495.138	758.69
495.355	779.69
495.573	751.69
495.79	755.69
496.008	788.69
496.225	762.69
496.442	765.69
496.66	772.69
496.877	772.69
497.094	779.69
497.312	785.69
497.529	787.69
497.746	791.69
497.963	808.69
498.181	845.69
498.398	849.69
498.615	857.69
498.832	904.69
499.049	881.69
499.267	892.69
499.484	916.69
499.701	983.69
499.918	999.69
500.135	1055.69
500.352	1076.69
500.569	1095.69
500.786	1055.69
501.003	1092.69
501.22	1031.69
501.437	1023.69
501.654	1010.69
501.871	964.69
502.088	917.69
502.305	923.69
502.522	860.69
502.739	866.69
502.956	838.69
503.172	829.69
503.389	802.69
503.606	813.69
503.823	797.69
504.04	793.69
504.256	781.69
504.473	792.69
504.69	762.69
504.907	787.69
505.123	763.69
505.34	755.69
505.557	752.69
505.773	751.69
505.99	755.69
506.207	737.69
506.423	754.69
506.64	733.69
506.856	742.69
507.073	714.69
507.289	730.69
507.506	708.69
507.722	694.69
507.939	731.69
508.155	716.69
508.372	693.69
508.588	701.69
508.805	705.69
509.021	699.69
509.238	675.69
509.454	706.69
509.67	689.69
509.887	694.69
510.103	699.69
510.319	714.69
510.536	787.69
510.752	1297.69
510.968	1096.69
511.184	726.69
511.401	681.69
511.617	675.69
511.833	645.69
512.049	645.69
512.265	651.69
512.481	659.69
512.698	635.69
512.914	662.69
513.13	645.69
513.346	666.69
513.562	652.69
513.778	642.69
513.994	690.69
514.21	700.69
514.426	704.69
514.642	760.69
514.858	766.69
515.074	794.69
515.29	952.69
515.506	1376.69
515.721	1196.69
515.937	814.69
516.153	748.69
516.369	712.69
516.585	698.69
516.801	673.69
517.016	724.69
517.232	691.69
517.448	701.69
517.664	671.69
517.879	685.69
518.095	677.69
518.311	699.69
518.527	694.69
518.742	682.69
518.958	685.69
519.173	659.69
519.389	657.69
519.605	659.69
519.82	664.69
520.036	690.69
520.251	701.69
520.467	713.69
520.682	722.69
520.898	709.69
521.113	759.69
521.329	802.69
521.544	885.69
521.76	1090.69
521.975	1802.69
522.19	1824.69
522.406	1003.69
522.621	785.69
522.836	691.69
523.052	650.69
523.267	665.69
523.482	651.69
523.698	616.69
523.913	623.69
524.128	608.69
524.343	619.69
524.559	593.69
524.774	590.69
524.989	548.69
525.204	580.69
525.419	596.69
525.634	565.69
525.849	542.69
526.064	573.69
526.28	551.69
526.495	551.69
526.71	556.69
526.925	528.69
527.14	550.69
527.355	537.69
527.57	540.69
527.785	552.69
527.999	542.69
528.214	553.69
528.429	540.69
528.644	543.69
528.859	543.69
529.074	559.69
529.289	563.69
529.503	631.69
529.718	636.69
529.933	593.69
530.148	564.69
530.363	538.69
530.577	521.69
530.792	524.69
531.007	542.69
531.221	513.69
531.436	523.69
531.651	550.69
531.865	527.69
532.08	517.69
532.295	541.69
532.509	525.69
532.724	541.69
532.938	540.69
533.153	540.69
533.367	511.69
533.582	504.69
533.796	522.69
534.011	522.69
534.225	518.69
534.44	499.69
534.654	497.69
534.868	521.69
535.083	519.69
535.297	498.69
535.511	524.69
535.726	504.69
535.94	517.69
536.154	511.69
536.369	514.69
536.583	497.69
536.797	504.69
537.011	508.69
537.225	512.69
537.44	492.69
537.654	508.69
537.868	503.69
538.082	511.69
538.296	499.69
538.51	516.69
538.724	498.69
538.938	516.69
539.153	530.69
539.367	505.69
539.581	533.69
539.795	513.69
540.009	487.69
540.222	470.69
540.436	507.69
540.65	499.69
540.864	525.69
541.078	512.69
541.292	522.69
541.506	509.69
541.72	522.69
541.934	488.69
542.147	493.69
542.361	486.69
542.575	497.69
542.789	482.69
543.002	462.69
543.216	485.69
543.43	518.69
543.644	497.69
543.857	514.69
544.071	505.69
544.285	486.69
544.498	488.69
544.712	501.69
544.925	484.69
545.139	497.69
545.352	469.69
545.566	467.69
545.779	486.69
545.993	458.69
546.206	474.69
546.42	477.69
546.633	460.69
546.847	459.69
547.06	468.69
547.274	473.69
547.487	467.69
547.7	434.69
547.914	486.69
548.127	474.69
548.34	474.69
548.554	482.69
548.767	474.69
548.98	475.69
549.193	478.69
549.407	481.69
549.62	461.69
549.833	463.69
550.046	449.69
550.259	480.69
550.473	444.69
550.686	457.69
550.899	465.69
551.112	476.69
551.325	451.69
551.538	460.69
551.751	446.69
551.964	452.69
552.177	451.69
552.39	447.69
552.603	458.69
552.816	465.69
553.029	456.69
553.242	493.69
553.455	489.69
553.667	491.69
553.88	481.69
554.093	473.69
554.306	483.69
554.519	458.69
554.732	455.69
554.944	455.69
555.157	452.69
555.37	459.69
555.583	445.69
555.795	463.69
556.008	443.69
556.221	447.69
556.433	429.69
556.646	451.69
556.859	439.69
557.071	415.69
557.284	417.69
557.496	421.69
557.709	442.69
557.921	429.69
558.134	437.69
558.346	425.69
558.559	435.69
558.771	415.69
558.984	415.69
559.196	412.69
559.409	433.69
559.621	409.69
559.833	423.69
560.046	428.69
560.258	411.69
560.47	412.69
560.683	427.69
560.895	411.69
561.107	422.69
561.32	408.69
561.532	416.69
561.744	417.69
561.956	414.69
562.168	426.69
562.381	428.69
562.593	427.69
562.805	412.69
563.017	411.69
563.229	423.69
563.441	435.69
563.653	416.69
563.865	422.69
564.077	439.69
564.289	418.69
564.501	449.69
564.713	404.69
564.925	440.69
565.137	441.69
565.349	434.69
565.561	469.69
565.773	441.69
565.985	440.69
566.197	475.69
566.408	473.69
566.62	485.69
566.832	506.69
567.044	511.69
567.255	500.69
567.467	516.69
567.679	527.69
567.891	531.69
568.102	529.69
568.314	526.69
568.526	498.69
568.737	495.69
568.949	466.69
569.161	449.69
569.372	457.69
569.584	433.69
569.795	439.69
570.007	414.69
570.218	479.69
570.43	463.69
570.641	427.69
570.853	421.69
571.064	406.69
571.276	412.69
571.487	400.69
571.698	381.69
571.91	385.69
572.121	393.69
572.333	395.69
572.544	370.69
572.755	372.69
572.966	375.69
573.178	374.69
573.389	377.69
573.6	364.69
573.811	374.69
574.023	359.69
574.234	371.69
574.445	347.69
574.656	356.69
574.867	357.69
575.078	367.69
575.289	359.69
575.501	361.69
575.712	351.69
575.923	351.69
576.134	352.69
576.345	351.69
576.556	355.69
576.767	348.69
576.978	352.69
577.188	346.69
577.399	336.69
577.61	354.69
577.821	342.69
578.032	363.69
578.243	373.69
578.454	611.69
578.665	459.69
578.875	375.69
579.086	343.69
579.297	332.69
579.508	337.69
579.718	321.69
579.929	339.69
580.14	347.69
580.35	353.69
580.561	319.69
580.772	346.69
580.982	319.69
581.193	331.69
581.403	333.69
581.614	323.69
581.825	352.69
582.035	321.69
582.246	331.69
582.456	324.69
582.667	322.69
582.877	333.69
583.087	333.69
583.298	319.69
583.508	315.69
583.719	352.69
583.929	319.69
584.139	323.69
584.35	337.69
584.56	320.69
584.77	331.69
584.981	326.69
585.191	320.69
585.401	339.69
585.611	319.69
585.821	321.69
586.032	322.69
586.242	334.69
586.452	320.69
586.662	329.69
586.872	303.69
587.082	319.69
587.292	334.69
587.502	318.69
587.713	300.69
587.923	315.69
588.133	305.69
588.343	326.69
588.553	304.69
588.762	319.69
588.972	299.69
589.182	302.69
589.392	347.69
589.602	326.69
589.812	310.69
590.022	323.69
590.232	315.69
590.441	303.69
590.651	293.69
590.861	303.69
591.071	314.69
591.281	307.69
591.49	307.69
591.7	306.69
591.91	291.69
592.119	332.69
592.329	308.69
592.539	336.69
592.748	330.69
592.958	341.69
593.167	333.69
593.377	327.69
593.587	343.69
593.796	337.69
594.006	328.69
594.215	330.69
594.424	319.69
594.634	333.69
594.843	329.69
595.053	333.69
595.262	323.69
595.472	324.69
595.681	328.69
595.89	297.69
596.1	303.69
596.309	305.69
596.518	282.69
596.727	303.69
596.937	289.69
597.146	287.69
597.355	281.69
597.564	287.69
597.774	284.69
597.983	279.69
598.192	285.69
598.401	274.69
598.61	282.69
598.819	280.69
599.028	303.69
599.237	289.69
599.446	283.69
599.655	291.69
599.864	261.69
600.073	272.69
600.282	278.69
600.491	272.69
600.7	265.69
600.909	292.69
601.118	289.69
601.327	275.69
601.536	270.69
601.745	266.69
601.953	254.69
602.162	266.69
602.371	240.69
602.58	263.69
602.789	268.69
602.997	256.69
603.206	259.69
603.415	280.69
603.623	269.69
603.832	263.69
604.041	253.69
604.249	259.69
604.458	262.69
604.666	253.69
604.875	273.69
605.084	271.69
605.292	265.69
605.501	263.69
605.709	260.69
605.918	262.69
606.126	255.69
606.334	245.69
606.543	255.69
606.751	264.69
606.96	263.69
607.168	252.69
607.376	252.69
607.585	228.69
607.793	247.69
608.001	266.69
608.21	252.69
608.418	246.69
608.626	249.69
608.834	260.69
609.043	239.69
609.251	264.69
609.459	262.69
609.667	249.69
609.875	260.69
610.083	249.69
610.291	241.69
610.499	256.69
610.707	244.69
610.916	240.69
611.124	258.69
611.332	231.69
611.54	279.69
611.748	254.69
611.955	258.69
612.163	247.69
612.371	241.69
612.579	240.69
612.787	243.69
612.995	234.69
613.203	252.69
613.411	237.69
613.618	244.69
613.826	263.69
614.034	267.69
614.242	248.69
614.449	253.69
614.657	260.69
614.865	251.69
615.072	253.69
615.28	253.69
615.488	247.69
615.695	258.69
615.903	253.69
616.111	262.69
616.318	244.69
616.526	243.69
616.733	259.69
616.941	239.69
617.148	228.69
617.356	245.69
617.563	231.69
617.771	242.69
617.978	243.69
618.185	232.69
618.393	239.69
618.6	235.69
618.807	260.69
619.015	236.69
619.222	259.69
619.429	231.69
619.637	252.69
619.844	245.69
620.051	237.69
620.258	236.69
620.466	230.69
620.673	232.69
620.88	239.69
621.087	220.69
621.294	233.69
621.501	233.69
621.708	234.69
621.915	236.69
622.122	224.69
622.329	222.69
622.536	241.69
622.743	245.69
622.95	229.69
623.157	240.69
623.364	226.69
623.571	212.69
623.778	219.69
623.985	230.69
624.192	200.69
624.399	228.69
624.606	229.69
624.812	210.69
625.019	200.69
625.226	219.69
625.433	237.69
625.639	219.69
625.846	214.69
626.053	220.69
626.259	206.69
626.466	218.69
626.673	214.69
626.879	222.69
627.086	220.69
627.293	209.69
627.499	216.69
627.706	217.69
627.912	207.69
628.119	205.69
628.325	211.69
628.532	210.69
628.738	207.69
628.945	209.69
629.151	202.69
629.357	207.69
629.564	211.69
629.77	198.69
629.976	191.69
630.183	182.69
630.389	199.69
630.595	187.69
630.802	193.69
631.008	192.69
631.214	204.69
631.42	205.69
631.627	197.69
631.833	184.69
632.039	192.69
632.245	206.69
632.451	184.69
632.657	189.69
632.863	205.69
633.069	196.69
633.275	180.69
633.481	206.69
633.688	196.69
633.893	200.69
634.099	184.69
634.305	192.69
634.511	192.69
634.717	215.69
634.923	196.69
635.129	181.69
635.335	171.69
635.541	161.69
635.747	180.69
635.952	194.69
636.158	195.69
636.364	185.69
636.57	179.69
636.775	193.69
636.981	193.69
637.187	189.69
637.392	203.69
637.598	204.69
637.804	177.69
638.009	182.69
638.215	196.69
638.421	165.69
638.626	180.69
638.832	169.69
639.037	173.69
639.243	183.69
639.448	183.69
639.654	194.69
639.859	171.69
640.065	175.69
640.27	176.69
640.475	162.69
640.681	182.69
640.886	187.69
641.091	172.69
641.297	171.69
641.502	184.69
641.707	186.69
641.913	183.69
642.118	165.69
642.323	173.69
642.528	185.69
642.733	183.69
642.939	171.69
643.144	179.69
643.349	181.69
643.554	178.69
643.759	183.69
643.964	174.69
644.169	183.69
644.374	173.69
644.579	179.69
644.784	164.69
644.989	165.69
645.194	187.69
645.399	185.69
645.604	176.69
645.809	176.69
646.014	183.69
646.219	187.69
646.423	185.69
646.628	182.69
646.833	170.69
647.038	172.69
647.243	167.69
647.447	140.69
647.652	170.69
647.857	161.69
648.062	179.69
648.266	177.69
648.471	177.69
648.676	170.69
648.88	167.69
649.085	168.69
649.289	179.69
649.494	172.69
649.698	196.69
649.903	187.69
650.107	161.69
650.312	177.69
650.516	165.69
650.721	150.69
650.925	162.69
651.13	166.69
651.334	164.69
651.539	142.69
651.743	161.69
651.947	152.69
652.152	151.69
652.356	143.69
652.56	132.69
652.764	147.69
652.969	151.69
653.173	116.69
653.377	147.69
653.581	141.69
653.785	145.69
653.99	139.69
654.194	151.69
654.398	141.69
654.602	145.69
654.806	137.69
655.01	150.69
655.214	139.69
655.418	140.69
655.622	138.69
655.826	132.69
656.03	140.69
656.234	133.69
656.438	140.69
656.642	137.69
656.846	127.69
657.049	135.69
657.253	122.69
657.457	129.69
657.661	119.69
657.865	120.69
658.068	118.69
658.272	122.69
658.476	113.69
658.68	112.69
658.883	106.69
659.087	105.69
659.291	99.69
659.494	84.69
659.698	96.69
659.901	85.69
660.105	106.69
660.309	106.69
660.512	92.69
660.716	83.69
660.919	102.69
661.123	99.69
661.326	87.69
661.53	85.69
661.733	93.69
661.936	82.69
662.14	87.69
662.343	75.69
662.546	79.69
662.75	85.69
662.953	99.69
663.156	80.69
663.36	76.69
663.563	73.69
663.766	71.69
663.969	86.69
664.173	69.69
664.376	84.69
664.579	91.69
664.782	83.69
664.985	76.69
665.188	88.69
665.391	83.69
665.594	80.69
665.797	82.69
666	99.69
666.203	84.69
666.406	83.69
666.609	90.69
666.812	74.69
667.015	67.69
667.218	82.69
667.421	101.69
667.624	95.69
667.827	85.69
668.03	83.69
668.232	78.69
668.435	73.69
668.638	78.69
668.841	75.69
669.043	69.69
669.246	92.69
669.449	72.69
669.651	94.69
669.854	77.69
670.057	74.69
670.259	74.69
670.462	82.69
670.665	77.69
670.867	97.69
671.07	78.69
671.272	83.69
671.475	89.69
671.677	93.69
671.88	82.69
672.082	86.69
672.284	91.69
672.487	87.69
672.689	75.69
672.892	80.69
