Data from 1989.PennyLincolnUp.Lamp.En5.5.200Scan.071819.P2_HRD10591_17-25-16-974.txt Node
Date: Thu Jul 18 17:25:16 EDT 2019
User: cochatt
Spectrometer: HR+D1059
Trigger mode: 1
Integration Time (sec): 1.000000E-1
Scans to average: 1
Electric dark correction enabled: true
Nonlinearity correction enabled: false
Boxcar width: 0
XAxis mode: Wavelengths
Number of Pixels in Spectrum: 2048
>>>>>Begin Spectral Data<<<<<
223.165	-8.19
223.4	-8.19
223.635	-8.19
223.869	-12.19
224.104	-16.19
224.338	-9.19
224.573	-25.19
224.808	-22.19
225.042	-16.19
225.277	-4.19
225.511	-1.19
225.746	8.81
225.98	6.81
226.215	5.81
226.449	8.81
226.683	23.81
226.918	33.81
227.152	26.81
227.387	39.81
227.621	51.81
227.856	49.81
228.09	41.81
228.324	57.81
228.559	58.81
228.793	68.81
229.027	114.81
229.262	123.81
229.496	119.81
229.73	133.81
229.964	185.81
230.199	146.81
230.433	123.81
230.667	123.81
230.901	118.81
231.136	121.81
231.37	118.81
231.604	124.81
231.838	117.81
232.072	116.81
232.306	122.81
232.541	123.81
232.775	130.81
233.009	117.81
233.243	118.81
233.477	128.81
233.711	108.81
233.945	116.81
234.179	111.81
234.413	122.81
234.647	123.81
234.881	114.81
235.115	131.81
235.349	121.81
235.583	131.81
235.817	116.81
236.051	134.81
236.285	149.81
236.519	135.81
236.753	138.81
236.987	164.81
237.221	201.81
237.455	274.81
237.689	226.81
237.922	162.81
238.156	139.81
238.39	138.81
238.624	138.81
238.858	133.81
239.091	135.81
239.325	131.81
239.559	137.81
239.793	128.81
240.027	123.81
240.26	153.81
240.494	167.81
240.728	181.81
240.961	153.81
241.195	162.81
241.429	162.81
241.662	148.81
241.896	147.81
242.13	145.81
242.363	141.81
242.597	143.81
242.83	137.81
243.064	142.81
243.298	147.81
243.531	157.81
243.765	154.81
243.998	161.81
244.232	150.81
244.465	155.81
244.699	158.81
244.932	164.81
245.166	166.81
245.399	163.81
245.633	145.81
245.866	173.81
246.099	153.81
246.333	157.81
246.566	163.81
246.8	158.81
247.033	165.81
247.266	164.81
247.5	165.81
247.733	168.81
247.966	178.81
248.2	190.81
248.433	193.81
248.666	197.81
248.899	197.81
249.133	227.81
249.366	238.81
249.599	242.81
249.832	206.81
250.066	202.81
250.299	195.81
250.532	213.81
250.765	214.81
250.998	258.81
251.231	238.81
251.465	229.81
251.698	233.81
251.931	226.81
252.164	221.81
252.397	216.81
252.63	217.81
252.863	225.81
253.096	244.81
253.329	255.81
253.562	259.81
253.795	246.81
254.028	242.81
254.261	256.81
254.494	259.81
254.727	297.81
254.96	323.81
255.193	311.81
255.426	280.81
255.659	277.81
255.892	258.81
256.124	275.81
256.357	282.81
256.59	266.81
256.823	253.81
257.056	252.81
257.289	236.81
257.521	247.81
257.754	238.81
257.987	241.81
258.22	243.81
258.452	246.81
258.685	226.81
258.918	238.81
259.151	246.81
259.383	245.81
259.616	251.81
259.849	269.81
260.081	269.81
260.314	289.81
260.547	293.81
260.779	290.81
261.012	270.81
261.244	249.81
261.477	271.81
261.71	268.81
261.942	263.81
262.175	266.81
262.407	271.81
262.64	269.81
262.872	246.81
263.105	242.81
263.337	230.81
263.57	238.81
263.802	248.81
264.035	238.81
264.267	232.81
264.499	237.81
264.732	220.81
264.964	222.81
265.197	235.81
265.429	238.81
265.661	231.81
265.894	246.81
266.126	233.81
266.358	222.81
266.591	227.81
266.823	238.81
267.055	268.81
267.287	269.81
267.52	266.81
267.752	251.81
267.984	246.81
268.216	246.81
268.448	283.81
268.681	273.81
268.913	283.81
269.145	301.81
269.377	315.81
269.609	307.81
269.841	318.81
270.073	314.81
270.306	330.81
270.538	373.81
270.77	351.81
271.002	356.81
271.234	333.81
271.466	356.81
271.698	365.81
271.93	370.81
272.162	353.81
272.394	373.81
272.626	342.81
272.858	349.81
273.09	337.81
273.322	311.81
273.553	305.81
273.785	318.81
274.017	305.81
274.249	301.81
274.481	311.81
274.713	319.81
274.945	322.81
275.176	306.81
275.408	301.81
275.64	296.81
275.872	293.81
276.104	303.81
276.335	309.81
276.567	318.81
276.799	334.81
277.031	339.81
277.262	372.81
277.494	385.81
277.726	354.81
277.957	355.81
278.189	302.81
278.421	318.81
278.652	309.81
278.884	310.81
279.115	298.81
279.347	299.81
279.579	307.81
279.81	311.81
280.042	299.81
280.273	288.81
280.505	291.81
280.736	295.81
280.968	302.81
281.199	307.81
281.431	282.81
281.662	291.81
281.894	318.81
282.125	287.81
282.356	298.81
282.588	350.81
282.819	326.81
283.051	301.81
283.282	297.81
283.513	303.81
283.745	310.81
283.976	309.81
284.207	317.81
284.439	304.81
284.67	310.81
284.901	318.81
285.132	312.81
285.364	281.81
285.595	313.81
285.826	296.81
286.057	313.81
286.288	310.81
286.52	307.81
286.751	322.81
286.982	318.81
287.213	311.81
287.444	308.81
287.675	308.81
287.906	316.81
288.138	335.81
288.369	346.81
288.6	348.81
288.831	345.81
289.062	318.81
289.293	337.81
289.524	321.81
289.755	310.81
289.986	341.81
290.217	318.81
290.448	297.81
290.679	302.81
290.91	322.81
291.141	333.81
291.371	316.81
291.602	332.81
291.833	320.81
292.064	322.81
292.295	330.81
292.526	315.81
292.757	315.81
292.987	316.81
293.218	339.81
293.449	312.81
293.68	318.81
293.91	322.81
294.141	319.81
294.372	307.81
294.603	300.81
294.833	309.81
295.064	335.81
295.295	317.81
295.525	336.81
295.756	325.81
295.987	335.81
296.217	351.81
296.448	378.81
296.679	342.81
296.909	319.81
297.14	334.81
297.37	323.81
297.601	319.81
297.831	349.81
298.062	321.81
298.292	353.81
298.523	335.81
298.753	334.81
298.984	319.81
299.214	357.81
299.445	341.81
299.675	369.81
299.905	349.81
300.136	343.81
300.366	343.81
300.597	344.81
300.827	345.81
301.057	354.81
301.288	363.81
301.518	359.81
301.748	355.81
301.979	362.81
302.209	365.81
302.439	328.81
302.669	373.81
302.9	369.81
303.13	364.81
303.36	353.81
303.59	356.81
303.82	398.81
304.051	385.81
304.281	356.81
304.511	343.81
304.741	357.81
304.971	359.81
305.201	361.81
305.431	373.81
305.661	367.81
305.891	358.81
306.121	357.81
306.352	366.81
306.582	360.81
306.812	387.81
307.042	366.81
307.272	373.81
307.502	359.81
307.731	358.81
307.961	373.81
308.191	358.81
308.421	348.81
308.651	371.81
308.881	370.81
309.111	385.81
309.341	385.81
309.571	393.81
309.8	389.81
310.03	414.81
310.26	418.81
310.49	438.81
310.72	427.81
310.949	428.81
311.179	442.81
311.409	454.81
311.639	417.81
311.868	420.81
312.098	414.81
312.328	429.81
312.557	433.81
312.787	457.81
313.017	436.81
313.246	449.81
313.476	403.81
313.706	426.81
313.935	408.81
314.165	426.81
314.394	438.81
314.624	441.81
314.853	437.81
315.083	433.81
315.312	426.81
315.542	397.81
315.771	405.81
316.001	418.81
316.23	411.81
316.46	408.81
316.689	406.81
316.919	422.81
317.148	426.81
317.377	452.81
317.607	421.81
317.836	436.81
318.065	409.81
318.295	426.81
318.524	410.81
318.753	414.81
318.983	437.81
319.212	426.81
319.441	430.81
319.67	440.81
319.9	434.81
320.129	423.81
320.358	449.81
320.587	442.81
320.816	415.81
321.046	451.81
321.275	451.81
321.504	445.81
321.733	452.81
321.962	454.81
322.191	475.81
322.42	508.81
322.649	489.81
322.878	501.81
323.108	539.81
323.337	559.81
323.566	570.81
323.795	598.81
324.024	697.81
324.253	853.81
324.482	1213.81
324.71	1853.81
324.939	2699.81
325.168	2293.81
325.397	1145.81
325.626	762.81
325.855	641.81
326.084	596.81
326.313	582.81
326.542	587.81
326.77	645.81
326.999	765.81
327.228	1056.81
327.457	1625.81
327.686	2008.81
327.914	1350.81
328.143	883.81
328.372	750.81
328.6	685.81
328.829	668.81
329.058	686.81
329.287	675.81
329.515	642.81
329.744	590.81
329.972	571.81
330.201	582.81
330.43	651.81
330.658	664.81
330.887	709.81
331.115	691.81
331.344	580.81
331.572	559.81
331.801	549.81
332.03	571.81
332.258	515.81
332.486	479.81
332.715	490.81
332.943	501.81
333.172	517.81
333.4	496.81
333.629	521.81
333.857	530.81
334.085	540.81
334.314	563.81
334.542	582.81
334.771	621.81
334.999	554.81
335.227	514.81
335.455	522.81
335.684	484.81
335.912	487.81
336.14	487.81
336.369	498.81
336.597	487.81
336.825	489.81
337.053	471.81
337.281	479.81
337.51	476.81
337.738	477.81
337.966	468.81
338.194	464.81
338.422	490.81
338.65	474.81
338.878	456.81
339.106	469.81
339.334	454.81
339.562	445.81
339.79	461.81
340.018	465.81
340.246	470.81
340.474	474.81
340.702	455.81
340.93	469.81
341.158	457.81
341.386	461.81
341.614	462.81
341.842	471.81
342.07	460.81
342.298	463.81
342.526	444.81
342.754	433.81
342.981	425.81
343.209	451.81
343.437	451.81
343.665	445.81
343.893	457.81
344.12	478.81
344.348	457.81
344.576	458.81
344.804	466.81
345.031	485.81
345.259	497.81
345.487	458.81
345.714	473.81
345.942	472.81
346.17	446.81
346.397	461.81
346.625	467.81
346.853	435.81
347.08	434.81
347.308	438.81
347.535	457.81
347.763	470.81
347.99	467.81
348.218	478.81
348.445	491.81
348.673	474.81
348.9	457.81
349.128	437.81
349.355	437.81
349.583	443.81
349.81	438.81
350.037	425.81
350.265	425.81
350.492	442.81
350.72	414.81
350.947	441.81
351.174	439.81
351.402	439.81
351.629	463.81
351.856	461.81
352.083	455.81
352.311	466.81
352.538	463.81
352.765	471.81
352.992	462.81
353.22	457.81
353.447	453.81
353.674	434.81
353.901	426.81
354.128	420.81
354.355	417.81
354.583	405.81
354.81	424.81
355.037	416.81
355.264	400.81
355.491	404.81
355.718	405.81
355.945	403.81
356.172	410.81
356.399	441.81
356.626	392.81
356.853	405.81
357.08	399.81
357.307	394.81
357.534	398.81
357.761	392.81
357.988	413.81
358.215	403.81
358.441	409.81
358.668	428.81
358.895	413.81
359.122	433.81
359.349	417.81
359.576	443.81
359.802	487.81
360.029	492.81
360.256	517.81
360.483	471.81
360.709	444.81
360.936	438.81
361.163	434.81
361.39	427.81
361.616	468.81
361.843	453.81
362.07	453.81
362.296	466.81
362.523	446.81
362.749	416.81
362.976	429.81
363.203	407.81
363.429	431.81
363.656	426.81
363.882	403.81
364.109	426.81
364.335	411.81
364.562	415.81
364.788	422.81
365.015	423.81
365.241	412.81
365.468	426.81
365.694	431.81
365.92	435.81
366.147	415.81
366.373	415.81
366.599	403.81
366.826	405.81
367.052	397.81
367.278	425.81
367.505	419.81
367.731	429.81
367.957	417.81
368.184	399.81
368.41	399.81
368.636	413.81
368.862	437.81
369.089	438.81
369.315	415.81
369.541	393.81
369.767	411.81
369.993	414.81
370.219	423.81
370.445	431.81
370.672	396.81
370.898	395.81
371.124	404.81
371.35	409.81
371.576	420.81
371.802	399.81
372.028	414.81
372.254	400.81
372.48	413.81
372.706	400.81
372.932	395.81
373.158	394.81
373.384	416.81
373.61	399.81
373.835	432.81
374.061	405.81
374.287	422.81
374.513	417.81
374.739	431.81
374.965	403.81
375.191	421.81
375.416	423.81
375.642	392.81
375.868	410.81
376.094	403.81
376.319	412.81
376.545	397.81
376.771	397.81
376.997	383.81
377.222	417.81
377.448	408.81
377.674	403.81
377.899	399.81
378.125	401.81
378.35	395.81
378.576	396.81
378.802	389.81
379.027	407.81
379.253	390.81
379.478	396.81
379.704	399.81
379.929	388.81
380.155	386.81
380.38	398.81
380.606	413.81
380.831	389.81
381.057	399.81
381.282	405.81
381.507	396.81
381.733	401.81
381.958	399.81
382.184	390.81
382.409	396.81
382.634	405.81
382.86	395.81
383.085	405.81
383.31	409.81
383.535	389.81
383.761	388.81
383.986	401.81
384.211	415.81
384.436	402.81
384.662	413.81
384.887	433.81
385.112	419.81
385.337	415.81
385.562	411.81
385.787	411.81
386.013	426.81
386.238	443.81
386.463	423.81
386.688	434.81
386.913	412.81
387.138	424.81
387.363	423.81
387.588	431.81
387.813	417.81
388.038	439.81
388.263	398.81
388.488	414.81
388.713	434.81
388.938	439.81
389.163	425.81
389.387	409.81
389.612	423.81
389.837	401.81
390.062	428.81
390.287	414.81
390.512	425.81
390.736	426.81
390.961	413.81
391.186	382.81
391.411	418.81
391.636	421.81
391.86	453.81
392.085	427.81
392.31	428.81
392.534	425.81
392.759	428.81
392.984	415.81
393.208	409.81
393.433	424.81
393.658	423.81
393.882	433.81
394.107	411.81
394.331	416.81
394.556	425.81
394.78	414.81
395.005	426.81
395.229	439.81
395.454	426.81
395.678	448.81
395.903	450.81
396.127	479.81
396.352	457.81
396.576	458.81
396.801	454.81
397.025	427.81
397.249	446.81
397.474	451.81
397.698	448.81
397.922	442.81
398.147	474.81
398.371	471.81
398.595	470.81
398.82	472.81
399.044	464.81
399.268	455.81
399.492	486.81
399.717	525.81
399.941	561.81
400.165	583.81
400.389	588.81
400.613	561.81
400.837	479.81
401.062	493.81
401.286	505.81
401.51	481.81
401.734	480.81
401.958	488.81
402.182	484.81
402.406	474.81
402.63	491.81
402.854	486.81
403.078	490.81
403.302	496.81
403.526	496.81
403.75	506.81
403.974	479.81
404.198	453.81
404.422	475.81
404.645	489.81
404.869	492.81
405.093	527.81
405.317	581.81
405.541	587.81
405.765	551.81
405.988	534.81
406.212	549.81
406.436	554.81
406.66	563.81
406.883	545.81
407.107	574.81
407.331	612.81
407.555	651.81
407.778	673.81
408.002	612.81
408.226	585.81
408.449	546.81
408.673	561.81
408.896	581.81
409.12	628.81
409.344	583.81
409.567	522.81
409.791	516.81
410.014	498.81
410.238	519.81
410.461	477.81
410.685	493.81
410.908	516.81
411.132	569.81
411.355	603.81
411.578	557.81
411.802	503.81
412.025	494.81
412.249	515.81
412.472	511.81
412.695	542.81
412.919	532.81
413.142	516.81
413.365	467.81
413.589	472.81
413.812	464.81
414.035	464.81
414.258	461.81
414.482	466.81
414.705	462.81
414.928	476.81
415.151	454.81
415.374	477.81
415.597	475.81
415.821	466.81
416.044	479.81
416.267	461.81
416.49	465.81
416.713	452.81
416.936	464.81
417.159	469.81
417.382	458.81
417.605	487.81
417.828	481.81
418.051	517.81
418.274	475.81
418.497	458.81
418.72	480.81
418.943	469.81
419.166	470.81
419.389	515.81
419.611	477.81
419.834	506.81
420.057	481.81
420.28	485.81
420.503	495.81
420.726	495.81
420.948	522.81
421.171	549.81
421.394	587.81
421.617	562.81
421.839	490.81
422.062	463.81
422.285	517.81
422.507	565.81
422.73	655.81
422.953	631.81
423.175	554.81
423.398	519.81
423.621	522.81
423.843	563.81
424.066	555.81
424.288	551.81
424.511	539.81
424.733	608.81
424.956	700.81
425.178	663.81
425.401	679.81
425.623	697.81
425.846	616.81
426.068	551.81
426.291	529.81
426.513	539.81
426.735	571.81
426.958	577.81
427.18	658.81
427.402	827.81
427.625	911.81
427.847	811.81
428.069	695.81
428.292	601.81
428.514	555.81
428.736	527.81
428.958	492.81
429.181	494.81
429.403	505.81
429.625	528.81
429.847	527.81
430.069	627.81
430.292	609.81
430.514	532.81
430.736	494.81
430.958	495.81
431.18	475.81
431.402	454.81
431.624	450.81
431.846	455.81
432.068	479.81
432.29	461.81
432.512	449.81
432.734	482.81
432.956	489.81
433.178	458.81
433.4	486.81
433.622	452.81
433.844	469.81
434.066	475.81
434.287	452.81
434.509	477.81
434.731	462.81
434.953	478.81
435.175	498.81
435.397	546.81
435.618	546.81
435.84	577.81
436.062	689.81
436.284	753.81
436.505	644.81
436.727	573.81
436.949	522.81
437.17	476.81
437.392	488.81
437.614	503.81
437.835	576.81
438.057	664.81
438.278	750.81
438.5	755.81
438.721	829.81
438.943	774.81
439.165	631.81
439.386	585.81
439.608	565.81
439.829	551.81
440.05	596.81
440.272	638.81
440.493	595.81
440.715	530.81
440.936	502.81
441.158	507.81
441.379	495.81
441.6	505.81
441.822	507.81
442.043	578.81
442.264	681.81
442.486	723.81
442.707	591.81
442.928	572.81
443.149	544.81
443.371	565.81
443.592	627.81
443.813	720.81
444.034	796.81
444.255	637.81
444.476	577.81
444.698	538.81
444.919	543.81
445.14	636.81
445.361	589.81
445.582	595.81
445.803	659.81
446.024	776.81
446.245	739.81
446.466	699.81
446.687	592.81
446.908	559.81
447.129	532.81
447.35	517.81
447.571	492.81
447.792	481.81
448.013	498.81
448.234	513.81
448.455	568.81
448.675	693.81
448.896	823.81
449.117	693.81
449.338	639.81
449.559	753.81
449.779	838.81
450	682.81
450.221	561.81
450.442	511.81
450.662	502.81
450.883	512.81
451.104	538.81
451.324	521.81
451.545	475.81
451.766	451.81
451.986	439.81
452.207	446.81
452.428	440.81
452.648	460.81
452.869	438.81
453.089	436.81
453.31	450.81
453.53	493.81
453.751	441.81
453.971	437.81
454.192	497.81
454.412	452.81
454.633	455.81
454.853	470.81
455.073	451.81
455.294	454.81
455.514	540.81
455.734	531.81
455.955	461.81
456.175	421.81
456.395	426.81
456.616	420.81
456.836	429.81
457.056	406.81
457.276	410.81
457.497	395.81
457.717	395.81
457.937	431.81
458.157	432.81
458.377	444.81
458.598	458.81
458.818	516.81
459.038	623.81
459.258	641.81
459.478	540.81
459.698	477.81
459.918	475.81
460.138	460.81
460.358	460.81
460.578	431.81
460.798	456.81
461.018	460.81
461.238	437.81
461.458	460.81
461.678	453.81
461.898	450.81
462.118	473.81
462.338	454.81
462.558	467.81
462.777	445.81
462.997	467.81
463.217	466.81
463.437	486.81
463.657	474.81
463.876	485.81
464.096	471.81
464.316	479.81
464.536	490.81
464.755	488.81
464.975	483.81
465.195	546.81
465.414	655.81
465.634	571.81
465.854	508.81
466.073	494.81
466.293	488.81
466.512	447.81
466.732	415.81
466.951	447.81
467.171	442.81
467.391	447.81
467.61	457.81
467.829	462.81
468.049	455.81
468.268	433.81
468.488	451.81
468.707	434.81
468.927	435.81
469.146	424.81
469.365	418.81
469.585	422.81
469.804	443.81
470.023	462.81
470.243	458.81
470.462	465.81
470.681	477.81
470.901	465.81
471.12	457.81
471.339	441.81
471.558	454.81
471.777	450.81
471.997	445.81
472.216	435.81
472.435	498.81
472.654	485.81
472.873	473.81
473.092	452.81
473.311	468.81
473.53	446.81
473.749	469.81
473.968	519.81
474.187	645.81
474.406	659.81
474.625	535.81
474.844	483.81
475.063	471.81
475.282	447.81
475.501	451.81
475.72	436.81
475.939	456.81
476.158	477.81
476.377	465.81
476.596	465.81
476.814	489.81
477.033	483.81
477.252	471.81
477.471	469.81
477.69	483.81
477.908	501.81
478.127	491.81
478.346	494.81
478.564	507.81
478.783	478.81
479.002	507.81
479.22	506.81
479.439	510.81
479.658	549.81
479.876	536.81
480.095	533.81
480.313	580.81
480.532	575.81
480.751	557.81
480.969	559.81
481.188	613.81
481.406	653.81
481.624	582.81
481.843	551.81
482.061	553.81
482.28	528.81
482.498	543.81
482.717	548.81
482.935	530.81
483.153	537.81
483.372	538.81
483.59	519.81
483.808	525.81
484.027	546.81
484.245	523.81
484.463	548.81
484.681	557.81
484.9	538.81
485.118	509.81
485.336	526.81
485.554	562.81
485.772	547.81
485.99	556.81
486.209	561.81
486.427	543.81
486.645	555.81
486.863	588.81
487.081	603.81
487.299	569.81
487.517	582.81
487.735	566.81
487.953	580.81
488.171	554.81
488.389	575.81
488.607	583.81
488.825	596.81
489.043	569.81
489.261	591.81
489.479	580.81
489.696	594.81
489.914	581.81
490.132	631.81
490.35	605.81
490.568	608.81
490.786	609.81
491.003	623.81
491.221	655.81
491.439	643.81
491.657	635.81
491.874	669.81
492.092	645.81
492.31	658.81
492.527	665.81
492.745	682.81
492.963	661.81
493.18	696.81
493.398	666.81
493.615	677.81
493.833	681.81
494.05	665.81
494.268	684.81
494.485	695.81
494.703	677.81
494.92	696.81
495.138	712.81
495.355	693.81
495.573	689.81
495.79	698.81
496.008	698.81
496.225	696.81
496.442	710.81
496.66	705.81
496.877	687.81
497.094	684.81
497.312	707.81
497.529	693.81
497.746	698.81
497.963	712.81
498.181	748.81
498.398	748.81
498.615	723.81
498.832	751.81
499.049	776.81
499.267	753.81
499.484	790.81
499.701	809.81
499.918	799.81
500.135	821.81
500.352	864.81
500.569	895.81
500.786	890.81
501.003	890.81
501.22	866.81
501.437	843.81
501.654	835.81
501.871	837.81
502.088	799.81
502.305	762.81
502.522	769.81
502.739	725.81
502.956	694.81
503.172	708.81
503.389	733.81
503.606	714.81
503.823	697.81
504.04	701.81
504.256	672.81
504.473	680.81
504.69	659.81
504.907	680.81
505.123	677.81
505.34	657.81
505.557	667.81
505.773	636.81
505.99	686.81
506.207	689.81
506.423	672.81
506.64	641.81
506.856	686.81
507.073	655.81
507.289	655.81
507.506	637.81
507.722	664.81
507.939	699.81
508.155	655.81
508.372	620.81
508.588	603.81
508.805	633.81
509.021	635.81
509.238	644.81
509.454	654.81
509.67	650.81
509.887	639.81
510.103	634.81
510.319	686.81
510.536	767.81
510.752	1351.81
510.968	1073.81
511.184	691.81
511.401	635.81
511.617	620.81
511.833	615.81
512.049	611.81
512.265	614.81
512.481	594.81
512.698	578.81
512.914	601.81
513.13	618.81
513.346	609.81
513.562	607.81
513.778	626.81
513.994	639.81
514.21	636.81
514.426	634.81
514.642	713.81
514.858	728.81
515.074	773.81
515.29	957.81
515.506	1411.81
515.721	1144.81
515.937	766.81
516.153	698.81
516.369	656.81
516.585	623.81
516.801	632.81
517.016	618.81
517.232	616.81
517.448	606.81
517.664	623.81
517.879	592.81
518.095	615.81
518.311	610.81
518.527	618.81
518.742	600.81
518.958	601.81
519.173	601.81
519.389	591.81
519.605	605.81
519.82	607.81
520.036	624.81
520.251	633.81
520.467	684.81
520.682	677.81
520.898	697.81
521.113	730.81
521.329	773.81
521.544	897.81
521.76	1142.81
521.975	1935.81
522.19	1881.81
522.406	970.81
522.621	745.81
522.836	642.81
523.052	620.81
523.267	589.81
523.482	583.81
523.698	574.81
523.913	552.81
524.128	553.81
524.343	535.81
524.559	503.81
524.774	518.81
524.989	535.81
525.204	522.81
525.419	519.81
525.634	507.81
525.849	502.81
526.064	492.81
526.28	501.81
526.495	489.81
526.71	483.81
526.925	487.81
527.14	500.81
527.355	477.81
527.57	493.81
527.785	497.81
527.999	493.81
528.214	461.81
528.429	466.81
528.644	482.81
528.859	475.81
529.074	469.81
529.289	522.81
529.503	607.81
529.718	581.81
529.933	548.81
530.148	490.81
530.363	488.81
530.577	492.81
530.792	482.81
531.007	469.81
531.221	462.81
531.436	462.81
531.651	454.81
531.865	456.81
532.08	466.81
532.295	459.81
532.509	451.81
532.724	457.81
532.938	457.81
533.153	454.81
533.367	427.81
533.582	451.81
533.796	428.81
534.011	472.81
534.225	456.81
534.44	434.81
534.654	467.81
534.868	444.81
535.083	443.81
535.297	466.81
535.511	467.81
535.726	461.81
535.94	462.81
536.154	454.81
536.369	460.81
536.583	456.81
536.797	433.81
537.011	456.81
537.225	441.81
537.44	436.81
537.654	449.81
537.868	414.81
538.082	422.81
538.296	440.81
538.51	441.81
538.724	435.81
538.938	450.81
539.153	445.81
539.367	461.81
539.581	478.81
539.795	427.81
540.009	447.81
540.222	431.81
540.436	434.81
540.65	426.81
540.864	452.81
541.078	449.81
541.292	468.81
541.506	426.81
541.72	439.81
541.934	455.81
542.147	442.81
542.361	403.81
542.575	419.81
542.789	439.81
543.002	445.81
543.216	426.81
543.43	441.81
543.644	421.81
543.857	452.81
544.071	454.81
544.285	438.81
544.498	446.81
544.712	429.81
544.925	439.81
545.139	426.81
545.352	439.81
545.566	437.81
545.779	415.81
545.993	403.81
546.206	426.81
546.42	418.81
546.633	425.81
546.847	416.81
547.06	414.81
547.274	399.81
547.487	423.81
547.7	404.81
547.914	425.81
548.127	431.81
548.34	395.81
548.554	421.81
548.767	431.81
548.98	413.81
549.193	407.81
549.407	418.81
549.62	398.81
549.833	414.81
550.046	386.81
550.259	413.81
550.473	391.81
550.686	429.81
550.899	391.81
551.112	382.81
551.325	395.81
551.538	391.81
551.751	397.81
551.964	390.81
552.177	417.81
552.39	389.81
552.603	397.81
552.816	407.81
553.029	411.81
553.242	400.81
553.455	414.81
553.667	403.81
553.88	414.81
554.093	421.81
554.306	404.81
554.519	393.81
554.732	409.81
554.944	403.81
555.157	393.81
555.37	393.81
555.583	414.81
555.795	393.81
556.008	389.81
556.221	379.81
556.433	385.81
556.646	388.81
556.859	372.81
557.071	376.81
557.284	394.81
557.496	379.81
557.709	371.81
557.921	386.81
558.134	370.81
558.346	365.81
558.559	379.81
558.771	379.81
558.984	362.81
559.196	366.81
559.409	370.81
559.621	356.81
559.833	347.81
560.046	383.81
560.258	359.81
560.47	364.81
560.683	366.81
560.895	354.81
561.107	361.81
561.32	371.81
561.532	357.81
561.744	358.81
561.956	362.81
562.168	357.81
562.381	364.81
562.593	378.81
562.805	350.81
563.017	367.81
563.229	361.81
563.441	365.81
563.653	372.81
563.865	389.81
564.077	390.81
564.289	371.81
564.501	370.81
564.713	378.81
564.925	376.81
565.137	406.81
565.349	417.81
565.561	388.81
565.773	383.81
565.985	411.81
566.197	406.81
566.408	427.81
566.62	407.81
566.832	411.81
567.044	417.81
567.255	441.81
567.467	435.81
567.679	423.81
567.891	442.81
568.102	433.81
568.314	417.81
568.526	401.81
568.737	417.81
568.949	388.81
569.161	378.81
569.372	366.81
569.584	365.81
569.795	350.81
570.007	362.81
570.218	426.81
570.43	386.81
570.641	370.81
570.853	345.81
571.064	349.81
571.276	343.81
571.487	325.81
571.698	329.81
571.91	324.81
572.121	340.81
572.333	342.81
572.544	336.81
572.755	317.81
572.966	335.81
573.178	336.81
573.389	327.81
573.6	326.81
573.811	307.81
574.023	326.81
574.234	322.81
574.445	348.81
574.656	309.81
574.867	327.81
575.078	315.81
575.289	313.81
575.501	309.81
575.712	303.81
575.923	306.81
576.134	316.81
576.345	322.81
576.556	310.81
576.767	325.81
576.978	331.81
577.188	305.81
577.399	307.81
577.61	313.81
577.821	289.81
578.032	294.81
578.243	352.81
578.454	635.81
578.665	446.81
578.875	334.81
579.086	308.81
579.297	312.81
579.508	314.81
579.718	307.81
579.929	286.81
580.14	296.81
580.35	294.81
580.561	302.81
580.772	278.81
580.982	300.81
581.193	278.81
581.403	283.81
581.614	294.81
581.825	291.81
582.035	287.81
582.246	285.81
582.456	291.81
582.667	301.81
582.877	291.81
583.087	295.81
583.298	301.81
583.508	295.81
583.719	280.81
583.929	289.81
584.139	278.81
584.35	279.81
584.56	271.81
584.77	275.81
584.981	282.81
585.191	294.81
585.401	281.81
585.611	284.81
585.821	287.81
586.032	289.81
586.242	261.81
586.452	281.81
586.662	284.81
586.872	283.81
587.082	265.81
587.292	282.81
587.502	283.81
587.713	283.81
587.923	277.81
588.133	293.81
588.343	263.81
588.553	278.81
588.762	266.81
588.972	297.81
589.182	283.81
589.392	271.81
589.602	258.81
589.812	286.81
590.022	284.81
590.232	286.81
590.441	275.81
590.651	276.81
590.861	269.81
591.071	261.81
591.281	288.81
591.49	269.81
591.7	293.81
591.91	267.81
592.119	283.81
592.329	267.81
592.539	290.81
592.748	280.81
592.958	294.81
593.167	288.81
593.377	287.81
593.587	279.81
593.796	282.81
594.006	292.81
594.215	278.81
594.424	274.81
594.634	268.81
594.843	279.81
595.053	279.81
595.262	252.81
595.472	269.81
595.681	281.81
595.89	283.81
596.1	273.81
596.309	262.81
596.518	257.81
596.727	264.81
596.937	257.81
597.146	265.81
597.355	262.81
597.564	245.81
597.774	255.81
597.983	248.81
598.192	233.81
598.401	258.81
598.61	239.81
598.819	254.81
599.028	245.81
599.237	239.81
599.446	241.81
599.655	239.81
599.864	246.81
600.073	256.81
600.282	265.81
600.491	251.81
600.7	257.81
600.909	244.81
601.118	223.81
601.327	245.81
601.536	231.81
601.745	226.81
601.953	225.81
602.162	270.81
602.371	239.81
602.58	241.81
602.789	251.81
602.997	236.81
603.206	227.81
603.415	230.81
603.623	233.81
603.832	235.81
604.041	242.81
604.249	245.81
604.458	245.81
604.666	231.81
604.875	227.81
605.084	223.81
605.292	232.81
605.501	207.81
605.709	246.81
605.918	218.81
606.126	225.81
606.334	238.81
606.543	242.81
606.751	238.81
606.96	225.81
607.168	220.81
607.376	240.81
607.585	221.81
607.793	235.81
608.001	242.81
608.21	237.81
608.418	224.81
608.626	210.81
608.834	221.81
609.043	229.81
609.251	238.81
609.459	213.81
609.667	215.81
609.875	228.81
610.083	222.81
610.291	225.81
610.499	245.81
610.707	227.81
610.916	223.81
611.124	251.81
611.332	232.81
611.54	226.81
611.748	253.81
611.955	215.81
612.163	241.81
612.371	234.81
612.579	208.81
612.787	231.81
612.995	223.81
613.203	227.81
613.411	229.81
613.618	235.81
613.826	222.81
614.034	221.81
614.242	213.81
614.449	227.81
614.657	225.81
614.865	221.81
615.072	200.81
615.28	222.81
615.488	201.81
615.695	214.81
615.903	214.81
616.111	225.81
616.318	214.81
616.526	215.81
616.733	226.81
616.941	220.81
617.148	226.81
617.356	205.81
617.563	225.81
617.771	212.81
617.978	208.81
618.185	213.81
618.393	204.81
618.6	225.81
618.807	222.81
619.015	211.81
619.222	210.81
619.429	229.81
619.637	221.81
619.844	215.81
620.051	210.81
620.258	215.81
620.466	220.81
620.673	203.81
620.88	216.81
621.087	198.81
621.294	199.81
621.501	213.81
621.708	215.81
621.915	207.81
622.122	221.81
622.329	214.81
622.536	228.81
622.743	207.81
622.95	217.81
623.157	208.81
623.364	198.81
623.571	200.81
623.778	192.81
623.985	213.81
624.192	223.81
624.399	202.81
624.606	216.81
624.812	210.81
625.019	181.81
625.226	203.81
625.433	198.81
625.639	198.81
625.846	191.81
626.053	197.81
626.259	188.81
626.466	200.81
626.673	187.81
626.879	183.81
627.086	197.81
627.293	194.81
627.499	205.81
627.706	197.81
627.912	198.81
628.119	206.81
628.325	199.81
628.532	189.81
628.738	195.81
628.945	193.81
629.151	185.81
629.357	193.81
629.564	199.81
629.77	187.81
629.976	194.81
630.183	189.81
630.389	199.81
630.595	183.81
630.802	177.81
631.008	186.81
631.214	177.81
631.42	194.81
631.627	187.81
631.833	190.81
632.039	180.81
632.245	181.81
632.451	185.81
632.657	177.81
632.863	177.81
633.069	157.81
633.275	172.81
633.481	188.81
633.688	171.81
633.893	179.81
634.099	172.81
634.305	175.81
634.511	173.81
634.717	165.81
634.923	171.81
635.129	178.81
635.335	165.81
635.541	175.81
635.747	179.81
635.952	166.81
636.158	158.81
636.364	161.81
636.57	184.81
636.775	172.81
636.981	178.81
637.187	177.81
637.392	168.81
637.598	173.81
637.804	157.81
638.009	182.81
638.215	173.81
638.421	172.81
638.626	160.81
638.832	162.81
639.037	171.81
639.243	173.81
639.448	158.81
639.654	172.81
639.859	184.81
640.065	158.81
640.27	174.81
640.475	163.81
640.681	159.81
640.886	166.81
641.091	166.81
641.297	170.81
641.502	156.81
641.707	170.81
641.913	178.81
642.118	167.81
642.323	158.81
642.528	178.81
642.733	154.81
642.939	162.81
643.144	175.81
643.349	163.81
643.554	159.81
643.759	165.81
643.964	156.81
644.169	169.81
644.374	179.81
644.579	161.81
644.784	155.81
644.989	145.81
645.194	169.81
645.399	154.81
645.604	154.81
645.809	161.81
646.014	149.81
646.219	159.81
646.423	162.81
646.628	161.81
646.833	149.81
647.038	157.81
647.243	148.81
647.447	155.81
647.652	152.81
647.857	152.81
648.062	167.81
648.266	154.81
648.471	175.81
648.676	149.81
648.88	172.81
649.085	170.81
649.289	165.81
649.494	180.81
649.698	187.81
649.903	177.81
650.107	171.81
650.312	158.81
650.516	136.81
650.721	167.81
650.925	145.81
651.13	150.81
651.334	143.81
651.539	152.81
651.743	138.81
651.947	144.81
652.152	138.81
652.356	145.81
652.56	142.81
652.764	131.81
652.969	139.81
653.173	134.81
653.377	137.81
653.581	140.81
653.785	131.81
653.99	132.81
654.194	129.81
654.398	140.81
654.602	137.81
654.806	131.81
655.01	141.81
655.214	141.81
655.418	137.81
655.622	125.81
655.826	135.81
656.03	125.81
656.234	110.81
656.438	123.81
656.642	135.81
656.846	126.81
657.049	114.81
657.253	125.81
657.457	123.81
657.661	112.81
657.865	121.81
658.068	108.81
658.272	118.81
658.476	119.81
658.68	113.81
658.883	100.81
659.087	100.81
659.291	102.81
659.494	114.81
659.698	101.81
659.901	98.81
660.105	99.81
660.309	103.81
660.512	99.81
660.716	105.81
660.919	94.81
661.123	96.81
661.326	115.81
661.53	88.81
661.733	93.81
661.936	84.81
662.14	97.81
662.343	86.81
662.546	77.81
662.75	88.81
662.953	96.81
663.156	92.81
663.36	84.81
663.563	75.81
663.766	73.81
663.969	105.81
664.173	82.81
664.376	70.81
664.579	69.81
664.782	84.81
664.985	75.81
665.188	94.81
665.391	87.81
665.594	72.81
665.797	86.81
666	91.81
666.203	91.81
666.406	102.81
666.609	84.81
666.812	72.81
667.015	79.81
667.218	94.81
667.421	83.81
667.624	93.81
667.827	83.81
668.03	78.81
668.232	98.81
668.435	85.81
668.638	89.81
668.841	79.81
669.043	71.81
669.246	74.81
669.449	76.81
669.651	79.81
669.854	94.81
670.057	86.81
670.259	83.81
670.462	89.81
670.665	86.81
670.867	71.81
671.07	93.81
671.272	86.81
671.475	95.81
671.677	77.81
671.88	83.81
672.082	78.81
672.284	98.81
672.487	84.81
672.689	81.81
672.892	74.81
