Data from 1989.PennyLincolnUp.Lamp.En5.5.200Scan.071819.P2_HRD10591_17-25-20-973.txt Node
Date: Thu Jul 18 17:25:20 EDT 2019
User: cochatt
Spectrometer: HR+D1059
Trigger mode: 1
Integration Time (sec): 1.000000E-1
Scans to average: 1
Electric dark correction enabled: true
Nonlinearity correction enabled: false
Boxcar width: 0
XAxis mode: Wavelengths
Number of Pixels in Spectrum: 2048
>>>>>Begin Spectral Data<<<<<
223.165	-23.31
223.4	-23.31
223.635	-23.31
223.869	-17.31
224.104	-13.31
224.338	-19.31
224.573	-17.31
224.808	-14.31
225.042	-3.31
225.277	-3.31
225.511	3.69
225.746	8.69
225.98	-5.31
226.215	5.69
226.449	20.69
226.683	32.69
226.918	24.69
227.152	20.69
227.387	43.69
227.621	44.69
227.856	46.69
228.09	55.69
228.324	48.69
228.559	59.69
228.793	64.69
229.027	116.69
229.262	113.69
229.496	131.69
229.73	136.69
229.964	149.69
230.199	131.69
230.433	137.69
230.667	128.69
230.901	125.69
231.136	100.69
231.37	107.69
231.604	104.69
231.838	116.69
232.072	118.69
232.306	124.69
232.541	128.69
232.775	132.69
233.009	117.69
233.243	134.69
233.477	111.69
233.711	122.69
233.945	116.69
234.179	125.69
234.413	115.69
234.647	120.69
234.881	119.69
235.115	120.69
235.349	120.69
235.583	119.69
235.817	127.69
236.051	123.69
236.285	130.69
236.519	123.69
236.753	129.69
236.987	144.69
237.221	177.69
237.455	259.69
237.689	203.69
237.922	147.69
238.156	126.69
238.39	124.69
238.624	125.69
238.858	124.69
239.091	125.69
239.325	127.69
239.559	118.69
239.793	138.69
240.027	149.69
240.26	148.69
240.494	145.69
240.728	182.69
240.961	162.69
241.195	152.69
241.429	141.69
241.662	148.69
241.896	139.69
242.13	145.69
242.363	130.69
242.597	160.69
242.83	141.69
243.064	149.69
243.298	143.69
243.531	141.69
243.765	155.69
243.998	133.69
244.232	162.69
244.465	160.69
244.699	160.69
244.932	151.69
245.166	141.69
245.399	145.69
245.633	145.69
245.866	160.69
246.099	162.69
246.333	159.69
246.566	144.69
246.8	151.69
247.033	177.69
247.266	159.69
247.5	179.69
247.733	173.69
247.966	172.69
248.2	180.69
248.433	177.69
248.666	179.69
248.899	210.69
249.133	208.69
249.366	231.69
249.599	217.69
249.832	197.69
250.066	212.69
250.299	201.69
250.532	223.69
250.765	238.69
250.998	265.69
251.231	262.69
251.465	234.69
251.698	208.69
251.931	201.69
252.164	220.69
252.397	229.69
252.63	234.69
252.863	215.69
253.096	239.69
253.329	260.69
253.562	267.69
253.795	243.69
254.028	237.69
254.261	243.69
254.494	261.69
254.727	296.69
254.96	332.69
255.193	316.69
255.426	286.69
255.659	259.69
255.892	257.69
256.124	256.69
256.357	268.69
256.59	263.69
256.823	259.69
257.056	227.69
257.289	235.69
257.521	248.69
257.754	255.69
257.987	235.69
258.22	250.69
258.452	231.69
258.685	226.69
258.918	235.69
259.151	224.69
259.383	243.69
259.616	263.69
259.849	224.69
260.081	262.69
260.314	273.69
260.547	288.69
260.779	276.69
261.012	279.69
261.244	247.69
261.477	254.69
261.71	235.69
261.942	267.69
262.175	268.69
262.407	257.69
262.64	248.69
262.872	228.69
263.105	239.69
263.337	235.69
263.57	234.69
263.802	242.69
264.035	230.69
264.267	233.69
264.499	232.69
264.732	224.69
264.964	215.69
265.197	226.69
265.429	226.69
265.661	232.69
265.894	236.69
266.126	226.69
266.358	239.69
266.591	231.69
266.823	236.69
267.055	233.69
267.287	253.69
267.52	245.69
267.752	242.69
267.984	255.69
268.216	262.69
268.448	263.69
268.681	268.69
268.913	265.69
269.145	292.69
269.377	315.69
269.609	326.69
269.841	312.69
270.073	308.69
270.306	323.69
270.538	359.69
270.77	353.69
271.002	347.69
271.234	326.69
271.466	340.69
271.698	365.69
271.93	369.69
272.162	351.69
272.394	344.69
272.626	357.69
272.858	325.69
273.09	303.69
273.322	289.69
273.553	297.69
273.785	308.69
274.017	282.69
274.249	289.69
274.481	293.69
274.713	306.69
274.945	299.69
275.176	294.69
275.408	282.69
275.64	295.69
275.872	295.69
276.104	269.69
276.335	289.69
276.567	287.69
276.799	316.69
277.031	341.69
277.262	362.69
277.494	359.69
277.726	324.69
277.957	328.69
278.189	322.69
278.421	298.69
278.652	299.69
278.884	299.69
279.115	298.69
279.347	286.69
279.579	290.69
279.81	283.69
280.042	279.69
280.273	308.69
280.505	309.69
280.736	287.69
280.968	287.69
281.199	287.69
281.431	275.69
281.662	283.69
281.894	290.69
282.125	308.69
282.356	308.69
282.588	330.69
282.819	330.69
283.051	291.69
283.282	300.69
283.513	295.69
283.745	292.69
283.976	306.69
284.207	312.69
284.439	308.69
284.67	294.69
284.901	310.69
285.132	284.69
285.364	292.69
285.595	312.69
285.826	292.69
286.057	306.69
286.288	305.69
286.52	320.69
286.751	305.69
286.982	300.69
287.213	311.69
287.444	303.69
287.675	316.69
287.906	328.69
288.138	340.69
288.369	311.69
288.6	321.69
288.831	323.69
289.062	319.69
289.293	327.69
289.524	328.69
289.755	299.69
289.986	313.69
290.217	321.69
290.448	306.69
290.679	309.69
290.91	295.69
291.141	317.69
291.371	308.69
291.602	305.69
291.833	321.69
292.064	335.69
292.295	313.69
292.526	312.69
292.757	310.69
292.987	287.69
293.218	301.69
293.449	309.69
293.68	309.69
293.91	330.69
294.141	326.69
294.372	308.69
294.603	312.69
294.833	321.69
295.064	317.69
295.295	333.69
295.525	325.69
295.756	330.69
295.987	329.69
296.217	333.69
296.448	369.69
296.679	329.69
296.909	337.69
297.14	315.69
297.37	331.69
297.601	335.69
297.831	318.69
298.062	328.69
298.292	323.69
298.523	337.69
298.753	351.69
298.984	307.69
299.214	320.69
299.445	333.69
299.675	337.69
299.905	317.69
300.136	327.69
300.366	339.69
300.597	359.69
300.827	344.69
301.057	329.69
301.288	373.69
301.518	367.69
301.748	338.69
301.979	350.69
302.209	353.69
302.439	343.69
302.669	348.69
302.9	355.69
303.13	366.69
303.36	357.69
303.59	344.69
303.82	364.69
304.051	355.69
304.281	356.69
304.511	346.69
304.741	361.69
304.971	327.69
305.201	373.69
305.431	358.69
305.661	365.69
305.891	368.69
306.121	367.69
306.352	360.69
306.582	361.69
306.812	367.69
307.042	359.69
307.272	356.69
307.502	357.69
307.731	374.69
307.961	357.69
308.191	356.69
308.421	344.69
308.651	369.69
308.881	370.69
309.111	360.69
309.341	377.69
309.571	367.69
309.8	400.69
310.03	396.69
310.26	412.69
310.49	415.69
310.72	420.69
310.949	417.69
311.179	431.69
311.409	406.69
311.639	406.69
311.868	397.69
312.098	431.69
312.328	415.69
312.557	434.69
312.787	457.69
313.017	462.69
313.246	428.69
313.476	404.69
313.706	421.69
313.935	421.69
314.165	435.69
314.394	437.69
314.624	440.69
314.853	417.69
315.083	423.69
315.312	402.69
315.542	405.69
315.771	395.69
316.001	394.69
316.23	401.69
316.46	397.69
316.689	404.69
316.919	407.69
317.148	425.69
317.377	436.69
317.607	413.69
317.836	426.69
318.065	419.69
318.295	420.69
318.524	422.69
318.753	412.69
318.983	403.69
319.212	407.69
319.441	416.69
319.67	428.69
319.9	422.69
320.129	418.69
320.358	405.69
320.587	406.69
320.816	401.69
321.046	422.69
321.275	438.69
321.504	440.69
321.733	461.69
321.962	431.69
322.191	469.69
322.42	480.69
322.649	515.69
322.878	522.69
323.108	530.69
323.337	498.69
323.566	555.69
323.795	600.69
324.024	639.69
324.253	803.69
324.482	1104.69
324.71	1770.69
324.939	2548.69
325.168	2206.69
325.397	1158.69
325.626	772.69
325.855	633.69
326.084	570.69
326.313	565.69
326.542	583.69
326.77	638.69
326.999	725.69
327.228	1043.69
327.457	1579.69
327.686	1896.69
327.914	1252.69
328.143	844.69
328.372	735.69
328.6	663.69
328.829	623.69
329.058	651.69
329.287	668.69
329.515	617.69
329.744	565.69
329.972	557.69
330.201	594.69
330.43	637.69
330.658	649.69
330.887	687.69
331.115	663.69
331.344	564.69
331.572	563.69
331.801	548.69
332.03	519.69
332.258	517.69
332.486	500.69
332.715	480.69
332.943	482.69
333.172	460.69
333.4	499.69
333.629	513.69
333.857	508.69
334.085	530.69
334.314	552.69
334.542	564.69
334.771	597.69
334.999	545.69
335.227	493.69
335.455	489.69
335.684	495.69
335.912	474.69
336.14	467.69
336.369	458.69
336.597	484.69
336.825	477.69
337.053	501.69
337.281	473.69
337.51	471.69
337.738	475.69
337.966	474.69
338.194	476.69
338.422	475.69
338.65	452.69
338.878	451.69
339.106	464.69
339.334	465.69
339.562	435.69
339.79	464.69
340.018	469.69
340.246	441.69
340.474	455.69
340.702	453.69
340.93	469.69
341.158	454.69
341.386	443.69
341.614	432.69
341.842	469.69
342.07	443.69
342.298	444.69
342.526	458.69
342.754	459.69
342.981	432.69
343.209	422.69
343.437	441.69
343.665	431.69
343.893	427.69
344.12	465.69
344.348	444.69
344.576	454.69
344.804	471.69
345.031	482.69
345.259	473.69
345.487	461.69
345.714	458.69
345.942	445.69
346.17	441.69
346.397	415.69
346.625	446.69
346.853	439.69
347.08	444.69
347.308	467.69
347.535	464.69
347.763	450.69
347.99	459.69
348.218	434.69
348.445	479.69
348.673	459.69
348.9	442.69
349.128	424.69
349.355	426.69
349.583	436.69
349.81	411.69
350.037	427.69
350.265	423.69
350.492	415.69
350.72	423.69
350.947	432.69
351.174	448.69
351.402	452.69
351.629	445.69
351.856	447.69
352.083	447.69
352.311	473.69
352.538	459.69
352.765	456.69
352.992	432.69
353.22	427.69
353.447	441.69
353.674	426.69
353.901	409.69
354.128	411.69
354.355	432.69
354.583	417.69
354.81	412.69
355.037	420.69
355.264	419.69
355.491	416.69
355.718	394.69
355.945	418.69
356.172	385.69
356.399	409.69
356.626	402.69
356.853	400.69
357.08	396.69
357.307	392.69
357.534	411.69
357.761	385.69
357.988	403.69
358.215	410.69
358.441	399.69
358.668	405.69
358.895	415.69
359.122	413.69
359.349	411.69
359.576	437.69
359.802	455.69
360.029	489.69
360.256	489.69
360.483	449.69
360.709	439.69
360.936	447.69
361.163	459.69
361.39	460.69
361.616	431.69
361.843	441.69
362.07	415.69
362.296	420.69
362.523	425.69
362.749	423.69
362.976	429.69
363.203	420.69
363.429	424.69
363.656	428.69
363.882	392.69
364.109	411.69
364.335	412.69
364.562	414.69
364.788	396.69
365.015	412.69
365.241	424.69
365.468	425.69
365.694	428.69
365.92	416.69
366.147	417.69
366.373	403.69
366.599	427.69
366.826	421.69
367.052	410.69
367.278	414.69
367.505	415.69
367.731	402.69
367.957	393.69
368.184	395.69
368.41	414.69
368.636	425.69
368.862	417.69
369.089	424.69
369.315	388.69
369.541	412.69
369.767	404.69
369.993	401.69
370.219	415.69
370.445	413.69
370.672	405.69
370.898	401.69
371.124	415.69
371.35	410.69
371.576	409.69
371.802	406.69
372.028	385.69
372.254	400.69
372.48	404.69
372.706	407.69
372.932	394.69
373.158	407.69
373.384	394.69
373.61	433.69
373.835	409.69
374.061	401.69
374.287	397.69
374.513	403.69
374.739	398.69
374.965	407.69
375.191	408.69
375.416	422.69
375.642	381.69
375.868	396.69
376.094	401.69
376.319	402.69
376.545	405.69
376.771	397.69
376.997	389.69
377.222	389.69
377.448	405.69
377.674	408.69
377.899	395.69
378.125	393.69
378.35	393.69
378.576	397.69
378.802	394.69
379.027	382.69
379.253	407.69
379.478	377.69
379.704	375.69
379.929	400.69
380.155	393.69
380.38	404.69
380.606	396.69
380.831	393.69
381.057	377.69
381.282	398.69
381.507	376.69
381.733	399.69
381.958	380.69
382.184	379.69
382.409	408.69
382.634	407.69
382.86	395.69
383.085	396.69
383.31	392.69
383.535	390.69
383.761	398.69
383.986	403.69
384.211	421.69
384.436	416.69
384.662	401.69
384.887	413.69
385.112	409.69
385.337	417.69
385.562	397.69
385.787	419.69
386.013	423.69
386.238	420.69
386.463	419.69
386.688	411.69
386.913	419.69
387.138	426.69
387.363	427.69
387.588	424.69
387.813	421.69
388.038	409.69
388.263	418.69
388.488	431.69
388.713	437.69
388.938	400.69
389.163	420.69
389.387	441.69
389.612	401.69
389.837	416.69
390.062	407.69
390.287	419.69
390.512	407.69
390.736	446.69
390.961	426.69
391.186	415.69
391.411	425.69
391.636	427.69
391.86	428.69
392.085	421.69
392.31	433.69
392.534	428.69
392.759	425.69
392.984	419.69
393.208	431.69
393.433	426.69
393.658	421.69
393.882	415.69
394.107	425.69
394.331	401.69
394.556	419.69
394.78	408.69
395.005	412.69
395.229	419.69
395.454	423.69
395.678	433.69
395.903	451.69
396.127	459.69
396.352	471.69
396.576	431.69
396.801	416.69
397.025	410.69
397.249	437.69
397.474	436.69
397.698	441.69
397.922	467.69
398.147	487.69
398.371	496.69
398.595	476.69
398.82	460.69
399.044	473.69
399.268	482.69
399.492	489.69
399.717	520.69
399.941	553.69
400.165	580.69
400.389	588.69
400.613	540.69
400.837	490.69
401.062	481.69
401.286	486.69
401.51	467.69
401.734	463.69
401.958	483.69
402.182	470.69
402.406	482.69
402.63	485.69
402.854	479.69
403.078	457.69
403.302	496.69
403.526	469.69
403.75	486.69
403.974	482.69
404.198	451.69
404.422	488.69
404.645	485.69
404.869	484.69
405.093	537.69
405.317	571.69
405.541	593.69
405.765	549.69
405.988	498.69
406.212	524.69
406.436	552.69
406.66	570.69
406.883	539.69
407.107	554.69
407.331	580.69
407.555	659.69
407.778	651.69
408.002	596.69
408.226	555.69
408.449	542.69
408.673	548.69
408.896	567.69
409.12	623.69
409.344	593.69
409.567	527.69
409.791	508.69
410.014	482.69
410.238	502.69
410.461	491.69
410.685	486.69
410.908	535.69
411.132	561.69
411.355	583.69
411.578	537.69
411.802	495.69
412.025	471.69
412.249	509.69
412.472	530.69
412.695	563.69
412.919	546.69
413.142	506.69
413.365	479.69
413.589	477.69
413.812	469.69
414.035	461.69
414.258	447.69
414.482	448.69
414.705	452.69
414.928	441.69
415.151	476.69
415.374	461.69
415.597	448.69
415.821	455.69
416.044	450.69
416.267	466.69
416.49	464.69
416.713	458.69
416.936	431.69
417.159	451.69
417.382	468.69
417.605	466.69
417.828	479.69
418.051	495.69
418.274	485.69
418.497	461.69
418.72	451.69
418.943	452.69
419.166	468.69
419.389	490.69
419.611	491.69
419.834	472.69
420.057	484.69
420.28	497.69
420.503	478.69
420.726	476.69
420.948	504.69
421.171	563.69
421.394	573.69
421.617	513.69
421.839	499.69
422.062	491.69
422.285	504.69
422.507	529.69
422.73	616.69
422.953	595.69
423.175	541.69
423.398	502.69
423.621	531.69
423.843	516.69
424.066	547.69
424.288	524.69
424.511	563.69
424.733	618.69
424.956	706.69
425.178	666.69
425.401	663.69
425.623	660.69
425.846	573.69
426.068	548.69
426.291	507.69
426.513	524.69
426.735	571.69
426.958	602.69
427.18	705.69
427.402	810.69
427.625	886.69
427.847	771.69
428.069	651.69
428.292	576.69
428.514	529.69
428.736	507.69
428.958	489.69
429.181	484.69
429.403	504.69
429.625	488.69
429.847	541.69
430.069	593.69
430.292	595.69
430.514	524.69
430.736	497.69
430.958	478.69
431.18	463.69
431.402	443.69
431.624	451.69
431.846	459.69
432.068	461.69
432.29	445.69
432.512	454.69
432.734	467.69
432.956	462.69
433.178	480.69
433.4	488.69
433.622	464.69
433.844	453.69
434.066	457.69
434.287	457.69
434.509	460.69
434.731	440.69
434.953	459.69
435.175	486.69
435.397	523.69
435.618	514.69
435.84	570.69
436.062	673.69
436.284	746.69
436.505	616.69
436.727	532.69
436.949	515.69
437.17	499.69
437.392	488.69
437.614	513.69
437.835	542.69
438.057	650.69
438.278	754.69
438.5	724.69
438.721	795.69
438.943	761.69
439.165	608.69
439.386	563.69
439.608	567.69
439.829	553.69
440.05	603.69
440.272	635.69
440.493	594.69
440.715	540.69
440.936	497.69
441.158	487.69
441.379	487.69
441.6	497.69
441.822	549.69
442.043	589.69
442.264	663.69
442.486	731.69
442.707	607.69
442.928	578.69
443.149	559.69
443.371	583.69
443.592	591.69
443.813	724.69
444.034	784.69
444.255	643.69
444.476	573.69
444.698	541.69
444.919	523.69
445.14	612.69
445.361	575.69
445.582	574.69
445.803	638.69
446.024	752.69
446.245	735.69
446.466	713.69
446.687	600.69
446.908	522.69
447.129	495.69
447.35	490.69
447.571	485.69
447.792	486.69
448.013	483.69
448.234	515.69
448.455	582.69
448.675	688.69
448.896	799.69
449.117	684.69
449.338	626.69
449.559	735.69
449.779	831.69
450	674.69
450.221	565.69
450.442	525.69
450.662	497.69
450.883	487.69
451.104	503.69
451.324	490.69
451.545	482.69
451.766	457.69
451.986	451.69
452.207	437.69
452.428	442.69
452.648	444.69
452.869	437.69
453.089	456.69
453.31	478.69
453.53	453.69
453.751	464.69
453.971	439.69
454.192	468.69
454.412	452.69
454.633	442.69
454.853	421.69
455.073	434.69
455.294	464.69
455.514	540.69
455.734	532.69
455.955	438.69
456.175	439.69
456.395	405.69
456.616	385.69
456.836	401.69
457.056	411.69
457.276	403.69
457.497	408.69
457.717	398.69
457.937	420.69
458.157	422.69
458.377	435.69
458.598	451.69
458.818	512.69
459.038	609.69
459.258	612.69
459.478	533.69
459.698	461.69
459.918	452.69
460.138	446.69
460.358	455.69
460.578	434.69
460.798	447.69
461.018	436.69
461.238	451.69
461.458	442.69
461.678	449.69
461.898	439.69
462.118	429.69
462.338	461.69
462.558	446.69
462.777	451.69
462.997	451.69
463.217	477.69
463.437	469.69
463.657	473.69
463.876	464.69
464.096	480.69
464.316	500.69
464.536	482.69
464.755	479.69
464.975	473.69
465.195	521.69
465.414	635.69
465.634	561.69
465.854	491.69
466.073	486.69
466.293	447.69
466.512	443.69
466.732	439.69
466.951	450.69
467.171	436.69
467.391	455.69
467.61	431.69
467.829	449.69
468.049	439.69
468.268	467.69
468.488	430.69
468.707	427.69
468.927	421.69
469.146	414.69
469.365	427.69
469.585	433.69
469.804	421.69
470.023	444.69
470.243	443.69
470.462	447.69
470.681	459.69
470.901	457.69
471.12	464.69
471.339	452.69
471.558	449.69
471.777	467.69
471.997	427.69
472.216	458.69
472.435	493.69
472.654	473.69
472.873	445.69
473.092	459.69
473.311	435.69
473.53	457.69
473.749	474.69
473.968	499.69
474.187	639.69
474.406	644.69
474.625	495.69
474.844	453.69
475.063	480.69
475.282	465.69
475.501	458.69
475.72	444.69
475.939	469.69
476.158	450.69
476.377	461.69
476.596	448.69
476.814	464.69
477.033	481.69
477.252	473.69
477.471	464.69
477.69	459.69
477.908	473.69
478.127	497.69
478.346	474.69
478.564	483.69
478.783	519.69
479.002	502.69
479.22	501.69
479.439	518.69
479.658	522.69
479.876	554.69
480.095	527.69
480.313	553.69
480.532	573.69
480.751	563.69
480.969	559.69
481.188	619.69
481.406	634.69
481.624	586.69
481.843	552.69
482.061	561.69
482.28	563.69
482.498	529.69
482.717	487.69
482.935	514.69
483.153	513.69
483.372	509.69
483.59	522.69
483.808	519.69
484.027	532.69
484.245	531.69
484.463	519.69
484.681	550.69
484.9	538.69
485.118	534.69
485.336	550.69
485.554	535.69
485.772	546.69
485.99	529.69
486.209	551.69
486.427	542.69
486.645	549.69
486.863	579.69
487.081	585.69
487.299	584.69
487.517	573.69
487.735	571.69
487.953	556.69
488.171	559.69
488.389	595.69
488.607	579.69
488.825	587.69
489.043	588.69
489.261	565.69
489.479	588.69
489.696	569.69
489.914	593.69
490.132	591.69
490.35	581.69
490.568	586.69
490.786	619.69
491.003	620.69
491.221	633.69
491.439	628.69
491.657	614.69
491.874	647.69
492.092	647.69
492.31	658.69
492.527	675.69
492.745	657.69
492.963	693.69
493.18	671.69
493.398	668.69
493.615	661.69
493.833	666.69
494.05	651.69
494.268	678.69
494.485	669.69
494.703	676.69
494.92	659.69
495.138	661.69
495.355	687.69
495.573	688.69
495.79	678.69
496.008	723.69
496.225	674.69
496.442	682.69
496.66	674.69
496.877	674.69
497.094	662.69
497.312	681.69
497.529	682.69
497.746	695.69
497.963	706.69
498.181	711.69
498.398	740.69
498.615	732.69
498.832	758.69
499.049	749.69
499.267	744.69
499.484	755.69
499.701	791.69
499.918	813.69
500.135	861.69
500.352	867.69
500.569	859.69
500.786	893.69
501.003	874.69
501.22	875.69
501.437	884.69
501.654	842.69
501.871	817.69
502.088	798.69
502.305	760.69
502.522	739.69
502.739	726.69
502.956	742.69
503.172	709.69
503.389	694.69
503.606	712.69
503.823	707.69
504.04	696.69
504.256	668.69
504.473	668.69
504.69	646.69
504.907	689.69
505.123	672.69
505.34	655.69
505.557	652.69
505.773	649.69
505.99	663.69
506.207	659.69
506.423	634.69
506.64	674.69
506.856	633.69
507.073	647.69
507.289	650.69
507.506	646.69
507.722	680.69
507.939	660.69
508.155	640.69
508.372	625.69
508.588	603.69
508.805	622.69
509.021	623.69
509.238	652.69
509.454	650.69
509.67	614.69
509.887	612.69
510.103	613.69
510.319	640.69
510.536	757.69
510.752	1283.69
510.968	1041.69
511.184	638.69
511.401	619.69
511.617	609.69
511.833	592.69
512.049	589.69
512.265	595.69
512.481	594.69
512.698	576.69
512.914	585.69
513.13	588.69
513.346	584.69
513.562	595.69
513.778	601.69
513.994	586.69
514.21	612.69
514.426	626.69
514.642	674.69
514.858	732.69
515.074	740.69
515.29	889.69
515.506	1381.69
515.721	1117.69
515.937	728.69
516.153	660.69
516.369	638.69
516.585	628.69
516.801	615.69
517.016	593.69
517.232	612.69
517.448	583.69
517.664	578.69
517.879	582.69
518.095	605.69
518.311	593.69
518.527	570.69
518.742	584.69
518.958	588.69
519.173	584.69
519.389	585.69
519.605	574.69
519.82	583.69
520.036	627.69
520.251	623.69
520.467	652.69
520.682	640.69
520.898	653.69
521.113	684.69
521.329	732.69
521.544	847.69
521.76	1072.69
521.975	1819.69
522.19	1773.69
522.406	933.69
522.621	691.69
522.836	632.69
523.052	604.69
523.267	571.69
523.482	541.69
523.698	536.69
523.913	539.69
524.128	528.69
524.343	531.69
524.559	530.69
524.774	503.69
524.989	527.69
525.204	524.69
525.419	519.69
525.634	503.69
525.849	501.69
526.064	486.69
526.28	480.69
526.495	481.69
526.71	473.69
526.925	491.69
527.14	486.69
527.355	487.69
527.57	466.69
527.785	457.69
527.999	479.69
528.214	443.69
528.429	465.69
528.644	463.69
528.859	480.69
529.074	471.69
529.289	499.69
529.503	603.69
529.718	583.69
529.933	490.69
530.148	478.69
530.363	490.69
530.577	480.69
530.792	457.69
531.007	487.69
531.221	468.69
531.436	453.69
531.651	452.69
531.865	460.69
532.08	450.69
532.295	446.69
532.509	481.69
532.724	458.69
532.938	465.69
533.153	435.69
533.367	444.69
533.582	453.69
533.796	435.69
534.011	448.69
534.225	455.69
534.44	434.69
534.654	437.69
534.868	445.69
535.083	453.69
535.297	449.69
535.511	456.69
535.726	468.69
535.94	433.69
536.154	418.69
536.369	439.69
536.583	433.69
536.797	441.69
537.011	434.69
537.225	426.69
537.44	409.69
537.654	431.69
537.868	439.69
538.082	426.69
538.296	434.69
538.51	442.69
538.724	441.69
538.938	445.69
539.153	435.69
539.367	452.69
539.581	448.69
539.795	421.69
540.009	445.69
540.222	428.69
540.436	420.69
540.65	431.69
540.864	439.69
541.078	462.69
541.292	454.69
541.506	437.69
541.72	424.69
541.934	432.69
542.147	438.69
542.361	436.69
542.575	428.69
542.789	426.69
543.002	426.69
543.216	409.69
543.43	423.69
543.644	449.69
543.857	450.69
544.071	452.69
544.285	450.69
544.498	408.69
544.712	409.69
544.925	424.69
545.139	423.69
545.352	409.69
545.566	420.69
545.779	408.69
545.993	425.69
546.206	400.69
546.42	409.69
546.633	388.69
546.847	427.69
547.06	402.69
547.274	414.69
547.487	391.69
547.7	431.69
547.914	396.69
548.127	391.69
548.34	403.69
548.554	400.69
548.767	404.69
548.98	396.69
549.193	411.69
549.407	416.69
549.62	371.69
549.833	399.69
550.046	388.69
550.259	390.69
550.473	389.69
550.686	403.69
550.899	397.69
551.112	388.69
551.325	365.69
551.538	397.69
551.751	398.69
551.964	377.69
552.177	387.69
552.39	385.69
552.603	408.69
552.816	395.69
553.029	407.69
553.242	412.69
553.455	419.69
553.667	420.69
553.88	427.69
554.093	432.69
554.306	409.69
554.519	409.69
554.732	377.69
554.944	396.69
555.157	396.69
555.37	396.69
555.583	383.69
555.795	389.69
556.008	385.69
556.221	367.69
556.433	382.69
556.646	386.69
556.859	374.69
557.071	357.69
557.284	372.69
557.496	376.69
557.709	372.69
557.921	371.69
558.134	358.69
558.346	352.69
558.559	349.69
558.771	367.69
558.984	374.69
559.196	358.69
559.409	361.69
559.621	372.69
559.833	365.69
560.046	376.69
560.258	371.69
560.47	387.69
560.683	373.69
560.895	356.69
561.107	347.69
561.32	369.69
561.532	344.69
561.744	319.69
561.956	351.69
562.168	348.69
562.381	346.69
562.593	365.69
562.805	346.69
563.017	374.69
563.229	364.69
563.441	346.69
563.653	356.69
563.865	369.69
564.077	372.69
564.289	373.69
564.501	360.69
564.713	359.69
564.925	382.69
565.137	406.69
565.349	395.69
565.561	397.69
565.773	387.69
565.985	375.69
566.197	386.69
566.408	404.69
566.62	405.69
566.832	419.69
567.044	408.69
567.255	433.69
567.467	423.69
567.679	415.69
567.891	412.69
568.102	417.69
568.314	411.69
568.526	387.69
568.737	404.69
568.949	387.69
569.161	387.69
569.372	379.69
569.584	373.69
569.795	371.69
570.007	367.69
570.218	417.69
570.43	393.69
570.641	351.69
570.853	337.69
571.064	342.69
571.276	337.69
571.487	324.69
571.698	354.69
571.91	348.69
572.121	344.69
572.333	331.69
572.544	321.69
572.755	315.69
572.966	325.69
573.178	320.69
573.389	324.69
573.6	327.69
573.811	316.69
574.023	293.69
574.234	312.69
574.445	328.69
574.656	327.69
574.867	314.69
575.078	305.69
575.289	319.69
575.501	329.69
575.712	306.69
575.923	319.69
576.134	303.69
576.345	295.69
576.556	313.69
576.767	320.69
576.978	313.69
577.188	303.69
577.399	316.69
577.61	302.69
577.821	297.69
578.032	290.69
578.243	339.69
578.454	573.69
578.665	443.69
578.875	307.69
579.086	295.69
579.297	289.69
579.508	298.69
579.718	307.69
579.929	284.69
580.14	290.69
580.35	277.69
580.561	291.69
580.772	294.69
580.982	296.69
581.193	295.69
581.403	303.69
581.614	288.69
581.825	298.69
582.035	278.69
582.246	276.69
582.456	271.69
582.667	290.69
582.877	287.69
583.087	278.69
583.298	275.69
583.508	279.69
583.719	298.69
583.929	269.69
584.139	272.69
584.35	267.69
584.56	285.69
584.77	284.69
584.981	286.69
585.191	267.69
585.401	279.69
585.611	277.69
585.821	284.69
586.032	268.69
586.242	276.69
586.452	291.69
586.662	268.69
586.872	267.69
587.082	268.69
587.292	286.69
587.502	262.69
587.713	260.69
587.923	275.69
588.133	287.69
588.343	277.69
588.553	256.69
588.762	269.69
588.972	279.69
589.182	265.69
589.392	271.69
589.602	270.69
589.812	283.69
590.022	288.69
590.232	276.69
590.441	280.69
590.651	271.69
590.861	245.69
591.071	275.69
591.281	271.69
591.49	279.69
591.7	273.69
591.91	292.69
592.119	280.69
592.329	256.69
592.539	281.69
592.748	279.69
592.958	263.69
593.167	273.69
593.377	286.69
593.587	283.69
593.796	269.69
594.006	273.69
594.215	275.69
594.424	272.69
594.634	263.69
594.843	293.69
595.053	290.69
595.262	274.69
595.472	269.69
595.681	261.69
595.89	246.69
596.1	251.69
596.309	279.69
596.518	262.69
596.727	247.69
596.937	258.69
597.146	261.69
597.355	268.69
597.564	261.69
597.774	265.69
597.983	258.69
598.192	253.69
598.401	257.69
598.61	259.69
598.819	248.69
599.028	244.69
599.237	227.69
599.446	265.69
599.655	267.69
599.864	245.69
600.073	241.69
600.282	242.69
600.491	265.69
600.7	236.69
600.909	255.69
601.118	232.69
601.327	257.69
601.536	240.69
601.745	244.69
601.953	234.69
602.162	227.69
602.371	229.69
602.58	231.69
602.789	237.69
602.997	231.69
603.206	225.69
603.415	238.69
603.623	234.69
603.832	251.69
604.041	229.69
604.249	232.69
604.458	239.69
604.666	214.69
604.875	218.69
605.084	228.69
605.292	230.69
605.501	247.69
605.709	227.69
605.918	223.69
606.126	227.69
606.334	214.69
606.543	217.69
606.751	242.69
606.96	241.69
607.168	231.69
607.376	232.69
607.585	223.69
607.793	221.69
608.001	219.69
608.21	233.69
608.418	219.69
608.626	250.69
608.834	219.69
609.043	233.69
609.251	219.69
609.459	223.69
609.667	225.69
609.875	227.69
610.083	218.69
610.291	225.69
610.499	223.69
610.707	230.69
610.916	245.69
611.124	241.69
611.332	245.69
611.54	236.69
611.748	222.69
611.955	237.69
612.163	235.69
612.371	226.69
612.579	225.69
612.787	230.69
612.995	239.69
613.203	231.69
613.411	228.69
613.618	217.69
613.826	222.69
614.034	232.69
614.242	209.69
614.449	225.69
614.657	213.69
614.865	209.69
615.072	217.69
615.28	207.69
615.488	215.69
615.695	235.69
615.903	213.69
616.111	213.69
616.318	218.69
616.526	212.69
616.733	210.69
616.941	231.69
617.148	201.69
617.356	241.69
617.563	221.69
617.771	227.69
617.978	205.69
618.185	224.69
618.393	219.69
618.6	214.69
618.807	224.69
619.015	219.69
619.222	217.69
619.429	217.69
619.637	202.69
619.844	203.69
620.051	208.69
620.258	206.69
620.466	209.69
620.673	204.69
620.88	202.69
621.087	205.69
621.294	205.69
621.501	216.69
621.708	201.69
621.915	188.69
622.122	209.69
622.329	191.69
622.536	214.69
622.743	224.69
622.95	199.69
623.157	197.69
623.364	213.69
623.571	217.69
623.778	186.69
623.985	209.69
624.192	193.69
624.399	202.69
624.606	190.69
624.812	200.69
625.019	206.69
625.226	185.69
625.433	207.69
625.639	197.69
625.846	197.69
626.053	192.69
626.259	179.69
626.466	187.69
626.673	195.69
626.879	188.69
627.086	201.69
627.293	188.69
627.499	203.69
627.706	196.69
627.912	186.69
628.119	172.69
628.325	190.69
628.532	188.69
628.738	205.69
628.945	208.69
629.151	183.69
629.357	201.69
629.564	187.69
629.77	190.69
629.976	191.69
630.183	187.69
630.389	183.69
630.595	181.69
630.802	177.69
631.008	185.69
631.214	181.69
631.42	179.69
631.627	195.69
631.833	178.69
632.039	182.69
632.245	193.69
632.451	179.69
632.657	185.69
632.863	179.69
633.069	198.69
633.275	180.69
633.481	168.69
633.688	182.69
633.893	181.69
634.099	180.69
634.305	170.69
634.511	189.69
634.717	173.69
634.923	171.69
635.129	175.69
635.335	169.69
635.541	167.69
635.747	174.69
635.952	163.69
636.158	175.69
636.364	167.69
636.57	186.69
636.775	175.69
636.981	170.69
637.187	165.69
637.392	179.69
637.598	155.69
637.804	183.69
638.009	181.69
638.215	179.69
638.421	159.69
638.626	175.69
638.832	202.69
639.037	180.69
639.243	170.69
639.448	179.69
639.654	167.69
639.859	152.69
640.065	184.69
640.27	167.69
640.475	179.69
640.681	164.69
640.886	153.69
641.091	163.69
641.297	162.69
641.502	162.69
641.707	166.69
641.913	152.69
642.118	138.69
642.323	183.69
642.528	161.69
642.733	160.69
642.939	172.69
643.144	154.69
643.349	161.69
643.554	159.69
643.759	172.69
643.964	184.69
644.169	167.69
644.374	165.69
644.579	159.69
644.784	151.69
644.989	158.69
645.194	154.69
645.399	172.69
645.604	163.69
645.809	167.69
646.014	161.69
646.219	167.69
646.423	151.69
646.628	155.69
646.833	143.69
647.038	145.69
647.243	166.69
647.447	162.69
647.652	169.69
647.857	149.69
648.062	141.69
648.266	164.69
648.471	165.69
648.676	175.69
648.88	149.69
649.085	175.69
649.289	165.69
649.494	153.69
649.698	178.69
649.903	183.69
650.107	177.69
650.312	172.69
650.516	169.69
650.721	152.69
650.925	139.69
651.13	154.69
651.334	156.69
651.539	150.69
651.743	156.69
651.947	135.69
652.152	139.69
652.356	132.69
652.56	145.69
652.764	120.69
652.969	135.69
653.173	139.69
653.377	137.69
653.581	135.69
653.785	123.69
653.99	132.69
654.194	130.69
654.398	130.69
654.602	133.69
654.806	141.69
655.01	156.69
655.214	140.69
655.418	132.69
655.622	133.69
655.826	139.69
656.03	127.69
656.234	122.69
656.438	136.69
656.642	135.69
656.846	126.69
657.049	133.69
657.253	125.69
657.457	120.69
657.661	123.69
657.865	99.69
658.068	103.69
658.272	102.69
658.476	102.69
658.68	97.69
658.883	112.69
659.087	106.69
659.291	99.69
659.494	104.69
659.698	91.69
659.901	113.69
660.105	87.69
660.309	101.69
660.512	103.69
660.716	89.69
660.919	89.69
661.123	104.69
661.326	101.69
661.53	91.69
661.733	100.69
661.936	88.69
662.14	87.69
662.343	82.69
662.546	83.69
662.75	88.69
662.953	99.69
663.156	79.69
663.36	80.69
663.563	100.69
663.766	79.69
663.969	84.69
664.173	90.69
664.376	82.69
664.579	95.69
664.782	81.69
664.985	83.69
665.188	80.69
665.391	86.69
665.594	81.69
665.797	90.69
666	89.69
666.203	89.69
666.406	69.69
666.609	69.69
666.812	90.69
667.015	87.69
667.218	101.69
667.421	75.69
667.624	77.69
667.827	83.69
668.03	73.69
668.232	85.69
668.435	76.69
668.638	83.69
668.841	79.69
669.043	69.69
669.246	71.69
669.449	77.69
669.651	86.69
669.854	75.69
670.057	81.69
670.259	81.69
670.462	78.69
670.665	74.69
670.867	85.69
671.07	91.69
671.272	82.69
671.475	75.69
671.677	82.69
671.88	76.69
672.082	92.69
672.284	96.69
672.487	73.69
672.689	84.69
672.892	74.69
