Data from 1989.PennyLincolnUp.Lamp.En5.5.200Scan.071819.P2_HRD10591_17-25-24-973.txt Node
Date: Thu Jul 18 17:25:24 EDT 2019
User: cochatt
Spectrometer: HR+D1059
Trigger mode: 1
Integration Time (sec): 1.000000E-1
Scans to average: 1
Electric dark correction enabled: true
Nonlinearity correction enabled: false
Boxcar width: 0
XAxis mode: Wavelengths
Number of Pixels in Spectrum: 2048
>>>>>Begin Spectral Data<<<<<
223.165	-11.25
223.4	-11.25
223.635	-11.25
223.869	-16.25
224.104	-21.25
224.338	0.75
224.573	-20.25
224.808	-11.25
225.042	-19.25
225.277	-12.25
225.511	-14.25
225.746	-4.25
225.98	20.75
226.215	14.75
226.449	8.75
226.683	22.75
226.918	26.75
227.152	35.75
227.387	37.75
227.621	36.75
227.856	19.75
228.09	30.75
228.324	49.75
228.559	54.75
228.793	56.75
229.027	94.75
229.262	94.75
229.496	110.75
229.73	132.75
229.964	160.75
230.199	136.75
230.433	133.75
230.667	118.75
230.901	106.75
231.136	116.75
231.37	100.75
231.604	122.75
231.838	120.75
232.072	106.75
232.306	108.75
232.541	110.75
232.775	117.75
233.009	112.75
233.243	111.75
233.477	106.75
233.711	122.75
233.945	116.75
234.179	118.75
234.413	117.75
234.647	134.75
234.881	128.75
235.115	119.75
235.349	133.75
235.583	116.75
235.817	117.75
236.051	133.75
236.285	132.75
236.519	131.75
236.753	121.75
236.987	154.75
237.221	196.75
237.455	244.75
237.689	196.75
237.922	148.75
238.156	141.75
238.39	133.75
238.624	120.75
238.858	131.75
239.091	112.75
239.325	131.75
239.559	121.75
239.793	122.75
240.027	140.75
240.26	137.75
240.494	167.75
240.728	158.75
240.961	158.75
241.195	168.75
241.429	140.75
241.662	131.75
241.896	129.75
242.13	146.75
242.363	126.75
242.597	141.75
242.83	132.75
243.064	139.75
243.298	126.75
243.531	147.75
243.765	141.75
243.998	139.75
244.232	146.75
244.465	139.75
244.699	154.75
244.932	148.75
245.166	156.75
245.399	155.75
245.633	169.75
245.866	141.75
246.099	148.75
246.333	149.75
246.566	154.75
246.8	151.75
247.033	164.75
247.266	176.75
247.5	195.75
247.733	186.75
247.966	175.75
248.2	182.75
248.433	190.75
248.666	184.75
248.899	195.75
249.133	209.75
249.366	229.75
249.599	204.75
249.832	196.75
250.066	178.75
250.299	200.75
250.532	191.75
250.765	228.75
250.998	224.75
251.231	243.75
251.465	240.75
251.698	223.75
251.931	211.75
252.164	195.75
252.397	217.75
252.63	223.75
252.863	242.75
253.096	249.75
253.329	252.75
253.562	255.75
253.795	223.75
254.028	245.75
254.261	254.75
254.494	251.75
254.727	288.75
254.96	311.75
255.193	308.75
255.426	269.75
255.659	250.75
255.892	257.75
256.124	258.75
256.357	262.75
256.59	272.75
256.823	231.75
257.056	235.75
257.289	249.75
257.521	234.75
257.754	247.75
257.987	238.75
258.22	223.75
258.452	245.75
258.685	232.75
258.918	230.75
259.151	232.75
259.383	242.75
259.616	242.75
259.849	252.75
260.081	243.75
260.314	264.75
260.547	287.75
260.779	266.75
261.012	266.75
261.244	276.75
261.477	267.75
261.71	246.75
261.942	262.75
262.175	279.75
262.407	246.75
262.64	239.75
262.872	228.75
263.105	233.75
263.337	240.75
263.57	238.75
263.802	226.75
264.035	218.75
264.267	207.75
264.499	220.75
264.732	227.75
264.964	232.75
265.197	220.75
265.429	236.75
265.661	235.75
265.894	227.75
266.126	235.75
266.358	233.75
266.591	227.75
266.823	236.75
267.055	241.75
267.287	247.75
267.52	257.75
267.752	244.75
267.984	243.75
268.216	258.75
268.448	245.75
268.681	237.75
268.913	242.75
269.145	290.75
269.377	289.75
269.609	292.75
269.841	289.75
270.073	312.75
270.306	319.75
270.538	335.75
270.77	349.75
271.002	338.75
271.234	330.75
271.466	331.75
271.698	347.75
271.93	337.75
272.162	340.75
272.394	358.75
272.626	326.75
272.858	328.75
273.09	291.75
273.322	299.75
273.553	288.75
273.785	279.75
274.017	290.75
274.249	276.75
274.481	282.75
274.713	288.75
274.945	294.75
275.176	281.75
275.408	302.75
275.64	284.75
275.872	306.75
276.104	298.75
276.335	283.75
276.567	297.75
276.799	321.75
277.031	332.75
277.262	336.75
277.494	357.75
277.726	324.75
277.957	326.75
278.189	303.75
278.421	291.75
278.652	292.75
278.884	300.75
279.115	294.75
279.347	292.75
279.579	285.75
279.81	282.75
280.042	276.75
280.273	268.75
280.505	298.75
280.736	282.75
280.968	281.75
281.199	307.75
281.431	278.75
281.662	290.75
281.894	282.75
282.125	278.75
282.356	312.75
282.588	326.75
282.819	327.75
283.051	304.75
283.282	273.75
283.513	291.75
283.745	291.75
283.976	303.75
284.207	307.75
284.439	294.75
284.67	285.75
284.901	279.75
285.132	291.75
285.364	291.75
285.595	305.75
285.826	287.75
286.057	284.75
286.288	272.75
286.52	297.75
286.751	312.75
286.982	287.75
287.213	274.75
287.444	305.75
287.675	295.75
287.906	304.75
288.138	322.75
288.369	306.75
288.6	329.75
288.831	302.75
289.062	316.75
289.293	305.75
289.524	297.75
289.755	313.75
289.986	299.75
290.217	315.75
290.448	300.75
290.679	316.75
290.91	297.75
291.141	301.75
291.371	294.75
291.602	289.75
291.833	291.75
292.064	304.75
292.295	289.75
292.526	292.75
292.757	319.75
292.987	304.75
293.218	299.75
293.449	291.75
293.68	299.75
293.91	311.75
294.141	292.75
294.372	310.75
294.603	327.75
294.833	290.75
295.064	310.75
295.295	314.75
295.525	318.75
295.756	301.75
295.987	301.75
296.217	340.75
296.448	378.75
296.679	307.75
296.909	310.75
297.14	302.75
297.37	325.75
297.601	316.75
297.831	312.75
298.062	330.75
298.292	324.75
298.523	311.75
298.753	326.75
298.984	310.75
299.214	321.75
299.445	334.75
299.675	321.75
299.905	335.75
300.136	336.75
300.366	336.75
300.597	310.75
300.827	339.75
301.057	322.75
301.288	344.75
301.518	368.75
301.748	353.75
301.979	350.75
302.209	320.75
302.439	356.75
302.669	336.75
302.9	320.75
303.13	334.75
303.36	344.75
303.59	352.75
303.82	370.75
304.051	352.75
304.281	344.75
304.511	322.75
304.741	344.75
304.971	342.75
305.201	333.75
305.431	325.75
305.661	339.75
305.891	320.75
306.121	339.75
306.352	358.75
306.582	352.75
306.812	345.75
307.042	353.75
307.272	338.75
307.502	351.75
307.731	361.75
307.961	348.75
308.191	340.75
308.421	348.75
308.651	353.75
308.881	356.75
309.111	350.75
309.341	361.75
309.571	364.75
309.8	378.75
310.03	378.75
310.26	407.75
310.49	386.75
310.72	398.75
310.949	429.75
311.179	458.75
311.409	411.75
311.639	384.75
311.868	406.75
312.098	405.75
312.328	415.75
312.557	408.75
312.787	447.75
313.017	411.75
313.246	392.75
313.476	388.75
313.706	402.75
313.935	416.75
314.165	410.75
314.394	422.75
314.624	420.75
314.853	387.75
315.083	400.75
315.312	375.75
315.542	387.75
315.771	387.75
316.001	376.75
316.23	423.75
316.46	396.75
316.689	402.75
316.919	385.75
317.148	413.75
317.377	404.75
317.607	404.75
317.836	396.75
318.065	414.75
318.295	393.75
318.524	386.75
318.753	391.75
318.983	394.75
319.212	396.75
319.441	393.75
319.67	410.75
319.9	415.75
320.129	414.75
320.358	410.75
320.587	409.75
320.816	418.75
321.046	407.75
321.275	411.75
321.504	429.75
321.733	418.75
321.962	439.75
322.191	460.75
322.42	465.75
322.649	491.75
322.878	491.75
323.108	492.75
323.337	529.75
323.566	558.75
323.795	550.75
324.024	650.75
324.253	816.75
324.482	1146.75
324.71	1775.75
324.939	2527.75
325.168	2169.75
325.397	1139.75
325.626	751.75
325.855	609.75
326.084	569.75
326.313	550.75
326.542	559.75
326.77	592.75
326.999	732.75
327.228	1022.75
327.457	1554.75
327.686	1920.75
327.914	1251.75
328.143	828.75
328.372	712.75
328.6	655.75
328.829	627.75
329.058	651.75
329.287	645.75
329.515	602.75
329.744	572.75
329.972	541.75
330.201	582.75
330.43	630.75
330.658	650.75
330.887	681.75
331.115	655.75
331.344	570.75
331.572	525.75
331.801	525.75
332.03	538.75
332.258	512.75
332.486	458.75
332.715	461.75
332.943	462.75
333.172	452.75
333.4	471.75
333.629	474.75
333.857	486.75
334.085	507.75
334.314	514.75
334.542	547.75
334.771	579.75
334.999	519.75
335.227	516.75
335.455	465.75
335.684	460.75
335.912	463.75
336.14	443.75
336.369	482.75
336.597	467.75
336.825	482.75
337.053	451.75
337.281	425.75
337.51	451.75
337.738	459.75
337.966	457.75
338.194	475.75
338.422	464.75
338.65	458.75
338.878	455.75
339.106	419.75
339.334	442.75
339.562	414.75
339.79	425.75
340.018	443.75
340.246	451.75
340.474	449.75
340.702	446.75
340.93	434.75
341.158	454.75
341.386	416.75
341.614	443.75
341.842	438.75
342.07	438.75
342.298	442.75
342.526	418.75
342.754	416.75
342.981	409.75
343.209	416.75
343.437	434.75
343.665	424.75
343.893	414.75
344.12	422.75
344.348	439.75
344.576	459.75
344.804	430.75
345.031	454.75
345.259	461.75
345.487	458.75
345.714	453.75
345.942	419.75
346.17	419.75
346.397	427.75
346.625	422.75
346.853	425.75
347.08	442.75
347.308	423.75
347.535	434.75
347.763	436.75
347.99	430.75
348.218	476.75
348.445	450.75
348.673	452.75
348.9	428.75
349.128	399.75
349.355	408.75
349.583	415.75
349.81	399.75
350.037	414.75
350.265	408.75
350.492	421.75
350.72	411.75
350.947	396.75
351.174	440.75
351.402	430.75
351.629	450.75
351.856	442.75
352.083	446.75
352.311	448.75
352.538	446.75
352.765	450.75
352.992	433.75
353.22	423.75
353.447	429.75
353.674	415.75
353.901	418.75
354.128	413.75
354.355	407.75
354.583	390.75
354.81	387.75
355.037	373.75
355.264	388.75
355.491	374.75
355.718	389.75
355.945	384.75
356.172	380.75
356.399	376.75
356.626	384.75
356.853	382.75
357.08	388.75
357.307	376.75
357.534	397.75
357.761	391.75
357.988	368.75
358.215	384.75
358.441	389.75
358.668	386.75
358.895	398.75
359.122	422.75
359.349	394.75
359.576	421.75
359.802	427.75
360.029	479.75
360.256	479.75
360.483	459.75
360.709	430.75
360.936	413.75
361.163	404.75
361.39	432.75
361.616	414.75
361.843	382.75
362.07	421.75
362.296	434.75
362.523	424.75
362.749	401.75
362.976	432.75
363.203	391.75
363.429	396.75
363.656	420.75
363.882	384.75
364.109	395.75
364.335	388.75
364.562	405.75
364.788	414.75
365.015	416.75
365.241	416.75
365.468	411.75
365.694	422.75
365.92	395.75
366.147	382.75
366.373	411.75
366.599	384.75
366.826	381.75
367.052	378.75
367.278	379.75
367.505	380.75
367.731	382.75
367.957	382.75
368.184	387.75
368.41	395.75
368.636	403.75
368.862	411.75
369.089	399.75
369.315	395.75
369.541	384.75
369.767	389.75
369.993	385.75
370.219	388.75
370.445	376.75
370.672	364.75
370.898	380.75
371.124	387.75
371.35	378.75
371.576	396.75
371.802	381.75
372.028	404.75
372.254	374.75
372.48	380.75
372.706	395.75
372.932	382.75
373.158	376.75
373.384	377.75
373.61	397.75
373.835	385.75
374.061	379.75
374.287	406.75
374.513	384.75
374.739	375.75
374.965	380.75
375.191	391.75
375.416	392.75
375.642	377.75
375.868	384.75
376.094	388.75
376.319	394.75
376.545	391.75
376.771	368.75
376.997	380.75
377.222	391.75
377.448	383.75
377.674	372.75
377.899	379.75
378.125	375.75
378.35	374.75
378.576	388.75
378.802	375.75
379.027	378.75
379.253	370.75
379.478	361.75
379.704	371.75
379.929	353.75
380.155	370.75
380.38	362.75
380.606	394.75
380.831	389.75
381.057	367.75
381.282	374.75
381.507	374.75
381.733	392.75
381.958	372.75
382.184	390.75
382.409	374.75
382.634	405.75
382.86	384.75
383.085	388.75
383.31	368.75
383.535	371.75
383.761	380.75
383.986	410.75
384.211	394.75
384.436	389.75
384.662	398.75
384.887	407.75
385.112	376.75
385.337	382.75
385.562	401.75
385.787	394.75
386.013	402.75
386.238	408.75
386.463	390.75
386.688	408.75
386.913	381.75
387.138	402.75
387.363	410.75
387.588	411.75
387.813	391.75
388.038	402.75
388.263	388.75
388.488	390.75
388.713	399.75
388.938	391.75
389.163	403.75
389.387	411.75
389.612	424.75
389.837	399.75
390.062	399.75
390.287	391.75
390.512	376.75
390.736	382.75
390.961	394.75
391.186	398.75
391.411	400.75
391.636	399.75
391.86	408.75
392.085	384.75
392.31	388.75
392.534	420.75
392.759	413.75
392.984	394.75
393.208	408.75
393.433	403.75
393.658	397.75
393.882	384.75
394.107	391.75
394.331	405.75
394.556	394.75
394.78	394.75
395.005	405.75
395.229	397.75
395.454	407.75
395.678	412.75
395.903	427.75
396.127	450.75
396.352	441.75
396.576	417.75
396.801	418.75
397.025	401.75
397.249	425.75
397.474	427.75
397.698	423.75
397.922	422.75
398.147	440.75
398.371	442.75
398.595	438.75
398.82	447.75
399.044	438.75
399.268	455.75
399.492	474.75
399.717	495.75
399.941	532.75
400.165	526.75
400.389	546.75
400.613	495.75
400.837	479.75
401.062	473.75
401.286	476.75
401.51	453.75
401.734	454.75
401.958	449.75
402.182	444.75
402.406	457.75
402.63	470.75
402.854	459.75
403.078	455.75
403.302	475.75
403.526	457.75
403.75	452.75
403.974	466.75
404.198	445.75
404.422	466.75
404.645	464.75
404.869	485.75
405.093	513.75
405.317	526.75
405.541	575.75
405.765	520.75
405.988	502.75
406.212	512.75
406.436	515.75
406.66	547.75
406.883	500.75
407.107	534.75
407.331	585.75
407.555	636.75
407.778	638.75
408.002	574.75
408.226	512.75
408.449	530.75
408.673	534.75
408.896	544.75
409.12	582.75
409.344	536.75
409.567	512.75
409.791	478.75
410.014	484.75
410.238	449.75
410.461	462.75
410.685	474.75
410.908	508.75
411.132	519.75
411.355	550.75
411.578	526.75
411.802	481.75
412.025	474.75
412.249	468.75
412.472	507.75
412.695	523.75
412.919	500.75
413.142	484.75
413.365	458.75
413.589	453.75
413.812	423.75
414.035	438.75
414.258	446.75
414.482	441.75
414.705	432.75
414.928	427.75
415.151	419.75
415.374	443.75
415.597	450.75
415.821	419.75
416.044	440.75
416.267	464.75
416.49	440.75
416.713	438.75
416.936	453.75
417.159	422.75
417.382	446.75
417.605	450.75
417.828	459.75
418.051	457.75
418.274	456.75
418.497	441.75
418.72	431.75
418.943	446.75
419.166	449.75
419.389	451.75
419.611	474.75
419.834	451.75
420.057	472.75
420.28	458.75
420.503	478.75
420.726	466.75
420.948	481.75
421.171	530.75
421.394	542.75
421.617	472.75
421.839	473.75
422.062	461.75
422.285	470.75
422.507	550.75
422.73	610.75
422.953	575.75
423.175	522.75
423.398	502.75
423.621	489.75
423.843	501.75
424.066	520.75
424.288	490.75
424.511	528.75
424.733	569.75
424.956	675.75
425.178	636.75
425.401	624.75
425.623	654.75
425.846	568.75
426.068	532.75
426.291	522.75
426.513	511.75
426.735	532.75
426.958	561.75
427.18	655.75
427.402	792.75
427.625	858.75
427.847	754.75
428.069	648.75
428.292	585.75
428.514	506.75
428.736	508.75
428.958	495.75
429.181	470.75
429.403	471.75
429.625	475.75
429.847	534.75
430.069	589.75
430.292	569.75
430.514	482.75
430.736	460.75
430.958	444.75
431.18	446.75
431.402	437.75
431.624	438.75
431.846	426.75
432.068	434.75
432.29	441.75
432.512	423.75
432.734	447.75
432.956	436.75
433.178	440.75
433.4	457.75
433.622	448.75
433.844	432.75
434.066	435.75
434.287	425.75
434.509	436.75
434.731	437.75
434.953	474.75
435.175	448.75
435.397	482.75
435.618	526.75
435.84	544.75
436.062	648.75
436.284	686.75
436.505	586.75
436.727	558.75
436.949	476.75
437.17	464.75
437.392	476.75
437.614	504.75
437.835	504.75
438.057	611.75
438.278	706.75
438.5	704.75
438.721	763.75
438.943	742.75
439.165	594.75
439.386	540.75
439.608	519.75
439.829	530.75
440.05	583.75
440.272	614.75
440.493	566.75
440.715	537.75
440.936	500.75
441.158	501.75
441.379	480.75
441.6	473.75
441.822	506.75
442.043	549.75
442.264	626.75
442.486	675.75
442.707	570.75
442.928	516.75
443.149	545.75
443.371	555.75
443.592	603.75
443.813	686.75
444.034	723.75
444.255	596.75
444.476	559.75
444.698	526.75
444.919	522.75
445.14	600.75
445.361	572.75
445.582	551.75
445.803	616.75
446.024	719.75
446.245	758.75
446.466	676.75
446.687	572.75
446.908	527.75
447.129	474.75
447.35	480.75
447.571	473.75
447.792	480.75
448.013	479.75
448.234	512.75
448.455	550.75
448.675	652.75
448.896	774.75
449.117	642.75
449.338	633.75
449.559	726.75
449.779	828.75
450	662.75
450.221	540.75
450.442	519.75
450.662	475.75
450.883	473.75
451.104	499.75
451.324	459.75
451.545	448.75
451.766	428.75
451.986	423.75
452.207	415.75
452.428	408.75
452.648	427.75
452.869	422.75
453.089	428.75
453.31	466.75
453.53	438.75
453.751	426.75
453.971	439.75
454.192	458.75
454.412	422.75
454.633	434.75
454.853	407.75
455.073	422.75
455.294	474.75
455.514	524.75
455.734	514.75
455.955	430.75
456.175	406.75
456.395	403.75
456.616	392.75
456.836	378.75
457.056	363.75
457.276	381.75
457.497	369.75
457.717	403.75
457.937	388.75
458.157	400.75
458.377	392.75
458.598	433.75
458.818	487.75
459.038	570.75
459.258	599.75
459.478	499.75
459.698	456.75
459.918	443.75
460.138	415.75
460.358	425.75
460.578	436.75
460.798	443.75
461.018	450.75
461.238	433.75
461.458	418.75
461.678	416.75
461.898	431.75
462.118	425.75
462.338	438.75
462.558	426.75
462.777	438.75
462.997	434.75
463.217	447.75
463.437	450.75
463.657	430.75
463.876	454.75
464.096	438.75
464.316	441.75
464.536	454.75
464.755	454.75
464.975	469.75
465.195	513.75
465.414	591.75
465.634	522.75
465.854	468.75
466.073	466.75
466.293	431.75
466.512	427.75
466.732	412.75
466.951	404.75
467.171	426.75
467.391	435.75
467.61	446.75
467.829	420.75
468.049	456.75
468.268	433.75
468.488	422.75
468.707	422.75
468.927	420.75
469.146	395.75
469.365	415.75
469.585	413.75
469.804	419.75
470.023	428.75
470.243	414.75
470.462	434.75
470.681	460.75
470.901	454.75
471.12	423.75
471.339	451.75
471.558	430.75
471.777	434.75
471.997	435.75
472.216	405.75
472.435	456.75
472.654	467.75
472.873	409.75
473.092	414.75
473.311	450.75
473.53	425.75
473.749	430.75
473.968	493.75
474.187	597.75
474.406	612.75
474.625	509.75
474.844	464.75
475.063	443.75
475.282	426.75
475.501	421.75
475.72	451.75
475.939	452.75
476.158	455.75
476.377	420.75
476.596	424.75
476.814	463.75
477.033	458.75
477.252	443.75
477.471	473.75
477.69	465.75
477.908	460.75
478.127	450.75
478.346	471.75
478.564	470.75
478.783	475.75
479.002	483.75
479.22	484.75
479.439	514.75
479.658	480.75
479.876	505.75
480.095	509.75
480.313	552.75
480.532	532.75
480.751	514.75
480.969	529.75
481.188	589.75
481.406	645.75
481.624	549.75
481.843	540.75
482.061	513.75
482.28	521.75
482.498	520.75
482.717	496.75
482.935	515.75
483.153	495.75
483.372	486.75
483.59	494.75
483.808	484.75
484.027	502.75
484.245	518.75
484.463	505.75
484.681	522.75
484.9	490.75
485.118	484.75
485.336	503.75
485.554	534.75
485.772	512.75
485.99	508.75
486.209	515.75
486.427	523.75
486.645	549.75
486.863	549.75
487.081	553.75
487.299	541.75
487.517	563.75
487.735	538.75
487.953	550.75
488.171	564.75
488.389	537.75
488.607	530.75
488.825	545.75
489.043	545.75
489.261	544.75
489.479	561.75
489.696	545.75
489.914	555.75
490.132	564.75
490.35	588.75
490.568	590.75
490.786	565.75
491.003	586.75
491.221	628.75
491.439	615.75
491.657	636.75
491.874	622.75
492.092	635.75
492.31	636.75
492.527	631.75
492.745	644.75
492.963	649.75
493.18	648.75
493.398	645.75
493.615	657.75
493.833	655.75
494.05	654.75
494.268	648.75
494.485	654.75
494.703	661.75
494.92	644.75
495.138	672.75
495.355	641.75
495.573	645.75
495.79	657.75
496.008	662.75
496.225	646.75
496.442	626.75
496.66	660.75
496.877	658.75
497.094	644.75
497.312	674.75
497.529	645.75
497.746	671.75
497.963	644.75
498.181	678.75
498.398	706.75
498.615	684.75
498.832	696.75
499.049	694.75
499.267	722.75
499.484	744.75
499.701	747.75
499.918	756.75
500.135	794.75
500.352	835.75
500.569	794.75
500.786	839.75
501.003	825.75
501.22	810.75
501.437	808.75
501.654	787.75
501.871	798.75
502.088	785.75
502.305	715.75
502.522	722.75
502.739	688.75
502.956	662.75
503.172	670.75
503.389	691.75
503.606	679.75
503.823	663.75
504.04	665.75
504.256	659.75
504.473	645.75
504.69	648.75
504.907	640.75
505.123	642.75
505.34	619.75
505.557	624.75
505.773	632.75
505.99	624.75
506.207	626.75
506.423	628.75
506.64	635.75
506.856	602.75
507.073	610.75
507.289	602.75
507.506	608.75
507.722	618.75
507.939	627.75
508.155	640.75
508.372	623.75
508.588	624.75
508.805	613.75
509.021	604.75
509.238	610.75
509.454	625.75
509.67	600.75
509.887	615.75
510.103	620.75
510.319	637.75
510.536	739.75
510.752	1270.75
510.968	1028.75
511.184	644.75
511.401	615.75
511.617	598.75
511.833	601.75
512.049	582.75
512.265	568.75
512.481	571.75
512.698	579.75
512.914	578.75
513.13	581.75
513.346	555.75
513.562	564.75
513.778	557.75
513.994	585.75
514.21	617.75
514.426	610.75
514.642	674.75
514.858	692.75
515.074	738.75
515.29	902.75
515.506	1414.75
515.721	1087.75
515.937	739.75
516.153	664.75
516.369	622.75
516.585	595.75
516.801	568.75
517.016	586.75
517.232	558.75
517.448	580.75
517.664	566.75
517.879	568.75
518.095	552.75
518.311	598.75
518.527	568.75
518.742	597.75
518.958	576.75
519.173	574.75
519.389	552.75
519.605	543.75
519.82	560.75
520.036	587.75
520.251	620.75
520.467	627.75
520.682	639.75
520.898	664.75
521.113	678.75
521.329	722.75
521.544	801.75
521.76	1050.75
521.975	1793.75
522.19	1810.75
522.406	951.75
522.621	708.75
522.836	634.75
523.052	583.75
523.267	563.75
523.482	537.75
523.698	531.75
523.913	534.75
524.128	515.75
524.343	491.75
524.559	517.75
524.774	497.75
524.989	483.75
525.204	502.75
525.419	510.75
525.634	484.75
525.849	487.75
526.064	484.75
526.28	473.75
526.495	472.75
526.71	442.75
526.925	457.75
527.14	455.75
527.355	463.75
527.57	458.75
527.785	468.75
527.999	457.75
528.214	458.75
528.429	465.75
528.644	453.75
528.859	474.75
529.074	472.75
529.289	482.75
529.503	586.75
529.718	562.75
529.933	499.75
530.148	483.75
530.363	456.75
530.577	448.75
530.792	443.75
531.007	444.75
531.221	451.75
531.436	441.75
531.651	434.75
531.865	431.75
532.08	425.75
532.295	444.75
532.509	437.75
532.724	413.75
532.938	434.75
533.153	440.75
533.367	439.75
533.582	434.75
533.796	431.75
534.011	441.75
534.225	435.75
534.44	414.75
534.654	430.75
534.868	438.75
535.083	426.75
535.297	415.75
535.511	425.75
535.726	436.75
535.94	456.75
536.154	425.75
536.369	431.75
536.583	411.75
536.797	425.75
537.011	425.75
537.225	402.75
537.44	408.75
537.654	419.75
537.868	422.75
538.082	416.75
538.296	409.75
538.51	417.75
538.724	436.75
538.938	402.75
539.153	413.75
539.367	434.75
539.581	443.75
539.795	425.75
540.009	404.75
540.222	433.75
540.436	420.75
540.65	410.75
540.864	424.75
541.078	435.75
541.292	432.75
541.506	412.75
541.72	417.75
541.934	430.75
542.147	415.75
542.361	418.75
542.575	419.75
542.789	411.75
543.002	403.75
543.216	418.75
543.43	439.75
543.644	432.75
543.857	420.75
544.071	420.75
544.285	414.75
544.498	395.75
544.712	396.75
544.925	425.75
545.139	412.75
545.352	396.75
545.566	410.75
545.779	398.75
545.993	404.75
546.206	411.75
546.42	393.75
546.633	415.75
546.847	392.75
547.06	372.75
547.274	390.75
547.487	374.75
547.7	391.75
547.914	403.75
548.127	411.75
548.34	377.75
548.554	378.75
548.767	382.75
548.98	400.75
549.193	397.75
549.407	386.75
549.62	390.75
549.833	390.75
550.046	387.75
550.259	387.75
550.473	382.75
550.686	398.75
550.899	377.75
551.112	385.75
551.325	378.75
551.538	401.75
551.751	350.75
551.964	371.75
552.177	386.75
552.39	386.75
552.603	391.75
552.816	389.75
553.029	386.75
553.242	396.75
553.455	397.75
553.667	388.75
553.88	424.75
554.093	397.75
554.306	407.75
554.519	395.75
554.732	393.75
554.944	381.75
555.157	387.75
555.37	370.75
555.583	391.75
555.795	378.75
556.008	366.75
556.221	344.75
556.433	363.75
556.646	370.75
556.859	356.75
557.071	367.75
557.284	352.75
557.496	358.75
557.709	347.75
557.921	370.75
558.134	356.75
558.346	351.75
558.559	350.75
558.771	350.75
558.984	356.75
559.196	357.75
559.409	352.75
559.621	351.75
559.833	347.75
560.046	334.75
560.258	345.75
560.47	345.75
560.683	329.75
560.895	343.75
561.107	343.75
561.32	350.75
561.532	346.75
561.744	350.75
561.956	343.75
562.168	340.75
562.381	348.75
562.593	344.75
562.805	359.75
563.017	346.75
563.229	324.75
563.441	355.75
563.653	331.75
563.865	351.75
564.077	344.75
564.289	355.75
564.501	347.75
564.713	355.75
564.925	360.75
565.137	344.75
565.349	364.75
565.561	386.75
565.773	370.75
565.985	362.75
566.197	351.75
566.408	381.75
566.62	380.75
566.832	386.75
567.044	397.75
567.255	381.75
567.467	408.75
567.679	397.75
567.891	415.75
568.102	400.75
568.314	393.75
568.526	394.75
568.737	392.75
568.949	374.75
569.161	351.75
569.372	351.75
569.584	358.75
569.795	344.75
570.007	354.75
570.218	399.75
570.43	389.75
570.641	347.75
570.853	343.75
571.064	339.75
571.276	334.75
571.487	343.75
571.698	312.75
571.91	327.75
572.121	304.75
572.333	306.75
572.544	314.75
572.755	328.75
572.966	319.75
573.178	299.75
573.389	290.75
573.6	305.75
573.811	331.75
574.023	300.75
574.234	299.75
574.445	293.75
574.656	283.75
574.867	306.75
575.078	307.75
575.289	298.75
575.501	286.75
575.712	286.75
575.923	289.75
576.134	308.75
576.345	318.75
576.556	297.75
576.767	302.75
576.978	288.75
577.188	292.75
577.399	303.75
577.61	299.75
577.821	294.75
578.032	303.75
578.243	329.75
578.454	593.75
578.665	415.75
578.875	302.75
579.086	284.75
579.297	291.75
579.508	273.75
579.718	296.75
579.929	286.75
580.14	256.75
580.35	273.75
580.561	304.75
580.772	274.75
580.982	270.75
581.193	274.75
581.403	273.75
581.614	273.75
581.825	282.75
582.035	297.75
582.246	283.75
582.456	292.75
582.667	280.75
582.877	269.75
583.087	274.75
583.298	265.75
583.508	267.75
583.719	266.75
583.929	268.75
584.139	267.75
584.35	280.75
584.56	267.75
584.77	280.75
584.981	272.75
585.191	273.75
585.401	262.75
585.611	262.75
585.821	278.75
586.032	285.75
586.242	298.75
586.452	262.75
586.662	276.75
586.872	259.75
587.082	255.75
587.292	253.75
587.502	241.75
587.713	254.75
587.923	244.75
588.133	252.75
588.343	264.75
588.553	273.75
588.762	254.75
588.972	265.75
589.182	244.75
589.392	264.75
589.602	267.75
589.812	262.75
590.022	256.75
590.232	241.75
590.441	258.75
590.651	255.75
590.861	277.75
591.071	267.75
591.281	248.75
591.49	262.75
591.7	243.75
591.91	269.75
592.119	265.75
592.329	277.75
592.539	268.75
592.748	258.75
592.958	274.75
593.167	272.75
593.377	276.75
593.587	276.75
593.796	268.75
594.006	271.75
594.215	260.75
594.424	282.75
594.634	282.75
594.843	256.75
595.053	268.75
595.262	246.75
595.472	258.75
595.681	241.75
595.89	247.75
596.1	262.75
596.309	263.75
596.518	251.75
596.727	238.75
596.937	246.75
597.146	245.75
597.355	220.75
597.564	250.75
597.774	246.75
597.983	232.75
598.192	241.75
598.401	239.75
598.61	236.75
598.819	244.75
599.028	233.75
599.237	243.75
599.446	242.75
599.655	225.75
599.864	231.75
600.073	247.75
600.282	230.75
600.491	234.75
600.7	233.75
600.909	228.75
601.118	216.75
601.327	243.75
601.536	229.75
601.745	236.75
601.953	241.75
602.162	234.75
602.371	224.75
602.58	227.75
602.789	222.75
602.997	237.75
603.206	234.75
603.415	218.75
603.623	227.75
603.832	226.75
604.041	216.75
604.249	222.75
604.458	228.75
604.666	236.75
604.875	231.75
605.084	204.75
605.292	220.75
605.501	222.75
605.709	218.75
605.918	216.75
606.126	219.75
606.334	215.75
606.543	204.75
606.751	225.75
606.96	204.75
607.168	217.75
607.376	214.75
607.585	229.75
607.793	211.75
608.001	215.75
608.21	211.75
608.418	227.75
608.626	214.75
608.834	230.75
609.043	223.75
609.251	218.75
609.459	217.75
609.667	242.75
609.875	203.75
610.083	213.75
610.291	225.75
610.499	223.75
610.707	212.75
610.916	221.75
611.124	225.75
611.332	214.75
611.54	222.75
611.748	215.75
611.955	220.75
612.163	222.75
612.371	234.75
612.579	215.75
612.787	210.75
612.995	214.75
613.203	225.75
613.411	202.75
613.618	209.75
613.826	213.75
614.034	220.75
614.242	217.75
614.449	232.75
614.657	213.75
614.865	200.75
615.072	218.75
615.28	204.75
615.488	216.75
615.695	208.75
615.903	206.75
616.111	209.75
616.318	204.75
616.526	211.75
616.733	204.75
616.941	222.75
617.148	211.75
617.356	219.75
617.563	199.75
617.771	212.75
617.978	208.75
618.185	195.75
618.393	204.75
618.6	207.75
618.807	224.75
619.015	199.75
619.222	215.75
619.429	192.75
619.637	212.75
619.844	206.75
620.051	190.75
620.258	204.75
620.466	209.75
620.673	196.75
620.88	212.75
621.087	206.75
621.294	197.75
621.501	202.75
621.708	194.75
621.915	199.75
622.122	199.75
622.329	191.75
622.536	207.75
622.743	201.75
622.95	191.75
623.157	191.75
623.364	195.75
623.571	200.75
623.778	189.75
623.985	171.75
624.192	196.75
624.399	210.75
624.606	188.75
624.812	194.75
625.019	202.75
625.226	189.75
625.433	195.75
625.639	201.75
625.846	179.75
626.053	180.75
626.259	193.75
626.466	202.75
626.673	186.75
626.879	174.75
627.086	198.75
627.293	185.75
627.499	194.75
627.706	186.75
627.912	182.75
628.119	191.75
628.325	184.75
628.532	170.75
628.738	186.75
628.945	183.75
629.151	178.75
629.357	182.75
629.564	168.75
629.77	175.75
629.976	183.75
630.183	167.75
630.389	180.75
630.595	181.75
630.802	171.75
631.008	196.75
631.214	194.75
631.42	184.75
631.627	178.75
631.833	174.75
632.039	172.75
632.245	167.75
632.451	159.75
632.657	173.75
632.863	167.75
633.069	162.75
633.275	169.75
633.481	160.75
633.688	148.75
633.893	179.75
634.099	172.75
634.305	197.75
634.511	174.75
634.717	162.75
634.923	160.75
635.129	162.75
635.335	161.75
635.541	163.75
635.747	154.75
635.952	166.75
636.158	161.75
636.364	162.75
636.57	169.75
636.775	167.75
636.981	178.75
637.187	166.75
637.392	165.75
637.598	183.75
637.804	162.75
638.009	163.75
638.215	170.75
638.421	159.75
638.626	172.75
638.832	161.75
639.037	156.75
639.243	163.75
639.448	148.75
639.654	164.75
639.859	160.75
640.065	157.75
640.27	151.75
640.475	163.75
640.681	159.75
640.886	146.75
641.091	144.75
641.297	158.75
641.502	148.75
641.707	162.75
641.913	158.75
642.118	168.75
642.323	174.75
642.528	158.75
642.733	178.75
642.939	154.75
643.144	176.75
643.349	165.75
643.554	166.75
643.759	143.75
643.964	150.75
644.169	169.75
644.374	165.75
644.579	150.75
644.784	160.75
644.989	150.75
645.194	158.75
645.399	152.75
645.604	151.75
645.809	146.75
646.014	158.75
646.219	157.75
646.423	147.75
646.628	136.75
646.833	148.75
647.038	153.75
647.243	165.75
647.447	146.75
647.652	161.75
647.857	149.75
648.062	148.75
648.266	163.75
648.471	151.75
648.676	146.75
648.88	155.75
649.085	135.75
649.289	155.75
649.494	165.75
649.698	179.75
649.903	164.75
650.107	151.75
650.312	151.75
650.516	167.75
650.721	144.75
650.925	139.75
651.13	126.75
651.334	130.75
651.539	132.75
651.743	128.75
651.947	128.75
652.152	150.75
652.356	152.75
652.56	128.75
652.764	139.75
652.969	140.75
653.173	132.75
653.377	136.75
653.581	124.75
653.785	119.75
653.99	138.75
654.194	123.75
654.398	122.75
654.602	120.75
654.806	124.75
655.01	141.75
655.214	132.75
655.418	122.75
655.622	104.75
655.826	124.75
656.03	122.75
656.234	135.75
656.438	118.75
656.642	109.75
656.846	132.75
657.049	120.75
657.253	122.75
657.457	113.75
657.661	124.75
657.865	95.75
658.068	105.75
658.272	111.75
658.476	106.75
658.68	93.75
658.883	90.75
659.087	97.75
659.291	99.75
659.494	102.75
659.698	91.75
659.901	85.75
660.105	106.75
660.309	92.75
660.512	85.75
660.716	90.75
660.919	84.75
661.123	92.75
661.326	88.75
661.53	90.75
661.733	104.75
661.936	83.75
662.14	90.75
662.343	93.75
662.546	88.75
662.75	84.75
662.953	87.75
663.156	97.75
663.36	84.75
663.563	74.75
663.766	65.75
663.969	86.75
664.173	90.75
664.376	94.75
664.579	82.75
664.782	72.75
664.985	89.75
665.188	78.75
665.391	75.75
665.594	76.75
665.797	98.75
666	72.75
666.203	92.75
666.406	72.75
666.609	86.75
666.812	88.75
667.015	77.75
667.218	82.75
667.421	86.75
667.624	78.75
667.827	92.75
668.03	85.75
668.232	68.75
668.435	80.75
668.638	70.75
668.841	79.75
669.043	76.75
669.246	86.75
669.449	80.75
669.651	75.75
669.854	76.75
670.057	92.75
670.259	80.75
670.462	81.75
670.665	76.75
670.867	72.75
671.07	92.75
671.272	80.75
671.475	88.75
671.677	73.75
671.88	85.75
672.082	101.75
672.284	93.75
672.487	88.75
672.689	80.75
672.892	86.75
