Data from 1989.PennyLincolnUp.Lamp.En5.5.200Scan.071819.P2_HRD10591_17-24-32-973.txt Node
Date: Thu Jul 18 17:24:32 EDT 2019
User: cochatt
Spectrometer: HR+D1059
Trigger mode: 1
Integration Time (sec): 1.000000E-1
Scans to average: 1
Electric dark correction enabled: true
Nonlinearity correction enabled: false
Boxcar width: 0
XAxis mode: Wavelengths
Number of Pixels in Spectrum: 2048
>>>>>Begin Spectral Data<<<<<
223.165	-20.25
223.4	-20.25
223.635	-20.25
223.869	-18.25
224.104	-22.25
224.338	-13.25
224.573	-7.25
224.808	-10.25
225.042	-4.25
225.277	-5.25
225.511	-4.25
225.746	2.75
225.98	7.75
226.215	4.75
226.449	10.75
226.683	8.75
226.918	35.75
227.152	34.75
227.387	29.75
227.621	41.75
227.856	53.75
228.09	57.75
228.324	63.75
228.559	58.75
228.793	70.75
229.027	101.75
229.262	120.75
229.496	121.75
229.73	148.75
229.964	169.75
230.199	143.75
230.433	120.75
230.667	101.75
230.901	123.75
231.136	116.75
231.37	107.75
231.604	133.75
231.838	125.75
232.072	121.75
232.306	126.75
232.541	111.75
232.775	110.75
233.009	115.75
233.243	126.75
233.477	124.75
233.711	121.75
233.945	114.75
234.179	119.75
234.413	127.75
234.647	125.75
234.881	122.75
235.115	122.75
235.349	119.75
235.583	135.75
235.817	130.75
236.051	144.75
236.285	113.75
236.519	120.75
236.753	126.75
236.987	153.75
237.221	187.75
237.455	246.75
237.689	195.75
237.922	149.75
238.156	121.75
238.39	135.75
238.624	139.75
238.858	130.75
239.091	136.75
239.325	134.75
239.559	139.75
239.793	127.75
240.027	134.75
240.26	151.75
240.494	168.75
240.728	178.75
240.961	147.75
241.195	168.75
241.429	133.75
241.662	133.75
241.896	135.75
242.13	130.75
242.363	144.75
242.597	141.75
242.83	135.75
243.064	137.75
243.298	151.75
243.531	139.75
243.765	146.75
243.998	133.75
244.232	154.75
244.465	161.75
244.699	159.75
244.932	148.75
245.166	133.75
245.399	152.75
245.633	161.75
245.866	160.75
246.099	150.75
246.333	164.75
246.566	158.75
246.8	164.75
247.033	153.75
247.266	152.75
247.5	170.75
247.733	180.75
247.966	193.75
248.2	188.75
248.433	184.75
248.666	178.75
248.899	184.75
249.133	210.75
249.366	229.75
249.599	220.75
249.832	190.75
250.066	186.75
250.299	194.75
250.532	194.75
250.765	209.75
250.998	228.75
251.231	221.75
251.465	222.75
251.698	220.75
251.931	213.75
252.164	218.75
252.397	221.75
252.63	205.75
252.863	225.75
253.096	228.75
253.329	238.75
253.562	247.75
253.795	232.75
254.028	257.75
254.261	212.75
254.494	253.75
254.727	277.75
254.96	292.75
255.193	294.75
255.426	250.75
255.659	272.75
255.892	241.75
256.124	234.75
256.357	259.75
256.59	231.75
256.823	229.75
257.056	222.75
257.289	238.75
257.521	224.75
257.754	230.75
257.987	221.75
258.22	215.75
258.452	220.75
258.685	219.75
258.918	219.75
259.151	232.75
259.383	243.75
259.616	236.75
259.849	257.75
260.081	251.75
260.314	275.75
260.547	284.75
260.779	268.75
261.012	274.75
261.244	248.75
261.477	279.75
261.71	214.75
261.942	262.75
262.175	251.75
262.407	247.75
262.64	239.75
262.872	220.75
263.105	234.75
263.337	235.75
263.57	233.75
263.802	216.75
264.035	230.75
264.267	221.75
264.499	231.75
264.732	236.75
264.964	230.75
265.197	223.75
265.429	223.75
265.661	218.75
265.894	227.75
266.126	218.75
266.358	221.75
266.591	228.75
266.823	222.75
267.055	245.75
267.287	243.75
267.52	238.75
267.752	253.75
267.984	235.75
268.216	241.75
268.448	242.75
268.681	272.75
268.913	257.75
269.145	269.75
269.377	313.75
269.609	282.75
269.841	298.75
270.073	293.75
270.306	301.75
270.538	340.75
270.77	333.75
271.002	324.75
271.234	323.75
271.466	314.75
271.698	360.75
271.93	355.75
272.162	362.75
272.394	370.75
272.626	346.75
272.858	343.75
273.09	309.75
273.322	296.75
273.553	306.75
273.785	281.75
274.017	280.75
274.249	289.75
274.481	305.75
274.713	291.75
274.945	286.75
275.176	283.75
275.408	278.75
275.64	298.75
275.872	264.75
276.104	261.75
276.335	286.75
276.567	300.75
276.799	306.75
277.031	322.75
277.262	319.75
277.494	323.75
277.726	325.75
277.957	314.75
278.189	314.75
278.421	300.75
278.652	306.75
278.884	296.75
279.115	274.75
279.347	289.75
279.579	292.75
279.81	292.75
280.042	284.75
280.273	295.75
280.505	275.75
280.736	281.75
280.968	268.75
281.199	292.75
281.431	293.75
281.662	269.75
281.894	285.75
282.125	279.75
282.356	309.75
282.588	313.75
282.819	325.75
283.051	307.75
283.282	279.75
283.513	299.75
283.745	292.75
283.976	296.75
284.207	290.75
284.439	296.75
284.67	294.75
284.901	285.75
285.132	308.75
285.364	284.75
285.595	304.75
285.826	317.75
286.057	305.75
286.288	300.75
286.52	306.75
286.751	291.75
286.982	329.75
287.213	293.75
287.444	303.75
287.675	325.75
287.906	310.75
288.138	320.75
288.369	316.75
288.6	317.75
288.831	308.75
289.062	310.75
289.293	316.75
289.524	299.75
289.755	298.75
289.986	306.75
290.217	292.75
290.448	303.75
290.679	307.75
290.91	317.75
291.141	298.75
291.371	298.75
291.602	326.75
291.833	302.75
292.064	303.75
292.295	299.75
292.526	311.75
292.757	312.75
292.987	295.75
293.218	323.75
293.449	311.75
293.68	294.75
293.91	287.75
294.141	307.75
294.372	309.75
294.603	324.75
294.833	313.75
295.064	308.75
295.295	311.75
295.525	302.75
295.756	311.75
295.987	307.75
296.217	346.75
296.448	342.75
296.679	325.75
296.909	299.75
297.14	300.75
297.37	313.75
297.601	311.75
297.831	318.75
298.062	319.75
298.292	330.75
298.523	338.75
298.753	315.75
298.984	321.75
299.214	320.75
299.445	310.75
299.675	326.75
299.905	326.75
300.136	330.75
300.366	314.75
300.597	318.75
300.827	338.75
301.057	338.75
301.288	346.75
301.518	354.75
301.748	345.75
301.979	353.75
302.209	319.75
302.439	353.75
302.669	327.75
302.9	344.75
303.13	339.75
303.36	347.75
303.59	358.75
303.82	351.75
304.051	369.75
304.281	350.75
304.511	335.75
304.741	326.75
304.971	334.75
305.201	346.75
305.431	346.75
305.661	337.75
305.891	346.75
306.121	347.75
306.352	358.75
306.582	356.75
306.812	353.75
307.042	349.75
307.272	362.75
307.502	347.75
307.731	338.75
307.961	332.75
308.191	351.75
308.421	352.75
308.651	362.75
308.881	364.75
309.111	351.75
309.341	360.75
309.571	383.75
309.8	392.75
310.03	382.75
310.26	414.75
310.49	377.75
310.72	415.75
310.949	440.75
311.179	413.75
311.409	408.75
311.639	389.75
311.868	407.75
312.098	403.75
312.328	416.75
312.557	439.75
312.787	453.75
313.017	438.75
313.246	414.75
313.476	375.75
313.706	380.75
313.935	414.75
314.165	391.75
314.394	418.75
314.624	410.75
314.853	407.75
315.083	398.75
315.312	396.75
315.542	385.75
315.771	379.75
316.001	374.75
316.23	405.75
316.46	381.75
316.689	400.75
316.919	405.75
317.148	399.75
317.377	399.75
317.607	413.75
317.836	408.75
318.065	394.75
318.295	404.75
318.524	405.75
318.753	388.75
318.983	407.75
319.212	378.75
319.441	404.75
319.67	410.75
319.9	417.75
320.129	403.75
320.358	408.75
320.587	403.75
320.816	425.75
321.046	415.75
321.275	427.75
321.504	407.75
321.733	425.75
321.962	439.75
322.191	452.75
322.42	463.75
322.649	460.75
322.878	497.75
323.108	500.75
323.337	522.75
323.566	551.75
323.795	590.75
324.024	618.75
324.253	782.75
324.482	1109.75
324.71	1689.75
324.939	2443.75
325.168	2146.75
325.397	1091.75
325.626	735.75
325.855	618.75
326.084	551.75
326.313	532.75
326.542	556.75
326.77	607.75
326.999	731.75
327.228	989.75
327.457	1501.75
327.686	1831.75
327.914	1245.75
328.143	795.75
328.372	683.75
328.6	648.75
328.829	615.75
329.058	633.75
329.287	641.75
329.515	589.75
329.744	530.75
329.972	543.75
330.201	559.75
330.43	561.75
330.658	579.75
330.887	638.75
331.115	639.75
331.344	577.75
331.572	522.75
331.801	526.75
332.03	509.75
332.258	489.75
332.486	453.75
332.715	457.75
332.943	463.75
333.172	437.75
333.4	461.75
333.629	474.75
333.857	503.75
334.085	486.75
334.314	494.75
334.542	489.75
334.771	471.75
334.999	477.75
335.227	492.75
335.455	470.75
335.684	463.75
335.912	466.75
336.14	451.75
336.369	446.75
336.597	471.75
336.825	466.75
337.053	443.75
337.281	449.75
337.51	448.75
337.738	449.75
337.966	441.75
338.194	458.75
338.422	457.75
338.65	467.75
338.878	437.75
339.106	429.75
339.334	438.75
339.562	439.75
339.79	433.75
340.018	443.75
340.246	420.75
340.474	456.75
340.702	453.75
340.93	447.75
341.158	450.75
341.386	434.75
341.614	422.75
341.842	439.75
342.07	447.75
342.298	447.75
342.526	438.75
342.754	424.75
342.981	411.75
343.209	422.75
343.437	436.75
343.665	417.75
343.893	447.75
344.12	435.75
344.348	444.75
344.576	435.75
344.804	455.75
345.031	459.75
345.259	466.75
345.487	442.75
345.714	448.75
345.942	434.75
346.17	425.75
346.397	438.75
346.625	420.75
346.853	437.75
347.08	431.75
347.308	433.75
347.535	424.75
347.763	451.75
347.99	422.75
348.218	442.75
348.445	435.75
348.673	453.75
348.9	426.75
349.128	415.75
349.355	410.75
349.583	411.75
349.81	404.75
350.037	435.75
350.265	408.75
350.492	420.75
350.72	395.75
350.947	405.75
351.174	431.75
351.402	432.75
351.629	427.75
351.856	422.75
352.083	437.75
352.311	454.75
352.538	452.75
352.765	425.75
352.992	427.75
353.22	423.75
353.447	408.75
353.674	416.75
353.901	410.75
354.128	405.75
354.355	393.75
354.583	399.75
354.81	410.75
355.037	382.75
355.264	401.75
355.491	385.75
355.718	381.75
355.945	382.75
356.172	382.75
356.399	396.75
356.626	385.75
356.853	405.75
357.08	391.75
357.307	392.75
357.534	383.75
357.761	384.75
357.988	383.75
358.215	373.75
358.441	386.75
358.668	402.75
358.895	408.75
359.122	405.75
359.349	412.75
359.576	415.75
359.802	430.75
360.029	463.75
360.256	477.75
360.483	476.75
360.709	437.75
360.936	442.75
361.163	409.75
361.39	403.75
361.616	410.75
361.843	430.75
362.07	420.75
362.296	407.75
362.523	426.75
362.749	422.75
362.976	405.75
363.203	415.75
363.429	402.75
363.656	387.75
363.882	398.75
364.109	387.75
364.335	399.75
364.562	404.75
364.788	393.75
365.015	422.75
365.241	413.75
365.468	415.75
365.694	407.75
365.92	406.75
366.147	405.75
366.373	410.75
366.599	412.75
366.826	390.75
367.052	388.75
367.278	406.75
367.505	398.75
367.731	407.75
367.957	397.75
368.184	390.75
368.41	401.75
368.636	409.75
368.862	394.75
369.089	404.75
369.315	406.75
369.541	395.75
369.767	394.75
369.993	393.75
370.219	383.75
370.445	405.75
370.672	394.75
370.898	393.75
371.124	381.75
371.35	399.75
371.576	411.75
371.802	393.75
372.028	386.75
372.254	378.75
372.48	383.75
372.706	373.75
372.932	376.75
373.158	408.75
373.384	425.75
373.61	401.75
373.835	392.75
374.061	378.75
374.287	395.75
374.513	387.75
374.739	409.75
374.965	405.75
375.191	390.75
375.416	390.75
375.642	389.75
375.868	395.75
376.094	392.75
376.319	387.75
376.545	367.75
376.771	375.75
376.997	395.75
377.222	385.75
377.448	384.75
377.674	363.75
377.899	396.75
378.125	398.75
378.35	403.75
378.576	371.75
378.802	394.75
379.027	389.75
379.253	385.75
379.478	366.75
379.704	387.75
379.929	385.75
380.155	390.75
380.38	396.75
380.606	395.75
380.831	392.75
381.057	399.75
381.282	374.75
381.507	365.75
381.733	387.75
381.958	369.75
382.184	395.75
382.409	396.75
382.634	390.75
382.86	388.75
383.085	408.75
383.31	404.75
383.535	387.75
383.761	405.75
383.986	404.75
384.211	386.75
384.436	400.75
384.662	411.75
384.887	399.75
385.112	400.75
385.337	399.75
385.562	395.75
385.787	407.75
386.013	427.75
386.238	448.75
386.463	416.75
386.688	407.75
386.913	402.75
387.138	420.75
387.363	425.75
387.588	399.75
387.813	416.75
388.038	408.75
388.263	393.75
388.488	409.75
388.713	398.75
388.938	399.75
389.163	400.75
389.387	426.75
389.612	377.75
389.837	400.75
390.062	402.75
390.287	393.75
390.512	387.75
390.736	406.75
390.961	409.75
391.186	414.75
391.411	409.75
391.636	406.75
391.86	425.75
392.085	423.75
392.31	413.75
392.534	409.75
392.759	421.75
392.984	398.75
393.208	394.75
393.433	399.75
393.658	423.75
393.882	408.75
394.107	404.75
394.331	409.75
394.556	408.75
394.78	412.75
395.005	391.75
395.229	401.75
395.454	412.75
395.678	422.75
395.903	423.75
396.127	439.75
396.352	466.75
396.576	442.75
396.801	420.75
397.025	409.75
397.249	419.75
397.474	430.75
397.698	428.75
397.922	458.75
398.147	442.75
398.371	470.75
398.595	443.75
398.82	443.75
399.044	435.75
399.268	473.75
399.492	461.75
399.717	499.75
399.941	539.75
400.165	541.75
400.389	599.75
400.613	533.75
400.837	483.75
401.062	458.75
401.286	462.75
401.51	455.75
401.734	441.75
401.958	458.75
402.182	459.75
402.406	463.75
402.63	478.75
402.854	470.75
403.078	478.75
403.302	486.75
403.526	475.75
403.75	457.75
403.974	484.75
404.198	447.75
404.422	471.75
404.645	469.75
404.869	492.75
405.093	484.75
405.317	523.75
405.541	558.75
405.765	516.75
405.988	494.75
406.212	502.75
406.436	525.75
406.66	540.75
406.883	520.75
407.107	540.75
407.331	565.75
407.555	637.75
407.778	639.75
408.002	580.75
408.226	529.75
408.449	517.75
408.673	530.75
408.896	536.75
409.12	605.75
409.344	558.75
409.567	502.75
409.791	466.75
410.014	460.75
410.238	455.75
410.461	476.75
410.685	483.75
410.908	502.75
411.132	527.75
411.355	539.75
411.578	517.75
411.802	483.75
412.025	481.75
412.249	488.75
412.472	486.75
412.695	488.75
412.919	500.75
413.142	459.75
413.365	473.75
413.589	475.75
413.812	468.75
414.035	438.75
414.258	449.75
414.482	445.75
414.705	435.75
414.928	452.75
415.151	424.75
415.374	447.75
415.597	437.75
415.821	453.75
416.044	456.75
416.267	450.75
416.49	444.75
416.713	442.75
416.936	434.75
417.159	440.75
417.382	455.75
417.605	429.75
417.828	439.75
418.051	474.75
418.274	468.75
418.497	458.75
418.72	452.75
418.943	422.75
419.166	445.75
419.389	471.75
419.611	473.75
419.834	459.75
420.057	470.75
420.28	446.75
420.503	488.75
420.726	462.75
420.948	493.75
421.171	502.75
421.394	557.75
421.617	493.75
421.839	458.75
422.062	457.75
422.285	487.75
422.507	553.75
422.73	612.75
422.953	597.75
423.175	503.75
423.398	499.75
423.621	501.75
423.843	519.75
424.066	520.75
424.288	509.75
424.511	532.75
424.733	584.75
424.956	670.75
425.178	646.75
425.401	635.75
425.623	654.75
425.846	579.75
426.068	524.75
426.291	515.75
426.513	526.75
426.735	500.75
426.958	570.75
427.18	639.75
427.402	752.75
427.625	893.75
427.847	733.75
428.069	615.75
428.292	551.75
428.514	509.75
428.736	507.75
428.958	512.75
429.181	486.75
429.403	466.75
429.625	489.75
429.847	529.75
430.069	599.75
430.292	581.75
430.514	507.75
430.736	470.75
430.958	461.75
431.18	453.75
431.402	448.75
431.624	442.75
431.846	452.75
432.068	439.75
432.29	450.75
432.512	445.75
432.734	469.75
432.956	470.75
433.178	475.75
433.4	473.75
433.622	460.75
433.844	451.75
434.066	448.75
434.287	434.75
434.509	449.75
434.731	447.75
434.953	468.75
435.175	483.75
435.397	505.75
435.618	525.75
435.84	578.75
436.062	631.75
436.284	705.75
436.505	601.75
436.727	550.75
436.949	481.75
437.17	479.75
437.392	494.75
437.614	502.75
437.835	555.75
438.057	661.75
438.278	722.75
438.5	731.75
438.721	785.75
438.943	761.75
439.165	612.75
439.386	547.75
439.608	518.75
439.829	534.75
440.05	557.75
440.272	617.75
440.493	587.75
440.715	513.75
440.936	505.75
441.158	460.75
441.379	487.75
441.6	503.75
441.822	519.75
442.043	561.75
442.264	654.75
442.486	674.75
442.707	581.75
442.928	542.75
443.149	543.75
443.371	567.75
443.592	593.75
443.813	699.75
444.034	744.75
444.255	610.75
444.476	547.75
444.698	526.75
444.919	510.75
445.14	623.75
445.361	561.75
445.582	580.75
445.803	626.75
446.024	719.75
446.245	741.75
446.466	664.75
446.687	581.75
446.908	497.75
447.129	485.75
447.35	478.75
447.571	482.75
447.792	462.75
448.013	483.75
448.234	492.75
448.455	565.75
448.675	675.75
448.896	748.75
449.117	669.75
449.338	615.75
449.559	681.75
449.779	831.75
450	647.75
450.221	540.75
450.442	499.75
450.662	477.75
450.883	494.75
451.104	505.75
451.324	478.75
451.545	459.75
451.766	430.75
451.986	436.75
452.207	437.75
452.428	419.75
452.648	431.75
452.869	412.75
453.089	435.75
453.31	456.75
453.53	423.75
453.751	441.75
453.971	445.75
454.192	438.75
454.412	441.75
454.633	446.75
454.853	436.75
455.073	414.75
455.294	448.75
455.514	506.75
455.734	512.75
455.955	425.75
456.175	409.75
456.395	407.75
456.616	389.75
456.836	399.75
457.056	433.75
457.276	391.75
457.497	403.75
457.717	417.75
457.937	394.75
458.157	429.75
458.377	418.75
458.598	453.75
458.818	509.75
459.038	584.75
459.258	609.75
459.478	516.75
459.698	443.75
459.918	441.75
460.138	455.75
460.358	448.75
460.578	427.75
460.798	459.75
461.018	453.75
461.238	434.75
461.458	439.75
461.678	425.75
461.898	451.75
462.118	436.75
462.338	447.75
462.558	433.75
462.777	445.75
462.997	455.75
463.217	463.75
463.437	499.75
463.657	460.75
463.876	459.75
464.096	451.75
464.316	475.75
464.536	489.75
464.755	475.75
464.975	475.75
465.195	522.75
465.414	630.75
465.634	529.75
465.854	477.75
466.073	455.75
466.293	445.75
466.512	434.75
466.732	427.75
466.951	420.75
467.171	436.75
467.391	412.75
467.61	420.75
467.829	438.75
468.049	451.75
468.268	413.75
468.488	421.75
468.707	401.75
468.927	421.75
469.146	410.75
469.365	421.75
469.585	412.75
469.804	441.75
470.023	441.75
470.243	420.75
470.462	470.75
470.681	459.75
470.901	446.75
471.12	427.75
471.339	443.75
471.558	439.75
471.777	428.75
471.997	425.75
472.216	433.75
472.435	428.75
472.654	430.75
472.873	425.75
473.092	418.75
473.311	416.75
473.53	449.75
473.749	452.75
473.968	485.75
474.187	593.75
474.406	603.75
474.625	502.75
474.844	467.75
475.063	449.75
475.282	457.75
475.501	457.75
475.72	429.75
475.939	445.75
476.158	448.75
476.377	437.75
476.596	443.75
476.814	446.75
477.033	457.75
477.252	448.75
477.471	458.75
477.69	464.75
477.908	475.75
478.127	464.75
478.346	468.75
478.564	488.75
478.783	470.75
479.002	473.75
479.22	489.75
479.439	465.75
479.658	509.75
479.876	526.75
480.095	494.75
480.313	553.75
480.532	522.75
480.751	507.75
480.969	523.75
481.188	557.75
481.406	568.75
481.624	549.75
481.843	533.75
482.061	532.75
482.28	518.75
482.498	498.75
482.717	513.75
482.935	513.75
483.153	514.75
483.372	493.75
483.59	501.75
483.808	499.75
484.027	526.75
484.245	490.75
484.463	505.75
484.681	517.75
484.9	521.75
485.118	528.75
485.336	529.75
485.554	516.75
485.772	535.75
485.99	513.75
486.209	520.75
486.427	508.75
486.645	549.75
486.863	548.75
487.081	558.75
487.299	555.75
487.517	552.75
487.735	565.75
487.953	579.75
488.171	564.75
488.389	547.75
488.607	546.75
488.825	548.75
489.043	546.75
489.261	543.75
489.479	561.75
489.696	547.75
489.914	540.75
490.132	573.75
490.35	570.75
490.568	575.75
490.786	603.75
491.003	593.75
491.221	610.75
491.439	619.75
491.657	603.75
491.874	625.75
492.092	625.75
492.31	626.75
492.527	622.75
492.745	615.75
492.963	650.75
493.18	637.75
493.398	647.75
493.615	637.75
493.833	662.75
494.05	651.75
494.268	656.75
494.485	637.75
494.703	645.75
494.92	647.75
495.138	646.75
495.355	663.75
495.573	611.75
495.79	661.75
496.008	647.75
496.225	691.75
496.442	639.75
496.66	661.75
496.877	659.75
497.094	663.75
497.312	655.75
497.529	661.75
497.746	669.75
497.963	673.75
498.181	706.75
498.398	696.75
498.615	707.75
498.832	697.75
499.049	716.75
499.267	719.75
499.484	754.75
499.701	753.75
499.918	793.75
500.135	797.75
500.352	828.75
500.569	855.75
500.786	867.75
501.003	843.75
501.22	806.75
501.437	809.75
501.654	807.75
501.871	805.75
502.088	801.75
502.305	742.75
502.522	714.75
502.739	725.75
502.956	697.75
503.172	686.75
503.389	693.75
503.606	686.75
503.823	689.75
504.04	672.75
504.256	652.75
504.473	653.75
504.69	664.75
504.907	656.75
505.123	650.75
505.34	648.75
505.557	651.75
505.773	625.75
505.99	627.75
506.207	621.75
506.423	633.75
506.64	620.75
506.856	631.75
507.073	637.75
507.289	597.75
507.506	613.75
507.722	638.75
507.939	645.75
508.155	625.75
508.372	615.75
508.588	597.75
508.805	583.75
509.021	614.75
509.238	616.75
509.454	627.75
509.67	625.75
509.887	616.75
510.103	629.75
510.319	615.75
510.536	741.75
510.752	1299.75
510.968	1055.75
511.184	623.75
511.401	599.75
511.617	597.75
511.833	588.75
512.049	596.75
512.265	581.75
512.481	592.75
512.698	580.75
512.914	566.75
513.13	573.75
513.346	563.75
513.562	578.75
513.778	579.75
513.994	588.75
514.21	580.75
514.426	643.75
514.642	681.75
514.858	689.75
515.074	731.75
515.29	920.75
515.506	1393.75
515.721	1121.75
515.937	734.75
516.153	643.75
516.369	643.75
516.585	613.75
516.801	584.75
517.016	597.75
517.232	578.75
517.448	580.75
517.664	581.75
517.879	605.75
518.095	574.75
518.311	565.75
518.527	591.75
518.742	594.75
518.958	579.75
519.173	556.75
519.389	585.75
519.605	597.75
519.82	580.75
520.036	573.75
520.251	603.75
520.467	648.75
520.682	650.75
520.898	679.75
521.113	671.75
521.329	716.75
521.544	844.75
521.76	1118.75
521.975	1841.75
522.19	1787.75
522.406	950.75
522.621	697.75
522.836	604.75
523.052	590.75
523.267	570.75
523.482	548.75
523.698	515.75
523.913	525.75
524.128	558.75
524.343	547.75
524.559	517.75
524.774	488.75
524.989	490.75
525.204	527.75
525.419	513.75
525.634	504.75
525.849	515.75
526.064	478.75
526.28	487.75
526.495	472.75
526.71	473.75
526.925	476.75
527.14	459.75
527.355	471.75
527.57	469.75
527.785	461.75
527.999	471.75
528.214	493.75
528.429	455.75
528.644	477.75
528.859	462.75
529.074	482.75
529.289	492.75
529.503	591.75
529.718	552.75
529.933	491.75
530.148	489.75
530.363	474.75
530.577	464.75
530.792	458.75
531.007	468.75
531.221	453.75
531.436	456.75
531.651	456.75
531.865	444.75
532.08	447.75
532.295	438.75
532.509	429.75
532.724	430.75
532.938	449.75
533.153	426.75
533.367	446.75
533.582	438.75
533.796	441.75
534.011	438.75
534.225	445.75
534.44	426.75
534.654	415.75
534.868	434.75
535.083	417.75
535.297	430.75
535.511	445.75
535.726	465.75
535.94	455.75
536.154	428.75
536.369	424.75
536.583	417.75
536.797	441.75
537.011	421.75
537.225	422.75
537.44	413.75
537.654	438.75
537.868	413.75
538.082	398.75
538.296	418.75
538.51	410.75
538.724	426.75
538.938	427.75
539.153	441.75
539.367	427.75
539.581	448.75
539.795	451.75
540.009	421.75
540.222	419.75
540.436	409.75
540.65	412.75
540.864	435.75
541.078	425.75
541.292	449.75
541.506	402.75
541.72	418.75
541.934	425.75
542.147	424.75
542.361	397.75
542.575	421.75
542.789	417.75
543.002	422.75
543.216	421.75
543.43	398.75
543.644	425.75
543.857	436.75
544.071	411.75
544.285	410.75
544.498	426.75
544.712	417.75
544.925	404.75
545.139	424.75
545.352	413.75
545.566	405.75
545.779	403.75
545.993	416.75
546.206	410.75
546.42	423.75
546.633	424.75
546.847	397.75
547.06	403.75
547.274	387.75
547.487	398.75
547.7	409.75
547.914	387.75
548.127	390.75
548.34	420.75
548.554	407.75
548.767	398.75
548.98	407.75
549.193	393.75
549.407	405.75
549.62	392.75
549.833	412.75
550.046	410.75
550.259	388.75
550.473	395.75
550.686	373.75
550.899	367.75
551.112	379.75
551.325	385.75
551.538	388.75
551.751	373.75
551.964	394.75
552.177	389.75
552.39	389.75
552.603	386.75
552.816	399.75
553.029	385.75
553.242	385.75
553.455	391.75
553.667	410.75
553.88	415.75
554.093	421.75
554.306	403.75
554.519	393.75
554.732	394.75
554.944	379.75
555.157	402.75
555.37	388.75
555.583	377.75
555.795	369.75
556.008	375.75
556.221	364.75
556.433	379.75
556.646	367.75
556.859	363.75
557.071	369.75
557.284	357.75
557.496	366.75
557.709	367.75
557.921	342.75
558.134	350.75
558.346	372.75
558.559	362.75
558.771	345.75
558.984	339.75
559.196	348.75
559.409	352.75
559.621	362.75
559.833	349.75
560.046	359.75
560.258	356.75
560.47	346.75
560.683	360.75
560.895	343.75
561.107	322.75
561.32	348.75
561.532	347.75
561.744	350.75
561.956	343.75
562.168	348.75
562.381	353.75
562.593	368.75
562.805	347.75
563.017	345.75
563.229	358.75
563.441	366.75
563.653	368.75
563.865	371.75
564.077	334.75
564.289	371.75
564.501	359.75
564.713	356.75
564.925	375.75
565.137	366.75
565.349	376.75
565.561	363.75
565.773	379.75
565.985	388.75
566.197	367.75
566.408	387.75
566.62	382.75
566.832	389.75
567.044	398.75
567.255	411.75
567.467	413.75
567.679	398.75
567.891	394.75
568.102	411.75
568.314	413.75
568.526	404.75
568.737	381.75
568.949	380.75
569.161	378.75
569.372	369.75
569.584	380.75
569.795	374.75
570.007	372.75
570.218	411.75
570.43	415.75
570.641	339.75
570.853	343.75
571.064	345.75
571.276	336.75
571.487	316.75
571.698	309.75
571.91	319.75
572.121	311.75
572.333	342.75
572.544	330.75
572.755	313.75
572.966	312.75
573.178	324.75
573.389	302.75
573.6	311.75
573.811	311.75
574.023	292.75
574.234	321.75
574.445	305.75
574.656	306.75
574.867	311.75
575.078	301.75
575.289	302.75
575.501	299.75
575.712	299.75
575.923	300.75
576.134	315.75
576.345	290.75
576.556	299.75
576.767	298.75
576.978	297.75
577.188	309.75
577.399	297.75
577.61	322.75
577.821	289.75
578.032	290.75
578.243	325.75
578.454	604.75
578.665	421.75
578.875	301.75
579.086	299.75
579.297	313.75
579.508	300.75
579.718	280.75
579.929	282.75
580.14	276.75
580.35	279.75
580.561	283.75
580.772	292.75
580.982	281.75
581.193	286.75
581.403	279.75
581.614	276.75
581.825	289.75
582.035	271.75
582.246	261.75
582.456	283.75
582.667	268.75
582.877	285.75
583.087	282.75
583.298	271.75
583.508	267.75
583.719	262.75
583.929	267.75
584.139	286.75
584.35	282.75
584.56	270.75
584.77	269.75
584.981	285.75
585.191	279.75
585.401	277.75
585.611	288.75
585.821	275.75
586.032	267.75
586.242	270.75
586.452	264.75
586.662	276.75
586.872	280.75
587.082	291.75
587.292	267.75
587.502	272.75
587.713	277.75
587.923	277.75
588.133	260.75
588.343	250.75
588.553	275.75
588.762	264.75
588.972	273.75
589.182	268.75
589.392	257.75
589.602	269.75
589.812	270.75
590.022	266.75
590.232	274.75
590.441	269.75
590.651	241.75
590.861	270.75
591.071	249.75
591.281	259.75
591.49	263.75
591.7	262.75
591.91	276.75
592.119	264.75
592.329	267.75
592.539	278.75
592.748	275.75
592.958	295.75
593.167	267.75
593.377	271.75
593.587	275.75
593.796	268.75
594.006	291.75
594.215	265.75
594.424	275.75
594.634	288.75
594.843	263.75
595.053	267.75
595.262	263.75
595.472	258.75
595.681	272.75
595.89	279.75
596.1	261.75
596.309	261.75
596.518	246.75
596.727	241.75
596.937	248.75
597.146	232.75
597.355	255.75
597.564	247.75
597.774	234.75
597.983	253.75
598.192	230.75
598.401	263.75
598.61	239.75
598.819	228.75
599.028	225.75
599.237	245.75
599.446	247.75
599.655	228.75
599.864	242.75
600.073	249.75
600.282	234.75
600.491	229.75
600.7	234.75
600.909	237.75
601.118	248.75
601.327	250.75
601.536	218.75
601.745	242.75
601.953	229.75
602.162	230.75
602.371	237.75
602.58	233.75
602.789	214.75
602.997	234.75
603.206	234.75
603.415	226.75
603.623	227.75
603.832	241.75
604.041	222.75
604.249	220.75
604.458	231.75
604.666	224.75
604.875	212.75
605.084	205.75
605.292	216.75
605.501	206.75
605.709	226.75
605.918	229.75
606.126	218.75
606.334	235.75
606.543	229.75
606.751	207.75
606.96	221.75
607.168	235.75
607.376	221.75
607.585	225.75
607.793	219.75
608.001	226.75
608.21	221.75
608.418	220.75
608.626	231.75
608.834	233.75
609.043	219.75
609.251	216.75
609.459	206.75
609.667	216.75
609.875	222.75
610.083	224.75
610.291	224.75
610.499	222.75
610.707	231.75
610.916	212.75
611.124	239.75
611.332	237.75
611.54	223.75
611.748	218.75
611.955	227.75
612.163	215.75
612.371	211.75
612.579	226.75
612.787	206.75
612.995	213.75
613.203	232.75
613.411	211.75
613.618	212.75
613.826	225.75
614.034	220.75
614.242	210.75
614.449	202.75
614.657	197.75
614.865	229.75
615.072	216.75
615.28	216.75
615.488	220.75
615.695	234.75
615.903	227.75
616.111	218.75
616.318	211.75
616.526	211.75
616.733	219.75
616.941	212.75
617.148	213.75
617.356	218.75
617.563	228.75
617.771	220.75
617.978	210.75
618.185	221.75
618.393	215.75
618.6	197.75
618.807	211.75
619.015	222.75
619.222	198.75
619.429	207.75
619.637	196.75
619.844	197.75
620.051	208.75
620.258	217.75
620.466	207.75
620.673	200.75
620.88	193.75
621.087	198.75
621.294	201.75
621.501	206.75
621.708	209.75
621.915	201.75
622.122	205.75
622.329	184.75
622.536	203.75
622.743	216.75
622.95	202.75
623.157	201.75
623.364	190.75
623.571	189.75
623.778	200.75
623.985	193.75
624.192	197.75
624.399	193.75
624.606	193.75
624.812	198.75
625.019	198.75
625.226	204.75
625.433	201.75
625.639	201.75
625.846	208.75
626.053	174.75
626.259	194.75
626.466	201.75
626.673	183.75
626.879	198.75
627.086	191.75
627.293	180.75
627.499	177.75
627.706	161.75
627.912	187.75
628.119	187.75
628.325	188.75
628.532	197.75
628.738	187.75
628.945	189.75
629.151	197.75
629.357	182.75
629.564	189.75
629.77	180.75
629.976	173.75
630.183	187.75
630.389	191.75
630.595	170.75
630.802	172.75
631.008	183.75
631.214	177.75
631.42	187.75
631.627	169.75
631.833	159.75
632.039	172.75
632.245	179.75
632.451	181.75
632.657	171.75
632.863	175.75
633.069	170.75
633.275	180.75
633.481	181.75
633.688	161.75
633.893	184.75
634.099	172.75
634.305	180.75
634.511	182.75
634.717	153.75
634.923	164.75
635.129	183.75
635.335	171.75
635.541	172.75
635.747	164.75
635.952	168.75
636.158	170.75
636.364	167.75
636.57	166.75
636.775	170.75
636.981	165.75
637.187	172.75
637.392	169.75
637.598	156.75
637.804	165.75
638.009	187.75
638.215	157.75
638.421	149.75
638.626	173.75
638.832	147.75
639.037	161.75
639.243	171.75
639.448	156.75
639.654	159.75
639.859	150.75
640.065	156.75
640.27	165.75
640.475	160.75
640.681	167.75
640.886	166.75
641.091	162.75
641.297	158.75
641.502	166.75
641.707	161.75
641.913	140.75
642.118	165.75
642.323	146.75
642.528	164.75
642.733	166.75
642.939	163.75
643.144	142.75
643.349	154.75
643.554	150.75
643.759	148.75
643.964	155.75
644.169	171.75
644.374	158.75
644.579	161.75
644.784	157.75
644.989	159.75
645.194	160.75
645.399	139.75
645.604	149.75
645.809	171.75
646.014	164.75
646.219	156.75
646.423	159.75
646.628	155.75
646.833	154.75
647.038	160.75
647.243	163.75
647.447	168.75
647.652	160.75
647.857	153.75
648.062	158.75
648.266	156.75
648.471	154.75
648.676	168.75
648.88	159.75
649.085	145.75
649.289	159.75
649.494	147.75
649.698	170.75
649.903	167.75
650.107	173.75
650.312	144.75
650.516	155.75
650.721	154.75
650.925	151.75
651.13	146.75
651.334	150.75
651.539	141.75
651.743	139.75
651.947	144.75
652.152	158.75
652.356	127.75
652.56	142.75
652.764	129.75
652.969	144.75
653.173	135.75
653.377	137.75
653.581	117.75
653.785	131.75
653.99	140.75
654.194	125.75
654.398	131.75
654.602	140.75
654.806	131.75
655.01	151.75
655.214	135.75
655.418	121.75
655.622	129.75
655.826	129.75
656.03	124.75
656.234	129.75
656.438	130.75
656.642	147.75
656.846	134.75
657.049	117.75
657.253	127.75
657.457	129.75
657.661	116.75
657.865	121.75
658.068	125.75
658.272	109.75
658.476	114.75
658.68	97.75
658.883	99.75
659.087	106.75
659.291	97.75
659.494	119.75
659.698	97.75
659.901	85.75
660.105	97.75
660.309	93.75
660.512	91.75
660.716	95.75
660.919	100.75
661.123	98.75
661.326	99.75
661.53	89.75
661.733	78.75
661.936	87.75
662.14	94.75
662.343	86.75
662.546	85.75
662.75	94.75
662.953	87.75
663.156	90.75
663.36	85.75
663.563	83.75
663.766	92.75
663.969	84.75
664.173	74.75
664.376	91.75
664.579	94.75
664.782	73.75
664.985	85.75
665.188	79.75
665.391	80.75
665.594	89.75
665.797	96.75
666	91.75
666.203	90.75
666.406	88.75
666.609	87.75
666.812	102.75
667.015	81.75
667.218	70.75
667.421	89.75
667.624	77.75
667.827	70.75
668.03	75.75
668.232	81.75
668.435	78.75
668.638	86.75
668.841	85.75
669.043	70.75
669.246	89.75
669.449	88.75
669.651	76.75
669.854	84.75
670.057	86.75
670.259	84.75
670.462	76.75
670.665	78.75
670.867	83.75
671.07	81.75
671.272	72.75
671.475	98.75
671.677	89.75
671.88	92.75
672.082	72.75
672.284	98.75
672.487	86.75
672.689	75.75
672.892	89.75
