Data from 1989.PennyLincolnUp.Lamp.En5.5.200Scan.071819.P2_HRD10591_17-24-06-973.txt Node
Date: Thu Jul 18 17:24:06 EDT 2019
User: cochatt
Spectrometer: HR+D1059
Trigger mode: 1
Integration Time (sec): 1.000000E-1
Scans to average: 1
Electric dark correction enabled: true
Nonlinearity correction enabled: false
Boxcar width: 0
XAxis mode: Wavelengths
Number of Pixels in Spectrum: 2048
>>>>>Begin Spectral Data<<<<<
223.165	-20.62
223.4	-20.62
223.635	-20.62
223.869	-6.62
224.104	-16.62
224.338	-10.62
224.573	-6.62
224.808	-7.62
225.042	-6.62
225.277	-0.62
225.511	-27.62
225.746	4.38
225.98	7.38
226.215	10.38
226.449	14.38
226.683	25.38
226.918	14.38
227.152	27.38
227.387	30.38
227.621	29.38
227.856	50.38
228.09	34.38
228.324	24.38
228.559	55.38
228.793	80.38
229.027	87.38
229.262	98.38
229.496	113.38
229.73	153.38
229.964	163.38
230.199	134.38
230.433	117.38
230.667	118.38
230.901	103.38
231.136	121.38
231.37	119.38
231.604	118.38
231.838	122.38
232.072	103.38
232.306	118.38
232.541	130.38
232.775	109.38
233.009	101.38
233.243	110.38
233.477	119.38
233.711	113.38
233.945	107.38
234.179	120.38
234.413	108.38
234.647	124.38
234.881	111.38
235.115	122.38
235.349	114.38
235.583	128.38
235.817	142.38
236.051	122.38
236.285	138.38
236.519	131.38
236.753	119.38
236.987	147.38
237.221	201.38
237.455	240.38
237.689	219.38
237.922	146.38
238.156	132.38
238.39	138.38
238.624	118.38
238.858	124.38
239.091	138.38
239.325	135.38
239.559	115.38
239.793	138.38
240.027	158.38
240.26	162.38
240.494	156.38
240.728	147.38
240.961	150.38
241.195	154.38
241.429	141.38
241.662	134.38
241.896	133.38
242.13	139.38
242.363	136.38
242.597	130.38
242.83	145.38
243.064	142.38
243.298	146.38
243.531	146.38
243.765	143.38
243.998	156.38
244.232	150.38
244.465	135.38
244.699	144.38
244.932	164.38
245.166	166.38
245.399	156.38
245.633	140.38
245.866	161.38
246.099	168.38
246.333	150.38
246.566	149.38
246.8	143.38
247.033	158.38
247.266	167.38
247.5	169.38
247.733	171.38
247.966	184.38
248.2	182.38
248.433	188.38
248.666	185.38
248.899	191.38
249.133	201.38
249.366	223.38
249.599	213.38
249.832	199.38
250.066	185.38
250.299	182.38
250.532	205.38
250.765	200.38
250.998	245.38
251.231	239.38
251.465	220.38
251.698	237.38
251.931	228.38
252.164	204.38
252.397	202.38
252.63	202.38
252.863	222.38
253.096	232.38
253.329	246.38
253.562	249.38
253.795	230.38
254.028	223.38
254.261	239.38
254.494	256.38
254.727	265.38
254.96	295.38
255.193	288.38
255.426	262.38
255.659	282.38
255.892	250.38
256.124	235.38
256.357	251.38
256.59	235.38
256.823	217.38
257.056	236.38
257.289	220.38
257.521	227.38
257.754	222.38
257.987	222.38
258.22	213.38
258.452	222.38
258.685	223.38
258.918	214.38
259.151	227.38
259.383	216.38
259.616	219.38
259.849	227.38
260.081	256.38
260.314	253.38
260.547	288.38
260.779	259.38
261.012	251.38
261.244	230.38
261.477	228.38
261.71	255.38
261.942	248.38
262.175	243.38
262.407	255.38
262.64	243.38
262.872	251.38
263.105	230.38
263.337	232.38
263.57	231.38
263.802	236.38
264.035	231.38
264.267	231.38
264.499	222.38
264.732	238.38
264.964	226.38
265.197	234.38
265.429	231.38
265.661	237.38
265.894	227.38
266.126	237.38
266.358	235.38
266.591	236.38
266.823	226.38
267.055	232.38
267.287	239.38
267.52	244.38
267.752	248.38
267.984	242.38
268.216	247.38
268.448	258.38
268.681	242.38
268.913	263.38
269.145	267.38
269.377	290.38
269.609	299.38
269.841	280.38
270.073	295.38
270.306	298.38
270.538	344.38
270.77	339.38
271.002	324.38
271.234	318.38
271.466	321.38
271.698	336.38
271.93	351.38
272.162	374.38
272.394	354.38
272.626	316.38
272.858	312.38
273.09	294.38
273.322	277.38
273.553	298.38
273.785	287.38
274.017	301.38
274.249	285.38
274.481	301.38
274.713	278.38
274.945	280.38
275.176	284.38
275.408	282.38
275.64	275.38
275.872	298.38
276.104	304.38
276.335	292.38
276.567	299.38
276.799	310.38
277.031	347.38
277.262	356.38
277.494	353.38
277.726	337.38
277.957	308.38
278.189	300.38
278.421	301.38
278.652	298.38
278.884	303.38
279.115	282.38
279.347	299.38
279.579	289.38
279.81	281.38
280.042	284.38
280.273	271.38
280.505	293.38
280.736	288.38
280.968	285.38
281.199	302.38
281.431	277.38
281.662	287.38
281.894	276.38
282.125	303.38
282.356	318.38
282.588	327.38
282.819	316.38
283.051	290.38
283.282	277.38
283.513	289.38
283.745	299.38
283.976	313.38
284.207	316.38
284.439	324.38
284.67	306.38
284.901	314.38
285.132	284.38
285.364	297.38
285.595	299.38
285.826	297.38
286.057	285.38
286.288	297.38
286.52	296.38
286.751	292.38
286.982	300.38
287.213	295.38
287.444	294.38
287.675	287.38
287.906	323.38
288.138	321.38
288.369	316.38
288.6	324.38
288.831	323.38
289.062	309.38
289.293	299.38
289.524	315.38
289.755	318.38
289.986	307.38
290.217	309.38
290.448	323.38
290.679	313.38
290.91	296.38
291.141	310.38
291.371	319.38
291.602	301.38
291.833	303.38
292.064	308.38
292.295	313.38
292.526	310.38
292.757	308.38
292.987	315.38
293.218	307.38
293.449	319.38
293.68	293.38
293.91	295.38
294.141	311.38
294.372	295.38
294.603	326.38
294.833	315.38
295.064	292.38
295.295	318.38
295.525	310.38
295.756	319.38
295.987	323.38
296.217	346.38
296.448	374.38
296.679	325.38
296.909	319.38
297.14	315.38
297.37	317.38
297.601	327.38
297.831	327.38
298.062	312.38
298.292	316.38
298.523	330.38
298.753	321.38
298.984	342.38
299.214	345.38
299.445	331.38
299.675	327.38
299.905	333.38
300.136	331.38
300.366	328.38
300.597	330.38
300.827	336.38
301.057	354.38
301.288	360.38
301.518	346.38
301.748	334.38
301.979	337.38
302.209	346.38
302.439	344.38
302.669	351.38
302.9	332.38
303.13	348.38
303.36	358.38
303.59	362.38
303.82	360.38
304.051	356.38
304.281	344.38
304.511	342.38
304.741	348.38
304.971	343.38
305.201	346.38
305.431	350.38
305.661	350.38
305.891	330.38
306.121	360.38
306.352	346.38
306.582	348.38
306.812	351.38
307.042	334.38
307.272	335.38
307.502	359.38
307.731	346.38
307.961	362.38
308.191	348.38
308.421	349.38
308.651	361.38
308.881	363.38
309.111	349.38
309.341	367.38
309.571	363.38
309.8	396.38
310.03	391.38
310.26	395.38
310.49	422.38
310.72	407.38
310.949	418.38
311.179	429.38
311.409	420.38
311.639	401.38
311.868	383.38
312.098	424.38
312.328	397.38
312.557	432.38
312.787	442.38
313.017	443.38
313.246	422.38
313.476	397.38
313.706	407.38
313.935	407.38
314.165	419.38
314.394	415.38
314.624	435.38
314.853	423.38
315.083	401.38
315.312	392.38
315.542	401.38
315.771	399.38
316.001	397.38
316.23	380.38
316.46	395.38
316.689	399.38
316.919	387.38
317.148	430.38
317.377	409.38
317.607	420.38
317.836	398.38
318.065	384.38
318.295	398.38
318.524	400.38
318.753	412.38
318.983	395.38
319.212	415.38
319.441	404.38
319.67	423.38
319.9	421.38
320.129	417.38
320.358	398.38
320.587	408.38
320.816	396.38
321.046	422.38
321.275	446.38
321.504	426.38
321.733	440.38
321.962	436.38
322.191	435.38
322.42	449.38
322.649	463.38
322.878	492.38
323.108	505.38
323.337	520.38
323.566	554.38
323.795	608.38
324.024	630.38
324.253	780.38
324.482	1060.38
324.71	1671.38
324.939	2375.38
325.168	2077.38
325.397	1085.38
325.626	724.38
325.855	610.38
326.084	571.38
326.313	565.38
326.542	542.38
326.77	626.38
326.999	676.38
327.228	947.38
327.457	1474.38
327.686	1790.38
327.914	1226.38
328.143	762.38
328.372	660.38
328.6	611.38
328.829	585.38
329.058	600.38
329.287	615.38
329.515	585.38
329.744	546.38
329.972	510.38
330.201	533.38
330.43	549.38
330.658	611.38
330.887	632.38
331.115	652.38
331.344	556.38
331.572	510.38
331.801	548.38
332.03	516.38
332.258	489.38
332.486	461.38
332.715	466.38
332.943	475.38
333.172	456.38
333.4	459.38
333.629	462.38
333.857	487.38
334.085	470.38
334.314	486.38
334.542	471.38
334.771	467.38
334.999	468.38
335.227	459.38
335.455	480.38
335.684	469.38
335.912	438.38
336.14	477.38
336.369	460.38
336.597	460.38
336.825	477.38
337.053	453.38
337.281	450.38
337.51	438.38
337.738	462.38
337.966	470.38
338.194	465.38
338.422	459.38
338.65	453.38
338.878	437.38
339.106	432.38
339.334	440.38
339.562	464.38
339.79	410.38
340.018	437.38
340.246	450.38
340.474	457.38
340.702	471.38
340.93	451.38
341.158	437.38
341.386	437.38
341.614	446.38
341.842	445.38
342.07	465.38
342.298	436.38
342.526	422.38
342.754	426.38
342.981	436.38
343.209	424.38
343.437	420.38
343.665	419.38
343.893	444.38
344.12	465.38
344.348	455.38
344.576	448.38
344.804	450.38
345.031	452.38
345.259	459.38
345.487	461.38
345.714	454.38
345.942	425.38
346.17	421.38
346.397	435.38
346.625	436.38
346.853	419.38
347.08	442.38
347.308	440.38
347.535	450.38
347.763	427.38
347.99	443.38
348.218	446.38
348.445	444.38
348.673	450.38
348.9	428.38
349.128	450.38
349.355	409.38
349.583	426.38
349.81	415.38
350.037	419.38
350.265	420.38
350.492	396.38
350.72	413.38
350.947	435.38
351.174	442.38
351.402	430.38
351.629	431.38
351.856	441.38
352.083	452.38
352.311	471.38
352.538	452.38
352.765	446.38
352.992	440.38
353.22	439.38
353.447	397.38
353.674	415.38
353.901	413.38
354.128	422.38
354.355	389.38
354.583	393.38
354.81	390.38
355.037	414.38
355.264	396.38
355.491	406.38
355.718	400.38
355.945	390.38
356.172	398.38
356.399	400.38
356.626	373.38
356.853	404.38
357.08	376.38
357.307	374.38
357.534	406.38
357.761	407.38
357.988	410.38
358.215	380.38
358.441	402.38
358.668	401.38
358.895	395.38
359.122	399.38
359.349	418.38
359.576	426.38
359.802	441.38
360.029	487.38
360.256	499.38
360.483	465.38
360.709	432.38
360.936	432.38
361.163	430.38
361.39	424.38
361.616	416.38
361.843	418.38
362.07	414.38
362.296	438.38
362.523	424.38
362.749	403.38
362.976	383.38
363.203	408.38
363.429	413.38
363.656	390.38
363.882	404.38
364.109	402.38
364.335	420.38
364.562	414.38
364.788	427.38
365.015	420.38
365.241	406.38
365.468	398.38
365.694	423.38
365.92	424.38
366.147	390.38
366.373	398.38
366.599	411.38
366.826	391.38
367.052	395.38
367.278	392.38
367.505	419.38
367.731	394.38
367.957	404.38
368.184	397.38
368.41	404.38
368.636	402.38
368.862	415.38
369.089	395.38
369.315	406.38
369.541	404.38
369.767	381.38
369.993	397.38
370.219	408.38
370.445	404.38
370.672	391.38
370.898	379.38
371.124	391.38
371.35	397.38
371.576	387.38
371.802	379.38
372.028	392.38
372.254	400.38
372.48	401.38
372.706	389.38
372.932	391.38
373.158	401.38
373.384	399.38
373.61	398.38
373.835	416.38
374.061	397.38
374.287	392.38
374.513	404.38
374.739	396.38
374.965	405.38
375.191	388.38
375.416	402.38
375.642	407.38
375.868	381.38
376.094	386.38
376.319	389.38
376.545	384.38
376.771	391.38
376.997	406.38
377.222	394.38
377.448	386.38
377.674	381.38
377.899	390.38
378.125	386.38
378.35	383.38
378.576	364.38
378.802	370.38
379.027	370.38
379.253	384.38
379.478	385.38
379.704	382.38
379.929	402.38
380.155	383.38
380.38	360.38
380.606	390.38
380.831	408.38
381.057	398.38
381.282	386.38
381.507	378.38
381.733	373.38
381.958	397.38
382.184	415.38
382.409	379.38
382.634	377.38
382.86	394.38
383.085	392.38
383.31	386.38
383.535	393.38
383.761	400.38
383.986	415.38
384.211	405.38
384.436	395.38
384.662	402.38
384.887	404.38
385.112	411.38
385.337	419.38
385.562	413.38
385.787	434.38
386.013	427.38
386.238	420.38
386.463	422.38
386.688	414.38
386.913	421.38
387.138	415.38
387.363	419.38
387.588	423.38
387.813	409.38
388.038	409.38
388.263	440.38
388.488	417.38
388.713	410.38
388.938	415.38
389.163	423.38
389.387	424.38
389.612	409.38
389.837	412.38
390.062	417.38
390.287	402.38
390.512	414.38
390.736	404.38
390.961	421.38
391.186	394.38
391.411	418.38
391.636	420.38
391.86	404.38
392.085	421.38
392.31	420.38
392.534	428.38
392.759	439.38
392.984	422.38
393.208	427.38
393.433	424.38
393.658	435.38
393.882	411.38
394.107	419.38
394.331	434.38
394.556	406.38
394.78	407.38
395.005	424.38
395.229	417.38
395.454	424.38
395.678	434.38
395.903	438.38
396.127	437.38
396.352	464.38
396.576	432.38
396.801	442.38
397.025	426.38
397.249	424.38
397.474	421.38
397.698	446.38
397.922	465.38
398.147	461.38
398.371	470.38
398.595	450.38
398.82	460.38
399.044	445.38
399.268	476.38
399.492	495.38
399.717	545.38
399.941	552.38
400.165	575.38
400.389	579.38
400.613	522.38
400.837	487.38
401.062	478.38
401.286	480.38
401.51	478.38
401.734	460.38
401.958	488.38
402.182	495.38
402.406	461.38
402.63	495.38
402.854	459.38
403.078	484.38
403.302	474.38
403.526	467.38
403.75	482.38
403.974	467.38
404.198	474.38
404.422	464.38
404.645	485.38
404.869	473.38
405.093	484.38
405.317	518.38
405.541	563.38
405.765	488.38
405.988	499.38
406.212	489.38
406.436	517.38
406.66	564.38
406.883	528.38
407.107	552.38
407.331	593.38
407.555	648.38
407.778	642.38
408.002	602.38
408.226	557.38
408.449	546.38
408.673	533.38
408.896	564.38
409.12	603.38
409.344	579.38
409.567	514.38
409.791	487.38
410.014	466.38
410.238	461.38
410.461	479.38
410.685	490.38
410.908	514.38
411.132	539.38
411.355	564.38
411.578	570.38
411.802	485.38
412.025	476.38
412.249	474.38
412.472	462.38
412.695	485.38
412.919	481.38
413.142	484.38
413.365	466.38
413.589	448.38
413.812	445.38
414.035	467.38
414.258	459.38
414.482	450.38
414.705	477.38
414.928	463.38
415.151	451.38
415.374	443.38
415.597	444.38
415.821	452.38
416.044	459.38
416.267	464.38
416.49	440.38
416.713	442.38
416.936	471.38
417.159	461.38
417.382	451.38
417.605	477.38
417.828	459.38
418.051	524.38
418.274	479.38
418.497	458.38
418.72	460.38
418.943	462.38
419.166	462.38
419.389	491.38
419.611	464.38
419.834	485.38
420.057	476.38
420.28	472.38
420.503	472.38
420.726	463.38
420.948	488.38
421.171	535.38
421.394	587.38
421.617	492.38
421.839	482.38
422.062	496.38
422.285	483.38
422.507	531.38
422.73	603.38
422.953	599.38
423.175	542.38
423.398	516.38
423.621	485.38
423.843	520.38
424.066	507.38
424.288	524.38
424.511	541.38
424.733	594.38
424.956	679.38
425.178	652.38
425.401	613.38
425.623	630.38
425.846	587.38
426.068	516.38
426.291	531.38
426.513	510.38
426.735	556.38
426.958	574.38
427.18	656.38
427.402	756.38
427.625	850.38
427.847	741.38
428.069	649.38
428.292	578.38
428.514	538.38
428.736	501.38
428.958	498.38
429.181	476.38
429.403	477.38
429.625	496.38
429.847	540.38
430.069	610.38
430.292	596.38
430.514	498.38
430.736	500.38
430.958	477.38
431.18	482.38
431.402	471.38
431.624	483.38
431.846	451.38
432.068	461.38
432.29	442.38
432.512	434.38
432.734	445.38
432.956	462.38
433.178	475.38
433.4	471.38
433.622	453.38
433.844	458.38
434.066	467.38
434.287	436.38
434.509	450.38
434.731	447.38
434.953	452.38
435.175	479.38
435.397	518.38
435.618	538.38
435.84	563.38
436.062	674.38
436.284	710.38
436.505	604.38
436.727	543.38
436.949	506.38
437.17	491.38
437.392	482.38
437.614	498.38
437.835	536.38
438.057	621.38
438.278	724.38
438.5	716.38
438.721	791.38
438.943	777.38
439.165	604.38
439.386	543.38
439.608	549.38
439.829	542.38
440.05	560.38
440.272	590.38
440.493	581.38
440.715	522.38
440.936	483.38
441.158	518.38
441.379	492.38
441.6	486.38
441.822	518.38
442.043	582.38
442.264	637.38
442.486	686.38
442.707	586.38
442.928	542.38
443.149	549.38
443.371	555.38
443.592	601.38
443.813	687.38
444.034	751.38
444.255	599.38
444.476	524.38
444.698	513.38
444.919	518.38
445.14	621.38
445.361	592.38
445.582	554.38
445.803	630.38
446.024	729.38
446.245	738.38
446.466	678.38
446.687	574.38
446.908	548.38
447.129	489.38
447.35	480.38
447.571	465.38
447.792	483.38
448.013	495.38
448.234	513.38
448.455	544.38
448.675	675.38
448.896	780.38
449.117	671.38
449.338	630.38
449.559	734.38
449.779	820.38
450	669.38
450.221	551.38
450.442	501.38
450.662	480.38
450.883	510.38
451.104	500.38
451.324	487.38
451.545	466.38
451.766	468.38
451.986	464.38
452.207	425.38
452.428	438.38
452.648	410.38
452.869	439.38
453.089	456.38
453.31	470.38
453.53	441.38
453.751	453.38
453.971	424.38
454.192	440.38
454.412	456.38
454.633	429.38
454.853	436.38
455.073	429.38
455.294	467.38
455.514	524.38
455.734	511.38
455.955	444.38
456.175	425.38
456.395	407.38
456.616	390.38
456.836	394.38
457.056	398.38
457.276	406.38
457.497	411.38
457.717	423.38
457.937	421.38
458.157	405.38
458.377	431.38
458.598	443.38
458.818	504.38
459.038	591.38
459.258	584.38
459.478	488.38
459.698	448.38
459.918	457.38
460.138	429.38
460.358	458.38
460.578	449.38
460.798	446.38
461.018	469.38
461.238	451.38
461.458	441.38
461.678	422.38
461.898	444.38
462.118	439.38
462.338	469.38
462.558	460.38
462.777	452.38
462.997	455.38
463.217	479.38
463.437	472.38
463.657	467.38
463.876	472.38
464.096	475.38
464.316	469.38
464.536	480.38
464.755	493.38
464.975	476.38
465.195	504.38
465.414	615.38
465.634	520.38
465.854	507.38
466.073	456.38
466.293	442.38
466.512	413.38
466.732	432.38
466.951	444.38
467.171	425.38
467.391	444.38
467.61	449.38
467.829	419.38
468.049	450.38
468.268	429.38
468.488	396.38
468.707	412.38
468.927	439.38
469.146	405.38
469.365	405.38
469.585	426.38
469.804	402.38
470.023	432.38
470.243	456.38
470.462	435.38
470.681	489.38
470.901	466.38
471.12	451.38
471.339	450.38
471.558	431.38
471.777	422.38
471.997	437.38
472.216	422.38
472.435	434.38
472.654	455.38
472.873	450.38
473.092	422.38
473.311	432.38
473.53	422.38
473.749	457.38
473.968	496.38
474.187	610.38
474.406	632.38
474.625	489.38
474.844	445.38
475.063	452.38
475.282	450.38
475.501	443.38
475.72	451.38
475.939	460.38
476.158	467.38
476.377	457.38
476.596	458.38
476.814	466.38
477.033	465.38
477.252	456.38
477.471	461.38
477.69	454.38
477.908	462.38
478.127	464.38
478.346	475.38
478.564	475.38
478.783	489.38
479.002	499.38
479.22	508.38
479.439	527.38
479.658	528.38
479.876	512.38
480.095	519.38
480.313	550.38
480.532	547.38
480.751	550.38
480.969	543.38
481.188	553.38
481.406	547.38
481.624	512.38
481.843	509.38
482.061	525.38
482.28	503.38
482.498	503.38
482.717	519.38
482.935	492.38
483.153	527.38
483.372	521.38
483.59	487.38
483.808	524.38
484.027	512.38
484.245	509.38
484.463	514.38
484.681	502.38
484.9	530.38
485.118	523.38
485.336	518.38
485.554	530.38
485.772	520.38
485.99	520.38
486.209	536.38
486.427	535.38
486.645	541.38
486.863	558.38
487.081	574.38
487.299	575.38
487.517	577.38
487.735	561.38
487.953	555.38
488.171	553.38
488.389	540.38
488.607	563.38
488.825	558.38
489.043	560.38
489.261	558.38
489.479	556.38
489.696	552.38
489.914	581.38
490.132	559.38
490.35	551.38
490.568	569.38
490.786	570.38
491.003	601.38
491.221	621.38
491.439	595.38
491.657	634.38
491.874	619.38
492.092	604.38
492.31	630.38
492.527	653.38
492.745	665.38
492.963	631.38
493.18	631.38
493.398	639.38
493.615	645.38
493.833	637.38
494.05	642.38
494.268	640.38
494.485	643.38
494.703	648.38
494.92	644.38
495.138	640.38
495.355	622.38
495.573	645.38
495.79	666.38
496.008	646.38
496.225	656.38
496.442	669.38
496.66	675.38
496.877	658.38
497.094	655.38
497.312	658.38
497.529	653.38
497.746	683.38
497.963	674.38
498.181	707.38
498.398	709.38
498.615	717.38
498.832	733.38
499.049	747.38
499.267	728.38
499.484	776.38
499.701	756.38
499.918	798.38
500.135	825.38
500.352	848.38
500.569	868.38
500.786	881.38
501.003	874.38
501.22	854.38
501.437	836.38
501.654	816.38
501.871	833.38
502.088	786.38
502.305	739.38
502.522	747.38
502.739	737.38
502.956	686.38
503.172	681.38
503.389	673.38
503.606	665.38
503.823	665.38
504.04	647.38
504.256	644.38
504.473	654.38
504.69	684.38
504.907	662.38
505.123	644.38
505.34	645.38
505.557	648.38
505.773	653.38
505.99	627.38
506.207	640.38
506.423	658.38
506.64	651.38
506.856	634.38
507.073	627.38
507.289	631.38
507.506	615.38
507.722	606.38
507.939	635.38
508.155	613.38
508.372	600.38
508.588	567.38
508.805	632.38
509.021	611.38
509.238	621.38
509.454	592.38
509.67	630.38
509.887	612.38
510.103	609.38
510.319	638.38
510.536	716.38
510.752	1290.38
510.968	1009.38
511.184	624.38
511.401	599.38
511.617	588.38
511.833	567.38
512.049	557.38
512.265	595.38
512.481	567.38
512.698	565.38
512.914	574.38
513.13	583.38
513.346	553.38
513.562	572.38
513.778	583.38
513.994	575.38
514.21	601.38
514.426	638.38
514.642	666.38
514.858	713.38
515.074	735.38
515.29	895.38
515.506	1364.38
515.721	1106.38
515.937	701.38
516.153	650.38
516.369	608.38
516.585	600.38
516.801	592.38
517.016	605.38
517.232	578.38
517.448	608.38
517.664	588.38
517.879	589.38
518.095	607.38
518.311	569.38
518.527	587.38
518.742	561.38
518.958	589.38
519.173	565.38
519.389	587.38
519.605	578.38
519.82	576.38
520.036	597.38
520.251	631.38
520.467	651.38
520.682	639.38
520.898	641.38
521.113	675.38
521.329	745.38
521.544	832.38
521.76	1050.38
521.975	1828.38
522.19	1725.38
522.406	925.38
522.621	680.38
522.836	618.38
523.052	582.38
523.267	556.38
523.482	536.38
523.698	544.38
523.913	534.38
524.128	539.38
524.343	522.38
524.559	504.38
524.774	507.38
524.989	501.38
525.204	498.38
525.419	498.38
525.634	483.38
525.849	495.38
526.064	472.38
526.28	477.38
526.495	460.38
526.71	477.38
526.925	468.38
527.14	466.38
527.355	474.38
527.57	478.38
527.785	475.38
527.999	475.38
528.214	488.38
528.429	470.38
528.644	454.38
528.859	465.38
529.074	460.38
529.289	495.38
529.503	569.38
529.718	539.38
529.933	500.38
530.148	469.38
530.363	465.38
530.577	467.38
530.792	452.38
531.007	445.38
531.221	452.38
531.436	477.38
531.651	454.38
531.865	462.38
532.08	438.38
532.295	444.38
532.509	426.38
532.724	440.38
532.938	480.38
533.153	452.38
533.367	444.38
533.582	455.38
533.796	460.38
534.011	447.38
534.225	415.38
534.44	453.38
534.654	443.38
534.868	461.38
535.083	443.38
535.297	444.38
535.511	444.38
535.726	431.38
535.94	453.38
536.154	453.38
536.369	425.38
536.583	418.38
536.797	425.38
537.011	443.38
537.225	420.38
537.44	456.38
537.654	438.38
537.868	445.38
538.082	426.38
538.296	415.38
538.51	427.38
538.724	424.38
538.938	430.38
539.153	450.38
539.367	454.38
539.581	448.38
539.795	425.38
540.009	415.38
540.222	431.38
540.436	435.38
540.65	432.38
540.864	445.38
541.078	429.38
541.292	451.38
541.506	428.38
541.72	423.38
541.934	409.38
542.147	428.38
542.361	422.38
542.575	435.38
542.789	423.38
543.002	419.38
543.216	430.38
543.43	426.38
543.644	427.38
543.857	448.38
544.071	427.38
544.285	405.38
544.498	418.38
544.712	435.38
544.925	412.38
545.139	409.38
545.352	419.38
545.566	406.38
545.779	412.38
545.993	426.38
546.206	406.38
546.42	425.38
546.633	416.38
546.847	382.38
547.06	400.38
547.274	411.38
547.487	406.38
547.7	410.38
547.914	419.38
548.127	389.38
548.34	402.38
548.554	387.38
548.767	404.38
548.98	408.38
549.193	418.38
549.407	399.38
549.62	397.38
549.833	390.38
550.046	395.38
550.259	409.38
550.473	401.38
550.686	405.38
550.899	399.38
551.112	420.38
551.325	410.38
551.538	399.38
551.751	410.38
551.964	394.38
552.177	404.38
552.39	390.38
552.603	396.38
552.816	379.38
553.029	388.38
553.242	406.38
553.455	382.38
553.667	415.38
553.88	416.38
554.093	411.38
554.306	418.38
554.519	414.38
554.732	398.38
554.944	388.38
555.157	382.38
555.37	370.38
555.583	374.38
555.795	394.38
556.008	378.38
556.221	362.38
556.433	378.38
556.646	376.38
556.859	372.38
557.071	372.38
557.284	372.38
557.496	372.38
557.709	384.38
557.921	366.38
558.134	349.38
558.346	362.38
558.559	364.38
558.771	351.38
558.984	359.38
559.196	361.38
559.409	357.38
559.621	365.38
559.833	380.38
560.046	338.38
560.258	347.38
560.47	359.38
560.683	328.38
560.895	360.38
561.107	340.38
561.32	332.38
561.532	362.38
561.744	356.38
561.956	348.38
562.168	347.38
562.381	365.38
562.593	356.38
562.805	360.38
563.017	362.38
563.229	376.38
563.441	349.38
563.653	343.38
563.865	386.38
564.077	355.38
564.289	367.38
564.501	379.38
564.713	362.38
564.925	374.38
565.137	390.38
565.349	370.38
565.561	372.38
565.773	371.38
565.985	387.38
566.197	392.38
566.408	409.38
566.62	405.38
566.832	431.38
567.044	417.38
567.255	401.38
567.467	415.38
567.679	428.38
567.891	417.38
568.102	427.38
568.314	419.38
568.526	395.38
568.737	412.38
568.949	400.38
569.161	369.38
569.372	390.38
569.584	384.38
569.795	373.38
570.007	375.38
570.218	409.38
570.43	395.38
570.641	343.38
570.853	354.38
571.064	359.38
571.276	354.38
571.487	347.38
571.698	329.38
571.91	337.38
572.121	344.38
572.333	329.38
572.544	341.38
572.755	312.38
572.966	326.38
573.178	335.38
573.389	321.38
573.6	318.38
573.811	332.38
574.023	314.38
574.234	332.38
574.445	310.38
574.656	333.38
574.867	324.38
575.078	317.38
575.289	322.38
575.501	322.38
575.712	293.38
575.923	306.38
576.134	303.38
576.345	317.38
576.556	283.38
576.767	316.38
576.978	300.38
577.188	323.38
577.399	296.38
577.61	273.38
577.821	294.38
578.032	309.38
578.243	340.38
578.454	611.38
578.665	436.38
578.875	333.38
579.086	295.38
579.297	292.38
579.508	279.38
579.718	291.38
579.929	312.38
580.14	271.38
580.35	272.38
580.561	297.38
580.772	276.38
580.982	293.38
581.193	293.38
581.403	293.38
581.614	297.38
581.825	283.38
582.035	281.38
582.246	289.38
582.456	268.38
582.667	284.38
582.877	291.38
583.087	292.38
583.298	283.38
583.508	247.38
583.719	267.38
583.929	290.38
584.139	309.38
584.35	266.38
584.56	288.38
584.77	293.38
584.981	260.38
585.191	270.38
585.401	293.38
585.611	284.38
585.821	267.38
586.032	267.38
586.242	275.38
586.452	281.38
586.662	297.38
586.872	281.38
587.082	262.38
587.292	275.38
587.502	271.38
587.713	290.38
587.923	275.38
588.133	274.38
588.343	271.38
588.553	277.38
588.762	260.38
588.972	255.38
589.182	267.38
589.392	277.38
589.602	276.38
589.812	282.38
590.022	266.38
590.232	279.38
590.441	278.38
590.651	269.38
590.861	271.38
591.071	275.38
591.281	272.38
591.49	276.38
591.7	276.38
591.91	280.38
592.119	278.38
592.329	287.38
592.539	273.38
592.748	279.38
592.958	288.38
593.167	257.38
593.377	269.38
593.587	288.38
593.796	280.38
594.006	279.38
594.215	281.38
594.424	281.38
594.634	266.38
594.843	263.38
595.053	278.38
595.262	291.38
595.472	271.38
595.681	288.38
595.89	282.38
596.1	269.38
596.309	272.38
596.518	267.38
596.727	275.38
596.937	276.38
597.146	260.38
597.355	239.38
597.564	248.38
597.774	263.38
597.983	242.38
598.192	236.38
598.401	261.38
598.61	242.38
598.819	250.38
599.028	239.38
599.237	258.38
599.446	248.38
599.655	262.38
599.864	235.38
600.073	234.38
600.282	230.38
600.491	249.38
600.7	239.38
600.909	226.38
601.118	232.38
601.327	236.38
601.536	229.38
601.745	245.38
601.953	244.38
602.162	244.38
602.371	235.38
602.58	226.38
602.789	249.38
602.997	237.38
603.206	228.38
603.415	234.38
603.623	244.38
603.832	226.38
604.041	236.38
604.249	236.38
604.458	239.38
604.666	234.38
604.875	225.38
605.084	237.38
605.292	225.38
605.501	235.38
605.709	212.38
605.918	222.38
606.126	230.38
606.334	214.38
606.543	231.38
606.751	225.38
606.96	205.38
607.168	235.38
607.376	232.38
607.585	227.38
607.793	229.38
608.001	207.38
608.21	226.38
608.418	236.38
608.626	233.38
608.834	239.38
609.043	223.38
609.251	225.38
609.459	236.38
609.667	225.38
609.875	214.38
610.083	247.38
610.291	235.38
610.499	237.38
610.707	235.38
610.916	219.38
611.124	221.38
611.332	215.38
611.54	225.38
611.748	237.38
611.955	224.38
612.163	231.38
612.371	251.38
612.579	202.38
612.787	212.38
612.995	260.38
613.203	224.38
613.411	208.38
613.618	212.38
613.826	219.38
614.034	223.38
614.242	197.38
614.449	231.38
614.657	226.38
614.865	232.38
615.072	229.38
615.28	210.38
615.488	197.38
615.695	224.38
615.903	231.38
616.111	220.38
616.318	212.38
616.526	223.38
616.733	224.38
616.941	207.38
617.148	214.38
617.356	223.38
617.563	222.38
617.771	214.38
617.978	205.38
618.185	222.38
618.393	202.38
618.6	230.38
618.807	215.38
619.015	208.38
619.222	228.38
619.429	207.38
619.637	222.38
619.844	200.38
620.051	201.38
620.258	211.38
620.466	196.38
620.673	212.38
620.88	216.38
621.087	200.38
621.294	216.38
621.501	199.38
621.708	220.38
621.915	218.38
622.122	213.38
622.329	213.38
622.536	203.38
622.743	194.38
622.95	221.38
623.157	218.38
623.364	202.38
623.571	205.38
623.778	207.38
623.985	187.38
624.192	195.38
624.399	189.38
624.606	209.38
624.812	210.38
625.019	185.38
625.226	189.38
625.433	204.38
625.639	191.38
625.846	187.38
626.053	178.38
626.259	200.38
626.466	196.38
626.673	194.38
626.879	215.38
627.086	214.38
627.293	203.38
627.499	194.38
627.706	205.38
627.912	194.38
628.119	164.38
628.325	197.38
628.532	200.38
628.738	201.38
628.945	202.38
629.151	187.38
629.357	186.38
629.564	181.38
629.77	178.38
629.976	178.38
630.183	181.38
630.389	187.38
630.595	196.38
630.802	170.38
631.008	192.38
631.214	184.38
631.42	181.38
631.627	188.38
631.833	188.38
632.039	182.38
632.245	165.38
632.451	167.38
632.657	175.38
632.863	188.38
633.069	175.38
633.275	189.38
633.481	184.38
633.688	175.38
633.893	182.38
634.099	184.38
634.305	173.38
634.511	173.38
634.717	178.38
634.923	185.38
635.129	162.38
635.335	174.38
635.541	176.38
635.747	177.38
635.952	167.38
636.158	164.38
636.364	179.38
636.57	180.38
636.775	186.38
636.981	194.38
637.187	183.38
637.392	146.38
637.598	184.38
637.804	169.38
638.009	160.38
638.215	178.38
638.421	166.38
638.626	170.38
638.832	176.38
639.037	172.38
639.243	156.38
639.448	176.38
639.654	181.38
639.859	166.38
640.065	160.38
640.27	169.38
640.475	164.38
640.681	158.38
640.886	163.38
641.091	178.38
641.297	160.38
641.502	168.38
641.707	148.38
641.913	179.38
642.118	158.38
642.323	168.38
642.528	171.38
642.733	160.38
642.939	154.38
643.144	156.38
643.349	161.38
643.554	160.38
643.759	170.38
643.964	146.38
644.169	159.38
644.374	173.38
644.579	159.38
644.784	168.38
644.989	162.38
645.194	153.38
645.399	150.38
645.604	157.38
645.809	131.38
646.014	154.38
646.219	154.38
646.423	152.38
646.628	173.38
646.833	170.38
647.038	166.38
647.243	158.38
647.447	155.38
647.652	152.38
647.857	162.38
648.062	171.38
648.266	151.38
648.471	158.38
648.676	166.38
648.88	156.38
649.085	164.38
649.289	160.38
649.494	173.38
649.698	188.38
649.903	166.38
650.107	165.38
650.312	167.38
650.516	159.38
650.721	163.38
650.925	144.38
651.13	148.38
651.334	154.38
651.539	139.38
651.743	151.38
651.947	147.38
652.152	144.38
652.356	140.38
652.56	133.38
652.764	148.38
652.969	140.38
653.173	142.38
653.377	127.38
653.581	130.38
653.785	137.38
653.99	132.38
654.194	130.38
654.398	128.38
654.602	131.38
654.806	131.38
655.01	139.38
655.214	151.38
655.418	138.38
655.622	141.38
655.826	136.38
656.03	125.38
656.234	136.38
656.438	139.38
656.642	130.38
656.846	138.38
657.049	124.38
657.253	130.38
657.457	126.38
657.661	117.38
657.865	118.38
658.068	110.38
658.272	124.38
658.476	99.38
658.68	111.38
658.883	108.38
659.087	87.38
659.291	101.38
659.494	107.38
659.698	102.38
659.901	103.38
660.105	110.38
660.309	101.38
660.512	81.38
660.716	92.38
660.919	97.38
661.123	95.38
661.326	97.38
661.53	95.38
661.733	90.38
661.936	88.38
662.14	87.38
662.343	89.38
662.546	83.38
662.75	88.38
662.953	74.38
663.156	83.38
663.36	84.38
663.563	83.38
663.766	88.38
663.969	79.38
664.173	80.38
664.376	72.38
664.579	87.38
664.782	79.38
664.985	84.38
665.188	78.38
665.391	80.38
665.594	84.38
665.797	74.38
666	94.38
666.203	92.38
666.406	91.38
666.609	80.38
666.812	95.38
667.015	76.38
667.218	77.38
667.421	78.38
667.624	81.38
667.827	75.38
668.03	73.38
668.232	79.38
668.435	70.38
668.638	85.38
668.841	84.38
669.043	74.38
669.246	90.38
669.449	69.38
669.651	101.38
669.854	81.38
670.057	76.38
670.259	82.38
670.462	85.38
670.665	77.38
670.867	78.38
671.07	85.38
671.272	87.38
671.475	86.38
671.677	86.38
671.88	96.38
672.082	86.38
672.284	87.38
672.487	99.38
672.689	74.38
672.892	86.38
