Data from 1989.PennyLincolnUp.Lamp.En5.5.200Scan.071819.P2_HRD10591_17-24-35-973.txt Node
Date: Thu Jul 18 17:24:35 EDT 2019
User: cochatt
Spectrometer: HR+D1059
Trigger mode: 1
Integration Time (sec): 1.000000E-1
Scans to average: 1
Electric dark correction enabled: true
Nonlinearity correction enabled: false
Boxcar width: 0
XAxis mode: Wavelengths
Number of Pixels in Spectrum: 2048
>>>>>Begin Spectral Data<<<<<
223.165	-5.12
223.4	-5.12
223.635	-5.12
223.869	-10.12
224.104	-22.12
224.338	-24.12
224.573	-29.12
224.808	-9.12
225.042	-14.12
225.277	-1.12
225.511	-9.12
225.746	15.88
225.98	-1.12
226.215	12.88
226.449	12.88
226.683	28.88
226.918	33.88
227.152	20.88
227.387	24.88
227.621	25.88
227.856	41.88
228.09	42.88
228.324	45.88
228.559	49.88
228.793	63.88
229.027	75.88
229.262	110.88
229.496	118.88
229.73	145.88
229.964	168.88
230.199	136.88
230.433	116.88
230.667	104.88
230.901	122.88
231.136	110.88
231.37	112.88
231.604	108.88
231.838	115.88
232.072	105.88
232.306	98.88
232.541	113.88
232.775	110.88
233.009	102.88
233.243	103.88
233.477	107.88
233.711	115.88
233.945	112.88
234.179	120.88
234.413	120.88
234.647	118.88
234.881	111.88
235.115	110.88
235.349	126.88
235.583	114.88
235.817	107.88
236.051	125.88
236.285	132.88
236.519	124.88
236.753	123.88
236.987	148.88
237.221	199.88
237.455	233.88
237.689	198.88
237.922	148.88
238.156	130.88
238.39	119.88
238.624	126.88
238.858	129.88
239.091	114.88
239.325	121.88
239.559	115.88
239.793	122.88
240.027	144.88
240.26	148.88
240.494	147.88
240.728	140.88
240.961	140.88
241.195	143.88
241.429	159.88
241.662	136.88
241.896	142.88
242.13	132.88
242.363	148.88
242.597	130.88
242.83	133.88
243.064	132.88
243.298	134.88
243.531	139.88
243.765	145.88
243.998	150.88
244.232	151.88
244.465	143.88
244.699	154.88
244.932	153.88
245.166	148.88
245.399	146.88
245.633	153.88
245.866	165.88
246.099	136.88
246.333	161.88
246.566	162.88
246.8	156.88
247.033	156.88
247.266	152.88
247.5	178.88
247.733	186.88
247.966	185.88
248.2	183.88
248.433	183.88
248.666	181.88
248.899	193.88
249.133	214.88
249.366	222.88
249.599	211.88
249.832	205.88
250.066	177.88
250.299	186.88
250.532	170.88
250.765	212.88
250.998	229.88
251.231	256.88
251.465	233.88
251.698	212.88
251.931	209.88
252.164	216.88
252.397	212.88
252.63	224.88
252.863	231.88
253.096	222.88
253.329	233.88
253.562	238.88
253.795	234.88
254.028	242.88
254.261	241.88
254.494	251.88
254.727	255.88
254.96	308.88
255.193	273.88
255.426	266.88
255.659	254.88
255.892	239.88
256.124	234.88
256.357	228.88
256.59	210.88
256.823	230.88
257.056	225.88
257.289	230.88
257.521	228.88
257.754	235.88
257.987	229.88
258.22	228.88
258.452	214.88
258.685	222.88
258.918	241.88
259.151	230.88
259.383	219.88
259.616	247.88
259.849	245.88
260.081	260.88
260.314	292.88
260.547	285.88
260.779	276.88
261.012	277.88
261.244	235.88
261.477	247.88
261.71	227.88
261.942	254.88
262.175	258.88
262.407	233.88
262.64	227.88
262.872	242.88
263.105	230.88
263.337	234.88
263.57	230.88
263.802	229.88
264.035	233.88
264.267	230.88
264.499	227.88
264.732	216.88
264.964	232.88
265.197	233.88
265.429	244.88
265.661	208.88
265.894	240.88
266.126	240.88
266.358	219.88
266.591	232.88
266.823	233.88
267.055	242.88
267.287	243.88
267.52	231.88
267.752	233.88
267.984	235.88
268.216	241.88
268.448	231.88
268.681	247.88
268.913	248.88
269.145	274.88
269.377	295.88
269.609	292.88
269.841	305.88
270.073	274.88
270.306	332.88
270.538	337.88
270.77	333.88
271.002	336.88
271.234	320.88
271.466	311.88
271.698	333.88
271.93	348.88
272.162	356.88
272.394	326.88
272.626	344.88
272.858	310.88
273.09	288.88
273.322	292.88
273.553	281.88
273.785	286.88
274.017	290.88
274.249	308.88
274.481	283.88
274.713	289.88
274.945	287.88
275.176	283.88
275.408	296.88
275.64	276.88
275.872	276.88
276.104	278.88
276.335	279.88
276.567	274.88
276.799	305.88
277.031	328.88
277.262	327.88
277.494	349.88
277.726	323.88
277.957	314.88
278.189	303.88
278.421	276.88
278.652	299.88
278.884	292.88
279.115	290.88
279.347	275.88
279.579	287.88
279.81	282.88
280.042	298.88
280.273	290.88
280.505	287.88
280.736	274.88
280.968	274.88
281.199	262.88
281.431	292.88
281.662	278.88
281.894	287.88
282.125	281.88
282.356	308.88
282.588	320.88
282.819	329.88
283.051	290.88
283.282	297.88
283.513	289.88
283.745	305.88
283.976	289.88
284.207	304.88
284.439	288.88
284.67	295.88
284.901	298.88
285.132	299.88
285.364	290.88
285.595	286.88
285.826	286.88
286.057	302.88
286.288	297.88
286.52	296.88
286.751	284.88
286.982	300.88
287.213	286.88
287.444	304.88
287.675	299.88
287.906	311.88
288.138	310.88
288.369	321.88
288.6	315.88
288.831	304.88
289.062	313.88
289.293	287.88
289.524	306.88
289.755	302.88
289.986	311.88
290.217	308.88
290.448	303.88
290.679	274.88
290.91	292.88
291.141	303.88
291.371	290.88
291.602	298.88
291.833	292.88
292.064	299.88
292.295	275.88
292.526	296.88
292.757	310.88
292.987	287.88
293.218	299.88
293.449	314.88
293.68	314.88
293.91	291.88
294.141	305.88
294.372	270.88
294.603	306.88
294.833	322.88
295.064	304.88
295.295	314.88
295.525	297.88
295.756	310.88
295.987	318.88
296.217	335.88
296.448	330.88
296.679	334.88
296.909	312.88
297.14	299.88
297.37	311.88
297.601	316.88
297.831	307.88
298.062	293.88
298.292	304.88
298.523	312.88
298.753	315.88
298.984	327.88
299.214	329.88
299.445	325.88
299.675	327.88
299.905	326.88
300.136	329.88
300.366	313.88
300.597	323.88
300.827	330.88
301.057	323.88
301.288	332.88
301.518	332.88
301.748	339.88
301.979	314.88
302.209	335.88
302.439	338.88
302.669	329.88
302.9	320.88
303.13	351.88
303.36	332.88
303.59	334.88
303.82	340.88
304.051	364.88
304.281	343.88
304.511	345.88
304.741	341.88
304.971	326.88
305.201	330.88
305.431	330.88
305.661	316.88
305.891	342.88
306.121	344.88
306.352	357.88
306.582	347.88
306.812	347.88
307.042	336.88
307.272	346.88
307.502	343.88
307.731	346.88
307.961	352.88
308.191	349.88
308.421	360.88
308.651	347.88
308.881	346.88
309.111	377.88
309.341	359.88
309.571	357.88
309.8	387.88
310.03	402.88
310.26	386.88
310.49	404.88
310.72	395.88
310.949	428.88
311.179	402.88
311.409	400.88
311.639	396.88
311.868	409.88
312.098	402.88
312.328	426.88
312.557	435.88
312.787	419.88
313.017	430.88
313.246	398.88
313.476	388.88
313.706	391.88
313.935	409.88
314.165	415.88
314.394	411.88
314.624	413.88
314.853	404.88
315.083	416.88
315.312	406.88
315.542	387.88
315.771	386.88
316.001	379.88
316.23	390.88
316.46	375.88
316.689	391.88
316.919	396.88
317.148	404.88
317.377	430.88
317.607	395.88
317.836	405.88
318.065	378.88
318.295	386.88
318.524	408.88
318.753	394.88
318.983	420.88
319.212	402.88
319.441	409.88
319.67	411.88
319.9	397.88
320.129	409.88
320.358	392.88
320.587	404.88
320.816	418.88
321.046	424.88
321.275	430.88
321.504	416.88
321.733	421.88
321.962	410.88
322.191	443.88
322.42	463.88
322.649	485.88
322.878	500.88
323.108	510.88
323.337	504.88
323.566	548.88
323.795	610.88
324.024	642.88
324.253	778.88
324.482	1116.88
324.71	1686.88
324.939	2442.88
325.168	2171.88
325.397	1100.88
325.626	745.88
325.855	610.88
326.084	574.88
326.313	537.88
326.542	555.88
326.77	606.88
326.999	737.88
327.228	949.88
327.457	1506.88
327.686	1840.88
327.914	1224.88
328.143	804.88
328.372	662.88
328.6	631.88
328.829	613.88
329.058	615.88
329.287	638.88
329.515	603.88
329.744	561.88
329.972	539.88
330.201	534.88
330.43	558.88
330.658	593.88
330.887	641.88
331.115	656.88
331.344	587.88
331.572	508.88
331.801	529.88
332.03	497.88
332.258	494.88
332.486	471.88
332.715	456.88
332.943	458.88
333.172	452.88
333.4	444.88
333.629	469.88
333.857	465.88
334.085	453.88
334.314	475.88
334.542	468.88
334.771	482.88
334.999	495.88
335.227	430.88
335.455	454.88
335.684	441.88
335.912	461.88
336.14	436.88
336.369	457.88
336.597	454.88
336.825	461.88
337.053	465.88
337.281	442.88
337.51	438.88
337.738	457.88
337.966	452.88
338.194	466.88
338.422	453.88
338.65	468.88
338.878	456.88
339.106	430.88
339.334	435.88
339.562	443.88
339.79	425.88
340.018	439.88
340.246	441.88
340.474	442.88
340.702	446.88
340.93	442.88
341.158	429.88
341.386	443.88
341.614	446.88
341.842	434.88
342.07	402.88
342.298	423.88
342.526	432.88
342.754	426.88
342.981	409.88
343.209	426.88
343.437	435.88
343.665	424.88
343.893	431.88
344.12	445.88
344.348	443.88
344.576	423.88
344.804	448.88
345.031	472.88
345.259	473.88
345.487	462.88
345.714	446.88
345.942	445.88
346.17	415.88
346.397	429.88
346.625	421.88
346.853	427.88
347.08	416.88
347.308	433.88
347.535	440.88
347.763	444.88
347.99	440.88
348.218	425.88
348.445	422.88
348.673	435.88
348.9	418.88
349.128	397.88
349.355	406.88
349.583	403.88
349.81	396.88
350.037	408.88
350.265	417.88
350.492	397.88
350.72	391.88
350.947	397.88
351.174	418.88
351.402	428.88
351.629	441.88
351.856	443.88
352.083	440.88
352.311	434.88
352.538	444.88
352.765	430.88
352.992	436.88
353.22	436.88
353.447	413.88
353.674	402.88
353.901	400.88
354.128	393.88
354.355	390.88
354.583	403.88
354.81	386.88
355.037	402.88
355.264	396.88
355.491	395.88
355.718	380.88
355.945	385.88
356.172	384.88
356.399	392.88
356.626	393.88
356.853	376.88
357.08	377.88
357.307	378.88
357.534	379.88
357.761	388.88
357.988	387.88
358.215	386.88
358.441	399.88
358.668	375.88
358.895	400.88
359.122	397.88
359.349	390.88
359.576	397.88
359.802	443.88
360.029	458.88
360.256	450.88
360.483	471.88
360.709	435.88
360.936	437.88
361.163	420.88
361.39	414.88
361.616	400.88
361.843	424.88
362.07	410.88
362.296	435.88
362.523	414.88
362.749	402.88
362.976	409.88
363.203	397.88
363.429	386.88
363.656	410.88
363.882	397.88
364.109	412.88
364.335	398.88
364.562	389.88
364.788	407.88
365.015	395.88
365.241	396.88
365.468	394.88
365.694	403.88
365.92	396.88
366.147	380.88
366.373	376.88
366.599	400.88
366.826	382.88
367.052	382.88
367.278	391.88
367.505	371.88
367.731	385.88
367.957	368.88
368.184	406.88
368.41	378.88
368.636	402.88
368.862	408.88
369.089	399.88
369.315	397.88
369.541	383.88
369.767	397.88
369.993	389.88
370.219	391.88
370.445	394.88
370.672	411.88
370.898	384.88
371.124	375.88
371.35	372.88
371.576	384.88
371.802	386.88
372.028	381.88
372.254	400.88
372.48	383.88
372.706	379.88
372.932	397.88
373.158	380.88
373.384	374.88
373.61	407.88
373.835	384.88
374.061	380.88
374.287	396.88
374.513	377.88
374.739	376.88
374.965	395.88
375.191	385.88
375.416	395.88
375.642	371.88
375.868	383.88
376.094	387.88
376.319	386.88
376.545	384.88
376.771	374.88
376.997	353.88
377.222	363.88
377.448	372.88
377.674	374.88
377.899	383.88
378.125	400.88
378.35	391.88
378.576	350.88
378.802	376.88
379.027	358.88
379.253	386.88
379.478	364.88
379.704	380.88
379.929	386.88
380.155	375.88
380.38	387.88
380.606	379.88
380.831	376.88
381.057	397.88
381.282	386.88
381.507	374.88
381.733	382.88
381.958	387.88
382.184	382.88
382.409	363.88
382.634	370.88
382.86	376.88
383.085	401.88
383.31	382.88
383.535	398.88
383.761	382.88
383.986	392.88
384.211	389.88
384.436	390.88
384.662	380.88
384.887	378.88
385.112	412.88
385.337	381.88
385.562	394.88
385.787	395.88
386.013	408.88
386.238	406.88
386.463	402.88
386.688	395.88
386.913	408.88
387.138	394.88
387.363	396.88
387.588	395.88
387.813	400.88
388.038	404.88
388.263	392.88
388.488	387.88
388.713	394.88
388.938	400.88
389.163	414.88
389.387	411.88
389.612	408.88
389.837	409.88
390.062	392.88
390.287	398.88
390.512	409.88
390.736	400.88
390.961	402.88
391.186	406.88
391.411	392.88
391.636	403.88
391.86	403.88
392.085	410.88
392.31	419.88
392.534	403.88
392.759	410.88
392.984	423.88
393.208	391.88
393.433	403.88
393.658	380.88
393.882	398.88
394.107	392.88
394.331	394.88
394.556	430.88
394.78	400.88
395.005	410.88
395.229	406.88
395.454	388.88
395.678	414.88
395.903	430.88
396.127	444.88
396.352	437.88
396.576	417.88
396.801	401.88
397.025	412.88
397.249	410.88
397.474	409.88
397.698	425.88
397.922	430.88
398.147	446.88
398.371	447.88
398.595	456.88
398.82	440.88
399.044	455.88
399.268	472.88
399.492	474.88
399.717	480.88
399.941	507.88
400.165	553.88
400.389	545.88
400.613	514.88
400.837	488.88
401.062	490.88
401.286	444.88
401.51	439.88
401.734	440.88
401.958	457.88
402.182	459.88
402.406	468.88
402.63	468.88
402.854	456.88
403.078	448.88
403.302	459.88
403.526	475.88
403.75	460.88
403.974	459.88
404.198	456.88
404.422	476.88
404.645	463.88
404.869	470.88
405.093	489.88
405.317	492.88
405.541	565.88
405.765	530.88
405.988	486.88
406.212	494.88
406.436	528.88
406.66	557.88
406.883	518.88
407.107	523.88
407.331	583.88
407.555	651.88
407.778	642.88
408.002	572.88
408.226	526.88
408.449	514.88
408.673	526.88
408.896	538.88
409.12	594.88
409.344	544.88
409.567	516.88
409.791	499.88
410.014	472.88
410.238	475.88
410.461	475.88
410.685	482.88
410.908	499.88
411.132	491.88
411.355	547.88
411.578	537.88
411.802	482.88
412.025	474.88
412.249	458.88
412.472	470.88
412.695	475.88
412.919	466.88
413.142	454.88
413.365	473.88
413.589	465.88
413.812	434.88
414.035	426.88
414.258	430.88
414.482	454.88
414.705	465.88
414.928	440.88
415.151	426.88
415.374	426.88
415.597	412.88
415.821	424.88
416.044	447.88
416.267	443.88
416.49	451.88
416.713	437.88
416.936	422.88
417.159	423.88
417.382	448.88
417.605	452.88
417.828	441.88
418.051	454.88
418.274	471.88
418.497	442.88
418.72	433.88
418.943	451.88
419.166	462.88
419.389	450.88
419.611	468.88
419.834	466.88
420.057	478.88
420.28	476.88
420.503	438.88
420.726	430.88
420.948	459.88
421.171	532.88
421.394	540.88
421.617	465.88
421.839	473.88
422.062	462.88
422.285	477.88
422.507	527.88
422.73	619.88
422.953	586.88
423.175	515.88
423.398	485.88
423.621	487.88
423.843	517.88
424.066	507.88
424.288	494.88
424.511	499.88
424.733	569.88
424.956	646.88
425.178	622.88
425.401	622.88
425.623	643.88
425.846	550.88
426.068	519.88
426.291	511.88
426.513	503.88
426.735	546.88
426.958	568.88
427.18	634.88
427.402	757.88
427.625	847.88
427.847	751.88
428.069	615.88
428.292	551.88
428.514	498.88
428.736	483.88
428.958	497.88
429.181	493.88
429.403	481.88
429.625	478.88
429.847	529.88
430.069	605.88
430.292	580.88
430.514	504.88
430.736	466.88
430.958	470.88
431.18	437.88
431.402	446.88
431.624	430.88
431.846	442.88
432.068	431.88
432.29	429.88
432.512	450.88
432.734	438.88
432.956	471.88
433.178	454.88
433.4	452.88
433.622	446.88
433.844	448.88
434.066	434.88
434.287	448.88
434.509	449.88
434.731	434.88
434.953	455.88
435.175	472.88
435.397	490.88
435.618	523.88
435.84	554.88
436.062	640.88
436.284	705.88
436.505	589.88
436.727	528.88
436.949	490.88
437.17	480.88
437.392	482.88
437.614	510.88
437.835	536.88
438.057	608.88
438.278	726.88
438.5	737.88
438.721	787.88
438.943	763.88
439.165	617.88
439.386	532.88
439.608	521.88
439.829	524.88
440.05	555.88
440.272	617.88
440.493	559.88
440.715	522.88
440.936	509.88
441.158	476.88
441.379	476.88
441.6	472.88
441.822	512.88
442.043	558.88
442.264	617.88
442.486	694.88
442.707	571.88
442.928	528.88
443.149	523.88
443.371	537.88
443.592	566.88
443.813	670.88
444.034	719.88
444.255	624.88
444.476	553.88
444.698	506.88
444.919	508.88
445.14	597.88
445.361	589.88
445.582	565.88
445.803	606.88
446.024	712.88
446.245	734.88
446.466	681.88
446.687	549.88
446.908	522.88
447.129	502.88
447.35	486.88
447.571	475.88
447.792	460.88
448.013	502.88
448.234	514.88
448.455	548.88
448.675	650.88
448.896	756.88
449.117	655.88
449.338	588.88
449.559	704.88
449.779	803.88
450	634.88
450.221	559.88
450.442	498.88
450.662	467.88
450.883	483.88
451.104	508.88
451.324	478.88
451.545	464.88
451.766	434.88
451.986	448.88
452.207	442.88
452.428	414.88
452.648	411.88
452.869	421.88
453.089	427.88
453.31	415.88
453.53	449.88
453.751	430.88
453.971	420.88
454.192	448.88
454.412	426.88
454.633	437.88
454.853	406.88
455.073	395.88
455.294	439.88
455.514	512.88
455.734	501.88
455.955	430.88
456.175	417.88
456.395	392.88
456.616	389.88
456.836	403.88
457.056	386.88
457.276	375.88
457.497	381.88
457.717	388.88
457.937	402.88
458.157	409.88
458.377	408.88
458.598	435.88
458.818	485.88
459.038	592.88
459.258	606.88
459.478	515.88
459.698	448.88
459.918	424.88
460.138	440.88
460.358	450.88
460.578	420.88
460.798	438.88
461.018	448.88
461.238	425.88
461.458	435.88
461.678	420.88
461.898	434.88
462.118	432.88
462.338	444.88
462.558	452.88
462.777	449.88
462.997	441.88
463.217	454.88
463.437	458.88
463.657	446.88
463.876	439.88
464.096	456.88
464.316	483.88
464.536	456.88
464.755	457.88
464.975	483.88
465.195	517.88
465.414	586.88
465.634	512.88
465.854	470.88
466.073	462.88
466.293	442.88
466.512	410.88
466.732	413.88
466.951	417.88
467.171	417.88
467.391	439.88
467.61	442.88
467.829	443.88
468.049	409.88
468.268	440.88
468.488	410.88
468.707	380.88
468.927	411.88
469.146	397.88
469.365	410.88
469.585	406.88
469.804	435.88
470.023	448.88
470.243	422.88
470.462	428.88
470.681	465.88
470.901	462.88
471.12	430.88
471.339	409.88
471.558	439.88
471.777	413.88
471.997	427.88
472.216	417.88
472.435	442.88
472.654	428.88
472.873	417.88
473.092	416.88
473.311	426.88
473.53	410.88
473.749	440.88
473.968	485.88
474.187	603.88
474.406	605.88
474.625	495.88
474.844	447.88
475.063	444.88
475.282	439.88
475.501	451.88
475.72	439.88
475.939	440.88
476.158	431.88
476.377	453.88
476.596	419.88
476.814	452.88
477.033	470.88
477.252	472.88
477.471	450.88
477.69	448.88
477.908	456.88
478.127	474.88
478.346	439.88
478.564	466.88
478.783	495.88
479.002	472.88
479.22	489.88
479.439	492.88
479.658	514.88
479.876	542.88
480.095	528.88
480.313	537.88
480.532	525.88
480.751	518.88
480.969	533.88
481.188	544.88
481.406	531.88
481.624	534.88
481.843	522.88
482.061	521.88
482.28	489.88
482.498	491.88
482.717	490.88
482.935	514.88
483.153	479.88
483.372	473.88
483.59	492.88
483.808	519.88
484.027	487.88
484.245	500.88
484.463	518.88
484.681	505.88
484.9	516.88
485.118	508.88
485.336	490.88
485.554	513.88
485.772	517.88
485.99	532.88
486.209	531.88
486.427	500.88
486.645	529.88
486.863	570.88
487.081	585.88
487.299	553.88
487.517	539.88
487.735	561.88
487.953	550.88
488.171	530.88
488.389	567.88
488.607	533.88
488.825	552.88
489.043	571.88
489.261	564.88
489.479	561.88
489.696	551.88
489.914	569.88
490.132	562.88
490.35	576.88
490.568	574.88
490.786	585.88
491.003	596.88
491.221	615.88
491.439	608.88
491.657	609.88
491.874	614.88
492.092	616.88
492.31	636.88
492.527	620.88
492.745	607.88
492.963	640.88
493.18	652.88
493.398	661.88
493.615	666.88
493.833	651.88
494.05	624.88
494.268	618.88
494.485	622.88
494.703	638.88
494.92	635.88
495.138	646.88
495.355	634.88
495.573	659.88
495.79	645.88
496.008	632.88
496.225	643.88
496.442	640.88
496.66	644.88
496.877	640.88
497.094	634.88
497.312	645.88
497.529	672.88
497.746	666.88
497.963	655.88
498.181	660.88
498.398	682.88
498.615	710.88
498.832	716.88
499.049	708.88
499.267	715.88
499.484	753.88
499.701	765.88
499.918	766.88
500.135	813.88
500.352	824.88
500.569	844.88
500.786	820.88
501.003	819.88
501.22	808.88
501.437	784.88
501.654	772.88
501.871	792.88
502.088	794.88
502.305	740.88
502.522	719.88
502.739	718.88
502.956	681.88
503.172	688.88
503.389	686.88
503.606	681.88
503.823	666.88
504.04	655.88
504.256	656.88
504.473	646.88
504.69	652.88
504.907	649.88
505.123	660.88
505.34	638.88
505.557	628.88
505.773	641.88
505.99	638.88
506.207	628.88
506.423	644.88
506.64	626.88
506.856	617.88
507.073	606.88
507.289	623.88
507.506	607.88
507.722	634.88
507.939	640.88
508.155	630.88
508.372	583.88
508.588	604.88
508.805	599.88
509.021	616.88
509.238	620.88
509.454	616.88
509.67	612.88
509.887	601.88
510.103	623.88
510.319	590.88
510.536	726.88
510.752	1264.88
510.968	1014.88
511.184	610.88
511.401	605.88
511.617	588.88
511.833	588.88
512.049	562.88
512.265	581.88
512.481	562.88
512.698	551.88
512.914	554.88
513.13	579.88
513.346	566.88
513.562	582.88
513.778	571.88
513.994	592.88
514.21	592.88
514.426	623.88
514.642	638.88
514.858	705.88
515.074	728.88
515.29	911.88
515.506	1390.88
515.721	1102.88
515.937	723.88
516.153	658.88
516.369	602.88
516.585	599.88
516.801	564.88
517.016	569.88
517.232	597.88
517.448	582.88
517.664	591.88
517.879	595.88
518.095	600.88
518.311	569.88
518.527	568.88
518.742	571.88
518.958	549.88
519.173	556.88
519.389	549.88
519.605	552.88
519.82	583.88
520.036	604.88
520.251	612.88
520.467	642.88
520.682	645.88
520.898	648.88
521.113	662.88
521.329	754.88
521.544	843.88
521.76	1085.88
521.975	1876.88
522.19	1805.88
522.406	942.88
522.621	690.88
522.836	585.88
523.052	587.88
523.267	539.88
523.482	530.88
523.698	538.88
523.913	529.88
524.128	532.88
524.343	520.88
524.559	488.88
524.774	478.88
524.989	491.88
525.204	535.88
525.419	520.88
525.634	490.88
525.849	476.88
526.064	490.88
526.28	467.88
526.495	473.88
526.71	471.88
526.925	471.88
527.14	448.88
527.355	455.88
527.57	452.88
527.785	444.88
527.999	444.88
528.214	458.88
528.429	462.88
528.644	454.88
528.859	470.88
529.074	480.88
529.289	487.88
529.503	571.88
529.718	540.88
529.933	475.88
530.148	460.88
530.363	475.88
530.577	455.88
530.792	441.88
531.007	434.88
531.221	451.88
531.436	446.88
531.651	448.88
531.865	437.88
532.08	433.88
532.295	433.88
532.509	409.88
532.724	442.88
532.938	434.88
533.153	460.88
533.367	432.88
533.582	423.88
533.796	427.88
534.011	427.88
534.225	433.88
534.44	422.88
534.654	434.88
534.868	420.88
535.083	427.88
535.297	426.88
535.511	432.88
535.726	424.88
535.94	443.88
536.154	446.88
536.369	422.88
536.583	417.88
536.797	425.88
537.011	409.88
537.225	403.88
537.44	408.88
537.654	424.88
537.868	412.88
538.082	418.88
538.296	399.88
538.51	406.88
538.724	407.88
538.938	429.88
539.153	417.88
539.367	425.88
539.581	442.88
539.795	415.88
540.009	416.88
540.222	415.88
540.436	424.88
540.65	402.88
540.864	420.88
541.078	421.88
541.292	420.88
541.506	418.88
541.72	420.88
541.934	406.88
542.147	403.88
542.361	404.88
542.575	407.88
542.789	400.88
543.002	403.88
543.216	418.88
543.43	409.88
543.644	402.88
543.857	417.88
544.071	403.88
544.285	403.88
544.498	394.88
544.712	425.88
544.925	414.88
545.139	423.88
545.352	418.88
545.566	397.88
545.779	400.88
545.993	402.88
546.206	395.88
546.42	414.88
546.633	394.88
546.847	411.88
547.06	419.88
547.274	401.88
547.487	393.88
547.7	391.88
547.914	393.88
548.127	402.88
548.34	409.88
548.554	374.88
548.767	402.88
548.98	380.88
549.193	387.88
549.407	391.88
549.62	394.88
549.833	399.88
550.046	404.88
550.259	386.88
550.473	388.88
550.686	378.88
550.899	371.88
551.112	385.88
551.325	378.88
551.538	375.88
551.751	393.88
551.964	375.88
552.177	385.88
552.39	373.88
552.603	393.88
552.816	390.88
553.029	403.88
553.242	371.88
553.455	383.88
553.667	399.88
553.88	403.88
554.093	410.88
554.306	398.88
554.519	377.88
554.732	396.88
554.944	377.88
555.157	378.88
555.37	363.88
555.583	371.88
555.795	361.88
556.008	371.88
556.221	377.88
556.433	354.88
556.646	342.88
556.859	343.88
557.071	351.88
557.284	350.88
557.496	350.88
557.709	339.88
557.921	359.88
558.134	360.88
558.346	339.88
558.559	352.88
558.771	369.88
558.984	347.88
559.196	364.88
559.409	353.88
559.621	355.88
559.833	347.88
560.046	344.88
560.258	329.88
560.47	338.88
560.683	352.88
560.895	340.88
561.107	331.88
561.32	340.88
561.532	351.88
561.744	354.88
561.956	350.88
562.168	335.88
562.381	354.88
562.593	330.88
562.805	358.88
563.017	347.88
563.229	346.88
563.441	336.88
563.653	350.88
563.865	356.88
564.077	380.88
564.289	352.88
564.501	362.88
564.713	355.88
564.925	355.88
565.137	374.88
565.349	376.88
565.561	367.88
565.773	369.88
565.985	384.88
566.197	362.88
566.408	375.88
566.62	388.88
566.832	395.88
567.044	402.88
567.255	400.88
567.467	413.88
567.679	412.88
567.891	436.88
568.102	412.88
568.314	387.88
568.526	388.88
568.737	379.88
568.949	386.88
569.161	333.88
569.372	359.88
569.584	358.88
569.795	345.88
570.007	349.88
570.218	399.88
570.43	385.88
570.641	355.88
570.853	315.88
571.064	341.88
571.276	348.88
571.487	313.88
571.698	330.88
571.91	324.88
572.121	332.88
572.333	312.88
572.544	309.88
572.755	309.88
572.966	315.88
573.178	301.88
573.389	324.88
573.6	310.88
573.811	310.88
574.023	298.88
574.234	311.88
574.445	303.88
574.656	295.88
574.867	308.88
575.078	283.88
575.289	300.88
575.501	300.88
575.712	284.88
575.923	300.88
576.134	308.88
576.345	279.88
576.556	273.88
576.767	279.88
576.978	294.88
577.188	299.88
577.399	315.88
577.61	286.88
577.821	280.88
578.032	316.88
578.243	329.88
578.454	598.88
578.665	436.88
578.875	316.88
579.086	295.88
579.297	282.88
579.508	291.88
579.718	278.88
579.929	278.88
580.14	280.88
580.35	282.88
580.561	279.88
580.772	289.88
580.982	274.88
581.193	274.88
581.403	276.88
581.614	275.88
581.825	280.88
582.035	247.88
582.246	268.88
582.456	282.88
582.667	266.88
582.877	272.88
583.087	268.88
583.298	267.88
583.508	271.88
583.719	263.88
583.929	279.88
584.139	276.88
584.35	270.88
584.56	266.88
584.77	254.88
584.981	284.88
585.191	272.88
585.401	279.88
585.611	260.88
585.821	280.88
586.032	261.88
586.242	275.88
586.452	266.88
586.662	275.88
586.872	269.88
587.082	262.88
587.292	258.88
587.502	274.88
587.713	264.88
587.923	243.88
588.133	255.88
588.343	258.88
588.553	258.88
588.762	251.88
588.972	242.88
589.182	268.88
589.392	270.88
589.602	267.88
589.812	268.88
590.022	291.88
590.232	271.88
590.441	275.88
590.651	263.88
590.861	262.88
591.071	257.88
591.281	262.88
591.49	247.88
591.7	266.88
591.91	234.88
592.119	271.88
592.329	256.88
592.539	262.88
592.748	282.88
592.958	274.88
593.167	262.88
593.377	250.88
593.587	280.88
593.796	271.88
594.006	288.88
594.215	247.88
594.424	248.88
594.634	261.88
594.843	277.88
595.053	258.88
595.262	263.88
595.472	251.88
595.681	263.88
595.89	270.88
596.1	258.88
596.309	230.88
596.518	251.88
596.727	241.88
596.937	244.88
597.146	253.88
597.355	242.88
597.564	242.88
597.774	241.88
597.983	230.88
598.192	240.88
598.401	238.88
598.61	249.88
598.819	262.88
599.028	232.88
599.237	234.88
599.446	243.88
599.655	232.88
599.864	249.88
600.073	249.88
600.282	232.88
600.491	233.88
600.7	209.88
600.909	227.88
601.118	232.88
601.327	227.88
601.536	235.88
601.745	224.88
601.953	217.88
602.162	212.88
602.371	228.88
602.58	214.88
602.789	223.88
602.997	216.88
603.206	230.88
603.415	233.88
603.623	224.88
603.832	215.88
604.041	230.88
604.249	219.88
604.458	236.88
604.666	236.88
604.875	215.88
605.084	231.88
605.292	227.88
605.501	215.88
605.709	230.88
605.918	217.88
606.126	235.88
606.334	224.88
606.543	201.88
606.751	204.88
606.96	222.88
607.168	225.88
607.376	211.88
607.585	231.88
607.793	221.88
608.001	226.88
608.21	211.88
608.418	222.88
608.626	220.88
608.834	215.88
609.043	211.88
609.251	213.88
609.459	201.88
609.667	218.88
609.875	214.88
610.083	226.88
610.291	224.88
610.499	202.88
610.707	223.88
610.916	198.88
611.124	231.88
611.332	220.88
611.54	228.88
611.748	223.88
611.955	216.88
612.163	219.88
612.371	234.88
612.579	221.88
612.787	231.88
612.995	222.88
613.203	215.88
613.411	204.88
613.618	197.88
613.826	199.88
614.034	215.88
614.242	215.88
614.449	208.88
614.657	199.88
614.865	217.88
615.072	215.88
615.28	209.88
615.488	204.88
615.695	203.88
615.903	199.88
616.111	205.88
616.318	222.88
616.526	217.88
616.733	215.88
616.941	203.88
617.148	205.88
617.356	210.88
617.563	194.88
617.771	222.88
617.978	208.88
618.185	210.88
618.393	208.88
618.6	215.88
618.807	208.88
619.015	214.88
619.222	197.88
619.429	218.88
619.637	197.88
619.844	200.88
620.051	209.88
620.258	201.88
620.466	221.88
620.673	203.88
620.88	195.88
621.087	190.88
621.294	204.88
621.501	210.88
621.708	207.88
621.915	200.88
622.122	206.88
622.329	191.88
622.536	216.88
622.743	207.88
622.95	205.88
623.157	197.88
623.364	198.88
623.571	195.88
623.778	202.88
623.985	203.88
624.192	200.88
624.399	192.88
624.606	193.88
624.812	182.88
625.019	187.88
625.226	201.88
625.433	187.88
625.639	181.88
625.846	171.88
626.053	181.88
626.259	192.88
626.466	202.88
626.673	182.88
626.879	180.88
627.086	195.88
627.293	193.88
627.499	193.88
627.706	187.88
627.912	187.88
628.119	200.88
628.325	196.88
628.532	187.88
628.738	180.88
628.945	187.88
629.151	181.88
629.357	186.88
629.564	174.88
629.77	195.88
629.976	170.88
630.183	176.88
630.389	162.88
630.595	193.88
630.802	170.88
631.008	184.88
631.214	188.88
631.42	186.88
631.627	195.88
631.833	180.88
632.039	174.88
632.245	171.88
632.451	171.88
632.657	181.88
632.863	173.88
633.069	164.88
633.275	176.88
633.481	178.88
633.688	163.88
633.893	177.88
634.099	165.88
634.305	178.88
634.511	158.88
634.717	165.88
634.923	170.88
635.129	161.88
635.335	171.88
635.541	172.88
635.747	163.88
635.952	150.88
636.158	166.88
636.364	154.88
636.57	168.88
636.775	186.88
636.981	174.88
637.187	168.88
637.392	168.88
637.598	149.88
637.804	158.88
638.009	163.88
638.215	152.88
638.421	170.88
638.626	169.88
638.832	155.88
639.037	159.88
639.243	167.88
639.448	151.88
639.654	139.88
639.859	146.88
640.065	166.88
640.27	174.88
640.475	158.88
640.681	154.88
640.886	160.88
641.091	170.88
641.297	153.88
641.502	155.88
641.707	160.88
641.913	155.88
642.118	155.88
642.323	167.88
642.528	156.88
642.733	155.88
642.939	160.88
643.144	150.88
643.349	150.88
643.554	157.88
643.759	154.88
643.964	162.88
644.169	159.88
644.374	149.88
644.579	149.88
644.784	150.88
644.989	151.88
645.194	160.88
645.399	154.88
645.604	167.88
645.809	160.88
646.014	153.88
646.219	135.88
646.423	148.88
646.628	158.88
646.833	148.88
647.038	158.88
647.243	160.88
647.447	150.88
647.652	162.88
647.857	151.88
648.062	148.88
648.266	160.88
648.471	141.88
648.676	162.88
648.88	152.88
649.085	166.88
649.289	148.88
649.494	176.88
649.698	176.88
649.903	169.88
650.107	168.88
650.312	151.88
650.516	158.88
650.721	154.88
650.925	129.88
651.13	127.88
651.334	120.88
651.539	156.88
651.743	129.88
651.947	142.88
652.152	144.88
652.356	134.88
652.56	134.88
652.764	130.88
652.969	121.88
653.173	145.88
653.377	125.88
653.581	138.88
653.785	130.88
653.99	123.88
654.194	121.88
654.398	125.88
654.602	120.88
654.806	127.88
655.01	136.88
655.214	130.88
655.418	147.88
655.622	126.88
655.826	128.88
656.03	129.88
656.234	119.88
656.438	122.88
656.642	127.88
656.846	145.88
657.049	136.88
657.253	116.88
657.457	114.88
657.661	102.88
657.865	123.88
658.068	103.88
658.272	112.88
658.476	88.88
658.68	96.88
658.883	101.88
659.087	95.88
659.291	103.88
659.494	94.88
659.698	96.88
659.901	80.88
660.105	78.88
660.309	91.88
660.512	89.88
660.716	94.88
660.919	91.88
661.123	84.88
661.326	97.88
661.53	78.88
661.733	80.88
661.936	89.88
662.14	84.88
662.343	94.88
662.546	103.88
662.75	78.88
662.953	75.88
663.156	84.88
663.36	87.88
663.563	81.88
663.766	79.88
663.969	82.88
664.173	80.88
664.376	84.88
664.579	86.88
664.782	86.88
664.985	91.88
665.188	75.88
665.391	82.88
665.594	98.88
665.797	83.88
666	80.88
666.203	83.88
666.406	91.88
666.609	76.88
666.812	82.88
667.015	85.88
667.218	76.88
667.421	92.88
667.624	65.88
667.827	87.88
668.03	83.88
668.232	91.88
668.435	85.88
668.638	60.88
668.841	78.88
669.043	67.88
669.246	77.88
669.449	84.88
669.651	79.88
669.854	75.88
670.057	84.88
670.259	79.88
670.462	89.88
670.665	80.88
670.867	87.88
671.07	90.88
671.272	93.88
671.475	86.88
671.677	86.88
671.88	97.88
672.082	73.88
672.284	75.88
672.487	82.88
672.689	79.88
672.892	67.88
