Data from 1989.PennyLincolnUp.Lamp.En5.5.200Scan.071819.P2_HRD10591_17-25-48-974.txt Node
Date: Thu Jul 18 17:25:48 EDT 2019
User: cochatt
Spectrometer: HR+D1059
Trigger mode: 1
Integration Time (sec): 1.000000E-1
Scans to average: 1
Electric dark correction enabled: true
Nonlinearity correction enabled: false
Boxcar width: 0
XAxis mode: Wavelengths
Number of Pixels in Spectrum: 2048
>>>>>Begin Spectral Data<<<<<
223.165	-6.44
223.4	-6.44
223.635	-6.44
223.869	-13.44
224.104	-12.44
224.338	-6.44
224.573	-25.44
224.808	-16.44
225.042	-23.44
225.277	2.56
225.511	5.56
225.746	4.56
225.98	18.56
226.215	11.56
226.449	9.56
226.683	1.56
226.918	16.56
227.152	33.56
227.387	16.56
227.621	13.56
227.856	55.56
228.09	41.56
228.324	30.56
228.559	66.56
228.793	72.56
229.027	107.56
229.262	120.56
229.496	116.56
229.73	144.56
229.964	161.56
230.199	130.56
230.433	122.56
230.667	124.56
230.901	127.56
231.136	120.56
231.37	125.56
231.604	128.56
231.838	114.56
232.072	104.56
232.306	106.56
232.541	110.56
232.775	128.56
233.009	114.56
233.243	118.56
233.477	123.56
233.711	119.56
233.945	126.56
234.179	103.56
234.413	116.56
234.647	124.56
234.881	116.56
235.115	134.56
235.349	127.56
235.583	136.56
235.817	128.56
236.051	136.56
236.285	134.56
236.519	127.56
236.753	154.56
236.987	180.56
237.221	193.56
237.455	236.56
237.689	188.56
237.922	139.56
238.156	143.56
238.39	143.56
238.624	126.56
238.858	136.56
239.091	125.56
239.325	125.56
239.559	123.56
239.793	136.56
240.027	143.56
240.26	168.56
240.494	180.56
240.728	181.56
240.961	146.56
241.195	159.56
241.429	142.56
241.662	132.56
241.896	145.56
242.13	138.56
242.363	144.56
242.597	154.56
242.83	148.56
243.064	145.56
243.298	137.56
243.531	144.56
243.765	143.56
243.998	155.56
244.232	158.56
244.465	158.56
244.699	165.56
244.932	158.56
245.166	149.56
245.399	159.56
245.633	151.56
245.866	160.56
246.099	159.56
246.333	162.56
246.566	162.56
246.8	157.56
247.033	160.56
247.266	167.56
247.5	161.56
247.733	182.56
247.966	179.56
248.2	194.56
248.433	180.56
248.666	185.56
248.899	192.56
249.133	214.56
249.366	232.56
249.599	236.56
249.832	210.56
250.066	201.56
250.299	200.56
250.532	207.56
250.765	227.56
250.998	246.56
251.231	274.56
251.465	246.56
251.698	222.56
251.931	218.56
252.164	232.56
252.397	219.56
252.63	225.56
252.863	237.56
253.096	232.56
253.329	260.56
253.562	243.56
253.795	252.56
254.028	243.56
254.261	263.56
254.494	251.56
254.727	278.56
254.96	315.56
255.193	313.56
255.426	272.56
255.659	275.56
255.892	282.56
256.124	274.56
256.357	287.56
256.59	280.56
256.823	273.56
257.056	253.56
257.289	242.56
257.521	238.56
257.754	228.56
257.987	245.56
258.22	235.56
258.452	229.56
258.685	249.56
258.918	215.56
259.151	234.56
259.383	246.56
259.616	286.56
259.849	249.56
260.081	259.56
260.314	287.56
260.547	284.56
260.779	287.56
261.012	262.56
261.244	268.56
261.477	262.56
261.71	255.56
261.942	266.56
262.175	262.56
262.407	260.56
262.64	248.56
262.872	230.56
263.105	239.56
263.337	243.56
263.57	235.56
263.802	231.56
264.035	222.56
264.267	239.56
264.499	252.56
264.732	246.56
264.964	223.56
265.197	240.56
265.429	240.56
265.661	233.56
265.894	243.56
266.126	250.56
266.358	237.56
266.591	245.56
266.823	250.56
267.055	279.56
267.287	268.56
267.52	265.56
267.752	268.56
267.984	254.56
268.216	260.56
268.448	261.56
268.681	258.56
268.913	256.56
269.145	298.56
269.377	308.56
269.609	310.56
269.841	308.56
270.073	312.56
270.306	317.56
270.538	348.56
270.77	370.56
271.002	331.56
271.234	325.56
271.466	352.56
271.698	367.56
271.93	374.56
272.162	367.56
272.394	360.56
272.626	332.56
272.858	323.56
273.09	302.56
273.322	316.56
273.553	304.56
273.785	293.56
274.017	288.56
274.249	308.56
274.481	263.56
274.713	299.56
274.945	284.56
275.176	308.56
275.408	314.56
275.64	303.56
275.872	294.56
276.104	298.56
276.335	292.56
276.567	313.56
276.799	320.56
277.031	342.56
277.262	357.56
277.494	360.56
277.726	375.56
277.957	328.56
278.189	334.56
278.421	299.56
278.652	318.56
278.884	314.56
279.115	307.56
279.347	303.56
279.579	310.56
279.81	307.56
280.042	302.56
280.273	294.56
280.505	302.56
280.736	299.56
280.968	306.56
281.199	284.56
281.431	285.56
281.662	273.56
281.894	298.56
282.125	307.56
282.356	302.56
282.588	339.56
282.819	338.56
283.051	314.56
283.282	310.56
283.513	302.56
283.745	301.56
283.976	298.56
284.207	304.56
284.439	316.56
284.67	318.56
284.901	307.56
285.132	321.56
285.364	295.56
285.595	302.56
285.826	296.56
286.057	302.56
286.288	304.56
286.52	302.56
286.751	296.56
286.982	312.56
287.213	319.56
287.444	308.56
287.675	323.56
287.906	313.56
288.138	339.56
288.369	328.56
288.6	349.56
288.831	340.56
289.062	316.56
289.293	316.56
289.524	315.56
289.755	303.56
289.986	322.56
290.217	310.56
290.448	316.56
290.679	309.56
290.91	316.56
291.141	314.56
291.371	323.56
291.602	311.56
291.833	292.56
292.064	310.56
292.295	312.56
292.526	334.56
292.757	295.56
292.987	312.56
293.218	303.56
293.449	298.56
293.68	300.56
293.91	316.56
294.141	322.56
294.372	311.56
294.603	302.56
294.833	312.56
295.064	327.56
295.295	307.56
295.525	315.56
295.756	315.56
295.987	320.56
296.217	373.56
296.448	361.56
296.679	332.56
296.909	326.56
297.14	331.56
297.37	322.56
297.601	323.56
297.831	334.56
298.062	311.56
298.292	323.56
298.523	325.56
298.753	331.56
298.984	341.56
299.214	345.56
299.445	323.56
299.675	330.56
299.905	337.56
300.136	331.56
300.366	352.56
300.597	338.56
300.827	341.56
301.057	351.56
301.288	373.56
301.518	362.56
301.748	330.56
301.979	362.56
302.209	350.56
302.439	354.56
302.669	348.56
302.9	348.56
303.13	346.56
303.36	370.56
303.59	362.56
303.82	379.56
304.051	370.56
304.281	344.56
304.511	364.56
304.741	347.56
304.971	366.56
305.201	350.56
305.431	356.56
305.661	345.56
305.891	349.56
306.121	358.56
306.352	365.56
306.582	364.56
306.812	382.56
307.042	379.56
307.272	366.56
307.502	370.56
307.731	357.56
307.961	361.56
308.191	372.56
308.421	382.56
308.651	380.56
308.881	361.56
309.111	362.56
309.341	370.56
309.571	393.56
309.8	387.56
310.03	393.56
310.26	431.56
310.49	415.56
310.72	428.56
310.949	433.56
311.179	435.56
311.409	429.56
311.639	406.56
311.868	435.56
312.098	436.56
312.328	429.56
312.557	443.56
312.787	437.56
313.017	434.56
313.246	460.56
313.476	422.56
313.706	418.56
313.935	414.56
314.165	428.56
314.394	440.56
314.624	459.56
314.853	419.56
315.083	410.56
315.312	432.56
315.542	412.56
315.771	394.56
316.001	407.56
316.23	407.56
316.46	416.56
316.689	445.56
316.919	421.56
317.148	431.56
317.377	446.56
317.607	423.56
317.836	426.56
318.065	420.56
318.295	404.56
318.524	419.56
318.753	427.56
318.983	417.56
319.212	423.56
319.441	421.56
319.67	419.56
319.9	422.56
320.129	418.56
320.358	419.56
320.587	429.56
320.816	447.56
321.046	438.56
321.275	453.56
321.504	446.56
321.733	463.56
321.962	455.56
322.191	470.56
322.42	486.56
322.649	486.56
322.878	519.56
323.108	530.56
323.337	554.56
323.566	571.56
323.795	622.56
324.024	682.56
324.253	829.56
324.482	1172.56
324.71	1812.56
324.939	2652.56
325.168	2283.56
325.397	1163.56
325.626	799.56
325.855	670.56
326.084	579.56
326.313	574.56
326.542	591.56
326.77	635.56
326.999	770.56
327.228	1058.56
327.457	1598.56
327.686	1956.56
327.914	1332.56
328.143	863.56
328.372	729.56
328.6	719.56
328.829	661.56
329.058	676.56
329.287	677.56
329.515	640.56
329.744	576.56
329.972	580.56
330.201	635.56
330.43	683.56
330.658	679.56
330.887	714.56
331.115	683.56
331.344	602.56
331.572	574.56
331.801	577.56
332.03	562.56
332.258	536.56
332.486	517.56
332.715	505.56
332.943	493.56
333.172	513.56
333.4	501.56
333.629	504.56
333.857	533.56
334.085	560.56
334.314	568.56
334.542	642.56
334.771	631.56
334.999	575.56
335.227	532.56
335.455	524.56
335.684	502.56
335.912	471.56
336.14	468.56
336.369	485.56
336.597	485.56
336.825	488.56
337.053	491.56
337.281	468.56
337.51	467.56
337.738	477.56
337.966	480.56
338.194	481.56
338.422	483.56
338.65	457.56
338.878	474.56
339.106	464.56
339.334	462.56
339.562	457.56
339.79	468.56
340.018	449.56
340.246	469.56
340.474	454.56
340.702	469.56
340.93	470.56
341.158	473.56
341.386	478.56
341.614	451.56
341.842	444.56
342.07	446.56
342.298	450.56
342.526	455.56
342.754	422.56
342.981	439.56
343.209	440.56
343.437	458.56
343.665	432.56
343.893	453.56
344.12	464.56
344.348	456.56
344.576	475.56
344.804	464.56
345.031	456.56
345.259	486.56
345.487	466.56
345.714	465.56
345.942	446.56
346.17	463.56
346.397	464.56
346.625	422.56
346.853	447.56
347.08	425.56
347.308	457.56
347.535	447.56
347.763	456.56
347.99	469.56
348.218	452.56
348.445	470.56
348.673	458.56
348.9	438.56
349.128	462.56
349.355	431.56
349.583	415.56
349.81	438.56
350.037	436.56
350.265	413.56
350.492	434.56
350.72	424.56
350.947	432.56
351.174	458.56
351.402	420.56
351.629	442.56
351.856	454.56
352.083	452.56
352.311	449.56
352.538	457.56
352.765	458.56
352.992	454.56
353.22	446.56
353.447	439.56
353.674	426.56
353.901	433.56
354.128	412.56
354.355	412.56
354.583	383.56
354.81	387.56
355.037	408.56
355.264	392.56
355.491	379.56
355.718	422.56
355.945	412.56
356.172	396.56
356.399	408.56
356.626	398.56
356.853	442.56
357.08	422.56
357.307	396.56
357.534	390.56
357.761	381.56
357.988	396.56
358.215	396.56
358.441	401.56
358.668	400.56
358.895	398.56
359.122	410.56
359.349	412.56
359.576	431.56
359.802	479.56
360.029	487.56
360.256	483.56
360.483	470.56
360.709	440.56
360.936	438.56
361.163	448.56
361.39	426.56
361.616	430.56
361.843	431.56
362.07	421.56
362.296	427.56
362.523	422.56
362.749	453.56
362.976	434.56
363.203	423.56
363.429	398.56
363.656	412.56
363.882	412.56
364.109	391.56
364.335	408.56
364.562	429.56
364.788	401.56
365.015	391.56
365.241	413.56
365.468	401.56
365.694	444.56
365.92	438.56
366.147	423.56
366.373	388.56
366.599	408.56
366.826	395.56
367.052	413.56
367.278	386.56
367.505	400.56
367.731	410.56
367.957	391.56
368.184	412.56
368.41	423.56
368.636	417.56
368.862	416.56
369.089	421.56
369.315	416.56
369.541	424.56
369.767	416.56
369.993	405.56
370.219	418.56
370.445	412.56
370.672	415.56
370.898	428.56
371.124	378.56
371.35	408.56
371.576	396.56
371.802	390.56
372.028	370.56
372.254	393.56
372.48	388.56
372.706	407.56
372.932	406.56
373.158	401.56
373.384	403.56
373.61	391.56
373.835	411.56
374.061	390.56
374.287	394.56
374.513	375.56
374.739	386.56
374.965	396.56
375.191	412.56
375.416	396.56
375.642	405.56
375.868	417.56
376.094	407.56
376.319	401.56
376.545	405.56
376.771	401.56
376.997	392.56
377.222	389.56
377.448	396.56
377.674	381.56
377.899	385.56
378.125	401.56
378.35	385.56
378.576	400.56
378.802	383.56
379.027	382.56
379.253	380.56
379.478	380.56
379.704	388.56
379.929	401.56
380.155	381.56
380.38	398.56
380.606	395.56
380.831	372.56
381.057	407.56
381.282	404.56
381.507	409.56
381.733	386.56
381.958	390.56
382.184	376.56
382.409	401.56
382.634	404.56
382.86	400.56
383.085	404.56
383.31	416.56
383.535	408.56
383.761	394.56
383.986	388.56
384.211	394.56
384.436	414.56
384.662	396.56
384.887	418.56
385.112	393.56
385.337	401.56
385.562	404.56
385.787	401.56
386.013	430.56
386.238	436.56
386.463	429.56
386.688	425.56
386.913	384.56
387.138	407.56
387.363	409.56
387.588	427.56
387.813	394.56
388.038	398.56
388.263	419.56
388.488	419.56
388.713	414.56
388.938	404.56
389.163	417.56
389.387	410.56
389.612	411.56
389.837	424.56
390.062	408.56
390.287	407.56
390.512	412.56
390.736	411.56
390.961	414.56
391.186	402.56
391.411	422.56
391.636	412.56
391.86	417.56
392.085	412.56
392.31	418.56
392.534	412.56
392.759	444.56
392.984	428.56
393.208	418.56
393.433	431.56
393.658	435.56
393.882	398.56
394.107	392.56
394.331	430.56
394.556	427.56
394.78	409.56
395.005	428.56
395.229	419.56
395.454	425.56
395.678	424.56
395.903	454.56
396.127	453.56
396.352	449.56
396.576	439.56
396.801	408.56
397.025	421.56
397.249	438.56
397.474	434.56
397.698	432.56
397.922	441.56
398.147	463.56
398.371	443.56
398.595	454.56
398.82	451.56
399.044	443.56
399.268	488.56
399.492	504.56
399.717	524.56
399.941	531.56
400.165	563.56
400.389	574.56
400.613	552.56
400.837	514.56
401.062	491.56
401.286	482.56
401.51	482.56
401.734	459.56
401.958	459.56
402.182	459.56
402.406	478.56
402.63	495.56
402.854	492.56
403.078	483.56
403.302	485.56
403.526	498.56
403.75	477.56
403.974	478.56
404.198	485.56
404.422	495.56
404.645	482.56
404.869	489.56
405.093	550.56
405.317	573.56
405.541	632.56
405.765	579.56
405.988	537.56
406.212	548.56
406.436	566.56
406.66	551.56
406.883	524.56
407.107	527.56
407.331	584.56
407.555	659.56
407.778	648.56
408.002	594.56
408.226	562.56
408.449	538.56
408.673	508.56
408.896	562.56
409.12	594.56
409.344	584.56
409.567	491.56
409.791	512.56
410.014	491.56
410.238	480.56
410.461	484.56
410.685	490.56
410.908	488.56
411.132	557.56
411.355	564.56
411.578	536.56
411.802	506.56
412.025	509.56
412.249	502.56
412.472	552.56
412.695	600.56
412.919	587.56
413.142	506.56
413.365	489.56
413.589	493.56
413.812	479.56
414.035	462.56
414.258	452.56
414.482	441.56
414.705	451.56
414.928	449.56
415.151	438.56
415.374	462.56
415.597	436.56
415.821	462.56
416.044	453.56
416.267	468.56
416.49	460.56
416.713	455.56
416.936	474.56
417.159	454.56
417.382	467.56
417.605	469.56
417.828	464.56
418.051	487.56
418.274	495.56
418.497	477.56
418.72	461.56
418.943	439.56
419.166	476.56
419.389	491.56
419.611	465.56
419.834	500.56
420.057	488.56
420.28	490.56
420.503	510.56
420.726	518.56
420.948	514.56
421.171	539.56
421.394	576.56
421.617	508.56
421.839	499.56
422.062	488.56
422.285	528.56
422.507	553.56
422.73	642.56
422.953	618.56
423.175	549.56
423.398	506.56
423.621	513.56
423.843	527.56
424.066	526.56
424.288	525.56
424.511	541.56
424.733	617.56
424.956	688.56
425.178	662.56
425.401	656.56
425.623	670.56
425.846	584.56
426.068	560.56
426.291	529.56
426.513	516.56
426.735	546.56
426.958	589.56
427.18	656.56
427.402	791.56
427.625	880.56
427.847	781.56
428.069	673.56
428.292	602.56
428.514	545.56
428.736	534.56
428.958	516.56
429.181	490.56
429.403	486.56
429.625	492.56
429.847	541.56
430.069	604.56
430.292	595.56
430.514	503.56
430.736	478.56
430.958	476.56
431.18	472.56
431.402	455.56
431.624	443.56
431.846	447.56
432.068	442.56
432.29	459.56
432.512	470.56
432.734	466.56
432.956	463.56
433.178	477.56
433.4	462.56
433.622	440.56
433.844	462.56
434.066	445.56
434.287	463.56
434.509	474.56
434.731	476.56
434.953	474.56
435.175	493.56
435.397	524.56
435.618	525.56
435.84	562.56
436.062	640.56
436.284	736.56
436.505	617.56
436.727	562.56
436.949	495.56
437.17	498.56
437.392	512.56
437.614	500.56
437.835	535.56
438.057	641.56
438.278	762.56
438.5	732.56
438.721	814.56
438.943	780.56
439.165	612.56
439.386	551.56
439.608	536.56
439.829	558.56
440.05	588.56
440.272	616.56
440.493	605.56
440.715	539.56
440.936	526.56
441.158	500.56
441.379	509.56
441.6	515.56
441.822	512.56
442.043	574.56
442.264	660.56
442.486	702.56
442.707	604.56
442.928	531.56
443.149	572.56
443.371	574.56
443.592	619.56
443.813	719.56
444.034	776.56
444.255	620.56
444.476	562.56
444.698	536.56
444.919	519.56
445.14	642.56
445.361	583.56
445.582	581.56
445.803	630.56
446.024	766.56
446.245	763.56
446.466	719.56
446.687	605.56
446.908	562.56
447.129	507.56
447.35	500.56
447.571	479.56
447.792	498.56
448.013	485.56
448.234	513.56
448.455	583.56
448.675	675.56
448.896	790.56
449.117	654.56
449.338	644.56
449.559	735.56
449.779	826.56
450	664.56
450.221	558.56
450.442	494.56
450.662	488.56
450.883	477.56
451.104	511.56
451.324	491.56
451.545	462.56
451.766	457.56
451.986	434.56
452.207	432.56
452.428	426.56
452.648	442.56
452.869	447.56
453.089	431.56
453.31	457.56
453.53	430.56
453.751	438.56
453.971	434.56
454.192	465.56
454.412	444.56
454.633	442.56
454.853	462.56
455.073	438.56
455.294	474.56
455.514	527.56
455.734	510.56
455.955	442.56
456.175	415.56
456.395	421.56
456.616	399.56
456.836	411.56
457.056	414.56
457.276	388.56
457.497	399.56
457.717	420.56
457.937	407.56
458.157	395.56
458.377	436.56
458.598	470.56
458.818	504.56
459.038	603.56
459.258	608.56
459.478	523.56
459.698	482.56
459.918	442.56
460.138	422.56
460.358	474.56
460.578	442.56
460.798	454.56
461.018	460.56
461.238	435.56
461.458	448.56
461.678	444.56
461.898	450.56
462.118	441.56
462.338	450.56
462.558	443.56
462.777	446.56
462.997	481.56
463.217	486.56
463.437	474.56
463.657	445.56
463.876	466.56
464.096	468.56
464.316	480.56
464.536	484.56
464.755	477.56
464.975	474.56
465.195	539.56
465.414	602.56
465.634	550.56
465.854	496.56
466.073	498.56
466.293	466.56
466.512	435.56
466.732	432.56
466.951	462.56
467.171	455.56
467.391	459.56
467.61	439.56
467.829	468.56
468.049	461.56
468.268	454.56
468.488	451.56
468.707	440.56
468.927	434.56
469.146	428.56
469.365	443.56
469.585	430.56
469.804	441.56
470.023	443.56
470.243	448.56
470.462	447.56
470.681	462.56
470.901	465.56
471.12	461.56
471.339	462.56
471.558	444.56
471.777	445.56
471.997	447.56
472.216	449.56
472.435	515.56
472.654	495.56
472.873	483.56
473.092	448.56
473.311	458.56
473.53	458.56
473.749	462.56
473.968	514.56
474.187	608.56
474.406	622.56
474.625	528.56
474.844	454.56
475.063	450.56
475.282	435.56
475.501	468.56
475.72	486.56
475.939	453.56
476.158	458.56
476.377	457.56
476.596	455.56
476.814	467.56
477.033	468.56
477.252	472.56
477.471	477.56
477.69	483.56
477.908	479.56
478.127	478.56
478.346	478.56
478.564	484.56
478.783	488.56
479.002	486.56
479.22	509.56
479.439	502.56
479.658	522.56
479.876	528.56
480.095	548.56
480.313	581.56
480.532	574.56
480.751	563.56
480.969	568.56
481.188	674.56
481.406	746.56
481.624	605.56
481.843	549.56
482.061	548.56
482.28	552.56
482.498	522.56
482.717	508.56
482.935	531.56
483.153	522.56
483.372	532.56
483.59	520.56
483.808	520.56
484.027	528.56
484.245	524.56
484.463	527.56
484.681	564.56
484.9	528.56
485.118	559.56
485.336	546.56
485.554	536.56
485.772	553.56
485.99	551.56
486.209	548.56
486.427	573.56
486.645	583.56
486.863	592.56
487.081	579.56
487.299	575.56
487.517	556.56
487.735	564.56
487.953	546.56
488.171	573.56
488.389	569.56
488.607	568.56
488.825	567.56
489.043	558.56
489.261	589.56
489.479	580.56
489.696	563.56
489.914	600.56
490.132	583.56
490.35	595.56
490.568	585.56
490.786	594.56
491.003	632.56
491.221	616.56
491.439	652.56
491.657	650.56
491.874	638.56
492.092	652.56
492.31	684.56
492.527	655.56
492.745	676.56
492.963	670.56
493.18	677.56
493.398	685.56
493.615	677.56
493.833	672.56
494.05	676.56
494.268	670.56
494.485	694.56
494.703	664.56
494.92	683.56
495.138	698.56
495.355	663.56
495.573	690.56
495.79	704.56
496.008	687.56
496.225	682.56
496.442	668.56
496.66	692.56
496.877	685.56
497.094	682.56
497.312	692.56
497.529	682.56
497.746	678.56
497.963	715.56
498.181	732.56
498.398	741.56
498.615	751.56
498.832	764.56
499.049	752.56
499.267	746.56
499.484	778.56
499.701	767.56
499.918	807.56
500.135	818.56
500.352	853.56
500.569	863.56
500.786	856.56
501.003	867.56
501.22	862.56
501.437	860.56
501.654	824.56
501.871	840.56
502.088	806.56
502.305	759.56
502.522	754.56
502.739	740.56
502.956	698.56
503.172	716.56
503.389	693.56
503.606	695.56
503.823	651.56
504.04	675.56
504.256	679.56
504.473	694.56
504.69	644.56
504.907	669.56
505.123	679.56
505.34	648.56
505.557	660.56
505.773	664.56
505.99	653.56
506.207	640.56
506.423	659.56
506.64	662.56
506.856	627.56
507.073	641.56
507.289	622.56
507.506	621.56
507.722	634.56
507.939	677.56
508.155	647.56
508.372	628.56
508.588	633.56
508.805	620.56
509.021	607.56
509.238	632.56
509.454	648.56
509.67	638.56
509.887	626.56
510.103	621.56
510.319	644.56
510.536	774.56
510.752	1292.56
510.968	1053.56
511.184	679.56
511.401	612.56
511.617	614.56
511.833	597.56
512.049	605.56
512.265	587.56
512.481	609.56
512.698	589.56
512.914	592.56
513.13	600.56
513.346	576.56
513.562	584.56
513.778	579.56
513.994	598.56
514.21	614.56
514.426	649.56
514.642	682.56
514.858	695.56
515.074	767.56
515.29	916.56
515.506	1429.56
515.721	1143.56
515.937	755.56
516.153	656.56
516.369	652.56
516.585	624.56
516.801	618.56
517.016	604.56
517.232	606.56
517.448	573.56
517.664	607.56
517.879	582.56
518.095	578.56
518.311	584.56
518.527	590.56
518.742	604.56
518.958	580.56
519.173	553.56
519.389	598.56
519.605	586.56
519.82	582.56
520.036	608.56
520.251	634.56
520.467	678.56
520.682	661.56
520.898	667.56
521.113	717.56
521.329	741.56
521.544	879.56
521.76	1093.56
521.975	1870.56
522.19	1887.56
522.406	985.56
522.621	708.56
522.836	642.56
523.052	601.56
523.267	580.56
523.482	544.56
523.698	549.56
523.913	568.56
524.128	522.56
524.343	535.56
524.559	521.56
524.774	542.56
524.989	519.56
525.204	508.56
525.419	517.56
525.634	503.56
525.849	481.56
526.064	471.56
526.28	477.56
526.495	472.56
526.71	470.56
526.925	514.56
527.14	470.56
527.355	470.56
527.57	465.56
527.785	487.56
527.999	463.56
528.214	479.56
528.429	447.56
528.644	470.56
528.859	475.56
529.074	460.56
529.289	493.56
529.503	579.56
529.718	580.56
529.933	539.56
530.148	495.56
530.363	493.56
530.577	462.56
530.792	478.56
531.007	470.56
531.221	459.56
531.436	452.56
531.651	469.56
531.865	459.56
532.08	462.56
532.295	438.56
532.509	443.56
532.724	450.56
532.938	422.56
533.153	442.56
533.367	462.56
533.582	432.56
533.796	450.56
534.011	452.56
534.225	439.56
534.44	430.56
534.654	448.56
534.868	442.56
535.083	447.56
535.297	438.56
535.511	438.56
535.726	443.56
535.94	447.56
536.154	440.56
536.369	429.56
536.583	418.56
536.797	441.56
537.011	437.56
537.225	428.56
537.44	426.56
537.654	446.56
537.868	424.56
538.082	445.56
538.296	443.56
538.51	413.56
538.724	425.56
538.938	419.56
539.153	447.56
539.367	463.56
539.581	468.56
539.795	432.56
540.009	412.56
540.222	431.56
540.436	440.56
540.65	439.56
540.864	436.56
541.078	444.56
541.292	440.56
541.506	432.56
541.72	410.56
541.934	443.56
542.147	424.56
542.361	420.56
542.575	419.56
542.789	415.56
543.002	423.56
543.216	422.56
543.43	422.56
543.644	442.56
543.857	458.56
544.071	422.56
544.285	432.56
544.498	431.56
544.712	422.56
544.925	447.56
545.139	412.56
545.352	431.56
545.566	415.56
545.779	413.56
545.993	410.56
546.206	442.56
546.42	413.56
546.633	405.56
546.847	423.56
547.06	400.56
547.274	407.56
547.487	391.56
547.7	414.56
547.914	403.56
548.127	410.56
548.34	412.56
548.554	423.56
548.767	412.56
548.98	395.56
549.193	395.56
549.407	411.56
549.62	412.56
549.833	415.56
550.046	387.56
550.259	397.56
550.473	411.56
550.686	408.56
550.899	407.56
551.112	402.56
551.325	397.56
551.538	396.56
551.751	394.56
551.964	396.56
552.177	398.56
552.39	392.56
552.603	405.56
552.816	407.56
553.029	396.56
553.242	398.56
553.455	402.56
553.667	415.56
553.88	422.56
554.093	439.56
554.306	420.56
554.519	412.56
554.732	398.56
554.944	390.56
555.157	405.56
555.37	397.56
555.583	394.56
555.795	386.56
556.008	376.56
556.221	363.56
556.433	377.56
556.646	391.56
556.859	385.56
557.071	364.56
557.284	356.56
557.496	365.56
557.709	371.56
557.921	359.56
558.134	346.56
558.346	347.56
558.559	368.56
558.771	377.56
558.984	344.56
559.196	341.56
559.409	341.56
559.621	356.56
559.833	370.56
560.046	363.56
560.258	357.56
560.47	355.56
560.683	367.56
560.895	356.56
561.107	348.56
561.32	345.56
561.532	356.56
561.744	352.56
561.956	370.56
562.168	378.56
562.381	362.56
562.593	359.56
562.805	364.56
563.017	358.56
563.229	358.56
563.441	364.56
563.653	366.56
563.865	357.56
564.077	365.56
564.289	367.56
564.501	370.56
564.713	368.56
564.925	373.56
565.137	398.56
565.349	368.56
565.561	390.56
565.773	385.56
565.985	384.56
566.197	386.56
566.408	407.56
566.62	404.56
566.832	415.56
567.044	426.56
567.255	426.56
567.467	438.56
567.679	437.56
567.891	422.56
568.102	413.56
568.314	397.56
568.526	400.56
568.737	392.56
568.949	386.56
569.161	381.56
569.372	383.56
569.584	368.56
569.795	372.56
570.007	367.56
570.218	414.56
570.43	402.56
570.641	368.56
570.853	345.56
571.064	344.56
571.276	341.56
571.487	332.56
571.698	333.56
571.91	342.56
572.121	339.56
572.333	330.56
572.544	333.56
572.755	310.56
572.966	328.56
573.178	318.56
573.389	322.56
573.6	308.56
573.811	308.56
574.023	304.56
574.234	310.56
574.445	320.56
574.656	325.56
574.867	313.56
575.078	321.56
575.289	310.56
575.501	316.56
575.712	314.56
575.923	283.56
576.134	323.56
576.345	313.56
576.556	308.56
576.767	312.56
576.978	318.56
577.188	339.56
577.399	302.56
577.61	290.56
577.821	307.56
578.032	298.56
578.243	360.56
578.454	589.56
578.665	424.56
578.875	324.56
579.086	287.56
579.297	300.56
579.508	299.56
579.718	294.56
579.929	310.56
580.14	299.56
580.35	298.56
580.561	307.56
580.772	297.56
580.982	288.56
581.193	275.56
581.403	291.56
581.614	285.56
581.825	294.56
582.035	278.56
582.246	295.56
582.456	290.56
582.667	287.56
582.877	262.56
583.087	269.56
583.298	285.56
583.508	277.56
583.719	279.56
583.929	288.56
584.139	285.56
584.35	287.56
584.56	285.56
584.77	270.56
584.981	284.56
585.191	296.56
585.401	253.56
585.611	278.56
585.821	287.56
586.032	295.56
586.242	286.56
586.452	272.56
586.662	272.56
586.872	285.56
587.082	278.56
587.292	276.56
587.502	280.56
587.713	272.56
587.923	280.56
588.133	264.56
588.343	272.56
588.553	243.56
588.762	257.56
588.972	277.56
589.182	259.56
589.392	277.56
589.602	269.56
589.812	285.56
590.022	295.56
590.232	266.56
590.441	267.56
590.651	272.56
590.861	254.56
591.071	266.56
591.281	277.56
591.49	275.56
591.7	287.56
591.91	265.56
592.119	255.56
592.329	282.56
592.539	307.56
592.748	290.56
592.958	285.56
593.167	296.56
593.377	296.56
593.587	285.56
593.796	292.56
594.006	273.56
594.215	272.56
594.424	270.56
594.634	258.56
594.843	276.56
595.053	279.56
595.262	265.56
595.472	277.56
595.681	264.56
595.89	262.56
596.1	269.56
596.309	253.56
596.518	266.56
596.727	242.56
596.937	267.56
597.146	271.56
597.355	259.56
597.564	233.56
597.774	262.56
597.983	250.56
598.192	247.56
598.401	261.56
598.61	254.56
598.819	263.56
599.028	254.56
599.237	231.56
599.446	243.56
599.655	264.56
599.864	239.56
600.073	227.56
600.282	254.56
600.491	237.56
600.7	247.56
600.909	244.56
601.118	238.56
601.327	244.56
601.536	222.56
601.745	252.56
601.953	240.56
602.162	237.56
602.371	234.56
602.58	271.56
602.789	258.56
602.997	244.56
603.206	245.56
603.415	247.56
603.623	223.56
603.832	230.56
604.041	218.56
604.249	230.56
604.458	225.56
604.666	235.56
604.875	242.56
605.084	236.56
605.292	243.56
605.501	235.56
605.709	216.56
605.918	237.56
606.126	236.56
606.334	227.56
606.543	208.56
606.751	231.56
606.96	232.56
607.168	231.56
607.376	242.56
607.585	216.56
607.793	232.56
608.001	221.56
608.21	232.56
608.418	228.56
608.626	220.56
608.834	224.56
609.043	234.56
609.251	232.56
609.459	226.56
609.667	215.56
609.875	217.56
610.083	218.56
610.291	229.56
610.499	224.56
610.707	231.56
610.916	241.56
611.124	223.56
611.332	228.56
611.54	223.56
611.748	232.56
611.955	238.56
612.163	237.56
612.371	229.56
612.579	214.56
612.787	232.56
612.995	227.56
613.203	234.56
613.411	230.56
613.618	215.56
613.826	208.56
614.034	217.56
614.242	223.56
614.449	216.56
614.657	219.56
614.865	219.56
615.072	214.56
615.28	214.56
615.488	240.56
615.695	228.56
615.903	227.56
616.111	227.56
616.318	232.56
616.526	232.56
616.733	220.56
616.941	217.56
617.148	224.56
617.356	216.56
617.563	233.56
617.771	226.56
617.978	223.56
618.185	208.56
618.393	186.56
618.6	213.56
618.807	219.56
619.015	229.56
619.222	222.56
619.429	218.56
619.637	228.56
619.844	223.56
620.051	207.56
620.258	216.56
620.466	209.56
620.673	211.56
620.88	219.56
621.087	217.56
621.294	216.56
621.501	205.56
621.708	212.56
621.915	204.56
622.122	216.56
622.329	215.56
622.536	208.56
622.743	211.56
622.95	215.56
623.157	216.56
623.364	208.56
623.571	212.56
623.778	200.56
623.985	215.56
624.192	198.56
624.399	189.56
624.606	190.56
624.812	197.56
625.019	189.56
625.226	190.56
625.433	189.56
625.639	195.56
625.846	212.56
626.053	186.56
626.259	183.56
626.466	202.56
626.673	192.56
626.879	189.56
627.086	200.56
627.293	193.56
627.499	191.56
627.706	198.56
627.912	198.56
628.119	205.56
628.325	179.56
628.532	173.56
628.738	189.56
628.945	189.56
629.151	189.56
629.357	206.56
629.564	201.56
629.77	197.56
629.976	200.56
630.183	168.56
630.389	190.56
630.595	192.56
630.802	191.56
631.008	189.56
631.214	195.56
631.42	180.56
631.627	190.56
631.833	188.56
632.039	189.56
632.245	170.56
632.451	192.56
632.657	158.56
632.863	184.56
633.069	174.56
633.275	176.56
633.481	195.56
633.688	196.56
633.893	180.56
634.099	186.56
634.305	172.56
634.511	185.56
634.717	167.56
634.923	172.56
635.129	162.56
635.335	155.56
635.541	180.56
635.747	170.56
635.952	174.56
636.158	172.56
636.364	186.56
636.57	201.56
636.775	178.56
636.981	174.56
637.187	181.56
637.392	172.56
637.598	179.56
637.804	164.56
638.009	185.56
638.215	165.56
638.421	166.56
638.626	171.56
638.832	156.56
639.037	166.56
639.243	174.56
639.448	160.56
639.654	164.56
639.859	157.56
640.065	175.56
640.27	173.56
640.475	174.56
640.681	170.56
640.886	155.56
641.091	149.56
641.297	172.56
641.502	167.56
641.707	165.56
641.913	154.56
642.118	171.56
642.323	171.56
642.528	174.56
642.733	161.56
642.939	160.56
643.144	171.56
643.349	171.56
643.554	169.56
643.759	173.56
643.964	165.56
644.169	167.56
644.374	158.56
644.579	163.56
644.784	167.56
644.989	165.56
645.194	161.56
645.399	151.56
645.604	156.56
645.809	156.56
646.014	138.56
646.219	159.56
646.423	147.56
646.628	178.56
646.833	150.56
647.038	157.56
647.243	168.56
647.447	153.56
647.652	157.56
647.857	161.56
648.062	158.56
648.266	167.56
648.471	151.56
648.676	155.56
648.88	157.56
649.085	169.56
649.289	178.56
649.494	163.56
649.698	194.56
649.903	175.56
650.107	171.56
650.312	159.56
650.516	166.56
650.721	159.56
650.925	136.56
651.13	152.56
651.334	145.56
651.539	157.56
651.743	141.56
651.947	141.56
652.152	131.56
652.356	129.56
652.56	134.56
652.764	142.56
652.969	142.56
653.173	144.56
653.377	134.56
653.581	128.56
653.785	136.56
653.99	130.56
654.194	144.56
654.398	147.56
654.602	130.56
654.806	123.56
655.01	136.56
655.214	136.56
655.418	134.56
655.622	132.56
655.826	126.56
656.03	128.56
656.234	140.56
656.438	127.56
656.642	130.56
656.846	128.56
657.049	114.56
657.253	116.56
657.457	114.56
657.661	126.56
657.865	121.56
658.068	122.56
658.272	119.56
658.476	100.56
658.68	108.56
658.883	113.56
659.087	114.56
659.291	106.56
659.494	107.56
659.698	108.56
659.901	101.56
660.105	105.56
660.309	103.56
660.512	105.56
660.716	93.56
660.919	89.56
661.123	101.56
661.326	93.56
661.53	105.56
661.733	98.56
661.936	85.56
662.14	85.56
662.343	91.56
662.546	87.56
662.75	75.56
662.953	95.56
663.156	86.56
663.36	95.56
663.563	103.56
663.766	78.56
663.969	75.56
664.173	83.56
664.376	90.56
664.579	79.56
664.782	89.56
664.985	78.56
665.188	91.56
665.391	83.56
665.594	85.56
665.797	89.56
666	87.56
666.203	94.56
666.406	90.56
666.609	83.56
666.812	86.56
667.015	86.56
667.218	91.56
667.421	90.56
667.624	80.56
667.827	72.56
668.03	85.56
668.232	86.56
668.435	87.56
668.638	81.56
668.841	70.56
669.043	86.56
669.246	90.56
669.449	68.56
669.651	76.56
669.854	84.56
670.057	88.56
670.259	89.56
670.462	92.56
670.665	83.56
670.867	77.56
671.07	90.56
671.272	91.56
671.475	85.56
671.677	91.56
671.88	91.56
672.082	102.56
672.284	98.56
672.487	93.56
672.689	78.56
672.892	75.56
