Data from 1989.PennyLincolnUp.Lamp.En5.5.200Scan.071819.P2_HRD10591_17-25-33-973.txt Node
Date: Thu Jul 18 17:25:33 EDT 2019
User: cochatt
Spectrometer: HR+D1059
Trigger mode: 1
Integration Time (sec): 1.000000E-1
Scans to average: 1
Electric dark correction enabled: true
Nonlinearity correction enabled: false
Boxcar width: 0
XAxis mode: Wavelengths
Number of Pixels in Spectrum: 2048
>>>>>Begin Spectral Data<<<<<
223.165	-15.06
223.4	-15.06
223.635	-15.06
223.869	-18.06
224.104	-13.06
224.338	-20.06
224.573	-8.06
224.808	-16.06
225.042	-1.06
225.277	-10.06
225.511	-15.06
225.746	-0.06
225.98	11.94
226.215	9.94
226.449	15.94
226.683	22.94
226.918	35.94
227.152	19.94
227.387	21.94
227.621	44.94
227.856	37.94
228.09	40.94
228.324	42.94
228.559	58.94
228.793	76.94
229.027	89.94
229.262	119.94
229.496	129.94
229.73	146.94
229.964	145.94
230.199	131.94
230.433	106.94
230.667	109.94
230.901	124.94
231.136	114.94
231.37	106.94
231.604	107.94
231.838	105.94
232.072	120.94
232.306	110.94
232.541	128.94
232.775	127.94
233.009	129.94
233.243	127.94
233.477	111.94
233.711	126.94
233.945	114.94
234.179	129.94
234.413	119.94
234.647	127.94
234.881	103.94
235.115	112.94
235.349	119.94
235.583	117.94
235.817	132.94
236.051	132.94
236.285	138.94
236.519	118.94
236.753	128.94
236.987	159.94
237.221	198.94
237.455	255.94
237.689	199.94
237.922	163.94
238.156	146.94
238.39	136.94
238.624	139.94
238.858	135.94
239.091	123.94
239.325	127.94
239.559	126.94
239.793	136.94
240.027	132.94
240.26	149.94
240.494	167.94
240.728	148.94
240.961	164.94
241.195	148.94
241.429	153.94
241.662	136.94
241.896	136.94
242.13	132.94
242.363	151.94
242.597	131.94
242.83	141.94
243.064	147.94
243.298	137.94
243.531	137.94
243.765	146.94
243.998	140.94
244.232	156.94
244.465	147.94
244.699	155.94
244.932	164.94
245.166	153.94
245.399	161.94
245.633	159.94
245.866	151.94
246.099	151.94
246.333	159.94
246.566	175.94
246.8	164.94
247.033	155.94
247.266	156.94
247.5	185.94
247.733	196.94
247.966	212.94
248.2	194.94
248.433	188.94
248.666	188.94
248.899	189.94
249.133	212.94
249.366	244.94
249.599	222.94
249.832	185.94
250.066	209.94
250.299	213.94
250.532	223.94
250.765	236.94
250.998	243.94
251.231	255.94
251.465	239.94
251.698	236.94
251.931	231.94
252.164	216.94
252.397	211.94
252.63	207.94
252.863	227.94
253.096	242.94
253.329	264.94
253.562	251.94
253.795	246.94
254.028	245.94
254.261	253.94
254.494	268.94
254.727	267.94
254.96	304.94
255.193	303.94
255.426	282.94
255.659	263.94
255.892	257.94
256.124	282.94
256.357	289.94
256.59	263.94
256.823	265.94
257.056	238.94
257.289	220.94
257.521	230.94
257.754	239.94
257.987	259.94
258.22	232.94
258.452	234.94
258.685	242.94
258.918	239.94
259.151	235.94
259.383	241.94
259.616	243.94
259.849	258.94
260.081	239.94
260.314	281.94
260.547	296.94
260.779	301.94
261.012	279.94
261.244	251.94
261.477	266.94
261.71	249.94
261.942	258.94
262.175	234.94
262.407	250.94
262.64	235.94
262.872	257.94
263.105	229.94
263.337	234.94
263.57	231.94
263.802	219.94
264.035	225.94
264.267	232.94
264.499	234.94
264.732	236.94
264.964	244.94
265.197	219.94
265.429	226.94
265.661	232.94
265.894	235.94
266.126	218.94
266.358	243.94
266.591	251.94
266.823	227.94
267.055	251.94
267.287	261.94
267.52	248.94
267.752	245.94
267.984	244.94
268.216	261.94
268.448	243.94
268.681	248.94
268.913	258.94
269.145	297.94
269.377	321.94
269.609	304.94
269.841	288.94
270.073	304.94
270.306	323.94
270.538	348.94
270.77	339.94
271.002	332.94
271.234	340.94
271.466	340.94
271.698	343.94
271.93	355.94
272.162	356.94
272.394	349.94
272.626	357.94
272.858	332.94
273.09	318.94
273.322	308.94
273.553	302.94
273.785	298.94
274.017	281.94
274.249	286.94
274.481	288.94
274.713	291.94
274.945	303.94
275.176	303.94
275.408	283.94
275.64	289.94
275.872	276.94
276.104	284.94
276.335	283.94
276.567	331.94
276.799	322.94
277.031	325.94
277.262	358.94
277.494	335.94
277.726	348.94
277.957	330.94
278.189	304.94
278.421	301.94
278.652	298.94
278.884	277.94
279.115	284.94
279.347	287.94
279.579	296.94
279.81	279.94
280.042	314.94
280.273	311.94
280.505	308.94
280.736	295.94
280.968	289.94
281.199	308.94
281.431	272.94
281.662	294.94
281.894	300.94
282.125	299.94
282.356	328.94
282.588	320.94
282.819	324.94
283.051	310.94
283.282	296.94
283.513	291.94
283.745	294.94
283.976	296.94
284.207	301.94
284.439	290.94
284.67	308.94
284.901	311.94
285.132	305.94
285.364	298.94
285.595	305.94
285.826	291.94
286.057	311.94
286.288	309.94
286.52	290.94
286.751	295.94
286.982	305.94
287.213	307.94
287.444	311.94
287.675	304.94
287.906	321.94
288.138	316.94
288.369	319.94
288.6	323.94
288.831	325.94
289.062	328.94
289.293	329.94
289.524	324.94
289.755	297.94
289.986	297.94
290.217	329.94
290.448	316.94
290.679	324.94
290.91	322.94
291.141	324.94
291.371	290.94
291.602	305.94
291.833	301.94
292.064	321.94
292.295	310.94
292.526	299.94
292.757	308.94
292.987	324.94
293.218	308.94
293.449	313.94
293.68	310.94
293.91	315.94
294.141	279.94
294.372	300.94
294.603	305.94
294.833	322.94
295.064	330.94
295.295	308.94
295.525	303.94
295.756	322.94
295.987	335.94
296.217	341.94
296.448	379.94
296.679	344.94
296.909	305.94
297.14	316.94
297.37	319.94
297.601	303.94
297.831	326.94
298.062	325.94
298.292	319.94
298.523	344.94
298.753	326.94
298.984	325.94
299.214	330.94
299.445	322.94
299.675	318.94
299.905	337.94
300.136	332.94
300.366	321.94
300.597	320.94
300.827	338.94
301.057	339.94
301.288	339.94
301.518	347.94
301.748	339.94
301.979	355.94
302.209	351.94
302.439	367.94
302.669	349.94
302.9	342.94
303.13	346.94
303.36	358.94
303.59	353.94
303.82	376.94
304.051	359.94
304.281	360.94
304.511	352.94
304.741	358.94
304.971	359.94
305.201	344.94
305.431	358.94
305.661	361.94
305.891	339.94
306.121	349.94
306.352	346.94
306.582	364.94
306.812	367.94
307.042	361.94
307.272	347.94
307.502	358.94
307.731	362.94
307.961	355.94
308.191	340.94
308.421	360.94
308.651	359.94
308.881	362.94
309.111	361.94
309.341	356.94
309.571	398.94
309.8	398.94
310.03	388.94
310.26	419.94
310.49	402.94
310.72	401.94
310.949	424.94
311.179	456.94
311.409	433.94
311.639	413.94
311.868	414.94
312.098	428.94
312.328	415.94
312.557	409.94
312.787	458.94
313.017	447.94
313.246	429.94
313.476	423.94
313.706	397.94
313.935	405.94
314.165	424.94
314.394	457.94
314.624	441.94
314.853	438.94
315.083	423.94
315.312	421.94
315.542	402.94
315.771	398.94
316.001	396.94
316.23	402.94
316.46	398.94
316.689	404.94
316.919	400.94
317.148	408.94
317.377	405.94
317.607	415.94
317.836	415.94
318.065	418.94
318.295	425.94
318.524	412.94
318.753	405.94
318.983	400.94
319.212	400.94
319.441	434.94
319.67	426.94
319.9	406.94
320.129	402.94
320.358	407.94
320.587	436.94
320.816	426.94
321.046	450.94
321.275	411.94
321.504	420.94
321.733	433.94
321.962	449.94
322.191	466.94
322.42	464.94
322.649	491.94
322.878	515.94
323.108	514.94
323.337	540.94
323.566	579.94
323.795	623.94
324.024	659.94
324.253	806.94
324.482	1170.94
324.71	1799.94
324.939	2638.94
325.168	2215.94
325.397	1149.94
325.626	756.94
325.855	647.94
326.084	585.94
326.313	571.94
326.542	590.94
326.77	642.94
326.999	769.94
327.228	1040.94
327.457	1619.94
327.686	1947.94
327.914	1279.94
328.143	840.94
328.372	722.94
328.6	691.94
328.829	628.94
329.058	644.94
329.287	668.94
329.515	643.94
329.744	581.94
329.972	569.94
330.201	607.94
330.43	653.94
330.658	675.94
330.887	703.94
331.115	671.94
331.344	600.94
331.572	545.94
331.801	564.94
332.03	523.94
332.258	516.94
332.486	483.94
332.715	481.94
332.943	502.94
333.172	497.94
333.4	518.94
333.629	503.94
333.857	535.94
334.085	556.94
334.314	561.94
334.542	591.94
334.771	593.94
334.999	553.94
335.227	495.94
335.455	476.94
335.684	495.94
335.912	498.94
336.14	462.94
336.369	469.94
336.597	469.94
336.825	487.94
337.053	473.94
337.281	466.94
337.51	456.94
337.738	460.94
337.966	476.94
338.194	468.94
338.422	483.94
338.65	448.94
338.878	451.94
339.106	449.94
339.334	465.94
339.562	445.94
339.79	459.94
340.018	474.94
340.246	458.94
340.474	442.94
340.702	462.94
340.93	456.94
341.158	471.94
341.386	458.94
341.614	440.94
341.842	435.94
342.07	451.94
342.298	455.94
342.526	449.94
342.754	437.94
342.981	435.94
343.209	426.94
343.437	444.94
343.665	436.94
343.893	441.94
344.12	435.94
344.348	448.94
344.576	447.94
344.804	452.94
345.031	453.94
345.259	491.94
345.487	457.94
345.714	443.94
345.942	447.94
346.17	453.94
346.397	444.94
346.625	439.94
346.853	432.94
347.08	425.94
347.308	425.94
347.535	450.94
347.763	455.94
347.99	443.94
348.218	466.94
348.445	462.94
348.673	469.94
348.9	440.94
349.128	422.94
349.355	432.94
349.583	417.94
349.81	437.94
350.037	437.94
350.265	429.94
350.492	401.94
350.72	419.94
350.947	434.94
351.174	440.94
351.402	452.94
351.629	448.94
351.856	451.94
352.083	453.94
352.311	451.94
352.538	449.94
352.765	479.94
352.992	462.94
353.22	434.94
353.447	450.94
353.674	403.94
353.901	423.94
354.128	417.94
354.355	401.94
354.583	398.94
354.81	424.94
355.037	391.94
355.264	404.94
355.491	408.94
355.718	401.94
355.945	391.94
356.172	388.94
356.399	413.94
356.626	397.94
356.853	387.94
357.08	387.94
357.307	390.94
357.534	386.94
357.761	398.94
357.988	411.94
358.215	374.94
358.441	404.94
358.668	410.94
358.895	414.94
359.122	424.94
359.349	442.94
359.576	426.94
359.802	478.94
360.029	464.94
360.256	487.94
360.483	481.94
360.709	433.94
360.936	420.94
361.163	421.94
361.39	418.94
361.616	439.94
361.843	449.94
362.07	431.94
362.296	438.94
362.523	457.94
362.749	443.94
362.976	396.94
363.203	403.94
363.429	413.94
363.656	419.94
363.882	423.94
364.109	394.94
364.335	425.94
364.562	399.94
364.788	395.94
365.015	407.94
365.241	411.94
365.468	396.94
365.694	415.94
365.92	383.94
366.147	387.94
366.373	398.94
366.599	390.94
366.826	383.94
367.052	395.94
367.278	416.94
367.505	391.94
367.731	409.94
367.957	379.94
368.184	397.94
368.41	394.94
368.636	410.94
368.862	423.94
369.089	393.94
369.315	392.94
369.541	397.94
369.767	406.94
369.993	407.94
370.219	403.94
370.445	390.94
370.672	378.94
370.898	388.94
371.124	405.94
371.35	411.94
371.576	386.94
371.802	396.94
372.028	384.94
372.254	376.94
372.48	383.94
372.706	415.94
372.932	379.94
373.158	381.94
373.384	392.94
373.61	397.94
373.835	389.94
374.061	397.94
374.287	387.94
374.513	398.94
374.739	410.94
374.965	398.94
375.191	415.94
375.416	379.94
375.642	391.94
375.868	387.94
376.094	413.94
376.319	391.94
376.545	411.94
376.771	390.94
376.997	392.94
377.222	397.94
377.448	403.94
377.674	357.94
377.899	375.94
378.125	376.94
378.35	393.94
378.576	386.94
378.802	375.94
379.027	385.94
379.253	377.94
379.478	389.94
379.704	384.94
379.929	382.94
380.155	392.94
380.38	411.94
380.606	405.94
380.831	380.94
381.057	404.94
381.282	383.94
381.507	401.94
381.733	380.94
381.958	389.94
382.184	387.94
382.409	375.94
382.634	403.94
382.86	386.94
383.085	389.94
383.31	381.94
383.535	394.94
383.761	379.94
383.986	384.94
384.211	407.94
384.436	408.94
384.662	407.94
384.887	401.94
385.112	388.94
385.337	393.94
385.562	404.94
385.787	372.94
386.013	394.94
386.238	404.94
386.463	409.94
386.688	417.94
386.913	397.94
387.138	398.94
387.363	426.94
387.588	406.94
387.813	417.94
388.038	421.94
388.263	400.94
388.488	392.94
388.713	428.94
388.938	417.94
389.163	425.94
389.387	402.94
389.612	423.94
389.837	399.94
390.062	417.94
390.287	403.94
390.512	419.94
390.736	401.94
390.961	393.94
391.186	402.94
391.411	425.94
391.636	409.94
391.86	437.94
392.085	412.94
392.31	401.94
392.534	415.94
392.759	415.94
392.984	396.94
393.208	410.94
393.433	405.94
393.658	413.94
393.882	381.94
394.107	411.94
394.331	424.94
394.556	409.94
394.78	405.94
395.005	399.94
395.229	405.94
395.454	428.94
395.678	431.94
395.903	433.94
396.127	461.94
396.352	445.94
396.576	433.94
396.801	427.94
397.025	420.94
397.249	409.94
397.474	428.94
397.698	425.94
397.922	426.94
398.147	467.94
398.371	470.94
398.595	454.94
398.82	437.94
399.044	467.94
399.268	487.94
399.492	488.94
399.717	516.94
399.941	551.94
400.165	551.94
400.389	578.94
400.613	547.94
400.837	487.94
401.062	481.94
401.286	461.94
401.51	457.94
401.734	466.94
401.958	468.94
402.182	481.94
402.406	480.94
402.63	475.94
402.854	490.94
403.078	468.94
403.302	469.94
403.526	487.94
403.75	485.94
403.974	491.94
404.198	473.94
404.422	488.94
404.645	515.94
404.869	504.94
405.093	528.94
405.317	563.94
405.541	613.94
405.765	552.94
405.988	507.94
406.212	505.94
406.436	543.94
406.66	569.94
406.883	522.94
407.107	551.94
407.331	576.94
407.555	641.94
407.778	647.94
408.002	570.94
408.226	545.94
408.449	545.94
408.673	519.94
408.896	571.94
409.12	600.94
409.344	595.94
409.567	505.94
409.791	484.94
410.014	487.94
410.238	482.94
410.461	484.94
410.685	473.94
410.908	493.94
411.132	537.94
411.355	565.94
411.578	541.94
411.802	502.94
412.025	475.94
412.249	480.94
412.472	520.94
412.695	566.94
412.919	533.94
413.142	498.94
413.365	490.94
413.589	483.94
413.812	459.94
414.035	443.94
414.258	442.94
414.482	444.94
414.705	449.94
414.928	458.94
415.151	452.94
415.374	437.94
415.597	447.94
415.821	439.94
416.044	460.94
416.267	453.94
416.49	453.94
416.713	443.94
416.936	444.94
417.159	449.94
417.382	445.94
417.605	448.94
417.828	474.94
418.051	482.94
418.274	482.94
418.497	451.94
418.72	453.94
418.943	470.94
419.166	473.94
419.389	497.94
419.611	487.94
419.834	481.94
420.057	482.94
420.28	483.94
420.503	472.94
420.726	497.94
420.948	519.94
421.171	525.94
421.394	572.94
421.617	518.94
421.839	453.94
422.062	487.94
422.285	509.94
422.507	562.94
422.73	649.94
422.953	630.94
423.175	523.94
423.398	503.94
423.621	522.94
423.843	515.94
424.066	523.94
424.288	492.94
424.511	539.94
424.733	618.94
424.956	684.94
425.178	660.94
425.401	662.94
425.623	675.94
425.846	564.94
426.068	542.94
426.291	523.94
426.513	531.94
426.735	542.94
426.958	572.94
427.18	653.94
427.402	765.94
427.625	874.94
427.847	786.94
428.069	666.94
428.292	605.94
428.514	537.94
428.736	491.94
428.958	490.94
429.181	485.94
429.403	469.94
429.625	498.94
429.847	532.94
430.069	613.94
430.292	592.94
430.514	520.94
430.736	479.94
430.958	485.94
431.18	443.94
431.402	457.94
431.624	441.94
431.846	442.94
432.068	448.94
432.29	461.94
432.512	435.94
432.734	484.94
432.956	474.94
433.178	471.94
433.4	435.94
433.622	449.94
433.844	453.94
434.066	442.94
434.287	437.94
434.509	452.94
434.731	459.94
434.953	476.94
435.175	492.94
435.397	490.94
435.618	546.94
435.84	563.94
436.062	671.94
436.284	755.94
436.505	595.94
436.727	550.94
436.949	521.94
437.17	485.94
437.392	483.94
437.614	523.94
437.835	538.94
438.057	663.94
438.278	757.94
438.5	742.94
438.721	787.94
438.943	766.94
439.165	589.94
439.386	553.94
439.608	559.94
439.829	538.94
440.05	566.94
440.272	609.94
440.493	571.94
440.715	535.94
440.936	504.94
441.158	495.94
441.379	470.94
441.6	481.94
441.822	537.94
442.043	565.94
442.264	673.94
442.486	723.94
442.707	604.94
442.928	561.94
443.149	537.94
443.371	569.94
443.592	619.94
443.813	700.94
444.034	749.94
444.255	624.94
444.476	545.94
444.698	524.94
444.919	476.94
445.14	663.94
445.361	606.94
445.582	598.94
445.803	643.94
446.024	712.94
446.245	772.94
446.466	702.94
446.687	585.94
446.908	543.94
447.129	507.94
447.35	506.94
447.571	504.94
447.792	480.94
448.013	497.94
448.234	527.94
448.455	573.94
448.675	665.94
448.896	780.94
449.117	667.94
449.338	656.94
449.559	731.94
449.779	861.94
450	667.94
450.221	560.94
450.442	524.94
450.662	484.94
450.883	476.94
451.104	496.94
451.324	500.94
451.545	471.94
451.766	452.94
451.986	423.94
452.207	423.94
452.428	436.94
452.648	442.94
452.869	444.94
453.089	448.94
453.31	460.94
453.53	442.94
453.751	423.94
453.971	441.94
454.192	461.94
454.412	443.94
454.633	449.94
454.853	445.94
455.073	443.94
455.294	469.94
455.514	539.94
455.734	531.94
455.955	458.94
456.175	440.94
456.395	421.94
456.616	388.94
456.836	402.94
457.056	403.94
457.276	389.94
457.497	385.94
457.717	397.94
457.937	418.94
458.157	408.94
458.377	442.94
458.598	451.94
458.818	531.94
459.038	615.94
459.258	620.94
459.478	514.94
459.698	479.94
459.918	456.94
460.138	437.94
460.358	435.94
460.578	452.94
460.798	444.94
461.018	451.94
461.238	441.94
461.458	451.94
461.678	447.94
461.898	435.94
462.118	451.94
462.338	456.94
462.558	437.94
462.777	454.94
462.997	473.94
463.217	459.94
463.437	468.94
463.657	458.94
463.876	471.94
464.096	463.94
464.316	474.94
464.536	477.94
464.755	486.94
464.975	479.94
465.195	548.94
465.414	600.94
465.634	540.94
465.854	503.94
466.073	475.94
466.293	463.94
466.512	442.94
466.732	423.94
466.951	431.94
467.171	426.94
467.391	415.94
467.61	439.94
467.829	471.94
468.049	469.94
468.268	427.94
468.488	433.94
468.707	428.94
468.927	413.94
469.146	421.94
469.365	412.94
469.585	428.94
469.804	434.94
470.023	417.94
470.243	449.94
470.462	453.94
470.681	471.94
470.901	442.94
471.12	434.94
471.339	437.94
471.558	441.94
471.777	444.94
471.997	432.94
472.216	444.94
472.435	504.94
472.654	490.94
472.873	430.94
473.092	449.94
473.311	435.94
473.53	444.94
473.749	444.94
473.968	508.94
474.187	618.94
474.406	625.94
474.625	533.94
474.844	495.94
475.063	441.94
475.282	462.94
475.501	460.94
475.72	455.94
475.939	455.94
476.158	466.94
476.377	458.94
476.596	453.94
476.814	471.94
477.033	463.94
477.252	479.94
477.471	472.94
477.69	472.94
477.908	462.94
478.127	492.94
478.346	472.94
478.564	472.94
478.783	475.94
479.002	515.94
479.22	480.94
479.439	506.94
479.658	534.94
479.876	543.94
480.095	526.94
480.313	591.94
480.532	552.94
480.751	533.94
480.969	540.94
481.188	631.94
481.406	655.94
481.624	587.94
481.843	554.94
482.061	544.94
482.28	541.94
482.498	540.94
482.717	538.94
482.935	519.94
483.153	504.94
483.372	523.94
483.59	537.94
483.808	529.94
484.027	516.94
484.245	536.94
484.463	534.94
484.681	508.94
484.9	500.94
485.118	532.94
485.336	521.94
485.554	524.94
485.772	553.94
485.99	545.94
486.209	565.94
486.427	522.94
486.645	559.94
486.863	551.94
487.081	574.94
487.299	582.94
487.517	571.94
487.735	568.94
487.953	561.94
488.171	544.94
488.389	569.94
488.607	564.94
488.825	556.94
489.043	547.94
489.261	573.94
489.479	575.94
489.696	573.94
489.914	597.94
490.132	598.94
490.35	593.94
490.568	589.94
490.786	608.94
491.003	628.94
491.221	623.94
491.439	609.94
491.657	608.94
491.874	639.94
492.092	663.94
492.31	664.94
492.527	663.94
492.745	650.94
492.963	647.94
493.18	659.94
493.398	682.94
493.615	664.94
493.833	649.94
494.05	678.94
494.268	673.94
494.485	681.94
494.703	671.94
494.92	665.94
495.138	659.94
495.355	657.94
495.573	685.94
495.79	667.94
496.008	667.94
496.225	662.94
496.442	698.94
496.66	685.94
496.877	669.94
497.094	701.94
497.312	683.94
497.529	664.94
497.746	695.94
497.963	694.94
498.181	715.94
498.398	744.94
498.615	739.94
498.832	725.94
499.049	736.94
499.267	763.94
499.484	761.94
499.701	799.94
499.918	802.94
500.135	810.94
500.352	851.94
500.569	852.94
500.786	861.94
501.003	857.94
501.22	858.94
501.437	842.94
501.654	828.94
501.871	803.94
502.088	785.94
502.305	755.94
502.522	735.94
502.739	749.94
502.956	727.94
503.172	725.94
503.389	691.94
503.606	682.94
503.823	685.94
504.04	690.94
504.256	667.94
504.473	675.94
504.69	666.94
504.907	673.94
505.123	656.94
505.34	634.94
505.557	640.94
505.773	628.94
505.99	659.94
506.207	662.94
506.423	639.94
506.64	629.94
506.856	631.94
507.073	615.94
507.289	641.94
507.506	610.94
507.722	651.94
507.939	643.94
508.155	635.94
508.372	610.94
508.588	587.94
508.805	632.94
509.021	646.94
509.238	639.94
509.454	635.94
509.67	641.94
509.887	615.94
510.103	646.94
510.319	656.94
510.536	760.94
510.752	1313.94
510.968	1024.94
511.184	630.94
511.401	596.94
511.617	610.94
511.833	606.94
512.049	614.94
512.265	589.94
512.481	587.94
512.698	575.94
512.914	585.94
513.13	572.94
513.346	598.94
513.562	587.94
513.778	607.94
513.994	602.94
514.21	624.94
514.426	625.94
514.642	687.94
514.858	697.94
515.074	730.94
515.29	930.94
515.506	1384.94
515.721	1125.94
515.937	745.94
516.153	655.94
516.369	604.94
516.585	623.94
516.801	587.94
517.016	585.94
517.232	594.94
517.448	604.94
517.664	595.94
517.879	602.94
518.095	584.94
518.311	564.94
518.527	602.94
518.742	595.94
518.958	585.94
519.173	597.94
519.389	583.94
519.605	582.94
519.82	610.94
520.036	607.94
520.251	625.94
520.467	682.94
520.682	669.94
520.898	655.94
521.113	709.94
521.329	746.94
521.544	828.94
521.76	1101.94
521.975	1828.94
522.19	1803.94
522.406	960.94
522.621	703.94
522.836	641.94
523.052	579.94
523.267	589.94
523.482	544.94
523.698	533.94
523.913	537.94
524.128	526.94
524.343	526.94
524.559	508.94
524.774	503.94
524.989	502.94
525.204	517.94
525.419	533.94
525.634	504.94
525.849	481.94
526.064	483.94
526.28	488.94
526.495	462.94
526.71	474.94
526.925	482.94
527.14	482.94
527.355	470.94
527.57	479.94
527.785	472.94
527.999	475.94
528.214	469.94
528.429	471.94
528.644	449.94
528.859	451.94
529.074	481.94
529.289	505.94
529.503	579.94
529.718	561.94
529.933	505.94
530.148	488.94
530.363	476.94
530.577	460.94
530.792	484.94
531.007	480.94
531.221	450.94
531.436	457.94
531.651	463.94
531.865	443.94
532.08	469.94
532.295	453.94
532.509	438.94
532.724	447.94
532.938	436.94
533.153	453.94
533.367	435.94
533.582	450.94
533.796	440.94
534.011	439.94
534.225	455.94
534.44	442.94
534.654	419.94
534.868	424.94
535.083	436.94
535.297	432.94
535.511	456.94
535.726	458.94
535.94	466.94
536.154	439.94
536.369	444.94
536.583	438.94
536.797	433.94
537.011	422.94
537.225	422.94
537.44	409.94
537.654	419.94
537.868	414.94
538.082	432.94
538.296	418.94
538.51	399.94
538.724	431.94
538.938	434.94
539.153	433.94
539.367	427.94
539.581	474.94
539.795	441.94
540.009	444.94
540.222	433.94
540.436	419.94
540.65	435.94
540.864	431.94
541.078	448.94
541.292	441.94
541.506	445.94
541.72	443.94
541.934	441.94
542.147	445.94
542.361	415.94
542.575	425.94
542.789	413.94
543.002	410.94
543.216	435.94
543.43	429.94
543.644	430.94
543.857	433.94
544.071	440.94
544.285	441.94
544.498	436.94
544.712	442.94
544.925	438.94
545.139	425.94
545.352	415.94
545.566	407.94
545.779	401.94
545.993	421.94
546.206	419.94
546.42	403.94
546.633	405.94
546.847	413.94
547.06	404.94
547.274	419.94
547.487	400.94
547.7	435.94
547.914	403.94
548.127	394.94
548.34	398.94
548.554	396.94
548.767	379.94
548.98	380.94
549.193	375.94
549.407	405.94
549.62	407.94
549.833	401.94
550.046	410.94
550.259	407.94
550.473	380.94
550.686	393.94
550.899	383.94
551.112	398.94
551.325	391.94
551.538	403.94
551.751	407.94
551.964	389.94
552.177	385.94
552.39	388.94
552.603	388.94
552.816	417.94
553.029	392.94
553.242	415.94
553.455	398.94
553.667	417.94
553.88	426.94
554.093	434.94
554.306	422.94
554.519	378.94
554.732	396.94
554.944	387.94
555.157	403.94
555.37	381.94
555.583	373.94
555.795	367.94
556.008	365.94
556.221	364.94
556.433	361.94
556.646	367.94
556.859	351.94
557.071	373.94
557.284	364.94
557.496	354.94
557.709	345.94
557.921	377.94
558.134	349.94
558.346	346.94
558.559	371.94
558.771	344.94
558.984	357.94
559.196	362.94
559.409	357.94
559.621	349.94
559.833	349.94
560.046	351.94
560.258	372.94
560.47	353.94
560.683	363.94
560.895	344.94
561.107	360.94
561.32	352.94
561.532	371.94
561.744	343.94
561.956	355.94
562.168	339.94
562.381	349.94
562.593	373.94
562.805	359.94
563.017	349.94
563.229	360.94
563.441	347.94
563.653	352.94
563.865	353.94
564.077	350.94
564.289	374.94
564.501	357.94
564.713	367.94
564.925	363.94
565.137	381.94
565.349	367.94
565.561	385.94
565.773	388.94
565.985	363.94
566.197	407.94
566.408	377.94
566.62	401.94
566.832	400.94
567.044	394.94
567.255	419.94
567.467	420.94
567.679	416.94
567.891	406.94
568.102	410.94
568.314	416.94
568.526	421.94
568.737	387.94
568.949	383.94
569.161	378.94
569.372	373.94
569.584	364.94
569.795	374.94
570.007	373.94
570.218	410.94
570.43	397.94
570.641	342.94
570.853	348.94
571.064	350.94
571.276	340.94
571.487	333.94
571.698	339.94
571.91	326.94
572.121	324.94
572.333	322.94
572.544	308.94
572.755	320.94
572.966	311.94
573.178	337.94
573.389	310.94
573.6	312.94
573.811	315.94
574.023	325.94
574.234	300.94
574.445	324.94
574.656	315.94
574.867	317.94
575.078	325.94
575.289	301.94
575.501	301.94
575.712	306.94
575.923	305.94
576.134	295.94
576.345	299.94
576.556	309.94
576.767	299.94
576.978	320.94
577.188	295.94
577.399	303.94
577.61	298.94
577.821	300.94
578.032	309.94
578.243	338.94
578.454	581.94
578.665	439.94
578.875	305.94
579.086	284.94
579.297	288.94
579.508	276.94
579.718	293.94
579.929	284.94
580.14	305.94
580.35	310.94
580.561	288.94
580.772	283.94
580.982	296.94
581.193	281.94
581.403	269.94
581.614	267.94
581.825	305.94
582.035	286.94
582.246	271.94
582.456	273.94
582.667	269.94
582.877	292.94
583.087	288.94
583.298	290.94
583.508	278.94
583.719	266.94
583.929	273.94
584.139	264.94
584.35	274.94
584.56	281.94
584.77	275.94
584.981	267.94
585.191	282.94
585.401	267.94
585.611	277.94
585.821	263.94
586.032	281.94
586.242	287.94
586.452	269.94
586.662	275.94
586.872	277.94
587.082	268.94
587.292	266.94
587.502	259.94
587.713	269.94
587.923	264.94
588.133	284.94
588.343	257.94
588.553	275.94
588.762	267.94
588.972	274.94
589.182	257.94
589.392	271.94
589.602	262.94
589.812	271.94
590.022	262.94
590.232	276.94
590.441	271.94
590.651	269.94
590.861	264.94
591.071	263.94
591.281	280.94
591.49	273.94
591.7	273.94
591.91	275.94
592.119	273.94
592.329	292.94
592.539	303.94
592.748	287.94
592.958	274.94
593.167	265.94
593.377	270.94
593.587	275.94
593.796	272.94
594.006	277.94
594.215	265.94
594.424	283.94
594.634	289.94
594.843	277.94
595.053	281.94
595.262	278.94
595.472	258.94
595.681	263.94
595.89	252.94
596.1	248.94
596.309	243.94
596.518	252.94
596.727	269.94
596.937	257.94
597.146	244.94
597.355	259.94
597.564	256.94
597.774	225.94
597.983	242.94
598.192	259.94
598.401	250.94
598.61	250.94
598.819	243.94
599.028	236.94
599.237	243.94
599.446	253.94
599.655	251.94
599.864	235.94
600.073	226.94
600.282	249.94
600.491	227.94
600.7	237.94
600.909	233.94
601.118	243.94
601.327	234.94
601.536	223.94
601.745	227.94
601.953	234.94
602.162	235.94
602.371	239.94
602.58	248.94
602.789	231.94
602.997	242.94
603.206	233.94
603.415	215.94
603.623	237.94
603.832	228.94
604.041	218.94
604.249	233.94
604.458	236.94
604.666	216.94
604.875	234.94
605.084	221.94
605.292	240.94
605.501	225.94
605.709	224.94
605.918	215.94
606.126	212.94
606.334	227.94
606.543	223.94
606.751	232.94
606.96	217.94
607.168	225.94
607.376	241.94
607.585	222.94
607.793	225.94
608.001	219.94
608.21	225.94
608.418	208.94
608.626	238.94
608.834	234.94
609.043	217.94
609.251	223.94
609.459	229.94
609.667	205.94
609.875	217.94
610.083	211.94
610.291	219.94
610.499	223.94
610.707	219.94
610.916	234.94
611.124	218.94
611.332	231.94
611.54	242.94
611.748	232.94
611.955	237.94
612.163	220.94
612.371	213.94
612.579	219.94
612.787	233.94
612.995	213.94
613.203	216.94
613.411	233.94
613.618	212.94
613.826	221.94
614.034	238.94
614.242	225.94
614.449	220.94
614.657	210.94
614.865	209.94
615.072	225.94
615.28	200.94
615.488	215.94
615.695	216.94
615.903	202.94
616.111	212.94
616.318	219.94
616.526	214.94
616.733	195.94
616.941	203.94
617.148	206.94
617.356	205.94
617.563	205.94
617.771	225.94
617.978	208.94
618.185	215.94
618.393	223.94
618.6	223.94
618.807	226.94
619.015	219.94
619.222	204.94
619.429	229.94
619.637	218.94
619.844	196.94
620.051	204.94
620.258	213.94
620.466	203.94
620.673	199.94
620.88	201.94
621.087	203.94
621.294	200.94
621.501	187.94
621.708	196.94
621.915	202.94
622.122	199.94
622.329	213.94
622.536	204.94
622.743	202.94
622.95	201.94
623.157	202.94
623.364	205.94
623.571	203.94
623.778	170.94
623.985	196.94
624.192	207.94
624.399	196.94
624.606	206.94
624.812	187.94
625.019	213.94
625.226	197.94
625.433	216.94
625.639	176.94
625.846	192.94
626.053	200.94
626.259	190.94
626.466	196.94
626.673	195.94
626.879	191.94
627.086	186.94
627.293	186.94
627.499	186.94
627.706	195.94
627.912	184.94
628.119	186.94
628.325	186.94
628.532	177.94
628.738	193.94
628.945	203.94
629.151	195.94
629.357	186.94
629.564	190.94
629.77	185.94
629.976	193.94
630.183	181.94
630.389	186.94
630.595	184.94
630.802	173.94
631.008	181.94
631.214	178.94
631.42	177.94
631.627	193.94
631.833	196.94
632.039	179.94
632.245	179.94
632.451	195.94
632.657	187.94
632.863	184.94
633.069	159.94
633.275	173.94
633.481	184.94
633.688	184.94
633.893	165.94
634.099	161.94
634.305	175.94
634.511	170.94
634.717	163.94
634.923	161.94
635.129	152.94
635.335	163.94
635.541	180.94
635.747	148.94
635.952	158.94
636.158	171.94
636.364	181.94
636.57	184.94
636.775	155.94
636.981	169.94
637.187	184.94
637.392	177.94
637.598	165.94
637.804	169.94
638.009	169.94
638.215	167.94
638.421	165.94
638.626	159.94
638.832	165.94
639.037	178.94
639.243	165.94
639.448	158.94
639.654	173.94
639.859	165.94
640.065	144.94
640.27	156.94
640.475	159.94
640.681	169.94
640.886	155.94
641.091	165.94
641.297	175.94
641.502	158.94
641.707	169.94
641.913	158.94
642.118	151.94
642.323	157.94
642.528	168.94
642.733	159.94
642.939	166.94
643.144	164.94
643.349	155.94
643.554	151.94
643.759	149.94
643.964	153.94
644.169	157.94
644.374	160.94
644.579	167.94
644.784	178.94
644.989	169.94
645.194	172.94
645.399	153.94
645.604	149.94
645.809	152.94
646.014	161.94
646.219	159.94
646.423	144.94
646.628	146.94
646.833	148.94
647.038	161.94
647.243	150.94
647.447	138.94
647.652	149.94
647.857	153.94
648.062	165.94
648.266	163.94
648.471	160.94
648.676	157.94
648.88	168.94
649.085	159.94
649.289	149.94
649.494	176.94
649.698	169.94
649.903	168.94
650.107	165.94
650.312	159.94
650.516	149.94
650.721	159.94
650.925	162.94
651.13	151.94
651.334	144.94
651.539	146.94
651.743	131.94
651.947	149.94
652.152	141.94
652.356	139.94
652.56	144.94
652.764	139.94
652.969	134.94
653.173	124.94
653.377	146.94
653.581	130.94
653.785	128.94
653.99	124.94
654.194	135.94
654.398	119.94
654.602	132.94
654.806	133.94
655.01	152.94
655.214	149.94
655.418	131.94
655.622	123.94
655.826	123.94
656.03	128.94
656.234	140.94
656.438	134.94
656.642	121.94
656.846	131.94
657.049	123.94
657.253	123.94
657.457	102.94
657.661	117.94
657.865	108.94
658.068	102.94
658.272	111.94
658.476	95.94
658.68	105.94
658.883	103.94
659.087	109.94
659.291	105.94
659.494	90.94
659.698	87.94
659.901	100.94
660.105	104.94
660.309	86.94
660.512	95.94
660.716	85.94
660.919	89.94
661.123	95.94
661.326	87.94
661.53	84.94
661.733	95.94
661.936	82.94
662.14	90.94
662.343	81.94
662.546	69.94
662.75	94.94
662.953	74.94
663.156	82.94
663.36	72.94
663.563	80.94
663.766	95.94
663.969	88.94
664.173	85.94
664.376	91.94
664.579	71.94
664.782	69.94
664.985	76.94
665.188	85.94
665.391	79.94
665.594	75.94
665.797	81.94
666	78.94
666.203	75.94
666.406	75.94
666.609	79.94
666.812	81.94
667.015	94.94
667.218	73.94
667.421	77.94
667.624	75.94
667.827	79.94
668.03	81.94
668.232	85.94
668.435	76.94
668.638	75.94
668.841	84.94
669.043	83.94
669.246	88.94
669.449	77.94
669.651	83.94
669.854	78.94
670.057	74.94
670.259	86.94
670.462	91.94
670.665	82.94
670.867	90.94
671.07	79.94
671.272	82.94
671.475	77.94
671.677	85.94
671.88	85.94
672.082	59.94
672.284	80.94
672.487	79.94
672.689	77.94
672.892	87.94
