Data from 1989.PennyLincolnUp.Lamp.En5.5.200Scan.071819.P2_HRD10591_17-23-57-972.txt Node
Date: Thu Jul 18 17:23:57 EDT 2019
User: cochatt
Spectrometer: HR+D1059
Trigger mode: 1
Integration Time (sec): 1.000000E-1
Scans to average: 1
Electric dark correction enabled: true
Nonlinearity correction enabled: false
Boxcar width: 0
XAxis mode: Wavelengths
Number of Pixels in Spectrum: 2048
>>>>>Begin Spectral Data<<<<<
223.165	-28.12
223.4	-28.12
223.635	-28.12
223.869	-28.12
224.104	-10.12
224.338	-16.12
224.573	-7.12
224.808	-10.12
225.042	-11.12
225.277	-9.12
225.511	4.88
225.746	-3.12
225.98	8.88
226.215	5.88
226.449	3.88
226.683	32.88
226.918	33.88
227.152	32.88
227.387	34.88
227.621	26.88
227.856	44.88
228.09	53.88
228.324	30.88
228.559	61.88
228.793	73.88
229.027	95.88
229.262	119.88
229.496	125.88
229.73	140.88
229.964	161.88
230.199	135.88
230.433	115.88
230.667	121.88
230.901	119.88
231.136	132.88
231.37	121.88
231.604	121.88
231.838	101.88
232.072	127.88
232.306	121.88
232.541	105.88
232.775	114.88
233.009	113.88
233.243	104.88
233.477	125.88
233.711	117.88
233.945	97.88
234.179	123.88
234.413	108.88
234.647	126.88
234.881	123.88
235.115	122.88
235.349	132.88
235.583	120.88
235.817	127.88
236.051	131.88
236.285	138.88
236.519	130.88
236.753	131.88
236.987	125.88
237.221	193.88
237.455	249.88
237.689	197.88
237.922	142.88
238.156	144.88
238.39	138.88
238.624	146.88
238.858	121.88
239.091	124.88
239.325	117.88
239.559	121.88
239.793	141.88
240.027	138.88
240.26	158.88
240.494	179.88
240.728	142.88
240.961	160.88
241.195	143.88
241.429	147.88
241.662	153.88
241.896	144.88
242.13	123.88
242.363	132.88
242.597	149.88
242.83	142.88
243.064	157.88
243.298	138.88
243.531	133.88
243.765	153.88
243.998	151.88
244.232	139.88
244.465	155.88
244.699	161.88
244.932	158.88
245.166	159.88
245.399	164.88
245.633	150.88
245.866	155.88
246.099	147.88
246.333	160.88
246.566	153.88
246.8	174.88
247.033	156.88
247.266	176.88
247.5	172.88
247.733	183.88
247.966	182.88
248.2	187.88
248.433	171.88
248.666	188.88
248.899	197.88
249.133	206.88
249.366	218.88
249.599	198.88
249.832	194.88
250.066	187.88
250.299	189.88
250.532	195.88
250.765	210.88
250.998	229.88
251.231	248.88
251.465	230.88
251.698	220.88
251.931	203.88
252.164	206.88
252.397	227.88
252.63	223.88
252.863	221.88
253.096	227.88
253.329	245.88
253.562	219.88
253.795	219.88
254.028	215.88
254.261	239.88
254.494	243.88
254.727	274.88
254.96	309.88
255.193	298.88
255.426	271.88
255.659	247.88
255.892	242.88
256.124	230.88
256.357	246.88
256.59	231.88
256.823	214.88
257.056	211.88
257.289	219.88
257.521	206.88
257.754	227.88
257.987	230.88
258.22	220.88
258.452	225.88
258.685	203.88
258.918	225.88
259.151	231.88
259.383	219.88
259.616	218.88
259.849	228.88
260.081	244.88
260.314	264.88
260.547	264.88
260.779	265.88
261.012	260.88
261.244	248.88
261.477	243.88
261.71	245.88
261.942	255.88
262.175	263.88
262.407	238.88
262.64	239.88
262.872	230.88
263.105	243.88
263.337	233.88
263.57	222.88
263.802	229.88
264.035	207.88
264.267	233.88
264.499	232.88
264.732	219.88
264.964	237.88
265.197	236.88
265.429	228.88
265.661	215.88
265.894	232.88
266.126	227.88
266.358	243.88
266.591	240.88
266.823	242.88
267.055	234.88
267.287	258.88
267.52	231.88
267.752	244.88
267.984	245.88
268.216	250.88
268.448	260.88
268.681	250.88
268.913	251.88
269.145	263.88
269.377	289.88
269.609	282.88
269.841	286.88
270.073	278.88
270.306	328.88
270.538	342.88
270.77	340.88
271.002	309.88
271.234	316.88
271.466	330.88
271.698	333.88
271.93	329.88
272.162	346.88
272.394	361.88
272.626	339.88
272.858	316.88
273.09	302.88
273.322	312.88
273.553	301.88
273.785	296.88
274.017	281.88
274.249	284.88
274.481	290.88
274.713	283.88
274.945	299.88
275.176	287.88
275.408	298.88
275.64	291.88
275.872	279.88
276.104	293.88
276.335	275.88
276.567	289.88
276.799	313.88
277.031	331.88
277.262	332.88
277.494	354.88
277.726	326.88
277.957	326.88
278.189	310.88
278.421	293.88
278.652	289.88
278.884	284.88
279.115	285.88
279.347	278.88
279.579	297.88
279.81	264.88
280.042	285.88
280.273	282.88
280.505	281.88
280.736	290.88
280.968	268.88
281.199	268.88
281.431	281.88
281.662	277.88
281.894	265.88
282.125	304.88
282.356	301.88
282.588	327.88
282.819	325.88
283.051	311.88
283.282	281.88
283.513	302.88
283.745	274.88
283.976	298.88
284.207	287.88
284.439	315.88
284.67	287.88
284.901	290.88
285.132	280.88
285.364	291.88
285.595	315.88
285.826	289.88
286.057	291.88
286.288	313.88
286.52	300.88
286.751	291.88
286.982	302.88
287.213	278.88
287.444	312.88
287.675	313.88
287.906	309.88
288.138	328.88
288.369	300.88
288.6	326.88
288.831	311.88
289.062	310.88
289.293	313.88
289.524	312.88
289.755	313.88
289.986	307.88
290.217	297.88
290.448	280.88
290.679	293.88
290.91	321.88
291.141	307.88
291.371	318.88
291.602	292.88
291.833	303.88
292.064	310.88
292.295	309.88
292.526	313.88
292.757	303.88
292.987	318.88
293.218	319.88
293.449	300.88
293.68	311.88
293.91	311.88
294.141	308.88
294.372	299.88
294.603	287.88
294.833	313.88
295.064	314.88
295.295	314.88
295.525	307.88
295.756	323.88
295.987	319.88
296.217	351.88
296.448	350.88
296.679	329.88
296.909	302.88
297.14	298.88
297.37	320.88
297.601	326.88
297.831	312.88
298.062	294.88
298.292	331.88
298.523	336.88
298.753	329.88
298.984	301.88
299.214	313.88
299.445	305.88
299.675	323.88
299.905	337.88
300.136	313.88
300.366	323.88
300.597	335.88
300.827	330.88
301.057	310.88
301.288	345.88
301.518	326.88
301.748	328.88
301.979	347.88
302.209	349.88
302.439	350.88
302.669	351.88
302.9	350.88
303.13	345.88
303.36	340.88
303.59	357.88
303.82	362.88
304.051	335.88
304.281	356.88
304.511	348.88
304.741	359.88
304.971	339.88
305.201	330.88
305.431	341.88
305.661	344.88
305.891	331.88
306.121	336.88
306.352	358.88
306.582	346.88
306.812	342.88
307.042	339.88
307.272	356.88
307.502	340.88
307.731	343.88
307.961	351.88
308.191	335.88
308.421	350.88
308.651	349.88
308.881	355.88
309.111	366.88
309.341	369.88
309.571	374.88
309.8	388.88
310.03	375.88
310.26	400.88
310.49	403.88
310.72	410.88
310.949	397.88
311.179	428.88
311.409	396.88
311.639	396.88
311.868	388.88
312.098	409.88
312.328	407.88
312.557	407.88
312.787	428.88
313.017	429.88
313.246	425.88
313.476	393.88
313.706	397.88
313.935	397.88
314.165	429.88
314.394	441.88
314.624	410.88
314.853	408.88
315.083	422.88
315.312	409.88
315.542	392.88
315.771	382.88
316.001	395.88
316.23	392.88
316.46	396.88
316.689	396.88
316.919	416.88
317.148	398.88
317.377	417.88
317.607	400.88
317.836	391.88
318.065	382.88
318.295	398.88
318.524	398.88
318.753	390.88
318.983	390.88
319.212	385.88
319.441	408.88
319.67	417.88
319.9	409.88
320.129	409.88
320.358	399.88
320.587	399.88
320.816	422.88
321.046	421.88
321.275	415.88
321.504	412.88
321.733	432.88
321.962	447.88
322.191	442.88
322.42	445.88
322.649	453.88
322.878	459.88
323.108	492.88
323.337	514.88
323.566	505.88
323.795	568.88
324.024	634.88
324.253	745.88
324.482	1067.88
324.71	1633.88
324.939	2349.88
325.168	2082.88
325.397	1060.88
325.626	724.88
325.855	591.88
326.084	545.88
326.313	541.88
326.542	549.88
326.77	590.88
326.999	710.88
327.228	967.88
327.457	1430.88
327.686	1799.88
327.914	1192.88
328.143	755.88
328.372	647.88
328.6	620.88
328.829	603.88
329.058	629.88
329.287	613.88
329.515	580.88
329.744	541.88
329.972	515.88
330.201	526.88
330.43	558.88
330.658	587.88
330.887	633.88
331.115	622.88
331.344	540.88
331.572	514.88
331.801	504.88
332.03	501.88
332.258	471.88
332.486	479.88
332.715	445.88
332.943	453.88
333.172	458.88
333.4	472.88
333.629	473.88
333.857	484.88
334.085	462.88
334.314	463.88
334.542	475.88
334.771	478.88
334.999	474.88
335.227	434.88
335.455	439.88
335.684	463.88
335.912	461.88
336.14	460.88
336.369	454.88
336.597	463.88
336.825	459.88
337.053	446.88
337.281	441.88
337.51	449.88
337.738	449.88
337.966	467.88
338.194	446.88
338.422	468.88
338.65	449.88
338.878	445.88
339.106	442.88
339.334	431.88
339.562	458.88
339.79	442.88
340.018	415.88
340.246	412.88
340.474	447.88
340.702	431.88
340.93	445.88
341.158	424.88
341.386	447.88
341.614	437.88
341.842	438.88
342.07	455.88
342.298	419.88
342.526	448.88
342.754	417.88
342.981	431.88
343.209	417.88
343.437	415.88
343.665	435.88
343.893	430.88
344.12	455.88
344.348	428.88
344.576	446.88
344.804	449.88
345.031	449.88
345.259	462.88
345.487	451.88
345.714	415.88
345.942	430.88
346.17	423.88
346.397	421.88
346.625	425.88
346.853	426.88
347.08	428.88
347.308	430.88
347.535	427.88
347.763	441.88
347.99	451.88
348.218	431.88
348.445	446.88
348.673	441.88
348.9	429.88
349.128	393.88
349.355	418.88
349.583	410.88
349.81	399.88
350.037	419.88
350.265	414.88
350.492	418.88
350.72	428.88
350.947	423.88
351.174	437.88
351.402	445.88
351.629	430.88
351.856	433.88
352.083	436.88
352.311	445.88
352.538	447.88
352.765	453.88
352.992	471.88
353.22	426.88
353.447	428.88
353.674	412.88
353.901	400.88
354.128	383.88
354.355	405.88
354.583	383.88
354.81	399.88
355.037	412.88
355.264	404.88
355.491	403.88
355.718	381.88
355.945	392.88
356.172	404.88
356.399	405.88
356.626	402.88
356.853	383.88
357.08	387.88
357.307	388.88
357.534	370.88
357.761	392.88
357.988	407.88
358.215	395.88
358.441	412.88
358.668	405.88
358.895	397.88
359.122	391.88
359.349	400.88
359.576	403.88
359.802	429.88
360.029	476.88
360.256	470.88
360.483	449.88
360.709	439.88
360.936	419.88
361.163	429.88
361.39	431.88
361.616	437.88
361.843	406.88
362.07	439.88
362.296	419.88
362.523	405.88
362.749	437.88
362.976	412.88
363.203	390.88
363.429	413.88
363.656	407.88
363.882	392.88
364.109	383.88
364.335	398.88
364.562	394.88
364.788	395.88
365.015	407.88
365.241	395.88
365.468	397.88
365.694	400.88
365.92	411.88
366.147	394.88
366.373	383.88
366.599	394.88
366.826	391.88
367.052	398.88
367.278	393.88
367.505	389.88
367.731	404.88
367.957	398.88
368.184	411.88
368.41	397.88
368.636	391.88
368.862	420.88
369.089	397.88
369.315	376.88
369.541	402.88
369.767	402.88
369.993	382.88
370.219	405.88
370.445	390.88
370.672	405.88
370.898	373.88
371.124	381.88
371.35	374.88
371.576	391.88
371.802	392.88
372.028	375.88
372.254	408.88
372.48	384.88
372.706	404.88
372.932	384.88
373.158	398.88
373.384	377.88
373.61	394.88
373.835	403.88
374.061	381.88
374.287	403.88
374.513	396.88
374.739	371.88
374.965	391.88
375.191	358.88
375.416	403.88
375.642	389.88
375.868	362.88
376.094	379.88
376.319	373.88
376.545	394.88
376.771	389.88
376.997	380.88
377.222	389.88
377.448	381.88
377.674	383.88
377.899	379.88
378.125	370.88
378.35	384.88
378.576	377.88
378.802	388.88
379.027	379.88
379.253	377.88
379.478	375.88
379.704	378.88
379.929	374.88
380.155	377.88
380.38	387.88
380.606	381.88
380.831	385.88
381.057	372.88
381.282	383.88
381.507	389.88
381.733	394.88
381.958	380.88
382.184	385.88
382.409	378.88
382.634	377.88
382.86	371.88
383.085	401.88
383.31	383.88
383.535	407.88
383.761	379.88
383.986	387.88
384.211	387.88
384.436	392.88
384.662	371.88
384.887	403.88
385.112	382.88
385.337	402.88
385.562	419.88
385.787	426.88
386.013	408.88
386.238	413.88
386.463	410.88
386.688	400.88
386.913	413.88
387.138	414.88
387.363	417.88
387.588	385.88
387.813	403.88
388.038	403.88
388.263	415.88
388.488	409.88
388.713	412.88
388.938	410.88
389.163	411.88
389.387	430.88
389.612	406.88
389.837	412.88
390.062	406.88
390.287	377.88
390.512	400.88
390.736	419.88
390.961	406.88
391.186	409.88
391.411	403.88
391.636	409.88
391.86	424.88
392.085	426.88
392.31	401.88
392.534	421.88
392.759	411.88
392.984	402.88
393.208	397.88
393.433	405.88
393.658	417.88
393.882	412.88
394.107	417.88
394.331	401.88
394.556	423.88
394.78	399.88
395.005	415.88
395.229	399.88
395.454	407.88
395.678	427.88
395.903	446.88
396.127	439.88
396.352	451.88
396.576	411.88
396.801	414.88
397.025	431.88
397.249	422.88
397.474	431.88
397.698	429.88
397.922	454.88
398.147	464.88
398.371	483.88
398.595	448.88
398.82	446.88
399.044	450.88
399.268	470.88
399.492	506.88
399.717	517.88
399.941	554.88
400.165	572.88
400.389	590.88
400.613	522.88
400.837	497.88
401.062	468.88
401.286	488.88
401.51	453.88
401.734	457.88
401.958	463.88
402.182	472.88
402.406	474.88
402.63	467.88
402.854	467.88
403.078	479.88
403.302	463.88
403.526	466.88
403.75	489.88
403.974	478.88
404.198	463.88
404.422	479.88
404.645	477.88
404.869	487.88
405.093	525.88
405.317	501.88
405.541	554.88
405.765	519.88
405.988	502.88
406.212	515.88
406.436	535.88
406.66	524.88
406.883	535.88
407.107	558.88
407.331	579.88
407.555	641.88
407.778	631.88
408.002	596.88
408.226	549.88
408.449	540.88
408.673	513.88
408.896	555.88
409.12	618.88
409.344	546.88
409.567	514.88
409.791	495.88
410.014	486.88
410.238	506.88
410.461	465.88
410.685	495.88
410.908	523.88
411.132	530.88
411.355	556.88
411.578	513.88
411.802	497.88
412.025	469.88
412.249	463.88
412.472	481.88
412.695	484.88
412.919	494.88
413.142	461.88
413.365	451.88
413.589	434.88
413.812	439.88
414.035	451.88
414.258	440.88
414.482	437.88
414.705	440.88
414.928	437.88
415.151	426.88
415.374	461.88
415.597	443.88
415.821	464.88
416.044	441.88
416.267	451.88
416.49	441.88
416.713	445.88
416.936	434.88
417.159	446.88
417.382	460.88
417.605	458.88
417.828	458.88
418.051	465.88
418.274	459.88
418.497	459.88
418.72	437.88
418.943	418.88
419.166	449.88
419.389	465.88
419.611	473.88
419.834	459.88
420.057	463.88
420.28	486.88
420.503	473.88
420.726	467.88
420.948	519.88
421.171	537.88
421.394	567.88
421.617	525.88
421.839	468.88
422.062	451.88
422.285	489.88
422.507	565.88
422.73	610.88
422.953	587.88
423.175	500.88
423.398	495.88
423.621	502.88
423.843	522.88
424.066	517.88
424.288	520.88
424.511	520.88
424.733	570.88
424.956	668.88
425.178	641.88
425.401	629.88
425.623	642.88
425.846	555.88
426.068	520.88
426.291	506.88
426.513	516.88
426.735	510.88
426.958	577.88
427.18	645.88
427.402	790.88
427.625	821.88
427.847	753.88
428.069	623.88
428.292	566.88
428.514	525.88
428.736	510.88
428.958	519.88
429.181	471.88
429.403	482.88
429.625	521.88
429.847	515.88
430.069	586.88
430.292	591.88
430.514	497.88
430.736	474.88
430.958	473.88
431.18	456.88
431.402	459.88
431.624	441.88
431.846	450.88
432.068	446.88
432.29	450.88
432.512	444.88
432.734	450.88
432.956	454.88
433.178	461.88
433.4	453.88
433.622	441.88
433.844	438.88
434.066	448.88
434.287	442.88
434.509	470.88
434.731	452.88
434.953	440.88
435.175	494.88
435.397	507.88
435.618	522.88
435.84	568.88
436.062	644.88
436.284	704.88
436.505	605.88
436.727	551.88
436.949	509.88
437.17	478.88
437.392	477.88
437.614	515.88
437.835	556.88
438.057	615.88
438.278	734.88
438.5	711.88
438.721	786.88
438.943	758.88
439.165	605.88
439.386	535.88
439.608	550.88
439.829	537.88
440.05	573.88
440.272	579.88
440.493	593.88
440.715	507.88
440.936	482.88
441.158	494.88
441.379	472.88
441.6	504.88
441.822	503.88
442.043	582.88
442.264	645.88
442.486	684.88
442.707	577.88
442.928	527.88
443.149	547.88
443.371	587.88
443.592	601.88
443.813	679.88
444.034	735.88
444.255	633.88
444.476	550.88
444.698	534.88
444.919	502.88
445.14	611.88
445.361	561.88
445.582	548.88
445.803	621.88
446.024	726.88
446.245	759.88
446.466	657.88
446.687	566.88
446.908	523.88
447.129	501.88
447.35	491.88
447.571	478.88
447.792	473.88
448.013	453.88
448.234	497.88
448.455	542.88
448.675	664.88
448.896	743.88
449.117	671.88
449.338	610.88
449.559	732.88
449.779	821.88
450	637.88
450.221	552.88
450.442	496.88
450.662	491.88
450.883	479.88
451.104	498.88
451.324	470.88
451.545	458.88
451.766	436.88
451.986	434.88
452.207	423.88
452.428	416.88
452.648	412.88
452.869	402.88
453.089	459.88
453.31	455.88
453.53	436.88
453.751	427.88
453.971	442.88
454.192	444.88
454.412	437.88
454.633	438.88
454.853	414.88
455.073	412.88
455.294	470.88
455.514	539.88
455.734	516.88
455.955	434.88
456.175	405.88
456.395	383.88
456.616	393.88
456.836	397.88
457.056	394.88
457.276	393.88
457.497	382.88
457.717	394.88
457.937	421.88
458.157	416.88
458.377	419.88
458.598	443.88
458.818	483.88
459.038	563.88
459.258	599.88
459.478	493.88
459.698	467.88
459.918	425.88
460.138	422.88
460.358	456.88
460.578	437.88
460.798	456.88
461.018	437.88
461.238	446.88
461.458	448.88
461.678	437.88
461.898	444.88
462.118	456.88
462.338	457.88
462.558	436.88
462.777	442.88
462.997	428.88
463.217	469.88
463.437	467.88
463.657	462.88
463.876	453.88
464.096	475.88
464.316	485.88
464.536	461.88
464.755	481.88
464.975	482.88
465.195	515.88
465.414	602.88
465.634	522.88
465.854	490.88
466.073	454.88
466.293	434.88
466.512	434.88
466.732	435.88
466.951	419.88
467.171	407.88
467.391	431.88
467.61	415.88
467.829	461.88
468.049	418.88
468.268	419.88
468.488	428.88
468.707	426.88
468.927	423.88
469.146	411.88
469.365	423.88
469.585	411.88
469.804	426.88
470.023	434.88
470.243	441.88
470.462	441.88
470.681	446.88
470.901	436.88
471.12	450.88
471.339	428.88
471.558	450.88
471.777	435.88
471.997	423.88
472.216	411.88
472.435	413.88
472.654	441.88
472.873	410.88
473.092	426.88
473.311	429.88
473.53	437.88
473.749	442.88
473.968	497.88
474.187	585.88
474.406	593.88
474.625	516.88
474.844	461.88
475.063	451.88
475.282	429.88
475.501	435.88
475.72	469.88
475.939	444.88
476.158	459.88
476.377	450.88
476.596	438.88
476.814	444.88
477.033	461.88
477.252	483.88
477.471	471.88
477.69	456.88
477.908	471.88
478.127	477.88
478.346	476.88
478.564	480.88
478.783	486.88
479.002	462.88
479.22	488.88
479.439	503.88
479.658	529.88
479.876	525.88
480.095	520.88
480.313	545.88
480.532	532.88
480.751	516.88
480.969	514.88
481.188	537.88
481.406	536.88
481.624	519.88
481.843	515.88
482.061	494.88
482.28	515.88
482.498	505.88
482.717	497.88
482.935	511.88
483.153	516.88
483.372	508.88
483.59	502.88
483.808	518.88
484.027	504.88
484.245	503.88
484.463	519.88
484.681	528.88
484.9	520.88
485.118	516.88
485.336	515.88
485.554	498.88
485.772	516.88
485.99	533.88
486.209	524.88
486.427	551.88
486.645	530.88
486.863	554.88
487.081	557.88
487.299	545.88
487.517	530.88
487.735	535.88
487.953	541.88
488.171	523.88
488.389	567.88
488.607	550.88
488.825	555.88
489.043	561.88
489.261	553.88
489.479	548.88
489.696	551.88
489.914	558.88
490.132	551.88
490.35	553.88
490.568	567.88
490.786	599.88
491.003	580.88
491.221	600.88
491.439	587.88
491.657	598.88
491.874	622.88
492.092	618.88
492.31	614.88
492.527	620.88
492.745	604.88
492.963	631.88
493.18	637.88
493.398	606.88
493.615	627.88
493.833	645.88
494.05	631.88
494.268	653.88
494.485	621.88
494.703	634.88
494.92	629.88
495.138	637.88
495.355	639.88
495.573	629.88
495.79	648.88
496.008	645.88
496.225	639.88
496.442	614.88
496.66	643.88
496.877	625.88
497.094	662.88
497.312	660.88
497.529	670.88
497.746	666.88
497.963	694.88
498.181	697.88
498.398	681.88
498.615	701.88
498.832	725.88
499.049	755.88
499.267	737.88
499.484	769.88
499.701	787.88
499.918	784.88
500.135	806.88
500.352	860.88
500.569	850.88
500.786	843.88
501.003	835.88
501.22	828.88
501.437	819.88
501.654	805.88
501.871	808.88
502.088	765.88
502.305	741.88
502.522	739.88
502.739	686.88
502.956	694.88
503.172	670.88
503.389	668.88
503.606	677.88
503.823	674.88
504.04	677.88
504.256	674.88
504.473	644.88
504.69	663.88
504.907	664.88
505.123	616.88
505.34	615.88
505.557	613.88
505.773	620.88
505.99	643.88
506.207	625.88
506.423	643.88
506.64	613.88
506.856	610.88
507.073	618.88
507.289	622.88
507.506	628.88
507.722	621.88
507.939	637.88
508.155	632.88
508.372	611.88
508.588	626.88
508.805	613.88
509.021	621.88
509.238	610.88
509.454	639.88
509.67	622.88
509.887	609.88
510.103	593.88
510.319	620.88
510.536	713.88
510.752	1235.88
510.968	969.88
511.184	633.88
511.401	582.88
511.617	573.88
511.833	567.88
512.049	551.88
512.265	554.88
512.481	558.88
512.698	570.88
512.914	578.88
513.13	580.88
513.346	557.88
513.562	560.88
513.778	570.88
513.994	586.88
514.21	608.88
514.426	613.88
514.642	667.88
514.858	675.88
515.074	716.88
515.29	881.88
515.506	1299.88
515.721	1060.88
515.937	695.88
516.153	628.88
516.369	614.88
516.585	593.88
516.801	573.88
517.016	592.88
517.232	563.88
517.448	604.88
517.664	573.88
517.879	580.88
518.095	595.88
518.311	582.88
518.527	557.88
518.742	571.88
518.958	574.88
519.173	566.88
519.389	543.88
519.605	573.88
519.82	582.88
520.036	587.88
520.251	621.88
520.467	645.88
520.682	636.88
520.898	639.88
521.113	671.88
521.329	709.88
521.544	813.88
521.76	1039.88
521.975	1738.88
522.19	1683.88
522.406	900.88
522.621	685.88
522.836	599.88
523.052	596.88
523.267	567.88
523.482	527.88
523.698	500.88
523.913	537.88
524.128	545.88
524.343	513.88
524.559	505.88
524.774	489.88
524.989	493.88
525.204	483.88
525.419	498.88
525.634	494.88
525.849	490.88
526.064	481.88
526.28	476.88
526.495	473.88
526.71	459.88
526.925	467.88
527.14	484.88
527.355	465.88
527.57	463.88
527.785	453.88
527.999	464.88
528.214	467.88
528.429	465.88
528.644	467.88
528.859	461.88
529.074	489.88
529.289	478.88
529.503	589.88
529.718	561.88
529.933	510.88
530.148	481.88
530.363	458.88
530.577	464.88
530.792	468.88
531.007	457.88
531.221	451.88
531.436	440.88
531.651	461.88
531.865	442.88
532.08	440.88
532.295	450.88
532.509	425.88
532.724	432.88
532.938	446.88
533.153	436.88
533.367	430.88
533.582	435.88
533.796	453.88
534.011	433.88
534.225	439.88
534.44	433.88
534.654	428.88
534.868	427.88
535.083	438.88
535.297	455.88
535.511	447.88
535.726	435.88
535.94	436.88
536.154	443.88
536.369	439.88
536.583	424.88
536.797	425.88
537.011	423.88
537.225	400.88
537.44	402.88
537.654	423.88
537.868	428.88
538.082	420.88
538.296	422.88
538.51	424.88
538.724	441.88
538.938	407.88
539.153	444.88
539.367	444.88
539.581	449.88
539.795	441.88
540.009	434.88
540.222	434.88
540.436	413.88
540.65	419.88
540.864	437.88
541.078	426.88
541.292	421.88
541.506	415.88
541.72	452.88
541.934	423.88
542.147	432.88
542.361	427.88
542.575	414.88
542.789	435.88
543.002	423.88
543.216	428.88
543.43	415.88
543.644	425.88
543.857	433.88
544.071	399.88
544.285	421.88
544.498	425.88
544.712	406.88
544.925	417.88
545.139	421.88
545.352	422.88
545.566	401.88
545.779	414.88
545.993	431.88
546.206	425.88
546.42	421.88
546.633	391.88
546.847	388.88
547.06	383.88
547.274	396.88
547.487	413.88
547.7	404.88
547.914	397.88
548.127	413.88
548.34	391.88
548.554	409.88
548.767	394.88
548.98	403.88
549.193	396.88
549.407	384.88
549.62	397.88
549.833	393.88
550.046	390.88
550.259	383.88
550.473	408.88
550.686	409.88
550.899	399.88
551.112	392.88
551.325	377.88
551.538	380.88
551.751	413.88
551.964	409.88
552.177	377.88
552.39	378.88
552.603	375.88
552.816	395.88
553.029	384.88
553.242	405.88
553.455	395.88
553.667	420.88
553.88	408.88
554.093	396.88
554.306	411.88
554.519	394.88
554.732	398.88
554.944	394.88
555.157	377.88
555.37	367.88
555.583	387.88
555.795	395.88
556.008	381.88
556.221	361.88
556.433	369.88
556.646	374.88
556.859	376.88
557.071	364.88
557.284	358.88
557.496	383.88
557.709	357.88
557.921	343.88
558.134	357.88
558.346	346.88
558.559	388.88
558.771	358.88
558.984	359.88
559.196	338.88
559.409	347.88
559.621	345.88
559.833	354.88
560.046	354.88
560.258	356.88
560.47	347.88
560.683	344.88
560.895	342.88
561.107	367.88
561.32	333.88
561.532	347.88
561.744	341.88
561.956	341.88
562.168	363.88
562.381	361.88
562.593	363.88
562.805	366.88
563.017	363.88
563.229	362.88
563.441	342.88
563.653	360.88
563.865	361.88
564.077	372.88
564.289	359.88
564.501	363.88
564.713	363.88
564.925	370.88
565.137	357.88
565.349	379.88
565.561	393.88
565.773	366.88
565.985	360.88
566.197	408.88
566.408	393.88
566.62	386.88
566.832	393.88
567.044	405.88
567.255	411.88
567.467	410.88
567.679	422.88
567.891	427.88
568.102	425.88
568.314	411.88
568.526	403.88
568.737	420.88
568.949	381.88
569.161	388.88
569.372	359.88
569.584	342.88
569.795	360.88
570.007	346.88
570.218	418.88
570.43	390.88
570.641	354.88
570.853	335.88
571.064	327.88
571.276	352.88
571.487	346.88
571.698	352.88
571.91	340.88
572.121	327.88
572.333	311.88
572.544	316.88
572.755	310.88
572.966	329.88
573.178	333.88
573.389	335.88
573.6	329.88
573.811	303.88
574.023	307.88
574.234	318.88
574.445	302.88
574.656	303.88
574.867	298.88
575.078	302.88
575.289	317.88
575.501	280.88
575.712	306.88
575.923	308.88
576.134	314.88
576.345	301.88
576.556	291.88
576.767	310.88
576.978	311.88
577.188	308.88
577.399	310.88
577.61	289.88
577.821	287.88
578.032	301.88
578.243	357.88
578.454	590.88
578.665	403.88
578.875	323.88
579.086	322.88
579.297	297.88
579.508	300.88
579.718	287.88
579.929	293.88
580.14	286.88
580.35	277.88
580.561	309.88
580.772	292.88
580.982	290.88
581.193	281.88
581.403	284.88
581.614	276.88
581.825	317.88
582.035	290.88
582.246	282.88
582.456	273.88
582.667	278.88
582.877	273.88
583.087	289.88
583.298	267.88
583.508	263.88
583.719	274.88
583.929	287.88
584.139	284.88
584.35	289.88
584.56	257.88
584.77	294.88
584.981	279.88
585.191	274.88
585.401	267.88
585.611	274.88
585.821	285.88
586.032	275.88
586.242	261.88
586.452	257.88
586.662	258.88
586.872	271.88
587.082	257.88
587.292	263.88
587.502	266.88
587.713	262.88
587.923	265.88
588.133	270.88
588.343	271.88
588.553	246.88
588.762	260.88
588.972	285.88
589.182	271.88
589.392	282.88
589.602	265.88
589.812	255.88
590.022	274.88
590.232	278.88
590.441	277.88
590.651	283.88
590.861	272.88
591.071	276.88
591.281	266.88
591.49	267.88
591.7	284.88
591.91	275.88
592.119	261.88
592.329	258.88
592.539	282.88
592.748	285.88
592.958	293.88
593.167	266.88
593.377	273.88
593.587	259.88
593.796	280.88
594.006	289.88
594.215	290.88
594.424	288.88
594.634	286.88
594.843	260.88
595.053	281.88
595.262	263.88
595.472	265.88
595.681	268.88
595.89	276.88
596.1	254.88
596.309	265.88
596.518	256.88
596.727	247.88
596.937	257.88
597.146	254.88
597.355	254.88
597.564	262.88
597.774	251.88
597.983	227.88
598.192	239.88
598.401	250.88
598.61	233.88
598.819	255.88
599.028	237.88
599.237	241.88
599.446	249.88
599.655	241.88
599.864	244.88
600.073	253.88
600.282	249.88
600.491	238.88
600.7	246.88
600.909	235.88
601.118	223.88
601.327	230.88
601.536	247.88
601.745	226.88
601.953	241.88
602.162	237.88
602.371	235.88
602.58	252.88
602.789	238.88
602.997	236.88
603.206	245.88
603.415	229.88
603.623	221.88
603.832	216.88
604.041	228.88
604.249	237.88
604.458	235.88
604.666	235.88
604.875	203.88
605.084	234.88
605.292	218.88
605.501	244.88
605.709	225.88
605.918	216.88
606.126	221.88
606.334	229.88
606.543	214.88
606.751	230.88
606.96	219.88
607.168	226.88
607.376	229.88
607.585	232.88
607.793	215.88
608.001	209.88
608.21	227.88
608.418	219.88
608.626	212.88
608.834	221.88
609.043	224.88
609.251	220.88
609.459	227.88
609.667	215.88
609.875	217.88
610.083	231.88
610.291	227.88
610.499	223.88
610.707	214.88
610.916	214.88
611.124	216.88
611.332	227.88
611.54	225.88
611.748	228.88
611.955	245.88
612.163	222.88
612.371	235.88
612.579	211.88
612.787	219.88
612.995	242.88
613.203	217.88
613.411	207.88
613.618	219.88
613.826	198.88
614.034	223.88
614.242	221.88
614.449	220.88
614.657	216.88
614.865	220.88
615.072	214.88
615.28	217.88
615.488	230.88
615.695	221.88
615.903	227.88
616.111	206.88
616.318	224.88
616.526	211.88
616.733	215.88
616.941	205.88
617.148	219.88
617.356	210.88
617.563	215.88
617.771	221.88
617.978	213.88
618.185	218.88
618.393	207.88
618.6	211.88
618.807	229.88
619.015	202.88
619.222	201.88
619.429	210.88
619.637	205.88
619.844	225.88
620.051	202.88
620.258	219.88
620.466	209.88
620.673	203.88
620.88	201.88
621.087	188.88
621.294	201.88
621.501	201.88
621.708	208.88
621.915	209.88
622.122	199.88
622.329	209.88
622.536	202.88
622.743	208.88
622.95	194.88
623.157	196.88
623.364	196.88
623.571	208.88
623.778	198.88
623.985	192.88
624.192	203.88
624.399	204.88
624.606	200.88
624.812	201.88
625.019	186.88
625.226	205.88
625.433	203.88
625.639	190.88
625.846	194.88
626.053	181.88
626.259	186.88
626.466	182.88
626.673	201.88
626.879	201.88
627.086	203.88
627.293	198.88
627.499	183.88
627.706	187.88
627.912	186.88
628.119	181.88
628.325	190.88
628.532	181.88
628.738	198.88
628.945	177.88
629.151	178.88
629.357	174.88
629.564	181.88
629.77	188.88
629.976	195.88
630.183	193.88
630.389	189.88
630.595	189.88
630.802	182.88
631.008	178.88
631.214	185.88
631.42	181.88
631.627	171.88
631.833	181.88
632.039	183.88
632.245	187.88
632.451	178.88
632.657	178.88
632.863	185.88
633.069	194.88
633.275	187.88
633.481	187.88
633.688	189.88
633.893	178.88
634.099	184.88
634.305	184.88
634.511	171.88
634.717	169.88
634.923	177.88
635.129	156.88
635.335	157.88
635.541	174.88
635.747	179.88
635.952	188.88
636.158	170.88
636.364	162.88
636.57	174.88
636.775	170.88
636.981	175.88
637.187	188.88
637.392	166.88
637.598	166.88
637.804	159.88
638.009	180.88
638.215	165.88
638.421	162.88
638.626	178.88
638.832	168.88
639.037	158.88
639.243	164.88
639.448	179.88
639.654	180.88
639.859	162.88
640.065	172.88
640.27	171.88
640.475	171.88
640.681	151.88
640.886	166.88
641.091	163.88
641.297	171.88
641.502	169.88
641.707	173.88
641.913	165.88
642.118	147.88
642.323	173.88
642.528	177.88
642.733	156.88
642.939	157.88
643.144	166.88
643.349	165.88
643.554	165.88
643.759	164.88
643.964	152.88
644.169	147.88
644.374	162.88
644.579	149.88
644.784	161.88
644.989	168.88
645.194	158.88
645.399	151.88
645.604	169.88
645.809	162.88
646.014	170.88
646.219	161.88
646.423	151.88
646.628	144.88
646.833	149.88
647.038	161.88
647.243	154.88
647.447	153.88
647.652	149.88
647.857	166.88
648.062	155.88
648.266	147.88
648.471	158.88
648.676	164.88
648.88	164.88
649.085	163.88
649.289	171.88
649.494	148.88
649.698	183.88
649.903	170.88
650.107	154.88
650.312	162.88
650.516	153.88
650.721	166.88
650.925	128.88
651.13	152.88
651.334	146.88
651.539	149.88
651.743	131.88
651.947	148.88
652.152	149.88
652.356	142.88
652.56	136.88
652.764	133.88
652.969	133.88
653.173	143.88
653.377	130.88
653.581	137.88
653.785	142.88
653.99	136.88
654.194	132.88
654.398	133.88
654.602	124.88
654.806	132.88
655.01	137.88
655.214	137.88
655.418	137.88
655.622	136.88
655.826	130.88
656.03	126.88
656.234	124.88
656.438	123.88
656.642	140.88
656.846	127.88
657.049	134.88
657.253	126.88
657.457	121.88
657.661	118.88
657.865	105.88
658.068	115.88
658.272	101.88
658.476	107.88
658.68	107.88
658.883	96.88
659.087	108.88
659.291	91.88
659.494	99.88
659.698	106.88
659.901	103.88
660.105	93.88
660.309	81.88
660.512	97.88
660.716	91.88
660.919	79.88
661.123	90.88
661.326	82.88
661.53	99.88
661.733	92.88
661.936	97.88
662.14	90.88
662.343	83.88
662.546	90.88
662.75	87.88
662.953	87.88
663.156	99.88
663.36	97.88
663.563	95.88
663.766	73.88
663.969	78.88
664.173	78.88
664.376	92.88
664.579	83.88
664.782	89.88
664.985	89.88
665.188	93.88
665.391	89.88
665.594	91.88
665.797	76.88
666	82.88
666.203	73.88
666.406	77.88
666.609	77.88
666.812	71.88
667.015	81.88
667.218	93.88
667.421	87.88
667.624	89.88
667.827	93.88
668.03	75.88
668.232	85.88
668.435	79.88
668.638	96.88
668.841	86.88
669.043	71.88
669.246	97.88
669.449	90.88
669.651	78.88
669.854	82.88
670.057	83.88
670.259	84.88
670.462	95.88
670.665	75.88
670.867	83.88
671.07	85.88
671.272	87.88
671.475	96.88
671.677	79.88
671.88	89.88
672.082	83.88
672.284	87.88
672.487	87.88
672.689	79.88
672.892	90.88
