Data from 1989.PennyLincolnUp.Lamp.En5.5.200Scan.071819.P2_HRD10591_17-23-21-972.txt Node
Date: Thu Jul 18 17:23:21 EDT 2019
User: cochatt
Spectrometer: HR+D1059
Trigger mode: 1
Integration Time (sec): 1.000000E-1
Scans to average: 1
Electric dark correction enabled: true
Nonlinearity correction enabled: false
Boxcar width: 0
XAxis mode: Wavelengths
Number of Pixels in Spectrum: 2048
>>>>>Begin Spectral Data<<<<<
223.165	-17.12
223.4	-17.12
223.635	-17.12
223.869	-11.12
224.104	-2.12
224.338	-10.12
224.573	-19.12
224.808	-12.12
225.042	-3.12
225.277	-20.12
225.511	4.88
225.746	-2.12
225.98	1.88
226.215	10.88
226.449	13.88
226.683	26.88
226.918	7.88
227.152	30.88
227.387	30.88
227.621	41.88
227.856	45.88
228.09	36.88
228.324	37.88
228.559	55.88
228.793	71.88
229.027	80.88
229.262	109.88
229.496	96.88
229.73	114.88
229.964	130.88
230.199	123.88
230.433	96.88
230.667	94.88
230.901	91.88
231.136	103.88
231.37	106.88
231.604	109.88
231.838	104.88
232.072	100.88
232.306	117.88
232.541	116.88
232.775	108.88
233.009	91.88
233.243	101.88
233.477	123.88
233.711	109.88
233.945	97.88
234.179	122.88
234.413	110.88
234.647	106.88
234.881	119.88
235.115	115.88
235.349	110.88
235.583	111.88
235.817	119.88
236.051	121.88
236.285	115.88
236.519	113.88
236.753	114.88
236.987	123.88
237.221	153.88
237.455	202.88
237.689	164.88
237.922	140.88
238.156	137.88
238.39	129.88
238.624	125.88
238.858	125.88
239.091	136.88
239.325	102.88
239.559	127.88
239.793	108.88
240.027	120.88
240.26	136.88
240.494	158.88
240.728	156.88
240.961	151.88
241.195	121.88
241.429	120.88
241.662	114.88
241.896	109.88
242.13	122.88
242.363	124.88
242.597	125.88
242.83	123.88
243.064	139.88
243.298	129.88
243.531	132.88
243.765	125.88
243.998	130.88
244.232	131.88
244.465	151.88
244.699	124.88
244.932	129.88
245.166	130.88
245.399	140.88
245.633	146.88
245.866	133.88
246.099	141.88
246.333	129.88
246.566	148.88
246.8	132.88
247.033	150.88
247.266	162.88
247.5	156.88
247.733	172.88
247.966	153.88
248.2	171.88
248.433	155.88
248.666	139.88
248.899	195.88
249.133	181.88
249.366	191.88
249.599	190.88
249.832	173.88
250.066	164.88
250.299	175.88
250.532	178.88
250.765	188.88
250.998	193.88
251.231	203.88
251.465	208.88
251.698	197.88
251.931	190.88
252.164	170.88
252.397	197.88
252.63	194.88
252.863	204.88
253.096	191.88
253.329	208.88
253.562	221.88
253.795	220.88
254.028	204.88
254.261	198.88
254.494	218.88
254.727	237.88
254.96	264.88
255.193	257.88
255.426	219.88
255.659	209.88
255.892	204.88
256.124	220.88
256.357	201.88
256.59	201.88
256.823	203.88
257.056	201.88
257.289	200.88
257.521	201.88
257.754	194.88
257.987	213.88
258.22	205.88
258.452	208.88
258.685	203.88
258.918	210.88
259.151	193.88
259.383	187.88
259.616	216.88
259.849	224.88
260.081	214.88
260.314	239.88
260.547	227.88
260.779	228.88
261.012	232.88
261.244	212.88
261.477	213.88
261.71	218.88
261.942	218.88
262.175	218.88
262.407	216.88
262.64	217.88
262.872	206.88
263.105	207.88
263.337	198.88
263.57	203.88
263.802	198.88
264.035	216.88
264.267	208.88
264.499	212.88
264.732	217.88
264.964	216.88
265.197	209.88
265.429	202.88
265.661	201.88
265.894	207.88
266.126	221.88
266.358	225.88
266.591	214.88
266.823	213.88
267.055	212.88
267.287	199.88
267.52	210.88
267.752	210.88
267.984	218.88
268.216	211.88
268.448	224.88
268.681	213.88
268.913	229.88
269.145	258.88
269.377	242.88
269.609	246.88
269.841	228.88
270.073	248.88
270.306	258.88
270.538	290.88
270.77	296.88
271.002	286.88
271.234	265.88
271.466	288.88
271.698	294.88
271.93	285.88
272.162	286.88
272.394	297.88
272.626	270.88
272.858	269.88
273.09	257.88
273.322	259.88
273.553	249.88
273.785	248.88
274.017	259.88
274.249	243.88
274.481	255.88
274.713	254.88
274.945	263.88
275.176	256.88
275.408	261.88
275.64	254.88
275.872	244.88
276.104	263.88
276.335	268.88
276.567	253.88
276.799	258.88
277.031	271.88
277.262	276.88
277.494	296.88
277.726	301.88
277.957	280.88
278.189	264.88
278.421	269.88
278.652	254.88
278.884	254.88
279.115	221.88
279.347	240.88
279.579	254.88
279.81	241.88
280.042	243.88
280.273	258.88
280.505	250.88
280.736	246.88
280.968	243.88
281.199	248.88
281.431	233.88
281.662	240.88
281.894	242.88
282.125	255.88
282.356	275.88
282.588	289.88
282.819	266.88
283.051	242.88
283.282	264.88
283.513	248.88
283.745	258.88
283.976	260.88
284.207	253.88
284.439	267.88
284.67	262.88
284.901	262.88
285.132	263.88
285.364	259.88
285.595	270.88
285.826	260.88
286.057	261.88
286.288	260.88
286.52	233.88
286.751	250.88
286.982	257.88
287.213	257.88
287.444	285.88
287.675	253.88
287.906	275.88
288.138	281.88
288.369	281.88
288.6	277.88
288.831	267.88
289.062	276.88
289.293	281.88
289.524	284.88
289.755	291.88
289.986	268.88
290.217	275.88
290.448	264.88
290.679	265.88
290.91	285.88
291.141	266.88
291.371	280.88
291.602	262.88
291.833	268.88
292.064	257.88
292.295	262.88
292.526	259.88
292.757	273.88
292.987	270.88
293.218	261.88
293.449	274.88
293.68	276.88
293.91	276.88
294.141	284.88
294.372	273.88
294.603	280.88
294.833	276.88
295.064	279.88
295.295	287.88
295.525	281.88
295.756	278.88
295.987	284.88
296.217	308.88
296.448	290.88
296.679	279.88
296.909	280.88
297.14	288.88
297.37	289.88
297.601	266.88
297.831	276.88
298.062	271.88
298.292	288.88
298.523	283.88
298.753	293.88
298.984	297.88
299.214	280.88
299.445	277.88
299.675	276.88
299.905	296.88
300.136	280.88
300.366	284.88
300.597	287.88
300.827	279.88
301.057	289.88
301.288	290.88
301.518	290.88
301.748	308.88
301.979	286.88
302.209	301.88
302.439	322.88
302.669	283.88
302.9	284.88
303.13	308.88
303.36	297.88
303.59	325.88
303.82	301.88
304.051	318.88
304.281	293.88
304.511	296.88
304.741	304.88
304.971	312.88
305.201	310.88
305.431	306.88
305.661	312.88
305.891	306.88
306.121	326.88
306.352	303.88
306.582	306.88
306.812	314.88
307.042	317.88
307.272	300.88
307.502	316.88
307.731	316.88
307.961	315.88
308.191	311.88
308.421	305.88
308.651	304.88
308.881	324.88
309.111	323.88
309.341	324.88
309.571	306.88
309.8	325.88
310.03	335.88
310.26	346.88
310.49	334.88
310.72	350.88
310.949	362.88
311.179	355.88
311.409	341.88
311.639	328.88
311.868	344.88
312.098	329.88
312.328	355.88
312.557	361.88
312.787	361.88
313.017	360.88
313.246	362.88
313.476	357.88
313.706	341.88
313.935	335.88
314.165	346.88
314.394	357.88
314.624	342.88
314.853	332.88
315.083	345.88
315.312	360.88
315.542	347.88
315.771	338.88
316.001	334.88
316.23	345.88
316.46	320.88
316.689	357.88
316.919	356.88
317.148	366.88
317.377	345.88
317.607	337.88
317.836	358.88
318.065	352.88
318.295	328.88
318.524	320.88
318.753	358.88
318.983	350.88
319.212	345.88
319.441	355.88
319.67	356.88
319.9	340.88
320.129	350.88
320.358	357.88
320.587	347.88
320.816	370.88
321.046	363.88
321.275	388.88
321.504	353.88
321.733	364.88
321.962	376.88
322.191	368.88
322.42	380.88
322.649	384.88
322.878	410.88
323.108	394.88
323.337	407.88
323.566	441.88
323.795	463.88
324.024	488.88
324.253	597.88
324.482	765.88
324.71	1193.88
324.939	1757.88
325.168	1539.88
325.397	798.88
325.626	537.88
325.855	477.88
326.084	424.88
326.313	426.88
326.542	442.88
326.77	472.88
326.999	541.88
327.228	748.88
327.457	1080.88
327.686	1306.88
327.914	874.88
328.143	592.88
328.372	497.88
328.6	473.88
328.829	467.88
329.058	501.88
329.287	494.88
329.515	432.88
329.744	438.88
329.972	427.88
330.201	433.88
330.43	446.88
330.658	481.88
330.887	506.88
331.115	494.88
331.344	445.88
331.572	403.88
331.801	423.88
332.03	396.88
332.258	399.88
332.486	407.88
332.715	381.88
332.943	415.88
333.172	384.88
333.4	380.88
333.629	394.88
333.857	412.88
334.085	402.88
334.314	424.88
334.542	419.88
334.771	416.88
334.999	405.88
335.227	410.88
335.455	397.88
335.684	394.88
335.912	395.88
336.14	393.88
336.369	416.88
336.597	408.88
336.825	402.88
337.053	394.88
337.281	402.88
337.51	384.88
337.738	390.88
337.966	403.88
338.194	392.88
338.422	378.88
338.65	373.88
338.878	399.88
339.106	364.88
339.334	400.88
339.562	384.88
339.79	394.88
340.018	392.88
340.246	372.88
340.474	386.88
340.702	386.88
340.93	382.88
341.158	380.88
341.386	381.88
341.614	393.88
341.842	393.88
342.07	383.88
342.298	372.88
342.526	389.88
342.754	358.88
342.981	364.88
343.209	353.88
343.437	396.88
343.665	370.88
343.893	389.88
344.12	397.88
344.348	386.88
344.576	380.88
344.804	374.88
345.031	379.88
345.259	413.88
345.487	384.88
345.714	385.88
345.942	357.88
346.17	392.88
346.397	388.88
346.625	374.88
346.853	359.88
347.08	378.88
347.308	368.88
347.535	367.88
347.763	370.88
347.99	380.88
348.218	378.88
348.445	380.88
348.673	384.88
348.9	369.88
349.128	369.88
349.355	371.88
349.583	378.88
349.81	362.88
350.037	361.88
350.265	355.88
350.492	347.88
350.72	374.88
350.947	388.88
351.174	360.88
351.402	374.88
351.629	377.88
351.856	364.88
352.083	380.88
352.311	353.88
352.538	388.88
352.765	397.88
352.992	368.88
353.22	346.88
353.447	368.88
353.674	359.88
353.901	362.88
354.128	345.88
354.355	345.88
354.583	354.88
354.81	349.88
355.037	338.88
355.264	359.88
355.491	349.88
355.718	344.88
355.945	366.88
356.172	349.88
356.399	347.88
356.626	334.88
356.853	346.88
357.08	340.88
357.307	368.88
357.534	352.88
357.761	350.88
357.988	339.88
358.215	335.88
358.441	342.88
358.668	362.88
358.895	356.88
359.122	357.88
359.349	390.88
359.576	365.88
359.802	377.88
360.029	382.88
360.256	399.88
360.483	400.88
360.709	357.88
360.936	378.88
361.163	368.88
361.39	356.88
361.616	361.88
361.843	355.88
362.07	357.88
362.296	353.88
362.523	365.88
362.749	371.88
362.976	344.88
363.203	364.88
363.429	374.88
363.656	345.88
363.882	366.88
364.109	351.88
364.335	336.88
364.562	344.88
364.788	352.88
365.015	344.88
365.241	354.88
365.468	358.88
365.694	344.88
365.92	363.88
366.147	344.88
366.373	340.88
366.599	357.88
366.826	346.88
367.052	345.88
367.278	332.88
367.505	350.88
367.731	358.88
367.957	353.88
368.184	355.88
368.41	355.88
368.636	356.88
368.862	363.88
369.089	375.88
369.315	359.88
369.541	341.88
369.767	336.88
369.993	356.88
370.219	356.88
370.445	343.88
370.672	356.88
370.898	346.88
371.124	339.88
371.35	357.88
371.576	334.88
371.802	358.88
372.028	342.88
372.254	351.88
372.48	353.88
372.706	361.88
372.932	362.88
373.158	359.88
373.384	358.88
373.61	356.88
373.835	341.88
374.061	338.88
374.287	350.88
374.513	348.88
374.739	348.88
374.965	343.88
375.191	350.88
375.416	366.88
375.642	360.88
375.868	365.88
376.094	337.88
376.319	360.88
376.545	348.88
376.771	356.88
376.997	352.88
377.222	350.88
377.448	357.88
377.674	342.88
377.899	346.88
378.125	365.88
378.35	343.88
378.576	331.88
378.802	348.88
379.027	336.88
379.253	328.88
379.478	345.88
379.704	338.88
379.929	337.88
380.155	350.88
380.38	347.88
380.606	352.88
380.831	336.88
381.057	360.88
381.282	355.88
381.507	336.88
381.733	357.88
381.958	347.88
382.184	355.88
382.409	358.88
382.634	357.88
382.86	351.88
383.085	377.88
383.31	362.88
383.535	365.88
383.761	341.88
383.986	360.88
384.211	363.88
384.436	361.88
384.662	355.88
384.887	370.88
385.112	376.88
385.337	376.88
385.562	377.88
385.787	372.88
386.013	353.88
386.238	376.88
386.463	378.88
386.688	377.88
386.913	368.88
387.138	378.88
387.363	369.88
387.588	394.88
387.813	388.88
388.038	385.88
388.263	381.88
388.488	361.88
388.713	376.88
388.938	385.88
389.163	367.88
389.387	373.88
389.612	364.88
389.837	372.88
390.062	381.88
390.287	370.88
390.512	373.88
390.736	357.88
390.961	368.88
391.186	353.88
391.411	365.88
391.636	358.88
391.86	372.88
392.085	380.88
392.31	387.88
392.534	375.88
392.759	386.88
392.984	382.88
393.208	382.88
393.433	387.88
393.658	378.88
393.882	378.88
394.107	367.88
394.331	376.88
394.556	358.88
394.78	373.88
395.005	387.88
395.229	370.88
395.454	380.88
395.678	381.88
395.903	407.88
396.127	407.88
396.352	429.88
396.576	388.88
396.801	392.88
397.025	382.88
397.249	388.88
397.474	394.88
397.698	394.88
397.922	391.88
398.147	406.88
398.371	408.88
398.595	394.88
398.82	429.88
399.044	433.88
399.268	418.88
399.492	469.88
399.717	459.88
399.941	476.88
400.165	513.88
400.389	509.88
400.613	470.88
400.837	426.88
401.062	432.88
401.286	438.88
401.51	436.88
401.734	424.88
401.958	424.88
402.182	407.88
402.406	412.88
402.63	433.88
402.854	420.88
403.078	402.88
403.302	413.88
403.526	444.88
403.75	430.88
403.974	435.88
404.198	415.88
404.422	419.88
404.645	447.88
404.869	424.88
405.093	454.88
405.317	450.88
405.541	454.88
405.765	460.88
405.988	441.88
406.212	452.88
406.436	460.88
406.66	494.88
406.883	456.88
407.107	487.88
407.331	513.88
407.555	556.88
407.778	560.88
408.002	492.88
408.226	506.88
408.449	485.88
408.673	492.88
408.896	499.88
409.12	540.88
409.344	508.88
409.567	435.88
409.791	425.88
410.014	438.88
410.238	443.88
410.461	446.88
410.685	442.88
410.908	440.88
411.132	491.88
411.355	471.88
411.578	473.88
411.802	438.88
412.025	433.88
412.249	420.88
412.472	432.88
412.695	425.88
412.919	435.88
413.142	420.88
413.365	394.88
413.589	413.88
413.812	421.88
414.035	407.88
414.258	416.88
414.482	414.88
414.705	411.88
414.928	404.88
415.151	409.88
415.374	406.88
415.597	403.88
415.821	386.88
416.044	386.88
416.267	408.88
416.49	396.88
416.713	414.88
416.936	400.88
417.159	384.88
417.382	417.88
417.605	414.88
417.828	407.88
418.051	418.88
418.274	413.88
418.497	411.88
418.72	412.88
418.943	404.88
419.166	402.88
419.389	428.88
419.611	428.88
419.834	409.88
420.057	428.88
420.28	427.88
420.503	406.88
420.726	408.88
420.948	420.88
421.171	466.88
421.394	484.88
421.617	458.88
421.839	436.88
422.062	462.88
422.285	451.88
422.507	489.88
422.73	535.88
422.953	521.88
423.175	457.88
423.398	441.88
423.621	440.88
423.843	445.88
424.066	453.88
424.288	467.88
424.511	470.88
424.733	517.88
424.956	586.88
425.178	553.88
425.401	564.88
425.623	562.88
425.846	515.88
426.068	448.88
426.291	448.88
426.513	459.88
426.735	459.88
426.958	493.88
427.18	550.88
427.402	676.88
427.625	753.88
427.847	609.88
428.069	548.88
428.292	473.88
428.514	458.88
428.736	411.88
428.958	440.88
429.181	427.88
429.403	414.88
429.625	428.88
429.847	472.88
430.069	515.88
430.292	497.88
430.514	448.88
430.736	432.88
430.958	410.88
431.18	409.88
431.402	406.88
431.624	399.88
431.846	377.88
432.068	416.88
432.29	404.88
432.512	375.88
432.734	406.88
432.956	398.88
433.178	416.88
433.4	418.88
433.622	386.88
433.844	406.88
434.066	395.88
434.287	389.88
434.509	393.88
434.731	428.88
434.953	427.88
435.175	416.88
435.397	430.88
435.618	445.88
435.84	456.88
436.062	552.88
436.284	620.88
436.505	525.88
436.727	472.88
436.949	440.88
437.17	440.88
437.392	419.88
437.614	426.88
437.835	458.88
438.057	517.88
438.278	639.88
438.5	633.88
438.721	683.88
438.943	658.88
439.165	521.88
439.386	478.88
439.608	476.88
439.829	452.88
440.05	468.88
440.272	528.88
440.493	492.88
440.715	432.88
440.936	446.88
441.158	420.88
441.379	426.88
441.6	434.88
441.822	445.88
442.043	472.88
442.264	557.88
442.486	580.88
442.707	501.88
442.928	464.88
443.149	460.88
443.371	486.88
443.592	506.88
443.813	579.88
444.034	672.88
444.255	542.88
444.476	473.88
444.698	459.88
444.919	448.88
445.14	532.88
445.361	489.88
445.582	480.88
445.803	530.88
446.024	615.88
446.245	636.88
446.466	582.88
446.687	496.88
446.908	460.88
447.129	438.88
447.35	422.88
447.571	428.88
447.792	404.88
448.013	420.88
448.234	441.88
448.455	482.88
448.675	578.88
448.896	681.88
449.117	561.88
449.338	506.88
449.559	621.88
449.779	717.88
450	586.88
450.221	473.88
450.442	420.88
450.662	418.88
450.883	413.88
451.104	408.88
451.324	394.88
451.545	413.88
451.766	400.88
451.986	367.88
452.207	378.88
452.428	363.88
452.648	359.88
452.869	361.88
453.089	406.88
453.31	406.88
453.53	378.88
453.751	376.88
453.971	357.88
454.192	392.88
454.412	388.88
454.633	364.88
454.853	370.88
455.073	358.88
455.294	385.88
455.514	467.88
455.734	424.88
455.955	345.88
456.175	378.88
456.395	362.88
456.616	360.88
456.836	341.88
457.056	361.88
457.276	351.88
457.497	353.88
457.717	368.88
457.937	359.88
458.157	366.88
458.377	361.88
458.598	382.88
458.818	422.88
459.038	475.88
459.258	500.88
459.478	437.88
459.698	401.88
459.918	416.88
460.138	402.88
460.358	383.88
460.578	415.88
460.798	399.88
461.018	406.88
461.238	406.88
461.458	421.88
461.678	396.88
461.898	398.88
462.118	408.88
462.338	417.88
462.558	415.88
462.777	423.88
462.997	430.88
463.217	420.88
463.437	432.88
463.657	440.88
463.876	421.88
464.096	435.88
464.316	413.88
464.536	413.88
464.755	417.88
464.975	426.88
465.195	429.88
465.414	498.88
465.634	457.88
465.854	419.88
466.073	404.88
466.293	397.88
466.512	392.88
466.732	372.88
466.951	379.88
467.171	365.88
467.391	388.88
467.61	382.88
467.829	389.88
468.049	372.88
468.268	374.88
468.488	379.88
468.707	370.88
468.927	375.88
469.146	374.88
469.365	369.88
469.585	376.88
469.804	389.88
470.023	404.88
470.243	381.88
470.462	386.88
470.681	418.88
470.901	390.88
471.12	368.88
471.339	385.88
471.558	394.88
471.777	386.88
471.997	397.88
472.216	377.88
472.435	380.88
472.654	396.88
472.873	371.88
473.092	381.88
473.311	388.88
473.53	387.88
473.749	396.88
473.968	442.88
474.187	503.88
474.406	540.88
474.625	447.88
474.844	442.88
475.063	403.88
475.282	394.88
475.501	374.88
475.72	400.88
475.939	408.88
476.158	393.88
476.377	400.88
476.596	418.88
476.814	427.88
477.033	423.88
477.252	410.88
477.471	397.88
477.69	424.88
477.908	423.88
478.127	425.88
478.346	422.88
478.564	427.88
478.783	422.88
479.002	446.88
479.22	441.88
479.439	465.88
479.658	455.88
479.876	473.88
480.095	457.88
480.313	504.88
480.532	469.88
480.751	456.88
480.969	468.88
481.188	474.88
481.406	476.88
481.624	444.88
481.843	457.88
482.061	458.88
482.28	469.88
482.498	446.88
482.717	459.88
482.935	454.88
483.153	465.88
483.372	444.88
483.59	448.88
483.808	429.88
484.027	444.88
484.245	459.88
484.463	459.88
484.681	474.88
484.9	457.88
485.118	462.88
485.336	451.88
485.554	481.88
485.772	459.88
485.99	462.88
486.209	465.88
486.427	486.88
486.645	469.88
486.863	469.88
487.081	499.88
487.299	492.88
487.517	485.88
487.735	484.88
487.953	473.88
488.171	492.88
488.389	492.88
488.607	489.88
488.825	489.88
489.043	488.88
489.261	506.88
489.479	494.88
489.696	484.88
489.914	496.88
490.132	516.88
490.35	498.88
490.568	494.88
490.786	522.88
491.003	509.88
491.221	540.88
491.439	542.88
491.657	527.88
491.874	537.88
492.092	536.88
492.31	546.88
492.527	542.88
492.745	560.88
492.963	549.88
493.18	548.88
493.398	556.88
493.615	565.88
493.833	552.88
494.05	582.88
494.268	554.88
494.485	578.88
494.703	546.88
494.92	559.88
495.138	549.88
495.355	556.88
495.573	557.88
495.79	572.88
496.008	576.88
496.225	566.88
496.442	576.88
496.66	588.88
496.877	552.88
497.094	546.88
497.312	582.88
497.529	594.88
497.746	576.88
497.963	606.88
498.181	599.88
498.398	639.88
498.615	614.88
498.832	621.88
499.049	644.88
499.267	650.88
499.484	700.88
499.701	704.88
499.918	710.88
500.135	724.88
500.352	730.88
500.569	792.88
500.786	792.88
501.003	760.88
501.22	743.88
501.437	728.88
501.654	705.88
501.871	710.88
502.088	682.88
502.305	665.88
502.522	642.88
502.739	639.88
502.956	603.88
503.172	626.88
503.389	609.88
503.606	597.88
503.823	599.88
504.04	605.88
504.256	593.88
504.473	563.88
504.69	570.88
504.907	572.88
505.123	575.88
505.34	562.88
505.557	561.88
505.773	566.88
505.99	564.88
506.207	562.88
506.423	552.88
506.64	543.88
506.856	547.88
507.073	533.88
507.289	538.88
507.506	534.88
507.722	533.88
507.939	550.88
508.155	537.88
508.372	510.88
508.588	534.88
508.805	507.88
509.021	520.88
509.238	522.88
509.454	529.88
509.67	525.88
509.887	538.88
510.103	516.88
510.319	513.88
510.536	586.88
510.752	903.88
510.968	739.88
511.184	530.88
511.401	510.88
511.617	523.88
511.833	514.88
512.049	491.88
512.265	503.88
512.481	489.88
512.698	498.88
512.914	487.88
513.13	470.88
513.346	481.88
513.562	499.88
513.778	456.88
513.994	474.88
514.21	499.88
514.426	533.88
514.642	544.88
514.858	551.88
515.074	594.88
515.29	673.88
515.506	926.88
515.721	781.88
515.937	560.88
516.153	533.88
516.369	539.88
516.585	538.88
516.801	513.88
517.016	505.88
517.232	496.88
517.448	489.88
517.664	509.88
517.879	500.88
518.095	500.88
518.311	496.88
518.527	505.88
518.742	503.88
518.958	488.88
519.173	493.88
519.389	484.88
519.605	492.88
519.82	492.88
520.036	519.88
520.251	493.88
520.467	536.88
520.682	504.88
520.898	543.88
521.113	555.88
521.329	579.88
521.544	600.88
521.76	753.88
521.975	1158.88
522.19	1145.88
522.406	653.88
522.621	527.88
522.836	502.88
523.052	492.88
523.267	464.88
523.482	459.88
523.698	444.88
523.913	446.88
524.128	464.88
524.343	440.88
524.559	417.88
524.774	445.88
524.989	414.88
525.204	442.88
525.419	425.88
525.634	436.88
525.849	432.88
526.064	438.88
526.28	415.88
526.495	420.88
526.71	401.88
526.925	412.88
527.14	418.88
527.355	424.88
527.57	405.88
527.785	430.88
527.999	406.88
528.214	409.88
528.429	410.88
528.644	412.88
528.859	423.88
529.074	404.88
529.289	433.88
529.503	493.88
529.718	491.88
529.933	449.88
530.148	420.88
530.363	417.88
530.577	408.88
530.792	404.88
531.007	395.88
531.221	399.88
531.436	413.88
531.651	406.88
531.865	405.88
532.08	395.88
532.295	406.88
532.509	395.88
532.724	397.88
532.938	405.88
533.153	387.88
533.367	416.88
533.582	403.88
533.796	380.88
534.011	386.88
534.225	396.88
534.44	386.88
534.654	389.88
534.868	401.88
535.083	379.88
535.297	373.88
535.511	406.88
535.726	385.88
535.94	397.88
536.154	398.88
536.369	389.88
536.583	389.88
536.797	380.88
537.011	380.88
537.225	388.88
537.44	380.88
537.654	375.88
537.868	390.88
538.082	376.88
538.296	380.88
538.51	373.88
538.724	403.88
538.938	401.88
539.153	386.88
539.367	385.88
539.581	378.88
539.795	392.88
540.009	380.88
540.222	382.88
540.436	380.88
540.65	388.88
540.864	387.88
541.078	376.88
541.292	372.88
541.506	403.88
541.72	386.88
541.934	388.88
542.147	393.88
542.361	385.88
542.575	366.88
542.789	380.88
543.002	377.88
543.216	380.88
543.43	375.88
543.644	375.88
543.857	372.88
544.071	374.88
544.285	383.88
544.498	397.88
544.712	380.88
544.925	383.88
545.139	370.88
545.352	362.88
545.566	373.88
545.779	382.88
545.993	383.88
546.206	381.88
546.42	390.88
546.633	365.88
546.847	372.88
547.06	350.88
547.274	349.88
547.487	373.88
547.7	364.88
547.914	349.88
548.127	341.88
548.34	354.88
548.554	374.88
548.767	360.88
548.98	382.88
549.193	361.88
549.407	363.88
549.62	369.88
549.833	360.88
550.046	366.88
550.259	382.88
550.473	362.88
550.686	360.88
550.899	361.88
551.112	363.88
551.325	360.88
551.538	353.88
551.751	355.88
551.964	352.88
552.177	358.88
552.39	324.88
552.603	346.88
552.816	344.88
553.029	362.88
553.242	363.88
553.455	365.88
553.667	365.88
553.88	374.88
554.093	362.88
554.306	377.88
554.519	350.88
554.732	349.88
554.944	336.88
555.157	334.88
555.37	362.88
555.583	349.88
555.795	322.88
556.008	334.88
556.221	342.88
556.433	345.88
556.646	330.88
556.859	344.88
557.071	338.88
557.284	333.88
557.496	344.88
557.709	326.88
557.921	323.88
558.134	334.88
558.346	337.88
558.559	310.88
558.771	328.88
558.984	333.88
559.196	305.88
559.409	309.88
559.621	310.88
559.833	325.88
560.046	313.88
560.258	327.88
560.47	334.88
560.683	330.88
560.895	309.88
561.107	321.88
561.32	323.88
561.532	319.88
561.744	323.88
561.956	346.88
562.168	330.88
562.381	331.88
562.593	329.88
562.805	333.88
563.017	333.88
563.229	350.88
563.441	325.88
563.653	344.88
563.865	326.88
564.077	343.88
564.289	330.88
564.501	340.88
564.713	348.88
564.925	346.88
565.137	345.88
565.349	372.88
565.561	342.88
565.773	362.88
565.985	354.88
566.197	363.88
566.408	363.88
566.62	377.88
566.832	378.88
567.044	380.88
567.255	386.88
567.467	407.88
567.679	398.88
567.891	386.88
568.102	411.88
568.314	372.88
568.526	373.88
568.737	373.88
568.949	335.88
569.161	342.88
569.372	326.88
569.584	345.88
569.795	332.88
570.007	345.88
570.218	359.88
570.43	346.88
570.641	330.88
570.853	345.88
571.064	339.88
571.276	301.88
571.487	314.88
571.698	323.88
571.91	304.88
572.121	315.88
572.333	301.88
572.544	304.88
572.755	306.88
572.966	295.88
573.178	304.88
573.389	278.88
573.6	296.88
573.811	307.88
574.023	288.88
574.234	294.88
574.445	286.88
574.656	294.88
574.867	299.88
575.078	277.88
575.289	284.88
575.501	261.88
575.712	282.88
575.923	277.88
576.134	265.88
576.345	299.88
576.556	280.88
576.767	287.88
576.978	285.88
577.188	295.88
577.399	292.88
577.61	301.88
577.821	280.88
578.032	283.88
578.243	292.88
578.454	429.88
578.665	333.88
578.875	287.88
579.086	270.88
579.297	271.88
579.508	273.88
579.718	256.88
579.929	264.88
580.14	277.88
580.35	265.88
580.561	260.88
580.772	284.88
580.982	278.88
581.193	281.88
581.403	269.88
581.614	264.88
581.825	281.88
582.035	247.88
582.246	276.88
582.456	274.88
582.667	256.88
582.877	242.88
583.087	271.88
583.298	252.88
583.508	257.88
583.719	256.88
583.929	267.88
584.139	256.88
584.35	264.88
584.56	257.88
584.77	263.88
584.981	258.88
585.191	260.88
585.401	269.88
585.611	262.88
585.821	263.88
586.032	277.88
586.242	264.88
586.452	240.88
586.662	263.88
586.872	247.88
587.082	244.88
587.292	256.88
587.502	245.88
587.713	258.88
587.923	261.88
588.133	262.88
588.343	259.88
588.553	250.88
588.762	258.88
588.972	255.88
589.182	251.88
589.392	270.88
589.602	245.88
589.812	265.88
590.022	228.88
590.232	272.88
590.441	246.88
590.651	246.88
590.861	234.88
591.071	248.88
591.281	247.88
591.49	249.88
591.7	273.88
591.91	248.88
592.119	255.88
592.329	246.88
592.539	259.88
592.748	265.88
592.958	265.88
593.167	267.88
593.377	274.88
593.587	267.88
593.796	253.88
594.006	257.88
594.215	263.88
594.424	262.88
594.634	267.88
594.843	256.88
595.053	249.88
595.262	261.88
595.472	251.88
595.681	243.88
595.89	241.88
596.1	244.88
596.309	251.88
596.518	248.88
596.727	236.88
596.937	247.88
597.146	235.88
597.355	241.88
597.564	226.88
597.774	240.88
597.983	248.88
598.192	234.88
598.401	241.88
598.61	230.88
598.819	228.88
599.028	230.88
599.237	246.88
599.446	235.88
599.655	229.88
599.864	244.88
600.073	234.88
600.282	227.88
600.491	240.88
600.7	233.88
600.909	224.88
601.118	257.88
601.327	221.88
601.536	220.88
601.745	234.88
601.953	226.88
602.162	219.88
602.371	220.88
602.58	222.88
602.789	227.88
602.997	228.88
603.206	233.88
603.415	216.88
603.623	233.88
603.832	220.88
604.041	219.88
604.249	213.88
604.458	217.88
604.666	213.88
604.875	217.88
605.084	209.88
605.292	205.88
605.501	203.88
605.709	216.88
605.918	205.88
606.126	210.88
606.334	203.88
606.543	221.88
606.751	233.88
606.96	218.88
607.168	212.88
607.376	205.88
607.585	225.88
607.793	213.88
608.001	215.88
608.21	214.88
608.418	230.88
608.626	222.88
608.834	209.88
609.043	206.88
609.251	210.88
609.459	208.88
609.667	216.88
609.875	209.88
610.083	204.88
610.291	208.88
610.499	220.88
610.707	208.88
610.916	204.88
611.124	233.88
611.332	215.88
611.54	200.88
611.748	218.88
611.955	213.88
612.163	201.88
612.371	220.88
612.579	213.88
612.787	191.88
612.995	194.88
613.203	224.88
613.411	220.88
613.618	212.88
613.826	205.88
614.034	195.88
614.242	214.88
614.449	219.88
614.657	224.88
614.865	203.88
615.072	207.88
615.28	200.88
615.488	203.88
615.695	211.88
615.903	209.88
616.111	218.88
616.318	217.88
616.526	212.88
616.733	202.88
616.941	205.88
617.148	202.88
617.356	208.88
617.563	219.88
617.771	196.88
617.978	207.88
618.185	221.88
618.393	202.88
618.6	197.88
618.807	205.88
619.015	221.88
619.222	197.88
619.429	189.88
619.637	205.88
619.844	184.88
620.051	199.88
620.258	196.88
620.466	190.88
620.673	183.88
620.88	187.88
621.087	192.88
621.294	202.88
621.501	192.88
621.708	209.88
621.915	203.88
622.122	198.88
622.329	202.88
622.536	203.88
622.743	194.88
622.95	193.88
623.157	195.88
623.364	178.88
623.571	179.88
623.778	192.88
623.985	193.88
624.192	178.88
624.399	197.88
624.606	190.88
624.812	198.88
625.019	189.88
625.226	181.88
625.433	197.88
625.639	196.88
625.846	198.88
626.053	175.88
626.259	187.88
626.466	170.88
626.673	189.88
626.879	173.88
627.086	198.88
627.293	198.88
627.499	185.88
627.706	188.88
627.912	187.88
628.119	195.88
628.325	180.88
628.532	179.88
628.738	180.88
628.945	184.88
629.151	185.88
629.357	197.88
629.564	184.88
629.77	168.88
629.976	171.88
630.183	177.88
630.389	180.88
630.595	184.88
630.802	171.88
631.008	180.88
631.214	173.88
631.42	194.88
631.627	180.88
631.833	163.88
632.039	160.88
632.245	165.88
632.451	181.88
632.657	182.88
632.863	169.88
633.069	169.88
633.275	174.88
633.481	157.88
633.688	172.88
633.893	170.88
634.099	152.88
634.305	170.88
634.511	160.88
634.717	182.88
634.923	172.88
635.129	162.88
635.335	165.88
635.541	164.88
635.747	154.88
635.952	168.88
636.158	164.88
636.364	176.88
636.57	164.88
636.775	149.88
636.981	173.88
637.187	165.88
637.392	173.88
637.598	175.88
637.804	172.88
638.009	159.88
638.215	176.88
638.421	148.88
638.626	163.88
638.832	151.88
639.037	174.88
639.243	146.88
639.448	162.88
639.654	164.88
639.859	157.88
640.065	149.88
640.27	161.88
640.475	175.88
640.681	161.88
640.886	150.88
641.091	153.88
641.297	166.88
641.502	173.88
641.707	160.88
641.913	160.88
642.118	149.88
642.323	160.88
642.528	161.88
642.733	146.88
642.939	141.88
643.144	160.88
643.349	150.88
643.554	150.88
643.759	149.88
643.964	156.88
644.169	153.88
644.374	162.88
644.579	155.88
644.784	150.88
644.989	160.88
645.194	153.88
645.399	144.88
645.604	166.88
645.809	144.88
646.014	160.88
646.219	140.88
646.423	155.88
646.628	156.88
646.833	160.88
647.038	157.88
647.243	139.88
647.447	158.88
647.652	139.88
647.857	149.88
648.062	164.88
648.266	152.88
648.471	149.88
648.676	163.88
648.88	157.88
649.085	155.88
649.289	167.88
649.494	152.88
649.698	177.88
649.903	145.88
650.107	156.88
650.312	144.88
650.516	154.88
650.721	148.88
650.925	139.88
651.13	152.88
651.334	146.88
651.539	146.88
651.743	143.88
651.947	137.88
652.152	160.88
652.356	138.88
652.56	136.88
652.764	146.88
652.969	132.88
653.173	139.88
653.377	122.88
653.581	118.88
653.785	125.88
653.99	131.88
654.194	137.88
654.398	140.88
654.602	132.88
654.806	120.88
655.01	139.88
655.214	124.88
655.418	131.88
655.622	129.88
655.826	123.88
656.03	123.88
656.234	125.88
656.438	120.88
656.642	127.88
656.846	124.88
657.049	120.88
657.253	128.88
657.457	118.88
657.661	105.88
657.865	118.88
658.068	117.88
658.272	113.88
658.476	97.88
658.68	123.88
658.883	104.88
659.087	97.88
659.291	103.88
659.494	92.88
659.698	101.88
659.901	107.88
660.105	96.88
660.309	93.88
660.512	83.88
660.716	99.88
660.919	101.88
661.123	86.88
661.326	80.88
661.53	81.88
661.733	94.88
661.936	78.88
662.14	86.88
662.343	82.88
662.546	68.88
662.75	76.88
662.953	87.88
663.156	80.88
663.36	77.88
663.563	78.88
663.766	82.88
663.969	93.88
664.173	74.88
664.376	88.88
664.579	76.88
664.782	70.88
664.985	86.88
665.188	76.88
665.391	74.88
665.594	77.88
665.797	87.88
666	83.88
666.203	81.88
666.406	86.88
666.609	89.88
666.812	97.88
667.015	85.88
667.218	91.88
667.421	92.88
667.624	91.88
667.827	75.88
668.03	90.88
668.232	69.88
668.435	85.88
668.638	85.88
668.841	98.88
669.043	90.88
669.246	85.88
669.449	78.88
669.651	76.88
669.854	81.88
670.057	92.88
670.259	79.88
670.462	82.88
670.665	76.88
670.867	93.88
671.07	76.88
671.272	82.88
671.475	87.88
671.677	66.88
671.88	88.88
672.082	90.88
672.284	75.88
672.487	72.88
672.689	82.88
672.892	77.88
