Data from 1989.PennyLincolnUp.Lamp.En5.5.200Scan.071819.P2_HRD10591_17-26-26-974.txt Node
Date: Thu Jul 18 17:26:26 EDT 2019
User: cochatt
Spectrometer: HR+D1059
Trigger mode: 1
Integration Time (sec): 1.000000E-1
Scans to average: 1
Electric dark correction enabled: true
Nonlinearity correction enabled: false
Boxcar width: 0
XAxis mode: Wavelengths
Number of Pixels in Spectrum: 2048
>>>>>Begin Spectral Data<<<<<
223.165	-21.31
223.4	-21.31
223.635	-21.31
223.869	-22.31
224.104	-16.31
224.338	-13.31
224.573	-20.31
224.808	-12.31
225.042	-12.31
225.277	8.69
225.511	-1.31
225.746	16.69
225.98	10.69
226.215	12.69
226.449	13.69
226.683	16.69
226.918	27.69
227.152	12.69
227.387	36.69
227.621	34.69
227.856	40.69
228.09	48.69
228.324	28.69
228.559	51.69
228.793	64.69
229.027	93.69
229.262	104.69
229.496	124.69
229.73	127.69
229.964	162.69
230.199	148.69
230.433	131.69
230.667	116.69
230.901	107.69
231.136	114.69
231.37	102.69
231.604	107.69
231.838	121.69
232.072	114.69
232.306	119.69
232.541	110.69
232.775	105.69
233.009	105.69
233.243	128.69
233.477	122.69
233.711	112.69
233.945	103.69
234.179	101.69
234.413	111.69
234.647	104.69
234.881	129.69
235.115	126.69
235.349	126.69
235.583	108.69
235.817	121.69
236.051	125.69
236.285	112.69
236.519	128.69
236.753	141.69
236.987	150.69
237.221	199.69
237.455	245.69
237.689	195.69
237.922	147.69
238.156	149.69
238.39	131.69
238.624	134.69
238.858	116.69
239.091	124.69
239.325	118.69
239.559	151.69
239.793	135.69
240.027	129.69
240.26	141.69
240.494	174.69
240.728	160.69
240.961	172.69
241.195	144.69
241.429	158.69
241.662	140.69
241.896	140.69
242.13	147.69
242.363	125.69
242.597	126.69
242.83	144.69
243.064	131.69
243.298	151.69
243.531	133.69
243.765	145.69
243.998	146.69
244.232	135.69
244.465	147.69
244.699	173.69
244.932	140.69
245.166	154.69
245.399	148.69
245.633	130.69
245.866	148.69
246.099	158.69
246.333	160.69
246.566	167.69
246.8	169.69
247.033	145.69
247.266	169.69
247.5	180.69
247.733	175.69
247.966	174.69
248.2	185.69
248.433	179.69
248.666	181.69
248.899	201.69
249.133	207.69
249.366	236.69
249.599	219.69
249.832	207.69
250.066	204.69
250.299	212.69
250.532	240.69
250.765	231.69
250.998	247.69
251.231	284.69
251.465	246.69
251.698	227.69
251.931	217.69
252.164	211.69
252.397	226.69
252.63	227.69
252.863	252.69
253.096	243.69
253.329	256.69
253.562	244.69
253.795	244.69
254.028	239.69
254.261	234.69
254.494	261.69
254.727	292.69
254.96	326.69
255.193	311.69
255.426	273.69
255.659	261.69
255.892	264.69
256.124	293.69
256.357	284.69
256.59	298.69
256.823	263.69
257.056	246.69
257.289	242.69
257.521	244.69
257.754	240.69
257.987	233.69
258.22	250.69
258.452	226.69
258.685	225.69
258.918	238.69
259.151	230.69
259.383	242.69
259.616	243.69
259.849	260.69
260.081	259.69
260.314	278.69
260.547	278.69
260.779	275.69
261.012	264.69
261.244	256.69
261.477	265.69
261.71	240.69
261.942	250.69
262.175	264.69
262.407	280.69
262.64	231.69
262.872	232.69
263.105	226.69
263.337	241.69
263.57	240.69
263.802	232.69
264.035	231.69
264.267	241.69
264.499	223.69
264.732	240.69
264.964	241.69
265.197	228.69
265.429	245.69
265.661	248.69
265.894	227.69
266.126	255.69
266.358	238.69
266.591	246.69
266.823	265.69
267.055	242.69
267.287	264.69
267.52	248.69
267.752	253.69
267.984	241.69
268.216	242.69
268.448	268.69
268.681	260.69
268.913	287.69
269.145	297.69
269.377	303.69
269.609	308.69
269.841	290.69
270.073	306.69
270.306	325.69
270.538	363.69
270.77	347.69
271.002	345.69
271.234	339.69
271.466	332.69
271.698	361.69
271.93	348.69
272.162	351.69
272.394	353.69
272.626	337.69
272.858	343.69
273.09	310.69
273.322	311.69
273.553	299.69
273.785	294.69
274.017	302.69
274.249	306.69
274.481	286.69
274.713	272.69
274.945	310.69
275.176	292.69
275.408	288.69
275.64	287.69
275.872	307.69
276.104	310.69
276.335	310.69
276.567	313.69
276.799	314.69
277.031	335.69
277.262	346.69
277.494	351.69
277.726	330.69
277.957	314.69
278.189	316.69
278.421	312.69
278.652	288.69
278.884	299.69
279.115	306.69
279.347	296.69
279.579	306.69
279.81	299.69
280.042	288.69
280.273	300.69
280.505	306.69
280.736	294.69
280.968	306.69
281.199	297.69
281.431	284.69
281.662	313.69
281.894	301.69
282.125	306.69
282.356	317.69
282.588	352.69
282.819	350.69
283.051	299.69
283.282	286.69
283.513	275.69
283.745	291.69
283.976	306.69
284.207	314.69
284.439	331.69
284.67	294.69
284.901	308.69
285.132	302.69
285.364	296.69
285.595	306.69
285.826	302.69
286.057	294.69
286.288	303.69
286.52	297.69
286.751	324.69
286.982	302.69
287.213	317.69
287.444	318.69
287.675	322.69
287.906	321.69
288.138	341.69
288.369	321.69
288.6	335.69
288.831	294.69
289.062	310.69
289.293	330.69
289.524	319.69
289.755	308.69
289.986	321.69
290.217	313.69
290.448	330.69
290.679	299.69
290.91	321.69
291.141	306.69
291.371	309.69
291.602	331.69
291.833	326.69
292.064	321.69
292.295	304.69
292.526	306.69
292.757	293.69
292.987	299.69
293.218	306.69
293.449	294.69
293.68	324.69
293.91	315.69
294.141	324.69
294.372	314.69
294.603	313.69
294.833	309.69
295.064	314.69
295.295	327.69
295.525	323.69
295.756	326.69
295.987	332.69
296.217	351.69
296.448	375.69
296.679	336.69
296.909	316.69
297.14	319.69
297.37	334.69
297.601	344.69
297.831	320.69
298.062	315.69
298.292	327.69
298.523	318.69
298.753	332.69
298.984	329.69
299.214	347.69
299.445	335.69
299.675	329.69
299.905	362.69
300.136	322.69
300.366	324.69
300.597	327.69
300.827	343.69
301.057	356.69
301.288	346.69
301.518	371.69
301.748	348.69
301.979	350.69
302.209	362.69
302.439	357.69
302.669	359.69
302.9	347.69
303.13	345.69
303.36	328.69
303.59	358.69
303.82	384.69
304.051	353.69
304.281	353.69
304.511	337.69
304.741	355.69
304.971	338.69
305.201	336.69
305.431	353.69
305.661	346.69
305.891	343.69
306.121	351.69
306.352	340.69
306.582	363.69
306.812	366.69
307.042	347.69
307.272	345.69
307.502	360.69
307.731	355.69
307.961	356.69
308.191	367.69
308.421	362.69
308.651	364.69
308.881	364.69
309.111	373.69
309.341	361.69
309.571	373.69
309.8	384.69
310.03	397.69
310.26	432.69
310.49	408.69
310.72	440.69
310.949	432.69
311.179	447.69
311.409	409.69
311.639	442.69
311.868	414.69
312.098	406.69
312.328	423.69
312.557	442.69
312.787	474.69
313.017	471.69
313.246	433.69
313.476	406.69
313.706	410.69
313.935	434.69
314.165	405.69
314.394	438.69
314.624	445.69
314.853	435.69
315.083	438.69
315.312	421.69
315.542	406.69
315.771	408.69
316.001	392.69
316.23	405.69
316.46	386.69
316.689	393.69
316.919	415.69
317.148	420.69
317.377	408.69
317.607	423.69
317.836	419.69
318.065	400.69
318.295	432.69
318.524	420.69
318.753	408.69
318.983	400.69
319.212	411.69
319.441	427.69
319.67	428.69
319.9	406.69
320.129	413.69
320.358	406.69
320.587	426.69
320.816	449.69
321.046	440.69
321.275	431.69
321.504	444.69
321.733	463.69
321.962	450.69
322.191	451.69
322.42	492.69
322.649	508.69
322.878	508.69
323.108	523.69
323.337	547.69
323.566	587.69
323.795	638.69
324.024	674.69
324.253	828.69
324.482	1173.69
324.71	1814.69
324.939	2652.69
325.168	2248.69
325.397	1168.69
325.626	752.69
325.855	640.69
326.084	611.69
326.313	570.69
326.542	596.69
326.77	644.69
326.999	745.69
327.228	1041.69
327.457	1598.69
327.686	1990.69
327.914	1323.69
328.143	861.69
328.372	755.69
328.6	700.69
328.829	681.69
329.058	674.69
329.287	682.69
329.515	648.69
329.744	615.69
329.972	616.69
330.201	657.69
330.43	734.69
330.658	751.69
330.887	726.69
331.115	717.69
331.344	592.69
331.572	554.69
331.801	576.69
332.03	540.69
332.258	552.69
332.486	496.69
332.715	535.69
332.943	529.69
333.172	512.69
333.4	528.69
333.629	524.69
333.857	535.69
334.085	594.69
334.314	619.69
334.542	706.69
334.771	738.69
334.999	606.69
335.227	554.69
335.455	511.69
335.684	507.69
335.912	502.69
336.14	483.69
336.369	476.69
336.597	474.69
336.825	479.69
337.053	478.69
337.281	478.69
337.51	470.69
337.738	470.69
337.966	483.69
338.194	464.69
338.422	461.69
338.65	464.69
338.878	476.69
339.106	463.69
339.334	448.69
339.562	458.69
339.79	443.69
340.018	455.69
340.246	454.69
340.474	468.69
340.702	475.69
340.93	473.69
341.158	457.69
341.386	456.69
341.614	465.69
341.842	463.69
342.07	462.69
342.298	439.69
342.526	439.69
342.754	453.69
342.981	443.69
343.209	442.69
343.437	437.69
343.665	430.69
343.893	428.69
344.12	455.69
344.348	464.69
344.576	455.69
344.804	474.69
345.031	450.69
345.259	464.69
345.487	450.69
345.714	452.69
345.942	435.69
346.17	458.69
346.397	430.69
346.625	435.69
346.853	447.69
347.08	420.69
347.308	426.69
347.535	457.69
347.763	447.69
347.99	448.69
348.218	455.69
348.445	455.69
348.673	449.69
348.9	434.69
349.128	443.69
349.355	424.69
349.583	406.69
349.81	421.69
350.037	435.69
350.265	423.69
350.492	412.69
350.72	443.69
350.947	447.69
351.174	454.69
351.402	444.69
351.629	444.69
351.856	451.69
352.083	467.69
352.311	461.69
352.538	464.69
352.765	441.69
352.992	444.69
353.22	440.69
353.447	445.69
353.674	429.69
353.901	424.69
354.128	408.69
354.355	416.69
354.583	410.69
354.81	394.69
355.037	413.69
355.264	402.69
355.491	376.69
355.718	380.69
355.945	434.69
356.172	394.69
356.399	393.69
356.626	418.69
356.853	395.69
357.08	392.69
357.307	392.69
357.534	391.69
357.761	406.69
357.988	394.69
358.215	399.69
358.441	400.69
358.668	378.69
358.895	399.69
359.122	414.69
359.349	389.69
359.576	424.69
359.802	452.69
360.029	468.69
360.256	515.69
360.483	485.69
360.709	444.69
360.936	451.69
361.163	426.69
361.39	439.69
361.616	426.69
361.843	424.69
362.07	435.69
362.296	436.69
362.523	439.69
362.749	431.69
362.976	421.69
363.203	418.69
363.429	423.69
363.656	424.69
363.882	415.69
364.109	403.69
364.335	423.69
364.562	415.69
364.788	430.69
365.015	407.69
365.241	398.69
365.468	432.69
365.694	421.69
365.92	419.69
366.147	413.69
366.373	419.69
366.599	388.69
366.826	394.69
367.052	390.69
367.278	387.69
367.505	407.69
367.731	431.69
367.957	424.69
368.184	406.69
368.41	424.69
368.636	406.69
368.862	416.69
369.089	402.69
369.315	415.69
369.541	395.69
369.767	391.69
369.993	393.69
370.219	397.69
370.445	408.69
370.672	400.69
370.898	378.69
371.124	393.69
371.35	409.69
371.576	390.69
371.802	391.69
372.028	411.69
372.254	375.69
372.48	387.69
372.706	380.69
372.932	402.69
373.158	395.69
373.384	392.69
373.61	407.69
373.835	391.69
374.061	398.69
374.287	376.69
374.513	386.69
374.739	385.69
374.965	390.69
375.191	406.69
375.416	378.69
375.642	409.69
375.868	408.69
376.094	398.69
376.319	391.69
376.545	409.69
376.771	385.69
376.997	384.69
377.222	392.69
377.448	364.69
377.674	386.69
377.899	382.69
378.125	399.69
378.35	378.69
378.576	406.69
378.802	382.69
379.027	386.69
379.253	396.69
379.478	391.69
379.704	386.69
379.929	390.69
380.155	405.69
380.38	383.69
380.606	401.69
380.831	392.69
381.057	397.69
381.282	391.69
381.507	386.69
381.733	377.69
381.958	392.69
382.184	413.69
382.409	400.69
382.634	384.69
382.86	394.69
383.085	386.69
383.31	395.69
383.535	384.69
383.761	404.69
383.986	428.69
384.211	405.69
384.436	394.69
384.662	404.69
384.887	402.69
385.112	395.69
385.337	403.69
385.562	388.69
385.787	410.69
386.013	432.69
386.238	422.69
386.463	432.69
386.688	402.69
386.913	423.69
387.138	392.69
387.363	397.69
387.588	430.69
387.813	410.69
388.038	397.69
388.263	414.69
388.488	418.69
388.713	391.69
388.938	426.69
389.163	421.69
389.387	411.69
389.612	408.69
389.837	415.69
390.062	407.69
390.287	404.69
390.512	409.69
390.736	395.69
390.961	412.69
391.186	415.69
391.411	398.69
391.636	404.69
391.86	420.69
392.085	422.69
392.31	397.69
392.534	422.69
392.759	431.69
392.984	432.69
393.208	404.69
393.433	414.69
393.658	407.69
393.882	406.69
394.107	430.69
394.331	409.69
394.556	402.69
394.78	409.69
395.005	418.69
395.229	421.69
395.454	426.69
395.678	427.69
395.903	433.69
396.127	442.69
396.352	446.69
396.576	439.69
396.801	434.69
397.025	419.69
397.249	435.69
397.474	424.69
397.698	443.69
397.922	443.69
398.147	434.69
398.371	452.69
398.595	440.69
398.82	467.69
399.044	451.69
399.268	479.69
399.492	501.69
399.717	496.69
399.941	533.69
400.165	566.69
400.389	556.69
400.613	537.69
400.837	487.69
401.062	500.69
401.286	472.69
401.51	466.69
401.734	459.69
401.958	473.69
402.182	459.69
402.406	483.69
402.63	483.69
402.854	475.69
403.078	496.69
403.302	479.69
403.526	502.69
403.75	503.69
403.974	483.69
404.198	476.69
404.422	487.69
404.645	506.69
404.869	510.69
405.093	531.69
405.317	587.69
405.541	630.69
405.765	558.69
405.988	532.69
406.212	532.69
406.436	550.69
406.66	575.69
406.883	522.69
407.107	558.69
407.331	588.69
407.555	658.69
407.778	662.69
408.002	608.69
408.226	553.69
408.449	535.69
408.673	531.69
408.896	574.69
409.12	592.69
409.344	582.69
409.567	516.69
409.791	494.69
410.014	476.69
410.238	476.69
410.461	480.69
410.685	498.69
410.908	475.69
411.132	537.69
411.355	568.69
411.578	546.69
411.802	506.69
412.025	484.69
412.249	514.69
412.472	554.69
412.695	574.69
412.919	593.69
413.142	527.69
413.365	528.69
413.589	504.69
413.812	477.69
414.035	469.69
414.258	466.69
414.482	445.69
414.705	450.69
414.928	464.69
415.151	443.69
415.374	449.69
415.597	454.69
415.821	454.69
416.044	463.69
416.267	477.69
416.49	450.69
416.713	465.69
416.936	470.69
417.159	453.69
417.382	466.69
417.605	481.69
417.828	482.69
418.051	497.69
418.274	467.69
418.497	452.69
418.72	461.69
418.943	475.69
419.166	448.69
419.389	496.69
419.611	487.69
419.834	488.69
420.057	507.69
420.28	500.69
420.503	510.69
420.726	505.69
420.948	512.69
421.171	558.69
421.394	560.69
421.617	518.69
421.839	480.69
422.062	468.69
422.285	496.69
422.507	567.69
422.73	643.69
422.953	575.69
423.175	531.69
423.398	510.69
423.621	487.69
423.843	524.69
424.066	518.69
424.288	509.69
424.511	530.69
424.733	603.69
424.956	654.69
425.178	650.69
425.401	664.69
425.623	674.69
425.846	577.69
426.068	536.69
426.291	523.69
426.513	518.69
426.735	543.69
426.958	561.69
427.18	665.69
427.402	804.69
427.625	855.69
427.847	789.69
428.069	702.69
428.292	593.69
428.514	534.69
428.736	500.69
428.958	498.69
429.181	490.69
429.403	462.69
429.625	516.69
429.847	533.69
430.069	602.69
430.292	602.69
430.514	517.69
430.736	483.69
430.958	475.69
431.18	466.69
431.402	459.69
431.624	458.69
431.846	448.69
432.068	434.69
432.29	434.69
432.512	460.69
432.734	473.69
432.956	451.69
433.178	481.69
433.4	466.69
433.622	468.69
433.844	427.69
434.066	455.69
434.287	428.69
434.509	448.69
434.731	470.69
434.953	451.69
435.175	497.69
435.397	508.69
435.618	520.69
435.84	553.69
436.062	659.69
436.284	731.69
436.505	611.69
436.727	550.69
436.949	520.69
437.17	496.69
437.392	470.69
437.614	509.69
437.835	556.69
438.057	633.69
438.278	732.69
438.5	752.69
438.721	788.69
438.943	768.69
439.165	625.69
439.386	544.69
439.608	552.69
439.829	518.69
440.05	578.69
440.272	604.69
440.493	574.69
440.715	528.69
440.936	512.69
441.158	509.69
441.379	520.69
441.6	478.69
441.822	500.69
442.043	560.69
442.264	661.69
442.486	692.69
442.707	596.69
442.928	542.69
443.149	541.69
443.371	574.69
443.592	613.69
443.813	714.69
444.034	779.69
444.255	645.69
444.476	568.69
444.698	532.69
444.919	526.69
445.14	626.69
445.361	581.69
445.582	566.69
445.803	630.69
446.024	743.69
446.245	771.69
446.466	700.69
446.687	587.69
446.908	540.69
447.129	487.69
447.35	475.69
447.571	481.69
447.792	494.69
448.013	491.69
448.234	508.69
448.455	547.69
448.675	674.69
448.896	768.69
449.117	650.69
449.338	642.69
449.559	713.69
449.779	847.69
450	696.69
450.221	547.69
450.442	500.69
450.662	485.69
450.883	484.69
451.104	480.69
451.324	484.69
451.545	479.69
451.766	468.69
451.986	420.69
452.207	434.69
452.428	440.69
452.648	434.69
452.869	432.69
453.089	464.69
453.31	440.69
453.53	454.69
453.751	432.69
453.971	422.69
454.192	472.69
454.412	439.69
454.633	444.69
454.853	425.69
455.073	418.69
455.294	451.69
455.514	548.69
455.734	523.69
455.955	452.69
456.175	412.69
456.395	389.69
456.616	397.69
456.836	419.69
457.056	403.69
457.276	396.69
457.497	387.69
457.717	406.69
457.937	415.69
458.157	416.69
458.377	414.69
458.598	435.69
458.818	514.69
459.038	599.69
459.258	625.69
459.478	514.69
459.698	482.69
459.918	454.69
460.138	419.69
460.358	448.69
460.578	438.69
460.798	434.69
461.018	446.69
461.238	452.69
461.458	440.69
461.678	447.69
461.898	459.69
462.118	415.69
462.338	443.69
462.558	463.69
462.777	466.69
462.997	484.69
463.217	462.69
463.437	464.69
463.657	453.69
463.876	482.69
464.096	468.69
464.316	445.69
464.536	480.69
464.755	506.69
464.975	497.69
465.195	531.69
465.414	601.69
465.634	542.69
465.854	478.69
466.073	457.69
466.293	448.69
466.512	446.69
466.732	452.69
466.951	424.69
467.171	438.69
467.391	451.69
467.61	432.69
467.829	458.69
468.049	468.69
468.268	494.69
468.488	454.69
468.707	425.69
468.927	435.69
469.146	405.69
469.365	422.69
469.585	395.69
469.804	441.69
470.023	449.69
470.243	444.69
470.462	478.69
470.681	486.69
470.901	457.69
471.12	423.69
471.339	424.69
471.558	440.69
471.777	472.69
471.997	448.69
472.216	482.69
472.435	551.69
472.654	510.69
472.873	483.69
473.092	434.69
473.311	471.69
473.53	440.69
473.749	466.69
473.968	496.69
474.187	616.69
474.406	656.69
474.625	510.69
474.844	471.69
475.063	450.69
475.282	444.69
475.501	452.69
475.72	450.69
475.939	449.69
476.158	468.69
476.377	474.69
476.596	455.69
476.814	470.69
477.033	470.69
477.252	483.69
477.471	463.69
477.69	474.69
477.908	474.69
478.127	513.69
478.346	456.69
478.564	476.69
478.783	479.69
479.002	501.69
479.22	498.69
479.439	524.69
479.658	549.69
479.876	540.69
480.095	534.69
480.313	580.69
480.532	569.69
480.751	581.69
480.969	577.69
481.188	711.69
481.406	806.69
481.624	674.69
481.843	592.69
482.061	560.69
482.28	575.69
482.498	549.69
482.717	536.69
482.935	526.69
483.153	529.69
483.372	508.69
483.59	547.69
483.808	511.69
484.027	528.69
484.245	542.69
484.463	536.69
484.681	530.69
484.9	540.69
485.118	540.69
485.336	546.69
485.554	566.69
485.772	538.69
485.99	546.69
486.209	537.69
486.427	540.69
486.645	570.69
486.863	576.69
487.081	568.69
487.299	574.69
487.517	563.69
487.735	568.69
487.953	562.69
488.171	563.69
488.389	558.69
488.607	567.69
488.825	593.69
489.043	565.69
489.261	586.69
489.479	596.69
489.696	578.69
489.914	579.69
490.132	609.69
490.35	608.69
490.568	591.69
490.786	605.69
491.003	638.69
491.221	634.69
491.439	649.69
491.657	652.69
491.874	670.69
492.092	662.69
492.31	656.69
492.527	663.69
492.745	683.69
492.963	667.69
493.18	684.69
493.398	678.69
493.615	692.69
493.833	713.69
494.05	690.69
494.268	700.69
494.485	651.69
494.703	686.69
494.92	673.69
495.138	669.69
495.355	687.69
495.573	695.69
495.79	696.69
496.008	687.69
496.225	697.69
496.442	688.69
496.66	690.69
496.877	667.69
497.094	677.69
497.312	693.69
497.529	707.69
497.746	684.69
497.963	688.69
498.181	730.69
498.398	737.69
498.615	727.69
498.832	727.69
499.049	724.69
499.267	728.69
499.484	776.69
499.701	768.69
499.918	804.69
500.135	843.69
500.352	862.69
500.569	870.69
500.786	885.69
501.003	838.69
501.22	832.69
501.437	830.69
501.654	788.69
501.871	814.69
502.088	798.69
502.305	773.69
502.522	723.69
502.739	713.69
502.956	712.69
503.172	725.69
503.389	696.69
503.606	714.69
503.823	688.69
504.04	663.69
504.256	657.69
504.473	674.69
504.69	646.69
504.907	653.69
505.123	628.69
505.34	640.69
505.557	656.69
505.773	659.69
505.99	650.69
506.207	652.69
506.423	629.69
506.64	651.69
506.856	637.69
507.073	632.69
507.289	626.69
507.506	625.69
507.722	657.69
507.939	658.69
508.155	642.69
508.372	613.69
508.588	610.69
508.805	596.69
509.021	627.69
509.238	643.69
509.454	653.69
509.67	635.69
509.887	629.69
510.103	626.69
510.319	636.69
510.536	729.69
510.752	1243.69
510.968	1002.69
511.184	640.69
511.401	603.69
511.617	617.69
511.833	606.69
512.049	626.69
512.265	603.69
512.481	607.69
512.698	584.69
512.914	580.69
513.13	590.69
513.346	596.69
513.562	614.69
513.778	589.69
513.994	582.69
514.21	598.69
514.426	623.69
514.642	689.69
514.858	690.69
515.074	764.69
515.29	914.69
515.506	1355.69
515.721	1072.69
515.937	715.69
516.153	655.69
516.369	636.69
516.585	632.69
516.801	585.69
517.016	562.69
517.232	604.69
517.448	608.69
517.664	593.69
517.879	578.69
518.095	579.69
518.311	574.69
518.527	569.69
518.742	600.69
518.958	590.69
519.173	581.69
519.389	557.69
519.605	593.69
519.82	585.69
520.036	599.69
520.251	631.69
520.467	643.69
520.682	675.69
520.898	651.69
521.113	688.69
521.329	715.69
521.544	831.69
521.76	1063.69
521.975	1817.69
522.19	1744.69
522.406	923.69
522.621	676.69
522.836	626.69
523.052	586.69
523.267	555.69
523.482	558.69
523.698	550.69
523.913	561.69
524.128	568.69
524.343	530.69
524.559	516.69
524.774	513.69
524.989	510.69
525.204	515.69
525.419	503.69
525.634	518.69
525.849	503.69
526.064	491.69
526.28	472.69
526.495	484.69
526.71	487.69
526.925	460.69
527.14	459.69
527.355	456.69
527.57	470.69
527.785	476.69
527.999	462.69
528.214	474.69
528.429	470.69
528.644	449.69
528.859	466.69
529.074	478.69
529.289	497.69
529.503	582.69
529.718	560.69
529.933	526.69
530.148	487.69
530.363	470.69
530.577	481.69
530.792	449.69
531.007	459.69
531.221	450.69
531.436	438.69
531.651	450.69
531.865	441.69
532.08	437.69
532.295	453.69
532.509	432.69
532.724	449.69
532.938	453.69
533.153	437.69
533.367	445.69
533.582	450.69
533.796	452.69
534.011	427.69
534.225	421.69
534.44	432.69
534.654	432.69
534.868	453.69
535.083	439.69
535.297	450.69
535.511	438.69
535.726	469.69
535.94	454.69
536.154	458.69
536.369	426.69
536.583	442.69
536.797	420.69
537.011	432.69
537.225	440.69
537.44	431.69
537.654	417.69
537.868	445.69
538.082	424.69
538.296	413.69
538.51	446.69
538.724	424.69
538.938	432.69
539.153	424.69
539.367	423.69
539.581	443.69
539.795	427.69
540.009	422.69
540.222	426.69
540.436	424.69
540.65	438.69
540.864	439.69
541.078	441.69
541.292	425.69
541.506	431.69
541.72	426.69
541.934	426.69
542.147	426.69
542.361	424.69
542.575	428.69
542.789	426.69
543.002	415.69
543.216	427.69
543.43	418.69
543.644	412.69
543.857	425.69
544.071	416.69
544.285	422.69
544.498	416.69
544.712	436.69
544.925	413.69
545.139	427.69
545.352	392.69
545.566	411.69
545.779	409.69
545.993	419.69
546.206	413.69
546.42	427.69
546.633	404.69
546.847	408.69
547.06	412.69
547.274	424.69
547.487	376.69
547.7	408.69
547.914	390.69
548.127	402.69
548.34	398.69
548.554	399.69
548.767	396.69
548.98	394.69
549.193	384.69
549.407	404.69
549.62	405.69
549.833	384.69
550.046	396.69
550.259	387.69
550.473	388.69
550.686	400.69
550.899	403.69
551.112	385.69
551.325	382.69
551.538	364.69
551.751	388.69
551.964	382.69
552.177	397.69
552.39	391.69
552.603	402.69
552.816	390.69
553.029	373.69
553.242	407.69
553.455	394.69
553.667	426.69
553.88	402.69
554.093	407.69
554.306	401.69
554.519	408.69
554.732	380.69
554.944	400.69
555.157	382.69
555.37	376.69
555.583	398.69
555.795	390.69
556.008	392.69
556.221	389.69
556.433	372.69
556.646	358.69
556.859	356.69
557.071	358.69
557.284	363.69
557.496	382.69
557.709	368.69
557.921	361.69
558.134	355.69
558.346	366.69
558.559	362.69
558.771	358.69
558.984	370.69
559.196	347.69
559.409	360.69
559.621	363.69
559.833	351.69
560.046	348.69
560.258	360.69
560.47	340.69
560.683	370.69
560.895	354.69
561.107	353.69
561.32	373.69
561.532	343.69
561.744	355.69
561.956	338.69
562.168	339.69
562.381	362.69
562.593	346.69
562.805	336.69
563.017	363.69
563.229	348.69
563.441	342.69
563.653	353.69
563.865	343.69
564.077	348.69
564.289	363.69
564.501	367.69
564.713	363.69
564.925	348.69
565.137	398.69
565.349	394.69
565.561	388.69
565.773	373.69
565.985	385.69
566.197	383.69
566.408	394.69
566.62	386.69
566.832	392.69
567.044	410.69
567.255	412.69
567.467	413.69
567.679	398.69
567.891	395.69
568.102	430.69
568.314	425.69
568.526	406.69
568.737	384.69
568.949	369.69
569.161	375.69
569.372	355.69
569.584	368.69
569.795	359.69
570.007	360.69
570.218	409.69
570.43	402.69
570.641	352.69
570.853	358.69
571.064	340.69
571.276	328.69
571.487	317.69
571.698	331.69
571.91	321.69
572.121	316.69
572.333	339.69
572.544	318.69
572.755	339.69
572.966	326.69
573.178	312.69
573.389	310.69
573.6	309.69
573.811	327.69
574.023	307.69
574.234	302.69
574.445	326.69
574.656	304.69
574.867	299.69
575.078	303.69
575.289	328.69
575.501	306.69
575.712	329.69
575.923	299.69
576.134	304.69
576.345	298.69
576.556	307.69
576.767	283.69
576.978	314.69
577.188	308.69
577.399	315.69
577.61	286.69
577.821	296.69
578.032	313.69
578.243	357.69
578.454	562.69
578.665	436.69
578.875	314.69
579.086	287.69
579.297	283.69
579.508	291.69
579.718	286.69
579.929	283.69
580.14	300.69
580.35	284.69
580.561	289.69
580.772	275.69
580.982	292.69
581.193	275.69
581.403	300.69
581.614	284.69
581.825	289.69
582.035	275.69
582.246	287.69
582.456	261.69
582.667	296.69
582.877	290.69
583.087	271.69
583.298	271.69
583.508	266.69
583.719	281.69
583.929	269.69
584.139	271.69
584.35	264.69
584.56	267.69
584.77	281.69
584.981	270.69
585.191	279.69
585.401	274.69
585.611	273.69
585.821	266.69
586.032	251.69
586.242	276.69
586.452	272.69
586.662	263.69
586.872	274.69
587.082	252.69
587.292	260.69
587.502	245.69
587.713	269.69
587.923	275.69
588.133	272.69
588.343	279.69
588.553	267.69
588.762	294.69
588.972	290.69
589.182	263.69
589.392	271.69
589.602	243.69
589.812	264.69
590.022	272.69
590.232	267.69
590.441	249.69
590.651	258.69
590.861	263.69
591.071	264.69
591.281	265.69
591.49	276.69
591.7	262.69
591.91	272.69
592.119	265.69
592.329	276.69
592.539	280.69
592.748	281.69
592.958	283.69
593.167	280.69
593.377	290.69
593.587	283.69
593.796	282.69
594.006	261.69
594.215	280.69
594.424	289.69
594.634	275.69
594.843	262.69
595.053	278.69
595.262	264.69
595.472	272.69
595.681	262.69
595.89	274.69
596.1	279.69
596.309	261.69
596.518	263.69
596.727	252.69
596.937	257.69
597.146	257.69
597.355	245.69
597.564	253.69
597.774	232.69
597.983	247.69
598.192	244.69
598.401	241.69
598.61	241.69
598.819	246.69
599.028	245.69
599.237	251.69
599.446	259.69
599.655	243.69
599.864	244.69
600.073	231.69
600.282	234.69
600.491	242.69
600.7	236.69
600.909	237.69
601.118	230.69
601.327	248.69
601.536	232.69
601.745	232.69
601.953	238.69
602.162	236.69
602.371	225.69
602.58	228.69
602.789	222.69
602.997	226.69
603.206	235.69
603.415	227.69
603.623	214.69
603.832	224.69
604.041	208.69
604.249	242.69
604.458	230.69
604.666	241.69
604.875	208.69
605.084	222.69
605.292	234.69
605.501	224.69
605.709	216.69
605.918	218.69
606.126	219.69
606.334	220.69
606.543	228.69
606.751	235.69
606.96	224.69
607.168	214.69
607.376	221.69
607.585	211.69
607.793	226.69
608.001	222.69
608.21	218.69
608.418	225.69
608.626	210.69
608.834	215.69
609.043	235.69
609.251	233.69
609.459	223.69
609.667	220.69
609.875	225.69
610.083	215.69
610.291	208.69
610.499	222.69
610.707	207.69
610.916	222.69
611.124	230.69
611.332	225.69
611.54	227.69
611.748	231.69
611.955	232.69
612.163	235.69
612.371	219.69
612.579	224.69
612.787	215.69
612.995	239.69
613.203	220.69
613.411	206.69
613.618	218.69
613.826	224.69
614.034	206.69
614.242	216.69
614.449	199.69
614.657	214.69
614.865	202.69
615.072	207.69
615.28	208.69
615.488	212.69
615.695	226.69
615.903	218.69
616.111	232.69
616.318	208.69
616.526	225.69
616.733	223.69
616.941	211.69
617.148	232.69
617.356	226.69
617.563	222.69
617.771	219.69
617.978	212.69
618.185	216.69
618.393	203.69
618.6	202.69
618.807	215.69
619.015	211.69
619.222	209.69
619.429	218.69
619.637	203.69
619.844	223.69
620.051	196.69
620.258	206.69
620.466	197.69
620.673	225.69
620.88	205.69
621.087	194.69
621.294	193.69
621.501	203.69
621.708	187.69
621.915	192.69
622.122	215.69
622.329	214.69
622.536	195.69
622.743	206.69
622.95	196.69
623.157	203.69
623.364	214.69
623.571	206.69
623.778	210.69
623.985	198.69
624.192	186.69
624.399	203.69
624.606	196.69
624.812	208.69
625.019	192.69
625.226	192.69
625.433	198.69
625.639	200.69
625.846	203.69
626.053	188.69
626.259	183.69
626.466	188.69
626.673	194.69
626.879	182.69
627.086	194.69
627.293	187.69
627.499	178.69
627.706	181.69
627.912	185.69
628.119	196.69
628.325	176.69
628.532	170.69
628.738	186.69
628.945	189.69
629.151	181.69
629.357	174.69
629.564	188.69
629.77	187.69
629.976	183.69
630.183	185.69
630.389	188.69
630.595	177.69
630.802	194.69
631.008	171.69
631.214	199.69
631.42	186.69
631.627	188.69
631.833	179.69
632.039	169.69
632.245	180.69
632.451	170.69
632.657	190.69
632.863	183.69
633.069	178.69
633.275	186.69
633.481	179.69
633.688	176.69
633.893	176.69
634.099	184.69
634.305	165.69
634.511	164.69
634.717	174.69
634.923	180.69
635.129	160.69
635.335	170.69
635.541	159.69
635.747	171.69
635.952	170.69
636.158	181.69
636.364	167.69
636.57	192.69
636.775	179.69
636.981	169.69
637.187	192.69
637.392	171.69
637.598	174.69
637.804	176.69
638.009	163.69
638.215	163.69
638.421	156.69
638.626	155.69
638.832	160.69
639.037	154.69
639.243	156.69
639.448	167.69
639.654	170.69
639.859	158.69
640.065	167.69
640.27	161.69
640.475	160.69
640.681	169.69
640.886	156.69
641.091	161.69
641.297	158.69
641.502	174.69
641.707	159.69
641.913	153.69
642.118	152.69
642.323	163.69
642.528	153.69
642.733	153.69
642.939	143.69
643.144	171.69
643.349	159.69
643.554	159.69
643.759	159.69
643.964	154.69
644.169	143.69
644.374	158.69
644.579	152.69
644.784	152.69
644.989	152.69
645.194	160.69
645.399	158.69
645.604	160.69
645.809	152.69
646.014	143.69
646.219	149.69
646.423	146.69
646.628	154.69
646.833	172.69
647.038	156.69
647.243	162.69
647.447	171.69
647.652	137.69
647.857	154.69
648.062	164.69
648.266	154.69
648.471	161.69
648.676	164.69
648.88	143.69
649.085	156.69
649.289	163.69
649.494	142.69
649.698	167.69
649.903	180.69
650.107	174.69
650.312	158.69
650.516	126.69
650.721	156.69
650.925	159.69
651.13	142.69
651.334	155.69
651.539	160.69
651.743	132.69
651.947	126.69
652.152	142.69
652.356	139.69
652.56	143.69
652.764	124.69
652.969	150.69
653.173	145.69
653.377	126.69
653.581	119.69
653.785	123.69
653.99	127.69
654.194	134.69
654.398	138.69
654.602	131.69
654.806	127.69
655.01	130.69
655.214	117.69
655.418	124.69
655.622	129.69
655.826	134.69
656.03	126.69
656.234	126.69
656.438	136.69
656.642	132.69
656.846	122.69
657.049	124.69
657.253	108.69
657.457	130.69
657.661	102.69
657.865	112.69
658.068	109.69
658.272	103.69
658.476	102.69
658.68	92.69
658.883	103.69
659.087	103.69
659.291	82.69
659.494	90.69
659.698	98.69
659.901	91.69
660.105	94.69
660.309	89.69
660.512	88.69
660.716	88.69
660.919	92.69
661.123	93.69
661.326	82.69
661.53	99.69
661.733	94.69
661.936	89.69
662.14	84.69
662.343	84.69
662.546	86.69
662.75	75.69
662.953	72.69
663.156	80.69
663.36	82.69
663.563	94.69
663.766	95.69
663.969	75.69
664.173	72.69
664.376	82.69
664.579	75.69
664.782	88.69
664.985	94.69
665.188	81.69
665.391	86.69
665.594	87.69
665.797	75.69
666	99.69
666.203	75.69
666.406	74.69
666.609	77.69
666.812	72.69
667.015	71.69
667.218	92.69
667.421	86.69
667.624	66.69
667.827	76.69
668.03	73.69
668.232	80.69
668.435	81.69
668.638	75.69
668.841	75.69
669.043	92.69
669.246	68.69
669.449	67.69
669.651	79.69
669.854	70.69
670.057	83.69
670.259	71.69
670.462	79.69
670.665	90.69
670.867	88.69
671.07	81.69
671.272	78.69
671.475	84.69
671.677	86.69
671.88	90.69
672.082	90.69
672.284	74.69
672.487	79.69
672.689	69.69
672.892	76.69
