Data from 1989.PennyLincolnUp.Lamp.En5.5.200Scan.071819.P2_HRD10591_17-26-19-975.txt Node
Date: Thu Jul 18 17:26:19 EDT 2019
User: cochatt
Spectrometer: HR+D1059
Trigger mode: 1
Integration Time (sec): 1.000000E-1
Scans to average: 1
Electric dark correction enabled: true
Nonlinearity correction enabled: false
Boxcar width: 0
XAxis mode: Wavelengths
Number of Pixels in Spectrum: 2048
>>>>>Begin Spectral Data<<<<<
223.165	-6.62
223.4	-6.62
223.635	-6.62
223.869	-13.62
224.104	-16.62
224.338	-16.62
224.573	-7.62
224.808	-26.62
225.042	-11.62
225.277	-13.62
225.511	0.38
225.746	-0.62
225.98	2.38
226.215	3.38
226.449	16.38
226.683	26.38
226.918	30.38
227.152	34.38
227.387	32.38
227.621	28.38
227.856	28.38
228.09	53.38
228.324	63.38
228.559	54.38
228.793	78.38
229.027	107.38
229.262	103.38
229.496	128.38
229.73	137.38
229.964	176.38
230.199	119.38
230.433	127.38
230.667	131.38
230.901	122.38
231.136	96.38
231.37	109.38
231.604	116.38
231.838	108.38
232.072	123.38
232.306	123.38
232.541	121.38
232.775	114.38
233.009	128.38
233.243	131.38
233.477	109.38
233.711	117.38
233.945	109.38
234.179	128.38
234.413	116.38
234.647	118.38
234.881	116.38
235.115	123.38
235.349	114.38
235.583	120.38
235.817	116.38
236.051	135.38
236.285	134.38
236.519	117.38
236.753	135.38
236.987	161.38
237.221	196.38
237.455	263.38
237.689	214.38
237.922	156.38
238.156	154.38
238.39	143.38
238.624	144.38
238.858	114.38
239.091	122.38
239.325	133.38
239.559	138.38
239.793	127.38
240.027	143.38
240.26	148.38
240.494	159.38
240.728	167.38
240.961	145.38
241.195	156.38
241.429	145.38
241.662	140.38
241.896	153.38
242.13	152.38
242.363	142.38
242.597	138.38
242.83	152.38
243.064	141.38
243.298	140.38
243.531	161.38
243.765	146.38
243.998	149.38
244.232	152.38
244.465	149.38
244.699	150.38
244.932	154.38
245.166	152.38
245.399	143.38
245.633	146.38
245.866	137.38
246.099	148.38
246.333	149.38
246.566	157.38
246.8	160.38
247.033	177.38
247.266	157.38
247.5	174.38
247.733	181.38
247.966	185.38
248.2	187.38
248.433	187.38
248.666	189.38
248.899	198.38
249.133	226.38
249.366	239.38
249.599	217.38
249.832	206.38
250.066	193.38
250.299	223.38
250.532	228.38
250.765	244.38
250.998	261.38
251.231	261.38
251.465	243.38
251.698	233.38
251.931	227.38
252.164	211.38
252.397	212.38
252.63	219.38
252.863	235.38
253.096	220.38
253.329	234.38
253.562	258.38
253.795	226.38
254.028	251.38
254.261	253.38
254.494	257.38
254.727	289.38
254.96	314.38
255.193	305.38
255.426	273.38
255.659	265.38
255.892	284.38
256.124	288.38
256.357	293.38
256.59	281.38
256.823	272.38
257.056	251.38
257.289	245.38
257.521	257.38
257.754	243.38
257.987	249.38
258.22	232.38
258.452	235.38
258.685	233.38
258.918	239.38
259.151	230.38
259.383	230.38
259.616	256.38
259.849	244.38
260.081	266.38
260.314	289.38
260.547	303.38
260.779	297.38
261.012	260.38
261.244	260.38
261.477	250.38
261.71	250.38
261.942	259.38
262.175	259.38
262.407	246.38
262.64	244.38
262.872	246.38
263.105	231.38
263.337	234.38
263.57	240.38
263.802	239.38
264.035	226.38
264.267	237.38
264.499	242.38
264.732	228.38
264.964	227.38
265.197	237.38
265.429	231.38
265.661	243.38
265.894	250.38
266.126	228.38
266.358	251.38
266.591	253.38
266.823	247.38
267.055	248.38
267.287	254.38
267.52	251.38
267.752	263.38
267.984	245.38
268.216	257.38
268.448	255.38
268.681	251.38
268.913	289.38
269.145	288.38
269.377	332.38
269.609	307.38
269.841	308.38
270.073	293.38
270.306	329.38
270.538	371.38
270.77	349.38
271.002	359.38
271.234	329.38
271.466	348.38
271.698	355.38
271.93	366.38
272.162	357.38
272.394	351.38
272.626	360.38
272.858	313.38
273.09	310.38
273.322	291.38
273.553	300.38
273.785	295.38
274.017	301.38
274.249	289.38
274.481	289.38
274.713	292.38
274.945	294.38
275.176	308.38
275.408	307.38
275.64	309.38
275.872	309.38
276.104	289.38
276.335	313.38
276.567	303.38
276.799	325.38
277.031	360.38
277.262	342.38
277.494	356.38
277.726	354.38
277.957	306.38
278.189	303.38
278.421	310.38
278.652	310.38
278.884	311.38
279.115	303.38
279.347	298.38
279.579	295.38
279.81	310.38
280.042	292.38
280.273	289.38
280.505	296.38
280.736	310.38
280.968	292.38
281.199	296.38
281.431	297.38
281.662	299.38
281.894	284.38
282.125	284.38
282.356	308.38
282.588	342.38
282.819	357.38
283.051	312.38
283.282	287.38
283.513	307.38
283.745	306.38
283.976	301.38
284.207	310.38
284.439	313.38
284.67	294.38
284.901	315.38
285.132	322.38
285.364	326.38
285.595	304.38
285.826	293.38
286.057	294.38
286.288	308.38
286.52	289.38
286.751	321.38
286.982	310.38
287.213	307.38
287.444	317.38
287.675	307.38
287.906	320.38
288.138	330.38
288.369	332.38
288.6	351.38
288.831	347.38
289.062	320.38
289.293	315.38
289.524	308.38
289.755	311.38
289.986	305.38
290.217	317.38
290.448	319.38
290.679	312.38
290.91	314.38
291.141	306.38
291.371	316.38
291.602	326.38
291.833	316.38
292.064	311.38
292.295	317.38
292.526	328.38
292.757	310.38
292.987	311.38
293.218	309.38
293.449	322.38
293.68	301.38
293.91	319.38
294.141	313.38
294.372	315.38
294.603	323.38
294.833	320.38
295.064	323.38
295.295	327.38
295.525	344.38
295.756	333.38
295.987	330.38
296.217	352.38
296.448	376.38
296.679	329.38
296.909	333.38
297.14	305.38
297.37	308.38
297.601	332.38
297.831	335.38
298.062	324.38
298.292	323.38
298.523	337.38
298.753	332.38
298.984	330.38
299.214	319.38
299.445	341.38
299.675	341.38
299.905	347.38
300.136	337.38
300.366	331.38
300.597	341.38
300.827	363.38
301.057	359.38
301.288	337.38
301.518	346.38
301.748	348.38
301.979	330.38
302.209	360.38
302.439	353.38
302.669	366.38
302.9	346.38
303.13	350.38
303.36	376.38
303.59	345.38
303.82	367.38
304.051	357.38
304.281	339.38
304.511	340.38
304.741	359.38
304.971	336.38
305.201	341.38
305.431	358.38
305.661	348.38
305.891	353.38
306.121	375.38
306.352	365.38
306.582	375.38
306.812	368.38
307.042	351.38
307.272	354.38
307.502	349.38
307.731	370.38
307.961	381.38
308.191	381.38
308.421	362.38
308.651	369.38
308.881	371.38
309.111	376.38
309.341	367.38
309.571	395.38
309.8	389.38
310.03	407.38
310.26	418.38
310.49	435.38
310.72	430.38
310.949	410.38
311.179	447.38
311.409	443.38
311.639	417.38
311.868	430.38
312.098	417.38
312.328	412.38
312.557	435.38
312.787	467.38
313.017	448.38
313.246	436.38
313.476	410.38
313.706	416.38
313.935	437.38
314.165	446.38
314.394	434.38
314.624	429.38
314.853	446.38
315.083	407.38
315.312	410.38
315.542	405.38
315.771	390.38
316.001	409.38
316.23	393.38
316.46	426.38
316.689	402.38
316.919	429.38
317.148	445.38
317.377	446.38
317.607	447.38
317.836	415.38
318.065	413.38
318.295	417.38
318.524	426.38
318.753	413.38
318.983	395.38
319.212	416.38
319.441	432.38
319.67	457.38
319.9	427.38
320.129	417.38
320.358	436.38
320.587	405.38
320.816	434.38
321.046	461.38
321.275	454.38
321.504	449.38
321.733	444.38
321.962	453.38
322.191	483.38
322.42	500.38
322.649	518.38
322.878	486.38
323.108	534.38
323.337	550.38
323.566	586.38
323.795	616.38
324.024	677.38
324.253	821.38
324.482	1208.38
324.71	1843.38
324.939	2632.38
325.168	2299.38
325.397	1194.38
325.626	761.38
325.855	679.38
326.084	584.38
326.313	560.38
326.542	585.38
326.77	641.38
326.999	762.38
327.228	1074.38
327.457	1651.38
327.686	1999.38
327.914	1350.38
328.143	875.38
328.372	730.38
328.6	727.38
328.829	666.38
329.058	674.38
329.287	709.38
329.515	687.38
329.744	587.38
329.972	634.38
330.201	657.38
330.43	727.38
330.658	742.38
330.887	749.38
331.115	721.38
331.344	606.38
331.572	565.38
331.801	594.38
332.03	560.38
332.258	560.38
332.486	522.38
332.715	501.38
332.943	512.38
333.172	522.38
333.4	526.38
333.629	529.38
333.857	539.38
334.085	566.38
334.314	625.38
334.542	711.38
334.771	716.38
334.999	613.38
335.227	561.38
335.455	535.38
335.684	517.38
335.912	491.38
336.14	511.38
336.369	499.38
336.597	505.38
336.825	495.38
337.053	507.38
337.281	482.38
337.51	490.38
337.738	479.38
337.966	451.38
338.194	481.38
338.422	490.38
338.65	473.38
338.878	454.38
339.106	477.38
339.334	466.38
339.562	462.38
339.79	445.38
340.018	437.38
340.246	482.38
340.474	479.38
340.702	453.38
340.93	455.38
341.158	457.38
341.386	447.38
341.614	442.38
341.842	469.38
342.07	465.38
342.298	474.38
342.526	450.38
342.754	431.38
342.981	432.38
343.209	447.38
343.437	460.38
343.665	452.38
343.893	461.38
344.12	465.38
344.348	469.38
344.576	450.38
344.804	458.38
345.031	465.38
345.259	469.38
345.487	482.38
345.714	444.38
345.942	419.38
346.17	458.38
346.397	443.38
346.625	440.38
346.853	423.38
347.08	449.38
347.308	457.38
347.535	466.38
347.763	441.38
347.99	471.38
348.218	463.38
348.445	463.38
348.673	477.38
348.9	453.38
349.128	447.38
349.355	425.38
349.583	439.38
349.81	425.38
350.037	421.38
350.265	421.38
350.492	411.38
350.72	442.38
350.947	425.38
351.174	443.38
351.402	435.38
351.629	439.38
351.856	448.38
352.083	447.38
352.311	458.38
352.538	478.38
352.765	466.38
352.992	452.38
353.22	415.38
353.447	431.38
353.674	445.38
353.901	415.38
354.128	431.38
354.355	411.38
354.583	410.38
354.81	422.38
355.037	416.38
355.264	389.38
355.491	403.38
355.718	416.38
355.945	401.38
356.172	392.38
356.399	400.38
356.626	414.38
356.853	403.38
357.08	406.38
357.307	413.38
357.534	395.38
357.761	406.38
357.988	394.38
358.215	375.38
358.441	414.38
358.668	401.38
358.895	399.38
359.122	408.38
359.349	417.38
359.576	418.38
359.802	471.38
360.029	521.38
360.256	498.38
360.483	491.38
360.709	435.38
360.936	447.38
361.163	429.38
361.39	424.38
361.616	466.38
361.843	433.38
362.07	410.38
362.296	429.38
362.523	441.38
362.749	443.38
362.976	433.38
363.203	416.38
363.429	409.38
363.656	410.38
363.882	418.38
364.109	425.38
364.335	393.38
364.562	413.38
364.788	417.38
365.015	414.38
365.241	417.38
365.468	409.38
365.694	435.38
365.92	425.38
366.147	426.38
366.373	415.38
366.599	395.38
366.826	413.38
367.052	408.38
367.278	406.38
367.505	423.38
367.731	414.38
367.957	411.38
368.184	410.38
368.41	409.38
368.636	422.38
368.862	436.38
369.089	426.38
369.315	406.38
369.541	387.38
369.767	406.38
369.993	382.38
370.219	389.38
370.445	397.38
370.672	403.38
370.898	411.38
371.124	408.38
371.35	397.38
371.576	384.38
371.802	409.38
372.028	384.38
372.254	377.38
372.48	398.38
372.706	413.38
372.932	398.38
373.158	392.38
373.384	403.38
373.61	380.38
373.835	397.38
374.061	397.38
374.287	404.38
374.513	418.38
374.739	403.38
374.965	379.38
375.191	403.38
375.416	402.38
375.642	410.38
375.868	417.38
376.094	390.38
376.319	401.38
376.545	395.38
376.771	394.38
376.997	373.38
377.222	390.38
377.448	362.38
377.674	393.38
377.899	377.38
378.125	380.38
378.35	381.38
378.576	405.38
378.802	390.38
379.027	382.38
379.253	392.38
379.478	381.38
379.704	381.38
379.929	385.38
380.155	397.38
380.38	395.38
380.606	392.38
380.831	384.38
381.057	381.38
381.282	401.38
381.507	384.38
381.733	387.38
381.958	368.38
382.184	399.38
382.409	393.38
382.634	392.38
382.86	389.38
383.085	410.38
383.31	405.38
383.535	410.38
383.761	403.38
383.986	408.38
384.211	396.38
384.436	416.38
384.662	394.38
384.887	408.38
385.112	406.38
385.337	423.38
385.562	390.38
385.787	410.38
386.013	420.38
386.238	420.38
386.463	426.38
386.688	402.38
386.913	405.38
387.138	434.38
387.363	413.38
387.588	425.38
387.813	420.38
388.038	417.38
388.263	413.38
388.488	422.38
388.713	425.38
388.938	413.38
389.163	416.38
389.387	446.38
389.612	410.38
389.837	420.38
390.062	439.38
390.287	435.38
390.512	418.38
390.736	419.38
390.961	394.38
391.186	410.38
391.411	434.38
391.636	437.38
391.86	433.38
392.085	424.38
392.31	416.38
392.534	409.38
392.759	406.38
392.984	433.38
393.208	391.38
393.433	398.38
393.658	417.38
393.882	411.38
394.107	408.38
394.331	417.38
394.556	418.38
394.78	401.38
395.005	421.38
395.229	420.38
395.454	435.38
395.678	423.38
395.903	432.38
396.127	440.38
396.352	448.38
396.576	408.38
396.801	433.38
397.025	408.38
397.249	413.38
397.474	433.38
397.698	447.38
397.922	454.38
398.147	465.38
398.371	473.38
398.595	443.38
398.82	459.38
399.044	471.38
399.268	488.38
399.492	499.38
399.717	527.38
399.941	555.38
400.165	569.38
400.389	589.38
400.613	554.38
400.837	521.38
401.062	480.38
401.286	464.38
401.51	465.38
401.734	448.38
401.958	451.38
402.182	467.38
402.406	511.38
402.63	485.38
402.854	453.38
403.078	494.38
403.302	493.38
403.526	489.38
403.75	500.38
403.974	489.38
404.198	493.38
404.422	493.38
404.645	514.38
404.869	518.38
405.093	547.38
405.317	634.38
405.541	648.38
405.765	576.38
405.988	553.38
406.212	559.38
406.436	521.38
406.66	559.38
406.883	543.38
407.107	558.38
407.331	593.38
407.555	657.38
407.778	680.38
408.002	610.38
408.226	550.38
408.449	539.38
408.673	546.38
408.896	583.38
409.12	606.38
409.344	589.38
409.567	521.38
409.791	518.38
410.014	503.38
410.238	510.38
410.461	485.38
410.685	493.38
410.908	523.38
411.132	529.38
411.355	581.38
411.578	563.38
411.802	534.38
412.025	481.38
412.249	523.38
412.472	555.38
412.695	618.38
412.919	583.38
413.142	549.38
413.365	509.38
413.589	496.38
413.812	505.38
414.035	467.38
414.258	480.38
414.482	470.38
414.705	468.38
414.928	462.38
415.151	432.38
415.374	452.38
415.597	442.38
415.821	448.38
416.044	468.38
416.267	463.38
416.49	455.38
416.713	459.38
416.936	469.38
417.159	458.38
417.382	465.38
417.605	455.38
417.828	488.38
418.051	503.38
418.274	485.38
418.497	468.38
418.72	463.38
418.943	461.38
419.166	484.38
419.389	470.38
419.611	494.38
419.834	477.38
420.057	486.38
420.28	507.38
420.503	517.38
420.726	489.38
420.948	510.38
421.171	570.38
421.394	599.38
421.617	519.38
421.839	482.38
422.062	480.38
422.285	513.38
422.507	548.38
422.73	637.38
422.953	621.38
423.175	517.38
423.398	518.38
423.621	524.38
423.843	519.38
424.066	543.38
424.288	540.38
424.511	536.38
424.733	605.38
424.956	691.38
425.178	651.38
425.401	665.38
425.623	694.38
425.846	569.38
426.068	529.38
426.291	515.38
426.513	541.38
426.735	545.38
426.958	563.38
427.18	674.38
427.402	811.38
427.625	875.38
427.847	816.38
428.069	724.38
428.292	633.38
428.514	549.38
428.736	529.38
428.958	524.38
429.181	489.38
429.403	490.38
429.625	495.38
429.847	531.38
430.069	619.38
430.292	596.38
430.514	513.38
430.736	495.38
430.958	485.38
431.18	478.38
431.402	454.38
431.624	457.38
431.846	457.38
432.068	443.38
432.29	452.38
432.512	454.38
432.734	461.38
432.956	444.38
433.178	474.38
433.4	463.38
433.622	463.38
433.844	457.38
434.066	454.38
434.287	443.38
434.509	469.38
434.731	449.38
434.953	462.38
435.175	479.38
435.397	516.38
435.618	545.38
435.84	586.38
436.062	671.38
436.284	766.38
436.505	612.38
436.727	546.38
436.949	513.38
437.17	494.38
437.392	509.38
437.614	505.38
437.835	549.38
438.057	643.38
438.278	753.38
438.5	782.38
438.721	823.38
438.943	821.38
439.165	638.38
439.386	574.38
439.608	537.38
439.829	547.38
440.05	569.38
440.272	629.38
440.493	601.38
440.715	521.38
440.936	521.38
441.158	479.38
441.379	481.38
441.6	518.38
441.822	525.38
442.043	581.38
442.264	655.38
442.486	710.38
442.707	605.38
442.928	558.38
443.149	548.38
443.371	581.38
443.592	619.38
443.813	699.38
444.034	789.38
444.255	618.38
444.476	561.38
444.698	552.38
444.919	527.38
445.14	629.38
445.361	606.38
445.582	575.38
445.803	657.38
446.024	779.38
446.245	776.38
446.466	695.38
446.687	609.38
446.908	534.38
447.129	499.38
447.35	488.38
447.571	484.38
447.792	482.38
448.013	507.38
448.234	509.38
448.455	581.38
448.675	695.38
448.896	796.38
449.117	680.38
449.338	633.38
449.559	733.38
449.779	869.38
450	700.38
450.221	539.38
450.442	527.38
450.662	476.38
450.883	517.38
451.104	531.38
451.324	525.38
451.545	488.38
451.766	442.38
451.986	449.38
452.207	444.38
452.428	437.38
452.648	434.38
452.869	443.38
453.089	463.38
453.31	466.38
453.53	462.38
453.751	450.38
453.971	452.38
454.192	477.38
454.412	431.38
454.633	462.38
454.853	429.38
455.073	438.38
455.294	467.38
455.514	536.38
455.734	545.38
455.955	458.38
456.175	410.38
456.395	403.38
456.616	409.38
456.836	413.38
457.056	401.38
457.276	407.38
457.497	417.38
457.717	411.38
457.937	396.38
458.157	427.38
458.377	421.38
458.598	441.38
458.818	523.38
459.038	602.38
459.258	625.38
459.478	501.38
459.698	468.38
459.918	449.38
460.138	438.38
460.358	449.38
460.578	442.38
460.798	457.38
461.018	459.38
461.238	449.38
461.458	458.38
461.678	437.38
461.898	440.38
462.118	471.38
462.338	454.38
462.558	474.38
462.777	453.38
462.997	472.38
463.217	491.38
463.437	488.38
463.657	467.38
463.876	439.38
464.096	485.38
464.316	486.38
464.536	496.38
464.755	486.38
464.975	480.38
465.195	535.38
465.414	619.38
465.634	516.38
465.854	489.38
466.073	491.38
466.293	453.38
466.512	435.38
466.732	443.38
466.951	439.38
467.171	414.38
467.391	447.38
467.61	483.38
467.829	466.38
468.049	471.38
468.268	470.38
468.488	457.38
468.707	433.38
468.927	441.38
469.146	431.38
469.365	440.38
469.585	413.38
469.804	442.38
470.023	461.38
470.243	456.38
470.462	479.38
470.681	483.38
470.901	488.38
471.12	474.38
471.339	438.38
471.558	461.38
471.777	458.38
471.997	464.38
472.216	459.38
472.435	548.38
472.654	520.38
472.873	456.38
473.092	468.38
473.311	442.38
473.53	454.38
473.749	464.38
473.968	516.38
474.187	623.38
474.406	646.38
474.625	529.38
474.844	477.38
475.063	466.38
475.282	435.38
475.501	449.38
475.72	495.38
475.939	468.38
476.158	469.38
476.377	453.38
476.596	457.38
476.814	469.38
477.033	471.38
477.252	476.38
477.471	477.38
477.69	465.38
477.908	478.38
478.127	504.38
478.346	467.38
478.564	505.38
478.783	498.38
479.002	512.38
479.22	512.38
479.439	519.38
479.658	529.38
479.876	527.38
480.095	544.38
480.313	577.38
480.532	586.38
480.751	553.38
480.969	581.38
481.188	707.38
481.406	794.38
481.624	641.38
481.843	584.38
482.061	564.38
482.28	555.38
482.498	552.38
482.717	541.38
482.935	542.38
483.153	541.38
483.372	533.38
483.59	517.38
483.808	549.38
484.027	527.38
484.245	544.38
484.463	543.38
484.681	513.38
484.9	539.38
485.118	538.38
485.336	549.38
485.554	554.38
485.772	566.38
485.99	568.38
486.209	571.38
486.427	569.38
486.645	584.38
486.863	617.38
487.081	598.38
487.299	585.38
487.517	574.38
487.735	553.38
487.953	589.38
488.171	579.38
488.389	596.38
488.607	593.38
488.825	580.38
489.043	580.38
489.261	586.38
489.479	587.38
489.696	589.38
489.914	597.38
490.132	582.38
490.35	596.38
490.568	610.38
490.786	633.38
491.003	637.38
491.221	658.38
491.439	675.38
491.657	651.38
491.874	657.38
492.092	690.38
492.31	687.38
492.527	712.38
492.745	698.38
492.963	704.38
493.18	697.38
493.398	672.38
493.615	685.38
493.833	697.38
494.05	692.38
494.268	706.38
494.485	678.38
494.703	677.38
494.92	673.38
495.138	701.38
495.355	697.38
495.573	697.38
495.79	723.38
496.008	689.38
496.225	693.38
496.442	669.38
496.66	683.38
496.877	692.38
497.094	710.38
497.312	677.38
497.529	677.38
497.746	696.38
497.963	689.38
498.181	715.38
498.398	745.38
498.615	740.38
498.832	718.38
499.049	774.38
499.267	766.38
499.484	753.38
499.701	802.38
499.918	819.38
500.135	852.38
500.352	845.38
500.569	876.38
500.786	907.38
501.003	884.38
501.22	863.38
501.437	817.38
501.654	815.38
501.871	853.38
502.088	806.38
502.305	767.38
502.522	741.38
502.739	721.38
502.956	730.38
503.172	714.38
503.389	704.38
503.606	695.38
503.823	703.38
504.04	687.38
504.256	690.38
504.473	695.38
504.69	662.38
504.907	663.38
505.123	638.38
505.34	651.38
505.557	655.38
505.773	635.38
505.99	651.38
506.207	639.38
506.423	648.38
506.64	639.38
506.856	663.38
507.073	614.38
507.289	632.38
507.506	645.38
507.722	630.38
507.939	651.38
508.155	648.38
508.372	629.38
508.588	640.38
508.805	629.38
509.021	634.38
509.238	657.38
509.454	663.38
509.67	674.38
509.887	613.38
510.103	625.38
510.319	657.38
510.536	776.38
510.752	1295.38
510.968	1062.38
511.184	681.38
511.401	649.38
511.617	627.38
511.833	595.38
512.049	605.38
512.265	600.38
512.481	593.38
512.698	596.38
512.914	605.38
513.13	617.38
513.346	596.38
513.562	584.38
513.778	588.38
513.994	592.38
514.21	638.38
514.426	655.38
514.642	683.38
514.858	710.38
515.074	759.38
515.29	927.38
515.506	1375.38
515.721	1126.38
515.937	745.38
516.153	680.38
516.369	641.38
516.585	615.38
516.801	590.38
517.016	624.38
517.232	621.38
517.448	593.38
517.664	616.38
517.879	609.38
518.095	593.38
518.311	590.38
518.527	597.38
518.742	583.38
518.958	588.38
519.173	583.38
519.389	591.38
519.605	580.38
519.82	604.38
520.036	616.38
520.251	633.38
520.467	661.38
520.682	659.38
520.898	665.38
521.113	675.38
521.329	733.38
521.544	838.38
521.76	1096.38
521.975	1830.38
522.19	1764.38
522.406	941.38
522.621	717.38
522.836	645.38
523.052	625.38
523.267	566.38
523.482	547.38
523.698	551.38
523.913	540.38
524.128	544.38
524.343	546.38
524.559	544.38
524.774	511.38
524.989	516.38
525.204	507.38
525.419	531.38
525.634	498.38
525.849	469.38
526.064	480.38
526.28	505.38
526.495	474.38
526.71	492.38
526.925	461.38
527.14	497.38
527.355	470.38
527.57	489.38
527.785	475.38
527.999	471.38
528.214	481.38
528.429	471.38
528.644	494.38
528.859	469.38
529.074	461.38
529.289	505.38
529.503	587.38
529.718	590.38
529.933	521.38
530.148	491.38
530.363	493.38
530.577	496.38
530.792	478.38
531.007	485.38
531.221	475.38
531.436	459.38
531.651	447.38
531.865	462.38
532.08	468.38
532.295	447.38
532.509	452.38
532.724	451.38
532.938	450.38
533.153	443.38
533.367	443.38
533.582	448.38
533.796	445.38
534.011	444.38
534.225	444.38
534.44	456.38
534.654	432.38
534.868	430.38
535.083	441.38
535.297	447.38
535.511	459.38
535.726	434.38
535.94	442.38
536.154	433.38
536.369	450.38
536.583	425.38
536.797	424.38
537.011	451.38
537.225	441.38
537.44	436.38
537.654	437.38
537.868	433.38
538.082	425.38
538.296	433.38
538.51	426.38
538.724	425.38
538.938	453.38
539.153	440.38
539.367	469.38
539.581	454.38
539.795	414.38
540.009	465.38
540.222	425.38
540.436	425.38
540.65	415.38
540.864	445.38
541.078	454.38
541.292	447.38
541.506	433.38
541.72	453.38
541.934	412.38
542.147	407.38
542.361	439.38
542.575	425.38
542.789	414.38
543.002	420.38
543.216	425.38
543.43	429.38
543.644	443.38
543.857	445.38
544.071	449.38
544.285	414.38
544.498	426.38
544.712	437.38
544.925	421.38
545.139	451.38
545.352	433.38
545.566	406.38
545.779	433.38
545.993	409.38
546.206	431.38
546.42	426.38
546.633	407.38
546.847	408.38
547.06	400.38
547.274	396.38
547.487	403.38
547.7	403.38
547.914	423.38
548.127	391.38
548.34	407.38
548.554	422.38
548.767	407.38
548.98	394.38
549.193	383.38
549.407	400.38
549.62	402.38
549.833	400.38
550.046	391.38
550.259	403.38
550.473	399.38
550.686	399.38
550.899	392.38
551.112	390.38
551.325	385.38
551.538	389.38
551.751	382.38
551.964	374.38
552.177	385.38
552.39	394.38
552.603	394.38
552.816	414.38
553.029	399.38
553.242	418.38
553.455	410.38
553.667	440.38
553.88	435.38
554.093	410.38
554.306	410.38
554.519	403.38
554.732	405.38
554.944	398.38
555.157	385.38
555.37	369.38
555.583	386.38
555.795	372.38
556.008	383.38
556.221	372.38
556.433	352.38
556.646	368.38
556.859	379.38
557.071	378.38
557.284	369.38
557.496	375.38
557.709	334.38
557.921	383.38
558.134	376.38
558.346	362.38
558.559	372.38
558.771	339.38
558.984	367.38
559.196	360.38
559.409	350.38
559.621	365.38
559.833	355.38
560.046	357.38
560.258	375.38
560.47	361.38
560.683	348.38
560.895	373.38
561.107	357.38
561.32	329.38
561.532	370.38
561.744	365.38
561.956	352.38
562.168	356.38
562.381	374.38
562.593	361.38
562.805	355.38
563.017	378.38
563.229	379.38
563.441	361.38
563.653	352.38
563.865	337.38
564.077	338.38
564.289	369.38
564.501	366.38
564.713	357.38
564.925	381.38
565.137	396.38
565.349	388.38
565.561	388.38
565.773	398.38
565.985	389.38
566.197	374.38
566.408	391.38
566.62	406.38
566.832	401.38
567.044	415.38
567.255	437.38
567.467	406.38
567.679	417.38
567.891	427.38
568.102	411.38
568.314	400.38
568.526	418.38
568.737	405.38
568.949	410.38
569.161	372.38
569.372	371.38
569.584	365.38
569.795	370.38
570.007	363.38
570.218	397.38
570.43	406.38
570.641	362.38
570.853	334.38
571.064	338.38
571.276	347.38
571.487	363.38
571.698	334.38
571.91	340.38
572.121	327.38
572.333	313.38
572.544	317.38
572.755	321.38
572.966	335.38
573.178	319.38
573.389	317.38
573.6	321.38
573.811	313.38
574.023	325.38
574.234	312.38
574.445	319.38
574.656	308.38
574.867	314.38
575.078	308.38
575.289	306.38
575.501	296.38
575.712	303.38
575.923	307.38
576.134	321.38
576.345	295.38
576.556	305.38
576.767	285.38
576.978	316.38
577.188	305.38
577.399	312.38
577.61	305.38
577.821	303.38
578.032	310.38
578.243	338.38
578.454	566.38
578.665	421.38
578.875	307.38
579.086	291.38
579.297	307.38
579.508	287.38
579.718	286.38
579.929	286.38
580.14	288.38
580.35	289.38
580.561	294.38
580.772	285.38
580.982	272.38
581.193	271.38
581.403	289.38
581.614	282.38
581.825	273.38
582.035	292.38
582.246	299.38
582.456	261.38
582.667	277.38
582.877	267.38
583.087	275.38
583.298	279.38
583.508	269.38
583.719	273.38
583.929	302.38
584.139	278.38
584.35	281.38
584.56	269.38
584.77	274.38
584.981	287.38
585.191	279.38
585.401	283.38
585.611	287.38
585.821	275.38
586.032	275.38
586.242	266.38
586.452	265.38
586.662	261.38
586.872	261.38
587.082	262.38
587.292	267.38
587.502	279.38
587.713	272.38
587.923	276.38
588.133	246.38
588.343	261.38
588.553	269.38
588.762	264.38
588.972	278.38
589.182	268.38
589.392	261.38
589.602	262.38
589.812	280.38
590.022	296.38
590.232	259.38
590.441	256.38
590.651	240.38
590.861	266.38
591.071	241.38
591.281	265.38
591.49	278.38
591.7	269.38
591.91	275.38
592.119	277.38
592.329	262.38
592.539	284.38
592.748	279.38
592.958	263.38
593.167	264.38
593.377	263.38
593.587	281.38
593.796	289.38
594.006	274.38
594.215	278.38
594.424	297.38
594.634	278.38
594.843	287.38
595.053	284.38
595.262	275.38
595.472	263.38
595.681	260.38
595.89	262.38
596.1	267.38
596.309	266.38
596.518	255.38
596.727	268.38
596.937	239.38
597.146	255.38
597.355	261.38
597.564	259.38
597.774	271.38
597.983	264.38
598.192	246.38
598.401	246.38
598.61	258.38
598.819	263.38
599.028	237.38
599.237	234.38
599.446	245.38
599.655	266.38
599.864	237.38
600.073	247.38
600.282	246.38
600.491	243.38
600.7	229.38
600.909	253.38
601.118	256.38
601.327	231.38
601.536	221.38
601.745	238.38
601.953	211.38
602.162	261.38
602.371	237.38
602.58	242.38
602.789	232.38
602.997	257.38
603.206	246.38
603.415	228.38
603.623	241.38
603.832	217.38
604.041	233.38
604.249	233.38
604.458	238.38
604.666	237.38
604.875	227.38
605.084	226.38
605.292	225.38
605.501	236.38
605.709	229.38
605.918	234.38
606.126	223.38
606.334	241.38
606.543	228.38
606.751	222.38
606.96	217.38
607.168	223.38
607.376	214.38
607.585	212.38
607.793	229.38
608.001	229.38
608.21	228.38
608.418	222.38
608.626	226.38
608.834	234.38
609.043	224.38
609.251	232.38
609.459	229.38
609.667	235.38
609.875	224.38
610.083	214.38
610.291	211.38
610.499	225.38
610.707	216.38
610.916	222.38
611.124	238.38
611.332	215.38
611.54	231.38
611.748	235.38
611.955	215.38
612.163	206.38
612.371	225.38
612.579	215.38
612.787	226.38
612.995	222.38
613.203	203.38
613.411	206.38
613.618	224.38
613.826	226.38
614.034	211.38
614.242	219.38
614.449	205.38
614.657	202.38
614.865	206.38
615.072	231.38
615.28	209.38
615.488	214.38
615.695	213.38
615.903	232.38
616.111	211.38
616.318	228.38
616.526	227.38
616.733	219.38
616.941	203.38
617.148	215.38
617.356	195.38
617.563	201.38
617.771	222.38
617.978	210.38
618.185	217.38
618.393	206.38
618.6	217.38
618.807	211.38
619.015	216.38
619.222	208.38
619.429	200.38
619.637	200.38
619.844	209.38
620.051	214.38
620.258	207.38
620.466	201.38
620.673	199.38
620.88	204.38
621.087	207.38
621.294	212.38
621.501	202.38
621.708	199.38
621.915	199.38
622.122	207.38
622.329	205.38
622.536	216.38
622.743	202.38
622.95	187.38
623.157	210.38
623.364	192.38
623.571	192.38
623.778	195.38
623.985	212.38
624.192	195.38
624.399	196.38
624.606	201.38
624.812	183.38
625.019	193.38
625.226	179.38
625.433	190.38
625.639	211.38
625.846	181.38
626.053	206.38
626.259	201.38
626.466	186.38
626.673	193.38
626.879	195.38
627.086	195.38
627.293	194.38
627.499	182.38
627.706	181.38
627.912	197.38
628.119	190.38
628.325	187.38
628.532	185.38
628.738	192.38
628.945	201.38
629.151	171.38
629.357	178.38
629.564	177.38
629.77	183.38
629.976	184.38
630.183	181.38
630.389	189.38
630.595	198.38
630.802	165.38
631.008	185.38
631.214	184.38
631.42	171.38
631.627	192.38
631.833	179.38
632.039	190.38
632.245	179.38
632.451	166.38
632.657	178.38
632.863	180.38
633.069	167.38
633.275	183.38
633.481	167.38
633.688	181.38
633.893	177.38
634.099	189.38
634.305	177.38
634.511	179.38
634.717	172.38
634.923	150.38
635.129	161.38
635.335	175.38
635.541	163.38
635.747	173.38
635.952	180.38
636.158	158.38
636.364	170.38
636.57	179.38
636.775	198.38
636.981	173.38
637.187	173.38
637.392	177.38
637.598	174.38
637.804	172.38
638.009	176.38
638.215	162.38
638.421	181.38
638.626	168.38
638.832	173.38
639.037	159.38
639.243	164.38
639.448	159.38
639.654	175.38
639.859	147.38
640.065	140.38
640.27	161.38
640.475	163.38
640.681	158.38
640.886	162.38
641.091	173.38
641.297	169.38
641.502	167.38
641.707	174.38
641.913	158.38
642.118	143.38
642.323	154.38
642.528	158.38
642.733	161.38
642.939	153.38
643.144	170.38
643.349	151.38
643.554	149.38
643.759	159.38
643.964	149.38
644.169	150.38
644.374	159.38
644.579	167.38
644.784	170.38
644.989	149.38
645.194	163.38
645.399	157.38
645.604	149.38
645.809	156.38
646.014	145.38
646.219	138.38
646.423	148.38
646.628	157.38
646.833	175.38
647.038	158.38
647.243	161.38
647.447	172.38
647.652	143.38
647.857	157.38
648.062	158.38
648.266	142.38
648.471	166.38
648.676	161.38
648.88	167.38
649.085	181.38
649.289	151.38
649.494	158.38
649.698	191.38
649.903	181.38
650.107	170.38
650.312	167.38
650.516	147.38
650.721	155.38
650.925	147.38
651.13	145.38
651.334	150.38
651.539	133.38
651.743	141.38
651.947	146.38
652.152	128.38
652.356	121.38
652.56	133.38
652.764	146.38
652.969	149.38
653.173	145.38
653.377	125.38
653.581	130.38
653.785	130.38
653.99	125.38
654.194	119.38
654.398	137.38
654.602	134.38
654.806	125.38
655.01	149.38
655.214	135.38
655.418	129.38
655.622	130.38
655.826	136.38
656.03	149.38
656.234	134.38
656.438	133.38
656.642	121.38
656.846	127.38
657.049	125.38
657.253	111.38
657.457	119.38
657.661	109.38
657.865	119.38
658.068	99.38
658.272	112.38
658.476	101.38
658.68	87.38
658.883	114.38
659.087	96.38
659.291	112.38
659.494	119.38
659.698	88.38
659.901	83.38
660.105	84.38
660.309	93.38
660.512	69.38
660.716	83.38
660.919	93.38
661.123	87.38
661.326	103.38
661.53	103.38
661.733	94.38
661.936	83.38
662.14	77.38
662.343	87.38
662.546	82.38
662.75	89.38
662.953	86.38
663.156	83.38
663.36	94.38
663.563	78.38
663.766	90.38
663.969	80.38
664.173	90.38
664.376	89.38
664.579	75.38
664.782	86.38
664.985	83.38
665.188	95.38
665.391	74.38
665.594	69.38
665.797	81.38
666	74.38
666.203	86.38
666.406	78.38
666.609	84.38
666.812	71.38
667.015	87.38
667.218	81.38
667.421	70.38
667.624	79.38
667.827	84.38
668.03	88.38
668.232	66.38
668.435	59.38
668.638	82.38
668.841	85.38
669.043	65.38
669.246	72.38
669.449	93.38
669.651	81.38
669.854	69.38
670.057	90.38
670.259	80.38
670.462	82.38
670.665	79.38
670.867	82.38
671.07	80.38
671.272	77.38
671.475	85.38
671.677	73.38
671.88	82.38
672.082	72.38
672.284	81.38
672.487	79.38
672.689	62.38
672.892	78.38
