Data from 1989.PennyLincolnUp.Lamp.En5.5.200Scan.071819.P2_HRD10591_17-23-13-973.txt Node
Date: Thu Jul 18 17:23:13 EDT 2019
User: cochatt
Spectrometer: HR+D1059
Trigger mode: 1
Integration Time (sec): 1.000000E-1
Scans to average: 1
Electric dark correction enabled: true
Nonlinearity correction enabled: false
Boxcar width: 0
XAxis mode: Wavelengths
Number of Pixels in Spectrum: 2048
>>>>>Begin Spectral Data<<<<<
223.165	-19.62
223.4	-19.62
223.635	-19.62
223.869	-4.62
224.104	-17.62
224.338	-14.62
224.573	-12.62
224.808	-5.62
225.042	-1.62
225.277	-6.62
225.511	15.38
225.746	1.38
225.98	3.38
226.215	9.38
226.449	9.38
226.683	11.38
226.918	16.38
227.152	16.38
227.387	38.38
227.621	41.38
227.856	41.38
228.09	52.38
228.324	61.38
228.559	52.38
228.793	62.38
229.027	102.38
229.262	93.38
229.496	102.38
229.73	117.38
229.964	129.38
230.199	113.38
230.433	106.38
230.667	101.38
230.901	103.38
231.136	106.38
231.37	114.38
231.604	105.38
231.838	123.38
232.072	106.38
232.306	107.38
232.541	108.38
232.775	114.38
233.009	117.38
233.243	116.38
233.477	104.38
233.711	110.38
233.945	103.38
234.179	113.38
234.413	108.38
234.647	106.38
234.881	114.38
235.115	117.38
235.349	113.38
235.583	115.38
235.817	118.38
236.051	125.38
236.285	128.38
236.519	108.38
236.753	142.38
236.987	126.38
237.221	173.38
237.455	190.38
237.689	175.38
237.922	143.38
238.156	125.38
238.39	121.38
238.624	114.38
238.858	121.38
239.091	135.38
239.325	130.38
239.559	110.38
239.793	123.38
240.027	123.38
240.26	122.38
240.494	151.38
240.728	142.38
240.961	137.38
241.195	123.38
241.429	133.38
241.662	133.38
241.896	127.38
242.13	134.38
242.363	125.38
242.597	134.38
242.83	149.38
243.064	128.38
243.298	117.38
243.531	130.38
243.765	136.38
243.998	125.38
244.232	147.38
244.465	129.38
244.699	135.38
244.932	141.38
245.166	137.38
245.399	151.38
245.633	152.38
245.866	162.38
246.099	145.38
246.333	143.38
246.566	142.38
246.8	158.38
247.033	157.38
247.266	148.38
247.5	161.38
247.733	150.38
247.966	151.38
248.2	174.38
248.433	171.38
248.666	175.38
248.899	181.38
249.133	194.38
249.366	195.38
249.599	176.38
249.832	160.38
250.066	166.38
250.299	162.38
250.532	192.38
250.765	190.38
250.998	215.38
251.231	203.38
251.465	187.38
251.698	188.38
251.931	181.38
252.164	177.38
252.397	189.38
252.63	181.38
252.863	190.38
253.096	199.38
253.329	215.38
253.562	219.38
253.795	218.38
254.028	227.38
254.261	213.38
254.494	211.38
254.727	238.38
254.96	239.38
255.193	233.38
255.426	228.38
255.659	218.38
255.892	231.38
256.124	207.38
256.357	206.38
256.59	195.38
256.823	204.38
257.056	200.38
257.289	201.38
257.521	194.38
257.754	201.38
257.987	192.38
258.22	191.38
258.452	184.38
258.685	189.38
258.918	196.38
259.151	204.38
259.383	235.38
259.616	197.38
259.849	198.38
260.081	219.38
260.314	244.38
260.547	230.38
260.779	225.38
261.012	213.38
261.244	204.38
261.477	220.38
261.71	214.38
261.942	230.38
262.175	246.38
262.407	203.38
262.64	225.38
262.872	196.38
263.105	196.38
263.337	214.38
263.57	209.38
263.802	229.38
264.035	218.38
264.267	203.38
264.499	208.38
264.732	222.38
264.964	217.38
265.197	192.38
265.429	230.38
265.661	205.38
265.894	203.38
266.126	225.38
266.358	217.38
266.591	211.38
266.823	199.38
267.055	203.38
267.287	223.38
267.52	218.38
267.752	241.38
267.984	230.38
268.216	229.38
268.448	212.38
268.681	232.38
268.913	257.38
269.145	248.38
269.377	247.38
269.609	259.38
269.841	281.38
270.073	243.38
270.306	266.38
270.538	292.38
270.77	283.38
271.002	279.38
271.234	277.38
271.466	274.38
271.698	293.38
271.93	287.38
272.162	294.38
272.394	288.38
272.626	293.38
272.858	284.38
273.09	255.38
273.322	241.38
273.553	243.38
273.785	249.38
274.017	247.38
274.249	257.38
274.481	240.38
274.713	260.38
274.945	263.38
275.176	251.38
275.408	254.38
275.64	253.38
275.872	255.38
276.104	270.38
276.335	275.38
276.567	263.38
276.799	270.38
277.031	287.38
277.262	287.38
277.494	307.38
277.726	292.38
277.957	272.38
278.189	269.38
278.421	265.38
278.652	263.38
278.884	266.38
279.115	263.38
279.347	292.38
279.579	295.38
279.81	279.38
280.042	283.38
280.273	275.38
280.505	272.38
280.736	265.38
280.968	262.38
281.199	264.38
281.431	271.38
281.662	265.38
281.894	268.38
282.125	267.38
282.356	282.38
282.588	283.38
282.819	298.38
283.051	267.38
283.282	277.38
283.513	278.38
283.745	279.38
283.976	298.38
284.207	273.38
284.439	283.38
284.67	268.38
284.901	268.38
285.132	280.38
285.364	281.38
285.595	292.38
285.826	259.38
286.057	279.38
286.288	267.38
286.52	264.38
286.751	259.38
286.982	267.38
287.213	273.38
287.444	291.38
287.675	276.38
287.906	291.38
288.138	297.38
288.369	298.38
288.6	300.38
288.831	292.38
289.062	279.38
289.293	295.38
289.524	268.38
289.755	284.38
289.986	284.38
290.217	278.38
290.448	289.38
290.679	282.38
290.91	277.38
291.141	287.38
291.371	302.38
291.602	277.38
291.833	293.38
292.064	282.38
292.295	286.38
292.526	276.38
292.757	280.38
292.987	262.38
293.218	289.38
293.449	281.38
293.68	278.38
293.91	274.38
294.141	287.38
294.372	276.38
294.603	272.38
294.833	291.38
295.064	279.38
295.295	283.38
295.525	274.38
295.756	302.38
295.987	296.38
296.217	303.38
296.448	305.38
296.679	299.38
296.909	281.38
297.14	300.38
297.37	284.38
297.601	282.38
297.831	307.38
298.062	284.38
298.292	295.38
298.523	292.38
298.753	298.38
298.984	293.38
299.214	291.38
299.445	285.38
299.675	300.38
299.905	291.38
300.136	291.38
300.366	311.38
300.597	297.38
300.827	329.38
301.057	300.38
301.288	329.38
301.518	315.38
301.748	301.38
301.979	315.38
302.209	303.38
302.439	319.38
302.669	303.38
302.9	323.38
303.13	318.38
303.36	318.38
303.59	316.38
303.82	330.38
304.051	321.38
304.281	329.38
304.511	316.38
304.741	318.38
304.971	317.38
305.201	317.38
305.431	316.38
305.661	319.38
305.891	310.38
306.121	334.38
306.352	324.38
306.582	316.38
306.812	344.38
307.042	330.38
307.272	334.38
307.502	314.38
307.731	329.38
307.961	320.38
308.191	319.38
308.421	333.38
308.651	321.38
308.881	311.38
309.111	355.38
309.341	331.38
309.571	356.38
309.8	341.38
310.03	342.38
310.26	351.38
310.49	351.38
310.72	382.38
310.949	358.38
311.179	373.38
311.409	368.38
311.639	381.38
311.868	361.38
312.098	348.38
312.328	356.38
312.557	378.38
312.787	383.38
313.017	381.38
313.246	376.38
313.476	346.38
313.706	363.38
313.935	365.38
314.165	381.38
314.394	374.38
314.624	372.38
314.853	375.38
315.083	369.38
315.312	354.38
315.542	369.38
315.771	355.38
316.001	358.38
316.23	381.38
316.46	369.38
316.689	348.38
316.919	369.38
317.148	399.38
317.377	384.38
317.607	364.38
317.836	363.38
318.065	370.38
318.295	372.38
318.524	351.38
318.753	363.38
318.983	355.38
319.212	373.38
319.441	375.38
319.67	380.38
319.9	360.38
320.129	368.38
320.358	378.38
320.587	370.38
320.816	382.38
321.046	376.38
321.275	382.38
321.504	361.38
321.733	366.38
321.962	379.38
322.191	383.38
322.42	420.38
322.649	415.38
322.878	425.38
323.108	426.38
323.337	423.38
323.566	464.38
323.795	489.38
324.024	519.38
324.253	619.38
324.482	901.38
324.71	1297.38
324.939	1769.38
325.168	1450.38
325.397	774.38
325.626	545.38
325.855	501.38
326.084	465.38
326.313	452.38
326.542	463.38
326.77	492.38
326.999	603.38
327.228	803.38
327.457	1126.38
327.686	1281.38
327.914	879.38
328.143	595.38
328.372	531.38
328.6	494.38
328.829	479.38
329.058	510.38
329.287	518.38
329.515	488.38
329.744	468.38
329.972	429.38
330.201	452.38
330.43	465.38
330.658	493.38
330.887	515.38
331.115	518.38
331.344	454.38
331.572	436.38
331.801	440.38
332.03	437.38
332.258	444.38
332.486	419.38
332.715	412.38
332.943	397.38
333.172	414.38
333.4	420.38
333.629	423.38
333.857	408.38
334.085	437.38
334.314	419.38
334.542	421.38
334.771	437.38
334.999	438.38
335.227	416.38
335.455	435.38
335.684	420.38
335.912	407.38
336.14	405.38
336.369	411.38
336.597	435.38
336.825	430.38
337.053	393.38
337.281	409.38
337.51	408.38
337.738	418.38
337.966	386.38
338.194	418.38
338.422	426.38
338.65	415.38
338.878	383.38
339.106	405.38
339.334	398.38
339.562	406.38
339.79	399.38
340.018	403.38
340.246	398.38
340.474	406.38
340.702	388.38
340.93	413.38
341.158	401.38
341.386	405.38
341.614	398.38
341.842	413.38
342.07	385.38
342.298	409.38
342.526	389.38
342.754	387.38
342.981	404.38
343.209	394.38
343.437	389.38
343.665	389.38
343.893	386.38
344.12	422.38
344.348	413.38
344.576	420.38
344.804	419.38
345.031	404.38
345.259	405.38
345.487	391.38
345.714	407.38
345.942	412.38
346.17	405.38
346.397	388.38
346.625	385.38
346.853	390.38
347.08	391.38
347.308	385.38
347.535	395.38
347.763	398.38
347.99	393.38
348.218	385.38
348.445	387.38
348.673	394.38
348.9	374.38
349.128	388.38
349.355	361.38
349.583	366.38
349.81	373.38
350.037	377.38
350.265	352.38
350.492	384.38
350.72	360.38
350.947	385.38
351.174	387.38
351.402	392.38
351.629	392.38
351.856	377.38
352.083	365.38
352.311	396.38
352.538	416.38
352.765	420.38
352.992	370.38
353.22	373.38
353.447	387.38
353.674	403.38
353.901	384.38
354.128	376.38
354.355	348.38
354.583	372.38
354.81	382.38
355.037	363.38
355.264	355.38
355.491	348.38
355.718	374.38
355.945	347.38
356.172	337.38
356.399	364.38
356.626	331.38
356.853	374.38
357.08	371.38
357.307	365.38
357.534	372.38
357.761	365.38
357.988	369.38
358.215	351.38
358.441	374.38
358.668	355.38
358.895	360.38
359.122	360.38
359.349	386.38
359.576	385.38
359.802	370.38
360.029	401.38
360.256	421.38
360.483	398.38
360.709	379.38
360.936	361.38
361.163	382.38
361.39	355.38
361.616	375.38
361.843	375.38
362.07	389.38
362.296	390.38
362.523	355.38
362.749	373.38
362.976	373.38
363.203	357.38
363.429	358.38
363.656	376.38
363.882	379.38
364.109	366.38
364.335	373.38
364.562	357.38
364.788	353.38
365.015	362.38
365.241	347.38
365.468	362.38
365.694	361.38
365.92	372.38
366.147	375.38
366.373	326.38
366.599	353.38
366.826	350.38
367.052	356.38
367.278	342.38
367.505	352.38
367.731	381.38
367.957	369.38
368.184	357.38
368.41	365.38
368.636	374.38
368.862	355.38
369.089	353.38
369.315	365.38
369.541	346.38
369.767	353.38
369.993	341.38
370.219	346.38
370.445	365.38
370.672	356.38
370.898	360.38
371.124	354.38
371.35	368.38
371.576	344.38
371.802	355.38
372.028	349.38
372.254	349.38
372.48	372.38
372.706	359.38
372.932	345.38
373.158	349.38
373.384	350.38
373.61	362.38
373.835	354.38
374.061	357.38
374.287	345.38
374.513	331.38
374.739	359.38
374.965	348.38
375.191	364.38
375.416	382.38
375.642	349.38
375.868	347.38
376.094	381.38
376.319	361.38
376.545	347.38
376.771	361.38
376.997	359.38
377.222	355.38
377.448	369.38
377.674	359.38
377.899	356.38
378.125	351.38
378.35	359.38
378.576	338.38
378.802	347.38
379.027	361.38
379.253	351.38
379.478	363.38
379.704	354.38
379.929	347.38
380.155	356.38
380.38	350.38
380.606	355.38
380.831	349.38
381.057	352.38
381.282	370.38
381.507	355.38
381.733	352.38
381.958	361.38
382.184	342.38
382.409	360.38
382.634	355.38
382.86	346.38
383.085	348.38
383.31	337.38
383.535	377.38
383.761	351.38
383.986	371.38
384.211	370.38
384.436	365.38
384.662	343.38
384.887	380.38
385.112	381.38
385.337	382.38
385.562	381.38
385.787	376.38
386.013	407.38
386.238	400.38
386.463	387.38
386.688	389.38
386.913	378.38
387.138	382.38
387.363	382.38
387.588	376.38
387.813	374.38
388.038	372.38
388.263	377.38
388.488	363.38
388.713	379.38
388.938	358.38
389.163	371.38
389.387	372.38
389.612	345.38
389.837	357.38
390.062	360.38
390.287	371.38
390.512	363.38
390.736	372.38
390.961	380.38
391.186	367.38
391.411	379.38
391.636	366.38
391.86	365.38
392.085	398.38
392.31	380.38
392.534	386.38
392.759	387.38
392.984	385.38
393.208	410.38
393.433	463.38
393.658	450.38
393.882	386.38
394.107	370.38
394.331	387.38
394.556	379.38
394.78	399.38
395.005	364.38
395.229	377.38
395.454	373.38
395.678	384.38
395.903	392.38
396.127	410.38
396.352	412.38
396.576	414.38
396.801	410.38
397.025	433.38
397.249	405.38
397.474	404.38
397.698	387.38
397.922	408.38
398.147	403.38
398.371	407.38
398.595	405.38
398.82	403.38
399.044	439.38
399.268	423.38
399.492	438.38
399.717	462.38
399.941	475.38
400.165	501.38
400.389	490.38
400.613	445.38
400.837	414.38
401.062	423.38
401.286	429.38
401.51	438.38
401.734	414.38
401.958	421.38
402.182	405.38
402.406	439.38
402.63	445.38
402.854	434.38
403.078	418.38
403.302	426.38
403.526	435.38
403.75	425.38
403.974	411.38
404.198	415.38
404.422	434.38
404.645	417.38
404.869	441.38
405.093	419.38
405.317	451.38
405.541	440.38
405.765	411.38
405.988	430.38
406.212	429.38
406.436	451.38
406.66	451.38
406.883	444.38
407.107	467.38
407.331	505.38
407.555	552.38
407.778	558.38
408.002	517.38
408.226	456.38
408.449	461.38
408.673	478.38
408.896	506.38
409.12	523.38
409.344	487.38
409.567	449.38
409.791	426.38
410.014	410.38
410.238	442.38
410.461	406.38
410.685	406.38
410.908	442.38
411.132	440.38
411.355	474.38
411.578	464.38
411.802	416.38
412.025	406.38
412.249	407.38
412.472	419.38
412.695	395.38
412.919	396.38
413.142	409.38
413.365	413.38
413.589	423.38
413.812	387.38
414.035	389.38
414.258	403.38
414.482	398.38
414.705	395.38
414.928	374.38
415.151	374.38
415.374	398.38
415.597	379.38
415.821	405.38
416.044	399.38
416.267	402.38
416.49	399.38
416.713	389.38
416.936	388.38
417.159	381.38
417.382	386.38
417.605	390.38
417.828	407.38
418.051	398.38
418.274	403.38
418.497	396.38
418.72	403.38
418.943	391.38
419.166	413.38
419.389	422.38
419.611	402.38
419.834	414.38
420.057	407.38
420.28	400.38
420.503	399.38
420.726	390.38
420.948	421.38
421.171	431.38
421.394	466.38
421.617	447.38
421.839	393.38
422.062	407.38
422.285	419.38
422.507	470.38
422.73	533.38
422.953	524.38
423.175	451.38
423.398	429.38
423.621	425.38
423.843	423.38
424.066	454.38
424.288	424.38
424.511	446.38
424.733	476.38
424.956	534.38
425.178	527.38
425.401	553.38
425.623	538.38
425.846	444.38
426.068	421.38
426.291	456.38
426.513	462.38
426.735	456.38
426.958	477.38
427.18	529.38
427.402	643.38
427.625	689.38
427.847	596.38
428.069	505.38
428.292	469.38
428.514	431.38
428.736	407.38
428.958	423.38
429.181	403.38
429.403	400.38
429.625	412.38
429.847	433.38
430.069	484.38
430.292	493.38
430.514	412.38
430.736	405.38
430.958	416.38
431.18	391.38
431.402	391.38
431.624	386.38
431.846	366.38
432.068	389.38
432.29	400.38
432.512	409.38
432.734	394.38
432.956	389.38
433.178	387.38
433.4	386.38
433.622	397.38
433.844	383.38
434.066	373.38
434.287	370.38
434.509	390.38
434.731	394.38
434.953	410.38
435.175	409.38
435.397	423.38
435.618	430.38
435.84	471.38
436.062	528.38
436.284	591.38
436.505	469.38
436.727	447.38
436.949	421.38
437.17	411.38
437.392	397.38
437.614	436.38
437.835	440.38
438.057	521.38
438.278	594.38
438.5	589.38
438.721	625.38
438.943	633.38
439.165	490.38
439.386	467.38
439.608	458.38
439.829	441.38
440.05	441.38
440.272	503.38
440.493	446.38
440.715	415.38
440.936	414.38
441.158	397.38
441.379	403.38
441.6	399.38
441.822	443.38
442.043	454.38
442.264	527.38
442.486	547.38
442.707	468.38
442.928	447.38
443.149	441.38
443.371	467.38
443.592	494.38
443.813	582.38
444.034	625.38
444.255	498.38
444.476	452.38
444.698	435.38
444.919	439.38
445.14	520.38
445.361	482.38
445.582	487.38
445.803	533.38
446.024	598.38
446.245	601.38
446.466	550.38
446.687	459.38
446.908	434.38
447.129	424.38
447.35	412.38
447.571	406.38
447.792	387.38
448.013	418.38
448.234	408.38
448.455	471.38
448.675	545.38
448.896	648.38
449.117	525.38
449.338	515.38
449.559	612.38
449.779	696.38
450	549.38
450.221	460.38
450.442	410.38
450.662	403.38
450.883	427.38
451.104	392.38
451.324	385.38
451.545	374.38
451.766	366.38
451.986	357.38
452.207	370.38
452.428	380.38
452.648	377.38
452.869	354.38
453.089	369.38
453.31	377.38
453.53	347.38
453.751	346.38
453.971	384.38
454.192	362.38
454.412	355.38
454.633	361.38
454.853	355.38
455.073	363.38
455.294	382.38
455.514	443.38
455.734	427.38
455.955	374.38
456.175	339.38
456.395	351.38
456.616	355.38
456.836	356.38
457.056	342.38
457.276	345.38
457.497	337.38
457.717	350.38
457.937	356.38
458.157	336.38
458.377	353.38
458.598	372.38
458.818	418.38
459.038	445.38
459.258	485.38
459.478	406.38
459.698	389.38
459.918	385.38
460.138	370.38
460.358	385.38
460.578	395.38
460.798	378.38
461.018	385.38
461.238	425.38
461.458	382.38
461.678	379.38
461.898	397.38
462.118	390.38
462.338	392.38
462.558	384.38
462.777	387.38
462.997	417.38
463.217	422.38
463.437	423.38
463.657	401.38
463.876	414.38
464.096	407.38
464.316	409.38
464.536	417.38
464.755	415.38
464.975	415.38
465.195	445.38
465.414	499.38
465.634	429.38
465.854	413.38
466.073	396.38
466.293	398.38
466.512	364.38
466.732	387.38
466.951	353.38
467.171	362.38
467.391	377.38
467.61	381.38
467.829	379.38
468.049	377.38
468.268	356.38
468.488	359.38
468.707	368.38
468.927	354.38
469.146	357.38
469.365	373.38
469.585	378.38
469.804	358.38
470.023	377.38
470.243	353.38
470.462	353.38
470.681	385.38
470.901	390.38
471.12	384.38
471.339	359.38
471.558	366.38
471.777	391.38
471.997	373.38
472.216	353.38
472.435	366.38
472.654	365.38
472.873	350.38
473.092	363.38
473.311	383.38
473.53	379.38
473.749	391.38
473.968	442.38
474.187	514.38
474.406	519.38
474.625	402.38
474.844	381.38
475.063	375.38
475.282	388.38
475.501	402.38
475.72	389.38
475.939	401.38
476.158	376.38
476.377	378.38
476.596	370.38
476.814	382.38
477.033	411.38
477.252	397.38
477.471	395.38
477.69	395.38
477.908	393.38
478.127	414.38
478.346	424.38
478.564	427.38
478.783	420.38
479.002	431.38
479.22	419.38
479.439	451.38
479.658	454.38
479.876	447.38
480.095	452.38
480.313	479.38
480.532	453.38
480.751	451.38
480.969	446.38
481.188	469.38
481.406	449.38
481.624	430.38
481.843	457.38
482.061	427.38
482.28	440.38
482.498	427.38
482.717	448.38
482.935	450.38
483.153	445.38
483.372	443.38
483.59	428.38
483.808	427.38
484.027	409.38
484.245	440.38
484.463	443.38
484.681	436.38
484.9	458.38
485.118	459.38
485.336	457.38
485.554	465.38
485.772	474.38
485.99	461.38
486.209	459.38
486.427	443.38
486.645	456.38
486.863	459.38
487.081	467.38
487.299	465.38
487.517	451.38
487.735	461.38
487.953	456.38
488.171	457.38
488.389	469.38
488.607	478.38
488.825	472.38
489.043	452.38
489.261	468.38
489.479	481.38
489.696	462.38
489.914	504.38
490.132	479.38
490.35	481.38
490.568	500.38
490.786	503.38
491.003	486.38
491.221	477.38
491.439	502.38
491.657	518.38
491.874	534.38
492.092	539.38
492.31	522.38
492.527	494.38
492.745	531.38
492.963	547.38
493.18	532.38
493.398	531.38
493.615	531.38
493.833	523.38
494.05	553.38
494.268	523.38
494.485	553.38
494.703	538.38
494.92	544.38
495.138	546.38
495.355	541.38
495.573	561.38
495.79	547.38
496.008	549.38
496.225	565.38
496.442	540.38
496.66	547.38
496.877	531.38
497.094	541.38
497.312	566.38
497.529	572.38
497.746	557.38
497.963	572.38
498.181	584.38
498.398	598.38
498.615	597.38
498.832	609.38
499.049	617.38
499.267	611.38
499.484	635.38
499.701	665.38
499.918	717.38
500.135	693.38
500.352	725.38
500.569	721.38
500.786	748.38
501.003	751.38
501.22	717.38
501.437	672.38
501.654	686.38
501.871	693.38
502.088	654.38
502.305	637.38
502.522	607.38
502.739	628.38
502.956	599.38
503.172	585.38
503.389	596.38
503.606	575.38
503.823	569.38
504.04	570.38
504.256	572.38
504.473	548.38
504.69	537.38
504.907	560.38
505.123	545.38
505.34	519.38
505.557	524.38
505.773	541.38
505.99	533.38
506.207	548.38
506.423	537.38
506.64	552.38
506.856	521.38
507.073	523.38
507.289	502.38
507.506	505.38
507.722	503.38
507.939	527.38
508.155	507.38
508.372	513.38
508.588	497.38
508.805	502.38
509.021	497.38
509.238	514.38
509.454	517.38
509.67	480.38
509.887	473.38
510.103	484.38
510.319	493.38
510.536	591.38
510.752	918.38
510.968	739.38
511.184	531.38
511.401	475.38
511.617	476.38
511.833	475.38
512.049	477.38
512.265	472.38
512.481	453.38
512.698	468.38
512.914	471.38
513.13	467.38
513.346	448.38
513.562	463.38
513.778	475.38
513.994	470.38
514.21	519.38
514.426	520.38
514.642	527.38
514.858	569.38
515.074	563.38
515.29	677.38
515.506	945.38
515.721	735.38
515.937	568.38
516.153	509.38
516.369	508.38
516.585	494.38
516.801	510.38
517.016	497.38
517.232	487.38
517.448	500.38
517.664	500.38
517.879	508.38
518.095	488.38
518.311	467.38
518.527	475.38
518.742	476.38
518.958	473.38
519.173	468.38
519.389	481.38
519.605	479.38
519.82	463.38
520.036	477.38
520.251	490.38
520.467	511.38
520.682	518.38
520.898	525.38
521.113	535.38
521.329	554.38
521.544	617.38
521.76	789.38
521.975	1227.38
522.19	1159.38
522.406	663.38
522.621	533.38
522.836	485.38
523.052	458.38
523.267	453.38
523.482	437.38
523.698	451.38
523.913	423.38
524.128	442.38
524.343	422.38
524.559	445.38
524.774	413.38
524.989	422.38
525.204	425.38
525.419	417.38
525.634	422.38
525.849	431.38
526.064	419.38
526.28	417.38
526.495	397.38
526.71	401.38
526.925	404.38
527.14	403.38
527.355	409.38
527.57	390.38
527.785	394.38
527.999	395.38
528.214	404.38
528.429	403.38
528.644	402.38
528.859	398.38
529.074	388.38
529.289	430.38
529.503	479.38
529.718	440.38
529.933	412.38
530.148	402.38
530.363	421.38
530.577	391.38
530.792	365.38
531.007	401.38
531.221	394.38
531.436	399.38
531.651	403.38
531.865	391.38
532.08	386.38
532.295	387.38
532.509	378.38
532.724	361.38
532.938	377.38
533.153	377.38
533.367	389.38
533.582	388.38
533.796	391.38
534.011	379.38
534.225	382.38
534.44	360.38
534.654	403.38
534.868	379.38
535.083	365.38
535.297	375.38
535.511	377.38
535.726	394.38
535.94	378.38
536.154	357.38
536.369	360.38
536.583	371.38
536.797	379.38
537.011	378.38
537.225	374.38
537.44	351.38
537.654	369.38
537.868	377.38
538.082	378.38
538.296	388.38
538.51	375.38
538.724	377.38
538.938	365.38
539.153	379.38
539.367	377.38
539.581	385.38
539.795	347.38
540.009	369.38
540.222	358.38
540.436	375.38
540.65	357.38
540.864	379.38
541.078	376.38
541.292	366.38
541.506	375.38
541.72	369.38
541.934	366.38
542.147	384.38
542.361	362.38
542.575	351.38
542.789	345.38
543.002	363.38
543.216	362.38
543.43	366.38
543.644	353.38
543.857	372.38
544.071	363.38
544.285	369.38
544.498	363.38
544.712	361.38
544.925	365.38
545.139	357.38
545.352	352.38
545.566	356.38
545.779	355.38
545.993	353.38
546.206	363.38
546.42	350.38
546.633	326.38
546.847	359.38
547.06	333.38
547.274	342.38
547.487	345.38
547.7	349.38
547.914	379.38
548.127	371.38
548.34	342.38
548.554	356.38
548.767	346.38
548.98	366.38
549.193	349.38
549.407	342.38
549.62	361.38
549.833	362.38
550.046	357.38
550.259	342.38
550.473	330.38
550.686	346.38
550.899	340.38
551.112	338.38
551.325	349.38
551.538	346.38
551.751	334.38
551.964	337.38
552.177	342.38
552.39	346.38
552.603	338.38
552.816	342.38
553.029	360.38
553.242	351.38
553.455	353.38
553.667	373.38
553.88	365.38
554.093	361.38
554.306	354.38
554.519	361.38
554.732	359.38
554.944	342.38
555.157	331.38
555.37	347.38
555.583	339.38
555.795	340.38
556.008	325.38
556.221	312.38
556.433	308.38
556.646	328.38
556.859	340.38
557.071	321.38
557.284	337.38
557.496	299.38
557.709	333.38
557.921	312.38
558.134	323.38
558.346	313.38
558.559	326.38
558.771	313.38
558.984	316.38
559.196	311.38
559.409	330.38
559.621	307.38
559.833	315.38
560.046	328.38
560.258	313.38
560.47	317.38
560.683	326.38
560.895	321.38
561.107	309.38
561.32	300.38
561.532	300.38
561.744	316.38
561.956	316.38
562.168	331.38
562.381	305.38
562.593	289.38
562.805	325.38
563.017	303.38
563.229	317.38
563.441	305.38
563.653	324.38
563.865	311.38
564.077	308.38
564.289	301.38
564.501	318.38
564.713	326.38
564.925	326.38
565.137	345.38
565.349	347.38
565.561	334.38
565.773	356.38
565.985	354.38
566.197	353.38
566.408	347.38
566.62	372.38
566.832	357.38
567.044	387.38
567.255	381.38
567.467	385.38
567.679	392.38
567.891	365.38
568.102	385.38
568.314	375.38
568.526	370.38
568.737	358.38
568.949	353.38
569.161	326.38
569.372	333.38
569.584	314.38
569.795	310.38
570.007	332.38
570.218	358.38
570.43	330.38
570.641	307.38
570.853	309.38
571.064	296.38
571.276	296.38
571.487	285.38
571.698	305.38
571.91	295.38
572.121	302.38
572.333	294.38
572.544	298.38
572.755	277.38
572.966	269.38
573.178	289.38
573.389	259.38
573.6	278.38
573.811	258.38
574.023	292.38
574.234	277.38
574.445	269.38
574.656	291.38
574.867	260.38
575.078	292.38
575.289	270.38
575.501	288.38
575.712	259.38
575.923	282.38
576.134	282.38
576.345	261.38
576.556	277.38
576.767	270.38
576.978	268.38
577.188	259.38
577.399	271.38
577.61	264.38
577.821	264.38
578.032	278.38
578.243	288.38
578.454	449.38
578.665	335.38
578.875	275.38
579.086	264.38
579.297	242.38
579.508	252.38
579.718	262.38
579.929	277.38
580.14	270.38
580.35	277.38
580.561	254.38
580.772	236.38
580.982	250.38
581.193	257.38
581.403	254.38
581.614	241.38
581.825	228.38
582.035	248.38
582.246	249.38
582.456	241.38
582.667	246.38
582.877	262.38
583.087	249.38
583.298	256.38
583.508	248.38
583.719	253.38
583.929	265.38
584.139	254.38
584.35	258.38
584.56	247.38
584.77	254.38
584.981	246.38
585.191	235.38
585.401	263.38
585.611	257.38
585.821	259.38
586.032	259.38
586.242	243.38
586.452	223.38
586.662	245.38
586.872	241.38
587.082	250.38
587.292	253.38
587.502	239.38
587.713	241.38
587.923	232.38
588.133	247.38
588.343	245.38
588.553	230.38
588.762	254.38
588.972	265.38
589.182	344.38
589.392	344.38
589.602	270.38
589.812	332.38
590.022	306.38
590.232	257.38
590.441	221.38
590.651	259.38
590.861	238.38
591.071	247.38
591.281	241.38
591.49	246.38
591.7	246.38
591.91	247.38
592.119	241.38
592.329	234.38
592.539	257.38
592.748	257.38
592.958	263.38
593.167	247.38
593.377	246.38
593.587	259.38
593.796	263.38
594.006	251.38
594.215	270.38
594.424	249.38
594.634	261.38
594.843	253.38
595.053	252.38
595.262	261.38
595.472	245.38
595.681	234.38
595.89	245.38
596.1	227.38
596.309	231.38
596.518	237.38
596.727	241.38
596.937	221.38
597.146	229.38
597.355	218.38
597.564	235.38
597.774	228.38
597.983	214.38
598.192	237.38
598.401	222.38
598.61	216.38
598.819	225.38
599.028	218.38
599.237	223.38
599.446	223.38
599.655	225.38
599.864	219.38
600.073	221.38
600.282	230.38
600.491	217.38
600.7	234.38
600.909	210.38
601.118	227.38
601.327	220.38
601.536	220.38
601.745	206.38
601.953	216.38
602.162	214.38
602.371	225.38
602.58	216.38
602.789	218.38
602.997	195.38
603.206	213.38
603.415	220.38
603.623	221.38
603.832	219.38
604.041	210.38
604.249	200.38
604.458	193.38
604.666	196.38
604.875	229.38
605.084	222.38
605.292	218.38
605.501	204.38
605.709	229.38
605.918	204.38
606.126	215.38
606.334	204.38
606.543	209.38
606.751	214.38
606.96	217.38
607.168	211.38
607.376	217.38
607.585	215.38
607.793	211.38
608.001	206.38
608.21	227.38
608.418	219.38
608.626	214.38
608.834	211.38
609.043	193.38
609.251	210.38
609.459	205.38
609.667	208.38
609.875	199.38
610.083	203.38
610.291	194.38
610.499	201.38
610.707	214.38
610.916	207.38
611.124	206.38
611.332	204.38
611.54	217.38
611.748	200.38
611.955	210.38
612.163	197.38
612.371	213.38
612.579	187.38
612.787	195.38
612.995	207.38
613.203	206.38
613.411	232.38
613.618	201.38
613.826	191.38
614.034	204.38
614.242	204.38
614.449	194.38
614.657	201.38
614.865	190.38
615.072	203.38
615.28	217.38
615.488	195.38
615.695	197.38
615.903	194.38
616.111	193.38
616.318	211.38
616.526	218.38
616.733	188.38
616.941	201.38
617.148	195.38
617.356	203.38
617.563	194.38
617.771	190.38
617.978	191.38
618.185	190.38
618.393	189.38
618.6	198.38
618.807	206.38
619.015	196.38
619.222	198.38
619.429	207.38
619.637	198.38
619.844	178.38
620.051	204.38
620.258	211.38
620.466	210.38
620.673	187.38
620.88	178.38
621.087	194.38
621.294	198.38
621.501	183.38
621.708	191.38
621.915	198.38
622.122	195.38
622.329	196.38
622.536	191.38
622.743	188.38
622.95	196.38
623.157	181.38
623.364	201.38
623.571	189.38
623.778	182.38
623.985	189.38
624.192	195.38
624.399	187.38
624.606	186.38
624.812	195.38
625.019	193.38
625.226	187.38
625.433	183.38
625.639	185.38
625.846	178.38
626.053	186.38
626.259	193.38
626.466	173.38
626.673	168.38
626.879	165.38
627.086	167.38
627.293	187.38
627.499	192.38
627.706	182.38
627.912	183.38
628.119	171.38
628.325	169.38
628.532	165.38
628.738	179.38
628.945	175.38
629.151	177.38
629.357	169.38
629.564	158.38
629.77	165.38
629.976	171.38
630.183	182.38
630.389	165.38
630.595	172.38
630.802	149.38
631.008	169.38
631.214	181.38
631.42	181.38
631.627	172.38
631.833	172.38
632.039	182.38
632.245	177.38
632.451	149.38
632.657	159.38
632.863	159.38
633.069	178.38
633.275	154.38
633.481	166.38
633.688	172.38
633.893	167.38
634.099	169.38
634.305	172.38
634.511	165.38
634.717	173.38
634.923	171.38
635.129	163.38
635.335	172.38
635.541	164.38
635.747	157.38
635.952	162.38
636.158	171.38
636.364	172.38
636.57	169.38
636.775	168.38
636.981	165.38
637.187	157.38
637.392	150.38
637.598	166.38
637.804	158.38
638.009	170.38
638.215	150.38
638.421	145.38
638.626	155.38
638.832	182.38
639.037	151.38
639.243	138.38
639.448	162.38
639.654	138.38
639.859	159.38
640.065	149.38
640.27	170.38
640.475	157.38
640.681	165.38
640.886	149.38
641.091	173.38
641.297	162.38
641.502	141.38
641.707	143.38
641.913	154.38
642.118	149.38
642.323	162.38
642.528	160.38
642.733	149.38
642.939	165.38
643.144	149.38
643.349	139.38
643.554	151.38
643.759	153.38
643.964	154.38
644.169	136.38
644.374	156.38
644.579	147.38
644.784	136.38
644.989	154.38
645.194	141.38
645.399	156.38
645.604	136.38
645.809	165.38
646.014	155.38
646.219	157.38
646.423	154.38
646.628	158.38
646.833	138.38
647.038	140.38
647.243	157.38
647.447	151.38
647.652	162.38
647.857	157.38
648.062	149.38
648.266	150.38
648.471	163.38
648.676	140.38
648.88	161.38
649.085	161.38
649.289	146.38
649.494	168.38
649.698	172.38
649.903	169.38
650.107	169.38
650.312	163.38
650.516	145.38
650.721	150.38
650.925	145.38
651.13	149.38
651.334	151.38
651.539	126.38
651.743	149.38
651.947	140.38
652.152	136.38
652.356	136.38
652.56	137.38
652.764	148.38
652.969	139.38
653.173	125.38
653.377	140.38
653.581	140.38
653.785	137.38
653.99	131.38
654.194	142.38
654.398	167.38
654.602	131.38
654.806	138.38
655.01	135.38
655.214	137.38
655.418	129.38
655.622	142.38
655.826	123.38
656.03	139.38
656.234	134.38
656.438	142.38
656.642	141.38
656.846	143.38
657.049	115.38
657.253	121.38
657.457	129.38
657.661	110.38
657.865	129.38
658.068	125.38
658.272	101.38
658.476	119.38
658.68	102.38
658.883	102.38
659.087	94.38
659.291	92.38
659.494	115.38
659.698	90.38
659.901	94.38
660.105	97.38
660.309	91.38
660.512	89.38
660.716	88.38
660.919	89.38
661.123	84.38
661.326	102.38
661.53	87.38
661.733	76.38
661.936	109.38
662.14	89.38
662.343	85.38
662.546	81.38
662.75	94.38
662.953	79.38
663.156	72.38
663.36	89.38
663.563	74.38
663.766	85.38
663.969	84.38
664.173	86.38
664.376	85.38
664.579	77.38
664.782	73.38
664.985	71.38
665.188	80.38
665.391	79.38
665.594	90.38
665.797	88.38
666	74.38
666.203	95.38
666.406	81.38
666.609	86.38
666.812	76.38
667.015	69.38
667.218	82.38
667.421	80.38
667.624	78.38
667.827	77.38
668.03	90.38
668.232	75.38
668.435	66.38
668.638	78.38
668.841	83.38
669.043	89.38
669.246	79.38
669.449	85.38
669.651	98.38
669.854	74.38
670.057	82.38
670.259	86.38
670.462	91.38
670.665	78.38
670.867	91.38
671.07	88.38
671.272	90.38
671.475	86.38
671.677	78.38
671.88	85.38
672.082	85.38
672.284	99.38
672.487	80.38
672.689	87.38
672.892	85.38
