Data from 1989.PennyLincolnUp.Lamp.En5.5.200Scan.071819.P2_HRD10591_17-26-21-974.txt Node
Date: Thu Jul 18 17:26:21 EDT 2019
User: cochatt
Spectrometer: HR+D1059
Trigger mode: 1
Integration Time (sec): 1.000000E-1
Scans to average: 1
Electric dark correction enabled: true
Nonlinearity correction enabled: false
Boxcar width: 0
XAxis mode: Wavelengths
Number of Pixels in Spectrum: 2048
>>>>>Begin Spectral Data<<<<<
223.165	-4.94
223.4	-4.94
223.635	-4.94
223.869	-9.94
224.104	-24.94
224.338	-6.94
224.573	1.06
224.808	-10.94
225.042	-21.94
225.277	-3.94
225.511	4.06
225.746	5.06
225.98	-5.94
226.215	21.06
226.449	-2.94
226.683	20.06
226.918	15.06
227.152	26.06
227.387	38.06
227.621	31.06
227.856	44.06
228.09	38.06
228.324	49.06
228.559	65.06
228.793	82.06
229.027	101.06
229.262	122.06
229.496	127.06
229.73	138.06
229.964	178.06
230.199	146.06
230.433	130.06
230.667	131.06
230.901	119.06
231.136	116.06
231.37	123.06
231.604	121.06
231.838	117.06
232.072	129.06
232.306	120.06
232.541	137.06
232.775	106.06
233.009	123.06
233.243	122.06
233.477	118.06
233.711	125.06
233.945	129.06
234.179	124.06
234.413	125.06
234.647	120.06
234.881	123.06
235.115	124.06
235.349	113.06
235.583	141.06
235.817	125.06
236.051	145.06
236.285	143.06
236.519	130.06
236.753	138.06
236.987	148.06
237.221	203.06
237.455	264.06
237.689	214.06
237.922	159.06
238.156	138.06
238.39	146.06
238.624	145.06
238.858	141.06
239.091	143.06
239.325	141.06
239.559	130.06
239.793	145.06
240.027	157.06
240.26	155.06
240.494	178.06
240.728	173.06
240.961	153.06
241.195	160.06
241.429	163.06
241.662	139.06
241.896	142.06
242.13	131.06
242.363	147.06
242.597	156.06
242.83	145.06
243.064	137.06
243.298	147.06
243.531	155.06
243.765	158.06
243.998	155.06
244.232	158.06
244.465	157.06
244.699	153.06
244.932	155.06
245.166	155.06
245.399	147.06
245.633	157.06
245.866	157.06
246.099	174.06
246.333	157.06
246.566	164.06
246.8	172.06
247.033	154.06
247.266	171.06
247.5	169.06
247.733	208.06
247.966	198.06
248.2	197.06
248.433	200.06
248.666	207.06
248.899	196.06
249.133	226.06
249.366	245.06
249.599	221.06
249.832	199.06
250.066	206.06
250.299	218.06
250.532	228.06
250.765	264.06
250.998	262.06
251.231	284.06
251.465	275.06
251.698	237.06
251.931	229.06
252.164	231.06
252.397	219.06
252.63	221.06
252.863	235.06
253.096	233.06
253.329	266.06
253.562	264.06
253.795	256.06
254.028	239.06
254.261	250.06
254.494	269.06
254.727	288.06
254.96	339.06
255.193	326.06
255.426	324.06
255.659	297.06
255.892	293.06
256.124	305.06
256.357	329.06
256.59	302.06
256.823	293.06
257.056	271.06
257.289	249.06
257.521	241.06
257.754	262.06
257.987	245.06
258.22	242.06
258.452	236.06
258.685	229.06
258.918	245.06
259.151	235.06
259.383	237.06
259.616	248.06
259.849	265.06
260.081	245.06
260.314	288.06
260.547	296.06
260.779	285.06
261.012	279.06
261.244	270.06
261.477	277.06
261.71	263.06
261.942	255.06
262.175	261.06
262.407	276.06
262.64	261.06
262.872	240.06
263.105	249.06
263.337	237.06
263.57	235.06
263.802	249.06
264.035	238.06
264.267	265.06
264.499	236.06
264.732	236.06
264.964	242.06
265.197	237.06
265.429	237.06
265.661	247.06
265.894	260.06
266.126	262.06
266.358	252.06
266.591	253.06
266.823	255.06
267.055	265.06
267.287	259.06
267.52	259.06
267.752	265.06
267.984	274.06
268.216	253.06
268.448	261.06
268.681	272.06
268.913	288.06
269.145	294.06
269.377	314.06
269.609	299.06
269.841	313.06
270.073	302.06
270.306	344.06
270.538	346.06
270.77	366.06
271.002	367.06
271.234	334.06
271.466	345.06
271.698	362.06
271.93	362.06
272.162	381.06
272.394	345.06
272.626	366.06
272.858	347.06
273.09	321.06
273.322	322.06
273.553	319.06
273.785	325.06
274.017	300.06
274.249	307.06
274.481	302.06
274.713	312.06
274.945	305.06
275.176	304.06
275.408	317.06
275.64	322.06
275.872	297.06
276.104	295.06
276.335	297.06
276.567	330.06
276.799	329.06
277.031	338.06
277.262	373.06
277.494	384.06
277.726	361.06
277.957	329.06
278.189	331.06
278.421	302.06
278.652	313.06
278.884	327.06
279.115	306.06
279.347	320.06
279.579	311.06
279.81	314.06
280.042	311.06
280.273	313.06
280.505	304.06
280.736	306.06
280.968	290.06
281.199	313.06
281.431	316.06
281.662	293.06
281.894	313.06
282.125	321.06
282.356	338.06
282.588	346.06
282.819	353.06
283.051	303.06
283.282	305.06
283.513	312.06
283.745	318.06
283.976	327.06
284.207	326.06
284.439	316.06
284.67	319.06
284.901	328.06
285.132	291.06
285.364	313.06
285.595	303.06
285.826	302.06
286.057	327.06
286.288	299.06
286.52	312.06
286.751	307.06
286.982	325.06
287.213	333.06
287.444	331.06
287.675	333.06
287.906	326.06
288.138	339.06
288.369	339.06
288.6	345.06
288.831	334.06
289.062	325.06
289.293	351.06
289.524	326.06
289.755	333.06
289.986	337.06
290.217	349.06
290.448	335.06
290.679	327.06
290.91	320.06
291.141	313.06
291.371	319.06
291.602	318.06
291.833	324.06
292.064	330.06
292.295	313.06
292.526	332.06
292.757	321.06
292.987	323.06
293.218	329.06
293.449	323.06
293.68	329.06
293.91	320.06
294.141	334.06
294.372	291.06
294.603	313.06
294.833	300.06
295.064	332.06
295.295	323.06
295.525	324.06
295.756	335.06
295.987	325.06
296.217	369.06
296.448	363.06
296.679	351.06
296.909	325.06
297.14	331.06
297.37	332.06
297.601	331.06
297.831	319.06
298.062	339.06
298.292	333.06
298.523	322.06
298.753	326.06
298.984	349.06
299.214	332.06
299.445	358.06
299.675	327.06
299.905	336.06
300.136	352.06
300.366	347.06
300.597	358.06
300.827	345.06
301.057	350.06
301.288	358.06
301.518	357.06
301.748	359.06
301.979	363.06
302.209	369.06
302.439	380.06
302.669	385.06
302.9	354.06
303.13	373.06
303.36	362.06
303.59	375.06
303.82	371.06
304.051	381.06
304.281	351.06
304.511	361.06
304.741	377.06
304.971	349.06
305.201	362.06
305.431	336.06
305.661	361.06
305.891	373.06
306.121	385.06
306.352	364.06
306.582	384.06
306.812	376.06
307.042	364.06
307.272	375.06
307.502	379.06
307.731	375.06
307.961	375.06
308.191	362.06
308.421	377.06
308.651	365.06
308.881	381.06
309.111	375.06
309.341	379.06
309.571	383.06
309.8	404.06
310.03	427.06
310.26	415.06
310.49	413.06
310.72	442.06
310.949	450.06
311.179	466.06
311.409	431.06
311.639	421.06
311.868	438.06
312.098	426.06
312.328	433.06
312.557	440.06
312.787	473.06
313.017	474.06
313.246	455.06
313.476	426.06
313.706	411.06
313.935	434.06
314.165	422.06
314.394	464.06
314.624	453.06
314.853	452.06
315.083	448.06
315.312	425.06
315.542	439.06
315.771	423.06
316.001	412.06
316.23	430.06
316.46	403.06
316.689	425.06
316.919	435.06
317.148	447.06
317.377	441.06
317.607	411.06
317.836	445.06
318.065	425.06
318.295	443.06
318.524	434.06
318.753	421.06
318.983	418.06
319.212	421.06
319.441	427.06
319.67	437.06
319.9	441.06
320.129	418.06
320.358	408.06
320.587	453.06
320.816	445.06
321.046	454.06
321.275	457.06
321.504	467.06
321.733	453.06
321.962	477.06
322.191	484.06
322.42	497.06
322.649	514.06
322.878	519.06
323.108	553.06
323.337	569.06
323.566	571.06
323.795	637.06
324.024	707.06
324.253	851.06
324.482	1218.06
324.71	1862.06
324.939	2689.06
325.168	2371.06
325.397	1189.06
325.626	818.06
325.855	659.06
326.084	614.06
326.313	605.06
326.542	583.06
326.77	642.06
326.999	798.06
327.228	1081.06
327.457	1626.06
327.686	2017.06
327.914	1374.06
328.143	903.06
328.372	796.06
328.6	733.06
328.829	685.06
329.058	687.06
329.287	691.06
329.515	645.06
329.744	627.06
329.972	622.06
330.201	685.06
330.43	722.06
330.658	763.06
330.887	733.06
331.115	741.06
331.344	616.06
331.572	586.06
331.801	584.06
332.03	580.06
332.258	557.06
332.486	545.06
332.715	509.06
332.943	545.06
333.172	519.06
333.4	517.06
333.629	541.06
333.857	601.06
334.085	590.06
334.314	632.06
334.542	711.06
334.771	713.06
334.999	654.06
335.227	545.06
335.455	541.06
335.684	498.06
335.912	486.06
336.14	492.06
336.369	506.06
336.597	505.06
336.825	494.06
337.053	501.06
337.281	489.06
337.51	489.06
337.738	482.06
337.966	493.06
338.194	490.06
338.422	490.06
338.65	485.06
338.878	458.06
339.106	466.06
339.334	497.06
339.562	461.06
339.79	459.06
340.018	470.06
340.246	479.06
340.474	491.06
340.702	471.06
340.93	466.06
341.158	483.06
341.386	471.06
341.614	480.06
341.842	480.06
342.07	475.06
342.298	465.06
342.526	464.06
342.754	445.06
342.981	449.06
343.209	467.06
343.437	452.06
343.665	453.06
343.893	452.06
344.12	493.06
344.348	467.06
344.576	483.06
344.804	482.06
345.031	484.06
345.259	495.06
345.487	495.06
345.714	464.06
345.942	456.06
346.17	463.06
346.397	464.06
346.625	457.06
346.853	460.06
347.08	449.06
347.308	462.06
347.535	462.06
347.763	469.06
347.99	473.06
348.218	448.06
348.445	482.06
348.673	457.06
348.9	443.06
349.128	443.06
349.355	437.06
349.583	438.06
349.81	455.06
350.037	445.06
350.265	449.06
350.492	429.06
350.72	434.06
350.947	435.06
351.174	465.06
351.402	464.06
351.629	458.06
351.856	469.06
352.083	470.06
352.311	488.06
352.538	505.06
352.765	469.06
352.992	453.06
353.22	458.06
353.447	447.06
353.674	431.06
353.901	425.06
354.128	431.06
354.355	447.06
354.583	440.06
354.81	431.06
355.037	425.06
355.264	407.06
355.491	431.06
355.718	421.06
355.945	426.06
356.172	421.06
356.399	414.06
356.626	413.06
356.853	422.06
357.08	417.06
357.307	405.06
357.534	382.06
357.761	407.06
357.988	428.06
358.215	424.06
358.441	433.06
358.668	416.06
358.895	420.06
359.122	418.06
359.349	420.06
359.576	450.06
359.802	486.06
360.029	504.06
360.256	529.06
360.483	482.06
360.709	453.06
360.936	440.06
361.163	441.06
361.39	441.06
361.616	460.06
361.843	433.06
362.07	421.06
362.296	445.06
362.523	448.06
362.749	438.06
362.976	434.06
363.203	411.06
363.429	439.06
363.656	435.06
363.882	421.06
364.109	423.06
364.335	433.06
364.562	419.06
364.788	425.06
365.015	431.06
365.241	413.06
365.468	423.06
365.694	433.06
365.92	421.06
366.147	431.06
366.373	435.06
366.599	415.06
366.826	403.06
367.052	408.06
367.278	427.06
367.505	415.06
367.731	415.06
367.957	417.06
368.184	427.06
368.41	425.06
368.636	442.06
368.862	453.06
369.089	435.06
369.315	427.06
369.541	425.06
369.767	414.06
369.993	429.06
370.219	430.06
370.445	409.06
370.672	422.06
370.898	409.06
371.124	397.06
371.35	416.06
371.576	402.06
371.802	421.06
372.028	411.06
372.254	415.06
372.48	430.06
372.706	411.06
372.932	418.06
373.158	399.06
373.384	416.06
373.61	397.06
373.835	391.06
374.061	417.06
374.287	411.06
374.513	418.06
374.739	416.06
374.965	412.06
375.191	420.06
375.416	434.06
375.642	383.06
375.868	439.06
376.094	410.06
376.319	388.06
376.545	389.06
376.771	403.06
376.997	400.06
377.222	404.06
377.448	407.06
377.674	401.06
377.899	391.06
378.125	410.06
378.35	418.06
378.576	395.06
378.802	398.06
379.027	393.06
379.253	412.06
379.478	419.06
379.704	403.06
379.929	395.06
380.155	412.06
380.38	399.06
380.606	404.06
380.831	404.06
381.057	409.06
381.282	409.06
381.507	402.06
381.733	398.06
381.958	398.06
382.184	402.06
382.409	406.06
382.634	396.06
382.86	411.06
383.085	415.06
383.31	385.06
383.535	410.06
383.761	408.06
383.986	426.06
384.211	406.06
384.436	419.06
384.662	432.06
384.887	430.06
385.112	414.06
385.337	419.06
385.562	424.06
385.787	446.06
386.013	414.06
386.238	434.06
386.463	439.06
386.688	428.06
386.913	430.06
387.138	437.06
387.363	417.06
387.588	447.06
387.813	441.06
388.038	439.06
388.263	416.06
388.488	433.06
388.713	413.06
388.938	439.06
389.163	412.06
389.387	409.06
389.612	430.06
389.837	441.06
390.062	405.06
390.287	425.06
390.512	434.06
390.736	429.06
390.961	425.06
391.186	400.06
391.411	425.06
391.636	430.06
391.86	438.06
392.085	430.06
392.31	418.06
392.534	425.06
392.759	453.06
392.984	418.06
393.208	406.06
393.433	419.06
393.658	414.06
393.882	432.06
394.107	425.06
394.331	404.06
394.556	433.06
394.78	425.06
395.005	420.06
395.229	437.06
395.454	424.06
395.678	437.06
395.903	462.06
396.127	461.06
396.352	479.06
396.576	462.06
396.801	441.06
397.025	439.06
397.249	449.06
397.474	432.06
397.698	465.06
397.922	463.06
398.147	481.06
398.371	462.06
398.595	477.06
398.82	466.06
399.044	465.06
399.268	487.06
399.492	517.06
399.717	517.06
399.941	547.06
400.165	577.06
400.389	586.06
400.613	545.06
400.837	523.06
401.062	500.06
401.286	490.06
401.51	473.06
401.734	472.06
401.958	476.06
402.182	474.06
402.406	496.06
402.63	494.06
402.854	487.06
403.078	497.06
403.302	498.06
403.526	492.06
403.75	502.06
403.974	491.06
404.198	487.06
404.422	506.06
404.645	519.06
404.869	541.06
405.093	553.06
405.317	598.06
405.541	653.06
405.765	597.06
405.988	537.06
406.212	541.06
406.436	567.06
406.66	599.06
406.883	567.06
407.107	550.06
407.331	604.06
407.555	677.06
407.778	661.06
408.002	575.06
408.226	562.06
408.449	541.06
408.673	559.06
408.896	598.06
409.12	617.06
409.344	602.06
409.567	531.06
409.791	525.06
410.014	527.06
410.238	517.06
410.461	505.06
410.685	501.06
410.908	523.06
411.132	544.06
411.355	606.06
411.578	562.06
411.802	532.06
412.025	523.06
412.249	538.06
412.472	559.06
412.695	613.06
412.919	613.06
413.142	544.06
413.365	512.06
413.589	503.06
413.812	495.06
414.035	482.06
414.258	472.06
414.482	458.06
414.705	452.06
414.928	464.06
415.151	466.06
415.374	470.06
415.597	432.06
415.821	457.06
416.044	481.06
416.267	473.06
416.49	472.06
416.713	471.06
416.936	450.06
417.159	489.06
417.382	509.06
417.605	487.06
417.828	506.06
418.051	521.06
418.274	481.06
418.497	476.06
418.72	503.06
418.943	465.06
419.166	496.06
419.389	519.06
419.611	518.06
419.834	497.06
420.057	549.06
420.28	512.06
420.503	532.06
420.726	521.06
420.948	537.06
421.171	561.06
421.394	567.06
421.617	532.06
421.839	501.06
422.062	512.06
422.285	513.06
422.507	550.06
422.73	636.06
422.953	630.06
423.175	542.06
423.398	519.06
423.621	535.06
423.843	530.06
424.066	533.06
424.288	547.06
424.511	552.06
424.733	598.06
424.956	702.06
425.178	674.06
425.401	667.06
425.623	691.06
425.846	591.06
426.068	537.06
426.291	537.06
426.513	549.06
426.735	561.06
426.958	587.06
427.18	675.06
427.402	821.06
427.625	891.06
427.847	845.06
428.069	738.06
428.292	647.06
428.514	578.06
428.736	529.06
428.958	515.06
429.181	507.06
429.403	513.06
429.625	503.06
429.847	551.06
430.069	624.06
430.292	624.06
430.514	536.06
430.736	519.06
430.958	513.06
431.18	490.06
431.402	479.06
431.624	475.06
431.846	464.06
432.068	459.06
432.29	458.06
432.512	475.06
432.734	483.06
432.956	478.06
433.178	474.06
433.4	505.06
433.622	478.06
433.844	465.06
434.066	445.06
434.287	446.06
434.509	465.06
434.731	476.06
434.953	485.06
435.175	494.06
435.397	535.06
435.618	555.06
435.84	587.06
436.062	681.06
436.284	767.06
436.505	635.06
436.727	584.06
436.949	523.06
437.17	513.06
437.392	488.06
437.614	514.06
437.835	551.06
438.057	661.06
438.278	766.06
438.5	775.06
438.721	823.06
438.943	800.06
439.165	637.06
439.386	571.06
439.608	562.06
439.829	549.06
440.05	593.06
440.272	656.06
440.493	584.06
440.715	543.06
440.936	520.06
441.158	507.06
441.379	498.06
441.6	510.06
441.822	529.06
442.043	582.06
442.264	654.06
442.486	727.06
442.707	599.06
442.928	545.06
443.149	573.06
443.371	604.06
443.592	606.06
443.813	702.06
444.034	761.06
444.255	649.06
444.476	561.06
444.698	565.06
444.919	530.06
445.14	657.06
445.361	596.06
445.582	610.06
445.803	660.06
446.024	771.06
446.245	785.06
446.466	698.06
446.687	629.06
446.908	573.06
447.129	521.06
447.35	516.06
447.571	509.06
447.792	493.06
448.013	507.06
448.234	525.06
448.455	588.06
448.675	699.06
448.896	847.06
449.117	706.06
449.338	672.06
449.559	772.06
449.779	875.06
450	710.06
450.221	567.06
450.442	543.06
450.662	483.06
450.883	519.06
451.104	531.06
451.324	495.06
451.545	511.06
451.766	482.06
451.986	449.06
452.207	457.06
452.428	438.06
452.648	460.06
452.869	466.06
453.089	476.06
453.31	468.06
453.53	444.06
453.751	438.06
453.971	472.06
454.192	481.06
454.412	470.06
454.633	453.06
454.853	445.06
455.073	462.06
455.294	475.06
455.514	539.06
455.734	537.06
455.955	461.06
456.175	431.06
456.395	429.06
456.616	427.06
456.836	410.06
457.056	421.06
457.276	394.06
457.497	411.06
457.717	403.06
457.937	406.06
458.157	420.06
458.377	424.06
458.598	460.06
458.818	506.06
459.038	601.06
459.258	640.06
459.478	521.06
459.698	478.06
459.918	452.06
460.138	441.06
460.358	471.06
460.578	447.06
460.798	479.06
461.018	467.06
461.238	464.06
461.458	435.06
461.678	440.06
461.898	463.06
462.118	463.06
462.338	450.06
462.558	468.06
462.777	472.06
462.997	483.06
463.217	485.06
463.437	505.06
463.657	490.06
463.876	510.06
464.096	477.06
464.316	487.06
464.536	485.06
464.755	487.06
464.975	505.06
465.195	553.06
465.414	609.06
465.634	551.06
465.854	521.06
466.073	485.06
466.293	452.06
466.512	456.06
466.732	465.06
466.951	461.06
467.171	436.06
467.391	454.06
467.61	455.06
467.829	444.06
468.049	457.06
468.268	479.06
468.488	449.06
468.707	467.06
468.927	450.06
469.146	472.06
469.365	433.06
469.585	451.06
469.804	463.06
470.023	453.06
470.243	453.06
470.462	482.06
470.681	489.06
470.901	477.06
471.12	463.06
471.339	460.06
471.558	463.06
471.777	454.06
471.997	473.06
472.216	501.06
472.435	558.06
472.654	539.06
472.873	486.06
473.092	479.06
473.311	461.06
473.53	483.06
473.749	497.06
473.968	526.06
474.187	641.06
474.406	681.06
474.625	537.06
474.844	482.06
475.063	459.06
475.282	477.06
475.501	476.06
475.72	477.06
475.939	463.06
476.158	497.06
476.377	470.06
476.596	490.06
476.814	470.06
477.033	496.06
477.252	468.06
477.471	501.06
477.69	498.06
477.908	492.06
478.127	506.06
478.346	510.06
478.564	486.06
478.783	496.06
479.002	503.06
479.22	512.06
479.439	519.06
479.658	530.06
479.876	579.06
480.095	556.06
480.313	579.06
480.532	578.06
480.751	568.06
480.969	612.06
481.188	711.06
481.406	809.06
481.624	675.06
481.843	601.06
482.061	599.06
482.28	574.06
482.498	581.06
482.717	543.06
482.935	548.06
483.153	531.06
483.372	549.06
483.59	561.06
483.808	545.06
484.027	541.06
484.245	551.06
484.463	553.06
484.681	550.06
484.9	554.06
485.118	551.06
485.336	561.06
485.554	556.06
485.772	583.06
485.99	569.06
486.209	554.06
486.427	566.06
486.645	593.06
486.863	608.06
487.081	600.06
487.299	582.06
487.517	585.06
487.735	566.06
487.953	576.06
488.171	582.06
488.389	587.06
488.607	582.06
488.825	592.06
489.043	596.06
489.261	587.06
489.479	602.06
489.696	603.06
489.914	622.06
490.132	605.06
490.35	613.06
490.568	611.06
490.786	634.06
491.003	653.06
491.221	656.06
491.439	655.06
491.657	684.06
491.874	697.06
492.092	665.06
492.31	700.06
492.527	705.06
492.745	690.06
492.963	685.06
493.18	708.06
493.398	723.06
493.615	696.06
493.833	699.06
494.05	685.06
494.268	695.06
494.485	701.06
494.703	715.06
494.92	693.06
495.138	694.06
495.355	714.06
495.573	733.06
495.79	717.06
496.008	714.06
496.225	693.06
496.442	690.06
496.66	726.06
496.877	702.06
497.094	697.06
497.312	708.06
497.529	729.06
497.746	705.06
497.963	721.06
498.181	725.06
498.398	762.06
498.615	751.06
498.832	775.06
499.049	781.06
499.267	781.06
499.484	810.06
499.701	821.06
499.918	847.06
500.135	813.06
500.352	863.06
500.569	898.06
500.786	901.06
501.003	883.06
501.22	862.06
501.437	880.06
501.654	857.06
501.871	882.06
502.088	817.06
502.305	797.06
502.522	759.06
502.739	735.06
502.956	713.06
503.172	732.06
503.389	694.06
503.606	721.06
503.823	727.06
504.04	706.06
504.256	687.06
504.473	665.06
504.69	669.06
504.907	710.06
505.123	663.06
505.34	658.06
505.557	653.06
505.773	667.06
505.99	673.06
506.207	671.06
506.423	671.06
506.64	635.06
506.856	627.06
507.073	657.06
507.289	632.06
507.506	637.06
507.722	677.06
507.939	682.06
508.155	661.06
508.372	645.06
508.588	602.06
508.805	622.06
509.021	623.06
509.238	665.06
509.454	671.06
509.67	661.06
509.887	643.06
510.103	631.06
510.319	649.06
510.536	770.06
510.752	1286.06
510.968	1067.06
511.184	667.06
511.401	645.06
511.617	643.06
511.833	625.06
512.049	621.06
512.265	634.06
512.481	633.06
512.698	596.06
512.914	598.06
513.13	600.06
513.346	602.06
513.562	590.06
513.778	577.06
513.994	608.06
514.21	634.06
514.426	641.06
514.642	697.06
514.858	737.06
515.074	784.06
515.29	929.06
515.506	1407.06
515.721	1148.06
515.937	744.06
516.153	702.06
516.369	679.06
516.585	628.06
516.801	610.06
517.016	605.06
517.232	606.06
517.448	608.06
517.664	616.06
517.879	618.06
518.095	595.06
518.311	606.06
518.527	617.06
518.742	629.06
518.958	603.06
519.173	593.06
519.389	589.06
519.605	607.06
519.82	623.06
520.036	630.06
520.251	633.06
520.467	685.06
520.682	686.06
520.898	659.06
521.113	697.06
521.329	771.06
521.544	847.06
521.76	1102.06
521.975	1819.06
522.19	1793.06
522.406	961.06
522.621	727.06
522.836	654.06
523.052	591.06
523.267	576.06
523.482	573.06
523.698	540.06
523.913	551.06
524.128	540.06
524.343	549.06
524.559	554.06
524.774	531.06
524.989	532.06
525.204	531.06
525.419	534.06
525.634	543.06
525.849	502.06
526.064	495.06
526.28	475.06
526.495	479.06
526.71	478.06
526.925	478.06
527.14	472.06
527.355	470.06
527.57	461.06
527.785	499.06
527.999	487.06
528.214	477.06
528.429	489.06
528.644	502.06
528.859	485.06
529.074	480.06
529.289	525.06
529.503	591.06
529.718	585.06
529.933	518.06
530.148	515.06
530.363	504.06
530.577	475.06
530.792	471.06
531.007	474.06
531.221	480.06
531.436	465.06
531.651	478.06
531.865	451.06
532.08	457.06
532.295	466.06
532.509	464.06
532.724	471.06
532.938	475.06
533.153	455.06
533.367	472.06
533.582	459.06
533.796	467.06
534.011	453.06
534.225	459.06
534.44	434.06
534.654	469.06
534.868	449.06
535.083	440.06
535.297	443.06
535.511	435.06
535.726	449.06
535.94	468.06
536.154	455.06
536.369	448.06
536.583	466.06
536.797	453.06
537.011	447.06
537.225	427.06
537.44	424.06
537.654	438.06
537.868	433.06
538.082	431.06
538.296	433.06
538.51	448.06
538.724	457.06
538.938	434.06
539.153	443.06
539.367	453.06
539.581	442.06
539.795	442.06
540.009	425.06
540.222	449.06
540.436	448.06
540.65	451.06
540.864	447.06
541.078	450.06
541.292	459.06
541.506	446.06
541.72	449.06
541.934	439.06
542.147	456.06
542.361	435.06
542.575	450.06
542.789	435.06
543.002	422.06
543.216	440.06
543.43	443.06
543.644	440.06
543.857	457.06
544.071	440.06
544.285	438.06
544.498	424.06
544.712	423.06
544.925	449.06
545.139	421.06
545.352	427.06
545.566	423.06
545.779	417.06
545.993	422.06
546.206	422.06
546.42	427.06
546.633	417.06
546.847	430.06
547.06	412.06
547.274	409.06
547.487	426.06
547.7	407.06
547.914	405.06
548.127	414.06
548.34	417.06
548.554	396.06
548.767	409.06
548.98	410.06
549.193	399.06
549.407	402.06
549.62	415.06
549.833	417.06
550.046	403.06
550.259	401.06
550.473	415.06
550.686	416.06
550.899	401.06
551.112	384.06
551.325	393.06
551.538	400.06
551.751	400.06
551.964	407.06
552.177	401.06
552.39	411.06
552.603	409.06
552.816	412.06
553.029	397.06
553.242	406.06
553.455	421.06
553.667	418.06
553.88	449.06
554.093	420.06
554.306	440.06
554.519	430.06
554.732	405.06
554.944	397.06
555.157	390.06
555.37	401.06
555.583	388.06
555.795	394.06
556.008	404.06
556.221	380.06
556.433	378.06
556.646	397.06
556.859	394.06
557.071	385.06
557.284	387.06
557.496	368.06
557.709	375.06
557.921	362.06
558.134	373.06
558.346	359.06
558.559	385.06
558.771	368.06
558.984	363.06
559.196	373.06
559.409	370.06
559.621	359.06
559.833	379.06
560.046	389.06
560.258	375.06
560.47	357.06
560.683	381.06
560.895	355.06
561.107	365.06
561.32	366.06
561.532	389.06
561.744	365.06
561.956	367.06
562.168	365.06
562.381	347.06
562.593	370.06
562.805	376.06
563.017	357.06
563.229	361.06
563.441	373.06
563.653	375.06
563.865	371.06
564.077	370.06
564.289	360.06
564.501	378.06
564.713	388.06
564.925	385.06
565.137	378.06
565.349	390.06
565.561	395.06
565.773	392.06
565.985	387.06
566.197	380.06
566.408	410.06
566.62	397.06
566.832	422.06
567.044	426.06
567.255	425.06
567.467	425.06
567.679	438.06
567.891	429.06
568.102	415.06
568.314	417.06
568.526	404.06
568.737	431.06
568.949	402.06
569.161	397.06
569.372	378.06
569.584	378.06
569.795	388.06
570.007	368.06
570.218	441.06
570.43	421.06
570.641	378.06
570.853	364.06
571.064	331.06
571.276	345.06
571.487	365.06
571.698	334.06
571.91	357.06
572.121	323.06
572.333	346.06
572.544	333.06
572.755	323.06
572.966	326.06
573.178	329.06
573.389	305.06
573.6	319.06
573.811	321.06
574.023	334.06
574.234	319.06
574.445	312.06
574.656	316.06
574.867	300.06
575.078	319.06
575.289	321.06
575.501	302.06
575.712	316.06
575.923	325.06
576.134	300.06
576.345	309.06
576.556	306.06
576.767	321.06
576.978	313.06
577.188	320.06
577.399	310.06
577.61	311.06
577.821	299.06
578.032	316.06
578.243	353.06
578.454	585.06
578.665	431.06
578.875	318.06
579.086	303.06
579.297	292.06
579.508	303.06
579.718	293.06
579.929	289.06
580.14	303.06
580.35	293.06
580.561	300.06
580.772	301.06
580.982	289.06
581.193	297.06
581.403	308.06
581.614	295.06
581.825	272.06
582.035	306.06
582.246	297.06
582.456	295.06
582.667	302.06
582.877	289.06
583.087	295.06
583.298	296.06
583.508	307.06
583.719	285.06
583.929	279.06
584.139	275.06
584.35	290.06
584.56	296.06
584.77	287.06
584.981	265.06
585.191	301.06
585.401	283.06
585.611	270.06
585.821	301.06
586.032	282.06
586.242	274.06
586.452	279.06
586.662	297.06
586.872	282.06
587.082	279.06
587.292	288.06
587.502	289.06
587.713	284.06
587.923	287.06
588.133	273.06
588.343	284.06
588.553	281.06
588.762	275.06
588.972	283.06
589.182	279.06
589.392	269.06
589.602	291.06
589.812	275.06
590.022	287.06
590.232	281.06
590.441	272.06
590.651	305.06
590.861	277.06
591.071	269.06
591.281	281.06
591.49	274.06
591.7	286.06
591.91	284.06
592.119	284.06
592.329	301.06
592.539	269.06
592.748	303.06
592.958	282.06
593.167	279.06
593.377	264.06
593.587	297.06
593.796	287.06
594.006	281.06
594.215	292.06
594.424	296.06
594.634	281.06
594.843	279.06
595.053	304.06
595.262	279.06
595.472	290.06
595.681	285.06
595.89	278.06
596.1	278.06
596.309	265.06
596.518	263.06
596.727	286.06
596.937	269.06
597.146	259.06
597.355	255.06
597.564	270.06
597.774	264.06
597.983	262.06
598.192	265.06
598.401	249.06
598.61	267.06
598.819	263.06
599.028	258.06
599.237	249.06
599.446	252.06
599.655	255.06
599.864	251.06
600.073	249.06
600.282	258.06
600.491	250.06
600.7	251.06
600.909	250.06
601.118	256.06
601.327	238.06
601.536	248.06
601.745	238.06
601.953	234.06
602.162	242.06
602.371	247.06
602.58	222.06
602.789	240.06
602.997	240.06
603.206	244.06
603.415	261.06
603.623	232.06
603.832	239.06
604.041	225.06
604.249	235.06
604.458	263.06
604.666	242.06
604.875	250.06
605.084	249.06
605.292	236.06
605.501	245.06
605.709	246.06
605.918	238.06
606.126	237.06
606.334	229.06
606.543	247.06
606.751	247.06
606.96	226.06
607.168	227.06
607.376	230.06
607.585	218.06
607.793	227.06
608.001	247.06
608.21	237.06
608.418	233.06
608.626	228.06
608.834	242.06
609.043	240.06
609.251	235.06
609.459	235.06
609.667	228.06
609.875	225.06
610.083	239.06
610.291	228.06
610.499	224.06
610.707	212.06
610.916	236.06
611.124	225.06
611.332	205.06
611.54	239.06
611.748	228.06
611.955	231.06
612.163	215.06
612.371	224.06
612.579	236.06
612.787	245.06
612.995	247.06
613.203	222.06
613.411	232.06
613.618	217.06
613.826	227.06
614.034	230.06
614.242	234.06
614.449	223.06
614.657	232.06
614.865	234.06
615.072	232.06
615.28	221.06
615.488	218.06
615.695	214.06
615.903	232.06
616.111	211.06
616.318	224.06
616.526	225.06
616.733	230.06
616.941	234.06
617.148	226.06
617.356	214.06
617.563	209.06
617.771	226.06
617.978	216.06
618.185	215.06
618.393	211.06
618.6	229.06
618.807	222.06
619.015	207.06
619.222	222.06
619.429	217.06
619.637	206.06
619.844	234.06
620.051	222.06
620.258	235.06
620.466	232.06
620.673	210.06
620.88	228.06
621.087	209.06
621.294	203.06
621.501	198.06
621.708	211.06
621.915	215.06
622.122	224.06
622.329	214.06
622.536	229.06
622.743	212.06
622.95	222.06
623.157	202.06
623.364	208.06
623.571	205.06
623.778	201.06
623.985	209.06
624.192	219.06
624.399	201.06
624.606	222.06
624.812	209.06
625.019	206.06
625.226	199.06
625.433	203.06
625.639	210.06
625.846	213.06
626.053	200.06
626.259	204.06
626.466	212.06
626.673	205.06
626.879	202.06
627.086	204.06
627.293	209.06
627.499	194.06
627.706	202.06
627.912	201.06
628.119	203.06
628.325	189.06
628.532	208.06
628.738	209.06
628.945	202.06
629.151	211.06
629.357	177.06
629.564	198.06
629.77	178.06
629.976	198.06
630.183	201.06
630.389	184.06
630.595	202.06
630.802	187.06
631.008	167.06
631.214	185.06
631.42	180.06
631.627	194.06
631.833	185.06
632.039	181.06
632.245	174.06
632.451	179.06
632.657	181.06
632.863	191.06
633.069	182.06
633.275	175.06
633.481	197.06
633.688	188.06
633.893	193.06
634.099	186.06
634.305	185.06
634.511	181.06
634.717	185.06
634.923	185.06
635.129	181.06
635.335	189.06
635.541	175.06
635.747	170.06
635.952	189.06
636.158	163.06
636.364	181.06
636.57	198.06
636.775	185.06
636.981	185.06
637.187	187.06
637.392	177.06
637.598	181.06
637.804	179.06
638.009	160.06
638.215	161.06
638.421	169.06
638.626	178.06
638.832	153.06
639.037	160.06
639.243	170.06
639.448	193.06
639.654	188.06
639.859	167.06
640.065	165.06
640.27	165.06
640.475	158.06
640.681	162.06
640.886	167.06
641.091	174.06
641.297	183.06
641.502	177.06
641.707	165.06
641.913	175.06
642.118	166.06
642.323	162.06
642.528	169.06
642.733	169.06
642.939	184.06
643.144	171.06
643.349	153.06
643.554	145.06
643.759	167.06
643.964	170.06
644.169	173.06
644.374	165.06
644.579	164.06
644.784	161.06
644.989	183.06
645.194	173.06
645.399	167.06
645.604	156.06
645.809	166.06
646.014	161.06
646.219	155.06
646.423	155.06
646.628	162.06
646.833	158.06
647.038	178.06
647.243	177.06
647.447	162.06
647.652	155.06
647.857	171.06
648.062	162.06
648.266	162.06
648.471	167.06
648.676	157.06
648.88	163.06
649.085	161.06
649.289	163.06
649.494	173.06
649.698	186.06
649.903	183.06
650.107	174.06
650.312	156.06
650.516	147.06
650.721	153.06
650.925	157.06
651.13	145.06
651.334	149.06
651.539	145.06
651.743	155.06
651.947	149.06
652.152	145.06
652.356	150.06
652.56	141.06
652.764	144.06
652.969	147.06
653.173	151.06
653.377	137.06
653.581	128.06
653.785	146.06
653.99	133.06
654.194	139.06
654.398	135.06
654.602	145.06
654.806	135.06
655.01	152.06
655.214	135.06
655.418	144.06
655.622	130.06
655.826	137.06
656.03	138.06
656.234	132.06
656.438	117.06
656.642	139.06
656.846	143.06
657.049	137.06
657.253	127.06
657.457	128.06
657.661	131.06
657.865	115.06
658.068	121.06
658.272	107.06
658.476	92.06
658.68	115.06
658.883	122.06
659.087	105.06
659.291	106.06
659.494	107.06
659.698	102.06
659.901	83.06
660.105	101.06
660.309	84.06
660.512	104.06
660.716	93.06
660.919	91.06
661.123	88.06
661.326	96.06
661.53	102.06
661.733	98.06
661.936	99.06
662.14	89.06
662.343	96.06
662.546	104.06
662.75	99.06
662.953	94.06
663.156	89.06
663.36	77.06
663.563	98.06
663.766	95.06
663.969	96.06
664.173	104.06
664.376	76.06
664.579	87.06
664.782	107.06
664.985	91.06
665.188	105.06
665.391	99.06
665.594	99.06
665.797	87.06
666	94.06
666.203	100.06
666.406	90.06
666.609	89.06
666.812	87.06
667.015	79.06
667.218	90.06
667.421	95.06
667.624	86.06
667.827	75.06
668.03	91.06
668.232	91.06
668.435	93.06
668.638	78.06
668.841	97.06
669.043	87.06
669.246	98.06
669.449	79.06
669.651	94.06
669.854	81.06
670.057	90.06
670.259	96.06
670.462	90.06
670.665	91.06
670.867	87.06
671.07	90.06
671.272	80.06
671.475	80.06
671.677	82.06
671.88	82.06
672.082	97.06
672.284	85.06
672.487	91.06
672.689	77.06
672.892	93.06
