Data from 1989.PennyLincolnUp.Lamp.En5.5.200Scan.071819.P2_HRD10591_17-25-23-973.txt Node
Date: Thu Jul 18 17:25:23 EDT 2019
User: cochatt
Spectrometer: HR+D1059
Trigger mode: 1
Integration Time (sec): 1.000000E-1
Scans to average: 1
Electric dark correction enabled: true
Nonlinearity correction enabled: false
Boxcar width: 0
XAxis mode: Wavelengths
Number of Pixels in Spectrum: 2048
>>>>>Begin Spectral Data<<<<<
223.165	-19.25
223.4	-19.25
223.635	-19.25
223.869	-8.25
224.104	-17.25
224.338	-25.25
224.573	-26.25
224.808	-11.25
225.042	5.75
225.277	-9.25
225.511	9.75
225.746	2.75
225.98	1.75
226.215	-4.25
226.449	15.75
226.683	32.75
226.918	20.75
227.152	31.75
227.387	25.75
227.621	30.75
227.856	32.75
228.09	42.75
228.324	40.75
228.559	43.75
228.793	67.75
229.027	108.75
229.262	101.75
229.496	114.75
229.73	145.75
229.964	162.75
230.199	139.75
230.433	127.75
230.667	120.75
230.901	115.75
231.136	103.75
231.37	120.75
231.604	92.75
231.838	114.75
232.072	120.75
232.306	119.75
232.541	115.75
232.775	123.75
233.009	105.75
233.243	114.75
233.477	119.75
233.711	119.75
233.945	97.75
234.179	107.75
234.413	112.75
234.647	136.75
234.881	131.75
235.115	126.75
235.349	128.75
235.583	125.75
235.817	125.75
236.051	129.75
236.285	126.75
236.519	102.75
236.753	142.75
236.987	172.75
237.221	194.75
237.455	254.75
237.689	207.75
237.922	150.75
238.156	124.75
238.39	127.75
238.624	138.75
238.858	147.75
239.091	138.75
239.325	128.75
239.559	123.75
239.793	130.75
240.027	133.75
240.26	151.75
240.494	172.75
240.728	161.75
240.961	148.75
241.195	153.75
241.429	138.75
241.662	132.75
241.896	147.75
242.13	129.75
242.363	136.75
242.597	140.75
242.83	139.75
243.064	146.75
243.298	130.75
243.531	148.75
243.765	140.75
243.998	145.75
244.232	132.75
244.465	156.75
244.699	154.75
244.932	153.75
245.166	137.75
245.399	153.75
245.633	153.75
245.866	156.75
246.099	151.75
246.333	157.75
246.566	161.75
246.8	163.75
247.033	159.75
247.266	174.75
247.5	170.75
247.733	186.75
247.966	195.75
248.2	176.75
248.433	188.75
248.666	191.75
248.899	202.75
249.133	220.75
249.366	229.75
249.599	201.75
249.832	211.75
250.066	184.75
250.299	197.75
250.532	223.75
250.765	223.75
250.998	264.75
251.231	243.75
251.465	239.75
251.698	215.75
251.931	201.75
252.164	232.75
252.397	219.75
252.63	221.75
252.863	234.75
253.096	230.75
253.329	245.75
253.562	235.75
253.795	242.75
254.028	242.75
254.261	235.75
254.494	257.75
254.727	302.75
254.96	330.75
255.193	312.75
255.426	281.75
255.659	246.75
255.892	260.75
256.124	258.75
256.357	279.75
256.59	245.75
256.823	234.75
257.056	239.75
257.289	235.75
257.521	254.75
257.754	227.75
257.987	216.75
258.22	223.75
258.452	233.75
258.685	252.75
258.918	235.75
259.151	252.75
259.383	261.75
259.616	242.75
259.849	258.75
260.081	257.75
260.314	271.75
260.547	302.75
260.779	270.75
261.012	252.75
261.244	241.75
261.477	266.75
261.71	248.75
261.942	262.75
262.175	269.75
262.407	254.75
262.64	216.75
262.872	230.75
263.105	217.75
263.337	237.75
263.57	235.75
263.802	236.75
264.035	246.75
264.267	245.75
264.499	227.75
264.732	227.75
264.964	227.75
265.197	225.75
265.429	219.75
265.661	226.75
265.894	236.75
266.126	233.75
266.358	228.75
266.591	249.75
266.823	238.75
267.055	240.75
267.287	263.75
267.52	248.75
267.752	249.75
267.984	245.75
268.216	242.75
268.448	260.75
268.681	257.75
268.913	273.75
269.145	308.75
269.377	285.75
269.609	300.75
269.841	308.75
270.073	298.75
270.306	322.75
270.538	341.75
270.77	363.75
271.002	347.75
271.234	335.75
271.466	343.75
271.698	353.75
271.93	334.75
272.162	350.75
272.394	371.75
272.626	346.75
272.858	333.75
273.09	293.75
273.322	307.75
273.553	297.75
273.785	302.75
274.017	286.75
274.249	268.75
274.481	293.75
274.713	272.75
274.945	300.75
275.176	289.75
275.408	294.75
275.64	302.75
275.872	283.75
276.104	302.75
276.335	272.75
276.567	286.75
276.799	306.75
277.031	338.75
277.262	343.75
277.494	354.75
277.726	339.75
277.957	353.75
278.189	315.75
278.421	297.75
278.652	294.75
278.884	300.75
279.115	290.75
279.347	296.75
279.579	294.75
279.81	291.75
280.042	295.75
280.273	307.75
280.505	292.75
280.736	289.75
280.968	295.75
281.199	297.75
281.431	284.75
281.662	286.75
281.894	298.75
282.125	299.75
282.356	311.75
282.588	335.75
282.819	358.75
283.051	326.75
283.282	285.75
283.513	271.75
283.745	296.75
283.976	314.75
284.207	317.75
284.439	294.75
284.67	302.75
284.901	315.75
285.132	293.75
285.364	312.75
285.595	310.75
285.826	279.75
286.057	286.75
286.288	282.75
286.52	289.75
286.751	314.75
286.982	295.75
287.213	311.75
287.444	315.75
287.675	316.75
287.906	294.75
288.138	318.75
288.369	317.75
288.6	322.75
288.831	326.75
289.062	321.75
289.293	328.75
289.524	319.75
289.755	305.75
289.986	309.75
290.217	303.75
290.448	311.75
290.679	312.75
290.91	304.75
291.141	302.75
291.371	328.75
291.602	316.75
291.833	302.75
292.064	321.75
292.295	307.75
292.526	320.75
292.757	304.75
292.987	314.75
293.218	294.75
293.449	318.75
293.68	322.75
293.91	303.75
294.141	295.75
294.372	286.75
294.603	306.75
294.833	304.75
295.064	313.75
295.295	311.75
295.525	323.75
295.756	339.75
295.987	328.75
296.217	347.75
296.448	359.75
296.679	341.75
296.909	314.75
297.14	297.75
297.37	334.75
297.601	310.75
297.831	311.75
298.062	333.75
298.292	325.75
298.523	330.75
298.753	330.75
298.984	345.75
299.214	336.75
299.445	327.75
299.675	338.75
299.905	338.75
300.136	344.75
300.366	334.75
300.597	348.75
300.827	346.75
301.057	335.75
301.288	346.75
301.518	347.75
301.748	334.75
301.979	357.75
302.209	343.75
302.439	352.75
302.669	341.75
302.9	322.75
303.13	352.75
303.36	351.75
303.59	341.75
303.82	360.75
304.051	359.75
304.281	354.75
304.511	338.75
304.741	335.75
304.971	345.75
305.201	355.75
305.431	350.75
305.661	361.75
305.891	343.75
306.121	341.75
306.352	359.75
306.582	362.75
306.812	356.75
307.042	337.75
307.272	342.75
307.502	345.75
307.731	361.75
307.961	370.75
308.191	352.75
308.421	342.75
308.651	359.75
308.881	358.75
309.111	386.75
309.341	370.75
309.571	375.75
309.8	391.75
310.03	417.75
310.26	405.75
310.49	400.75
310.72	422.75
310.949	436.75
311.179	460.75
311.409	419.75
311.639	409.75
311.868	435.75
312.098	411.75
312.328	420.75
312.557	447.75
312.787	455.75
313.017	450.75
313.246	416.75
313.476	410.75
313.706	415.75
313.935	423.75
314.165	427.75
314.394	439.75
314.624	433.75
314.853	429.75
315.083	417.75
315.312	435.75
315.542	422.75
315.771	397.75
316.001	415.75
316.23	394.75
316.46	396.75
316.689	414.75
316.919	409.75
317.148	427.75
317.377	423.75
317.607	435.75
317.836	419.75
318.065	414.75
318.295	417.75
318.524	392.75
318.753	418.75
318.983	423.75
319.212	397.75
319.441	422.75
319.67	422.75
319.9	430.75
320.129	406.75
320.358	427.75
320.587	430.75
320.816	418.75
321.046	438.75
321.275	435.75
321.504	448.75
321.733	447.75
321.962	464.75
322.191	496.75
322.42	488.75
322.649	489.75
322.878	513.75
323.108	536.75
323.337	547.75
323.566	586.75
323.795	611.75
324.024	657.75
324.253	847.75
324.482	1173.75
324.71	1855.75
324.939	2682.75
325.168	2288.75
325.397	1175.75
325.626	758.75
325.855	666.75
326.084	552.75
326.313	591.75
326.542	602.75
326.77	629.75
326.999	776.75
327.228	1066.75
327.457	1616.75
327.686	1972.75
327.914	1304.75
328.143	855.75
328.372	757.75
328.6	666.75
328.829	637.75
329.058	656.75
329.287	651.75
329.515	616.75
329.744	572.75
329.972	575.75
330.201	598.75
330.43	652.75
330.658	698.75
330.887	705.75
331.115	663.75
331.344	579.75
331.572	542.75
331.801	549.75
332.03	559.75
332.258	515.75
332.486	486.75
332.715	473.75
332.943	486.75
333.172	491.75
333.4	490.75
333.629	500.75
333.857	520.75
334.085	538.75
334.314	519.75
334.542	587.75
334.771	567.75
334.999	532.75
335.227	488.75
335.455	502.75
335.684	486.75
335.912	490.75
336.14	476.75
336.369	460.75
336.597	491.75
336.825	466.75
337.053	487.75
337.281	472.75
337.51	472.75
337.738	468.75
337.966	466.75
338.194	459.75
338.422	481.75
338.65	431.75
338.878	459.75
339.106	438.75
339.334	454.75
339.562	439.75
339.79	464.75
340.018	455.75
340.246	452.75
340.474	453.75
340.702	449.75
340.93	450.75
341.158	457.75
341.386	461.75
341.614	458.75
341.842	466.75
342.07	447.75
342.298	448.75
342.526	439.75
342.754	421.75
342.981	445.75
343.209	447.75
343.437	434.75
343.665	440.75
343.893	436.75
344.12	452.75
344.348	436.75
344.576	453.75
344.804	452.75
345.031	480.75
345.259	459.75
345.487	476.75
345.714	434.75
345.942	452.75
346.17	458.75
346.397	423.75
346.625	431.75
346.853	439.75
347.08	438.75
347.308	421.75
347.535	443.75
347.763	424.75
347.99	447.75
348.218	455.75
348.445	483.75
348.673	462.75
348.9	464.75
349.128	443.75
349.355	403.75
349.583	428.75
349.81	422.75
350.037	406.75
350.265	410.75
350.492	421.75
350.72	426.75
350.947	432.75
351.174	438.75
351.402	450.75
351.629	450.75
351.856	433.75
352.083	447.75
352.311	471.75
352.538	464.75
352.765	472.75
352.992	467.75
353.22	438.75
353.447	439.75
353.674	423.75
353.901	413.75
354.128	422.75
354.355	387.75
354.583	409.75
354.81	411.75
355.037	397.75
355.264	403.75
355.491	391.75
355.718	392.75
355.945	378.75
356.172	394.75
356.399	409.75
356.626	401.75
356.853	408.75
357.08	409.75
357.307	403.75
357.534	372.75
357.761	390.75
357.988	397.75
358.215	414.75
358.441	390.75
358.668	399.75
358.895	392.75
359.122	411.75
359.349	430.75
359.576	434.75
359.802	469.75
360.029	512.75
360.256	519.75
360.483	475.75
360.709	442.75
360.936	436.75
361.163	433.75
361.39	447.75
361.616	434.75
361.843	439.75
362.07	444.75
362.296	441.75
362.523	442.75
362.749	424.75
362.976	433.75
363.203	412.75
363.429	409.75
363.656	423.75
363.882	394.75
364.109	410.75
364.335	407.75
364.562	405.75
364.788	420.75
365.015	417.75
365.241	418.75
365.468	390.75
365.694	404.75
365.92	408.75
366.147	417.75
366.373	402.75
366.599	391.75
366.826	387.75
367.052	396.75
367.278	402.75
367.505	390.75
367.731	408.75
367.957	408.75
368.184	405.75
368.41	425.75
368.636	413.75
368.862	427.75
369.089	400.75
369.315	402.75
369.541	401.75
369.767	411.75
369.993	424.75
370.219	406.75
370.445	409.75
370.672	389.75
370.898	395.75
371.124	409.75
371.35	400.75
371.576	386.75
371.802	402.75
372.028	388.75
372.254	403.75
372.48	383.75
372.706	405.75
372.932	401.75
373.158	396.75
373.384	405.75
373.61	414.75
373.835	397.75
374.061	383.75
374.287	387.75
374.513	386.75
374.739	406.75
374.965	390.75
375.191	382.75
375.416	401.75
375.642	379.75
375.868	395.75
376.094	402.75
376.319	387.75
376.545	394.75
376.771	390.75
376.997	370.75
377.222	408.75
377.448	404.75
377.674	390.75
377.899	376.75
378.125	367.75
378.35	382.75
378.576	378.75
378.802	382.75
379.027	389.75
379.253	409.75
379.478	389.75
379.704	388.75
379.929	402.75
380.155	387.75
380.38	380.75
380.606	379.75
380.831	392.75
381.057	389.75
381.282	400.75
381.507	374.75
381.733	382.75
381.958	394.75
382.184	390.75
382.409	388.75
382.634	404.75
382.86	379.75
383.085	392.75
383.31	410.75
383.535	396.75
383.761	426.75
383.986	407.75
384.211	418.75
384.436	404.75
384.662	405.75
384.887	411.75
385.112	411.75
385.337	406.75
385.562	400.75
385.787	425.75
386.013	410.75
386.238	431.75
386.463	430.75
386.688	409.75
386.913	410.75
387.138	401.75
387.363	417.75
387.588	400.75
387.813	409.75
388.038	417.75
388.263	407.75
388.488	403.75
388.713	409.75
388.938	426.75
389.163	432.75
389.387	402.75
389.612	420.75
389.837	421.75
390.062	436.75
390.287	424.75
390.512	397.75
390.736	417.75
390.961	409.75
391.186	407.75
391.411	395.75
391.636	413.75
391.86	423.75
392.085	433.75
392.31	442.75
392.534	426.75
392.759	424.75
392.984	423.75
393.208	405.75
393.433	393.75
393.658	414.75
393.882	398.75
394.107	400.75
394.331	393.75
394.556	396.75
394.78	421.75
395.005	435.75
395.229	412.75
395.454	428.75
395.678	423.75
395.903	452.75
396.127	465.75
396.352	452.75
396.576	416.75
396.801	416.75
397.025	423.75
397.249	424.75
397.474	435.75
397.698	450.75
397.922	451.75
398.147	468.75
398.371	461.75
398.595	454.75
398.82	448.75
399.044	459.75
399.268	459.75
399.492	500.75
399.717	511.75
399.941	547.75
400.165	572.75
400.389	582.75
400.613	510.75
400.837	518.75
401.062	502.75
401.286	486.75
401.51	466.75
401.734	479.75
401.958	457.75
402.182	453.75
402.406	492.75
402.63	486.75
402.854	463.75
403.078	486.75
403.302	479.75
403.526	484.75
403.75	484.75
403.974	470.75
404.198	467.75
404.422	466.75
404.645	517.75
404.869	512.75
405.093	538.75
405.317	583.75
405.541	586.75
405.765	544.75
405.988	503.75
406.212	529.75
406.436	541.75
406.66	563.75
406.883	547.75
407.107	551.75
407.331	577.75
407.555	642.75
407.778	654.75
408.002	597.75
408.226	551.75
408.449	539.75
408.673	560.75
408.896	581.75
409.12	612.75
409.344	579.75
409.567	549.75
409.791	509.75
410.014	472.75
410.238	484.75
410.461	490.75
410.685	489.75
410.908	523.75
411.132	546.75
411.355	578.75
411.578	552.75
411.802	488.75
412.025	480.75
412.249	509.75
412.472	522.75
412.695	552.75
412.919	560.75
413.142	505.75
413.365	474.75
413.589	474.75
413.812	459.75
414.035	467.75
414.258	472.75
414.482	446.75
414.705	458.75
414.928	465.75
415.151	456.75
415.374	466.75
415.597	452.75
415.821	431.75
416.044	447.75
416.267	464.75
416.49	426.75
416.713	443.75
416.936	459.75
417.159	460.75
417.382	463.75
417.605	456.75
417.828	474.75
418.051	480.75
418.274	465.75
418.497	473.75
418.72	466.75
418.943	438.75
419.166	467.75
419.389	483.75
419.611	494.75
419.834	501.75
420.057	498.75
420.28	508.75
420.503	485.75
420.726	478.75
420.948	499.75
421.171	533.75
421.394	581.75
421.617	507.75
421.839	487.75
422.062	492.75
422.285	507.75
422.507	551.75
422.73	651.75
422.953	600.75
423.175	553.75
423.398	506.75
423.621	505.75
423.843	499.75
424.066	513.75
424.288	521.75
424.511	550.75
424.733	586.75
424.956	690.75
425.178	652.75
425.401	674.75
425.623	673.75
425.846	568.75
426.068	539.75
426.291	531.75
426.513	532.75
426.735	516.75
426.958	581.75
427.18	654.75
427.402	807.75
427.625	890.75
427.847	800.75
428.069	676.75
428.292	582.75
428.514	520.75
428.736	518.75
428.958	514.75
429.181	478.75
429.403	494.75
429.625	487.75
429.847	516.75
430.069	618.75
430.292	578.75
430.514	507.75
430.736	474.75
430.958	484.75
431.18	458.75
431.402	484.75
431.624	451.75
431.846	430.75
432.068	452.75
432.29	443.75
432.512	472.75
432.734	478.75
432.956	474.75
433.178	482.75
433.4	485.75
433.622	475.75
433.844	458.75
434.066	437.75
434.287	454.75
434.509	449.75
434.731	478.75
434.953	488.75
435.175	513.75
435.397	525.75
435.618	516.75
435.84	556.75
436.062	643.75
436.284	720.75
436.505	637.75
436.727	533.75
436.949	489.75
437.17	503.75
437.392	488.75
437.614	496.75
437.835	532.75
438.057	657.75
438.278	729.75
438.5	733.75
438.721	800.75
438.943	774.75
439.165	616.75
439.386	564.75
439.608	561.75
439.829	550.75
440.05	562.75
440.272	609.75
440.493	578.75
440.715	525.75
440.936	512.75
441.158	489.75
441.379	470.75
441.6	504.75
441.822	535.75
442.043	582.75
442.264	657.75
442.486	723.75
442.707	591.75
442.928	541.75
443.149	559.75
443.371	560.75
443.592	628.75
443.813	697.75
444.034	775.75
444.255	642.75
444.476	564.75
444.698	549.75
444.919	536.75
445.14	636.75
445.361	595.75
445.582	579.75
445.803	646.75
446.024	756.75
446.245	760.75
446.466	709.75
446.687	598.75
446.908	551.75
447.129	512.75
447.35	481.75
447.571	499.75
447.792	488.75
448.013	477.75
448.234	528.75
448.455	563.75
448.675	692.75
448.896	821.75
449.117	698.75
449.338	644.75
449.559	737.75
449.779	835.75
450	672.75
450.221	548.75
450.442	518.75
450.662	488.75
450.883	485.75
451.104	498.75
451.324	512.75
451.545	445.75
451.766	460.75
451.986	446.75
452.207	421.75
452.428	431.75
452.648	425.75
452.869	422.75
453.089	427.75
453.31	459.75
453.53	433.75
453.751	468.75
453.971	427.75
454.192	459.75
454.412	442.75
454.633	435.75
454.853	435.75
455.073	463.75
455.294	468.75
455.514	540.75
455.734	538.75
455.955	440.75
456.175	402.75
456.395	403.75
456.616	400.75
456.836	399.75
457.056	395.75
457.276	388.75
457.497	391.75
457.717	412.75
457.937	412.75
458.157	413.75
458.377	427.75
458.598	436.75
458.818	522.75
459.038	592.75
459.258	633.75
459.478	544.75
459.698	455.75
459.918	449.75
460.138	434.75
460.358	444.75
460.578	439.75
460.798	459.75
461.018	432.75
461.238	439.75
461.458	446.75
461.678	439.75
461.898	435.75
462.118	441.75
462.338	448.75
462.558	454.75
462.777	446.75
462.997	464.75
463.217	472.75
463.437	499.75
463.657	472.75
463.876	460.75
464.096	470.75
464.316	472.75
464.536	491.75
464.755	475.75
464.975	480.75
465.195	528.75
465.414	611.75
465.634	538.75
465.854	499.75
466.073	474.75
466.293	464.75
466.512	437.75
466.732	441.75
466.951	432.75
467.171	444.75
467.391	452.75
467.61	454.75
467.829	462.75
468.049	454.75
468.268	467.75
468.488	448.75
468.707	417.75
468.927	410.75
469.146	396.75
469.365	415.75
469.585	431.75
469.804	423.75
470.023	448.75
470.243	438.75
470.462	448.75
470.681	456.75
470.901	484.75
471.12	447.75
471.339	436.75
471.558	434.75
471.777	448.75
471.997	435.75
472.216	471.75
472.435	490.75
472.654	473.75
472.873	450.75
473.092	420.75
473.311	428.75
473.53	441.75
473.749	467.75
473.968	506.75
474.187	595.75
474.406	640.75
474.625	502.75
474.844	482.75
475.063	458.75
475.282	457.75
475.501	455.75
475.72	474.75
475.939	443.75
476.158	440.75
476.377	440.75
476.596	471.75
476.814	460.75
477.033	453.75
477.252	454.75
477.471	467.75
477.69	478.75
477.908	467.75
478.127	472.75
478.346	481.75
478.564	478.75
478.783	499.75
479.002	474.75
479.22	492.75
479.439	525.75
479.658	528.75
479.876	564.75
480.095	541.75
480.313	571.75
480.532	536.75
480.751	539.75
480.969	548.75
481.188	611.75
481.406	643.75
481.624	593.75
481.843	562.75
482.061	548.75
482.28	522.75
482.498	537.75
482.717	505.75
482.935	511.75
483.153	521.75
483.372	528.75
483.59	528.75
483.808	516.75
484.027	536.75
484.245	526.75
484.463	531.75
484.681	538.75
484.9	533.75
485.118	530.75
485.336	543.75
485.554	522.75
485.772	522.75
485.99	512.75
486.209	552.75
486.427	567.75
486.645	560.75
486.863	569.75
487.081	580.75
487.299	566.75
487.517	564.75
487.735	551.75
487.953	564.75
488.171	573.75
488.389	550.75
488.607	547.75
488.825	538.75
489.043	560.75
489.261	551.75
489.479	577.75
489.696	597.75
489.914	579.75
490.132	595.75
490.35	581.75
490.568	599.75
490.786	602.75
491.003	593.75
491.221	629.75
491.439	633.75
491.657	631.75
491.874	648.75
492.092	659.75
492.31	663.75
492.527	653.75
492.745	674.75
492.963	663.75
493.18	668.75
493.398	657.75
493.615	651.75
493.833	656.75
494.05	658.75
494.268	649.75
494.485	670.75
494.703	659.75
494.92	661.75
495.138	661.75
495.355	681.75
495.573	662.75
495.79	674.75
496.008	684.75
496.225	688.75
496.442	664.75
496.66	677.75
496.877	674.75
497.094	676.75
497.312	679.75
497.529	694.75
497.746	689.75
497.963	688.75
498.181	715.75
498.398	758.75
498.615	726.75
498.832	739.75
499.049	745.75
499.267	766.75
499.484	764.75
499.701	799.75
499.918	809.75
500.135	828.75
500.352	826.75
500.569	861.75
500.786	837.75
501.003	859.75
501.22	832.75
501.437	838.75
501.654	807.75
501.871	797.75
502.088	803.75
502.305	780.75
502.522	740.75
502.739	727.75
502.956	697.75
503.172	706.75
503.389	694.75
503.606	714.75
503.823	696.75
504.04	674.75
504.256	678.75
504.473	649.75
504.69	707.75
504.907	648.75
505.123	652.75
505.34	663.75
505.557	644.75
505.773	668.75
505.99	656.75
506.207	642.75
506.423	650.75
506.64	639.75
506.856	640.75
507.073	660.75
507.289	634.75
507.506	635.75
507.722	647.75
507.939	657.75
508.155	642.75
508.372	611.75
508.588	613.75
508.805	622.75
509.021	626.75
509.238	631.75
509.454	652.75
509.67	634.75
509.887	631.75
510.103	616.75
510.319	618.75
510.536	752.75
510.752	1295.75
510.968	1042.75
511.184	666.75
511.401	630.75
511.617	612.75
511.833	599.75
512.049	591.75
512.265	602.75
512.481	589.75
512.698	593.75
512.914	590.75
513.13	582.75
513.346	592.75
513.562	582.75
513.778	592.75
513.994	608.75
514.21	601.75
514.426	633.75
514.642	675.75
514.858	729.75
515.074	766.75
515.29	962.75
515.506	1426.75
515.721	1134.75
515.937	753.75
516.153	678.75
516.369	658.75
516.585	630.75
516.801	588.75
517.016	609.75
517.232	625.75
517.448	594.75
517.664	594.75
517.879	595.75
518.095	606.75
518.311	583.75
518.527	593.75
518.742	600.75
518.958	586.75
519.173	581.75
519.389	594.75
519.605	602.75
519.82	594.75
520.036	596.75
520.251	635.75
520.467	662.75
520.682	658.75
520.898	664.75
521.113	697.75
521.329	729.75
521.544	854.75
521.76	1115.75
521.975	1920.75
522.19	1865.75
522.406	962.75
522.621	718.75
522.836	607.75
523.052	588.75
523.267	576.75
523.482	570.75
523.698	550.75
523.913	558.75
524.128	553.75
524.343	510.75
524.559	505.75
524.774	502.75
524.989	500.75
525.204	532.75
525.419	489.75
525.634	500.75
525.849	485.75
526.064	492.75
526.28	473.75
526.495	474.75
526.71	459.75
526.925	482.75
527.14	466.75
527.355	471.75
527.57	481.75
527.785	474.75
527.999	455.75
528.214	476.75
528.429	481.75
528.644	476.75
528.859	462.75
529.074	477.75
529.289	527.75
529.503	599.75
529.718	577.75
529.933	510.75
530.148	491.75
530.363	495.75
530.577	468.75
530.792	471.75
531.007	479.75
531.221	458.75
531.436	472.75
531.651	468.75
531.865	452.75
532.08	459.75
532.295	465.75
532.509	468.75
532.724	436.75
532.938	443.75
533.153	446.75
533.367	423.75
533.582	434.75
533.796	439.75
534.011	441.75
534.225	452.75
534.44	456.75
534.654	443.75
534.868	433.75
535.083	442.75
535.297	423.75
535.511	448.75
535.726	450.75
535.94	436.75
536.154	428.75
536.369	418.75
536.583	432.75
536.797	454.75
537.011	422.75
537.225	416.75
537.44	434.75
537.654	432.75
537.868	419.75
538.082	440.75
538.296	456.75
538.51	438.75
538.724	445.75
538.938	443.75
539.153	430.75
539.367	446.75
539.581	451.75
539.795	427.75
540.009	440.75
540.222	453.75
540.436	430.75
540.65	446.75
540.864	424.75
541.078	441.75
541.292	443.75
541.506	437.75
541.72	443.75
541.934	445.75
542.147	436.75
542.361	410.75
542.575	402.75
542.789	443.75
543.002	412.75
543.216	428.75
543.43	435.75
543.644	410.75
543.857	425.75
544.071	427.75
544.285	435.75
544.498	424.75
544.712	413.75
544.925	410.75
545.139	414.75
545.352	402.75
545.566	414.75
545.779	402.75
545.993	416.75
546.206	393.75
546.42	403.75
546.633	391.75
546.847	406.75
547.06	432.75
547.274	406.75
547.487	410.75
547.7	396.75
547.914	380.75
548.127	401.75
548.34	410.75
548.554	396.75
548.767	404.75
548.98	397.75
549.193	412.75
549.407	380.75
549.62	389.75
549.833	414.75
550.046	399.75
550.259	392.75
550.473	366.75
550.686	391.75
550.899	385.75
551.112	384.75
551.325	411.75
551.538	412.75
551.751	384.75
551.964	376.75
552.177	397.75
552.39	388.75
552.603	396.75
552.816	385.75
553.029	397.75
553.242	400.75
553.455	390.75
553.667	441.75
553.88	424.75
554.093	415.75
554.306	393.75
554.519	387.75
554.732	408.75
554.944	392.75
555.157	384.75
555.37	389.75
555.583	379.75
555.795	395.75
556.008	391.75
556.221	376.75
556.433	372.75
556.646	381.75
556.859	392.75
557.071	374.75
557.284	367.75
557.496	371.75
557.709	361.75
557.921	354.75
558.134	372.75
558.346	367.75
558.559	357.75
558.771	361.75
558.984	374.75
559.196	355.75
559.409	364.75
559.621	383.75
559.833	356.75
560.046	363.75
560.258	352.75
560.47	361.75
560.683	333.75
560.895	358.75
561.107	350.75
561.32	354.75
561.532	337.75
561.744	352.75
561.956	348.75
562.168	375.75
562.381	346.75
562.593	325.75
562.805	346.75
563.017	350.75
563.229	352.75
563.441	353.75
563.653	366.75
563.865	343.75
564.077	357.75
564.289	359.75
564.501	356.75
564.713	371.75
564.925	376.75
565.137	383.75
565.349	394.75
565.561	387.75
565.773	382.75
565.985	386.75
566.197	401.75
566.408	413.75
566.62	392.75
566.832	420.75
567.044	415.75
567.255	407.75
567.467	412.75
567.679	417.75
567.891	440.75
568.102	414.75
568.314	409.75
568.526	414.75
568.737	406.75
568.949	374.75
569.161	364.75
569.372	352.75
569.584	345.75
569.795	373.75
570.007	372.75
570.218	416.75
570.43	387.75
570.641	353.75
570.853	352.75
571.064	341.75
571.276	341.75
571.487	344.75
571.698	340.75
571.91	335.75
572.121	306.75
572.333	331.75
572.544	300.75
572.755	309.75
572.966	302.75
573.178	328.75
573.389	306.75
573.6	319.75
573.811	325.75
574.023	313.75
574.234	313.75
574.445	298.75
574.656	320.75
574.867	285.75
575.078	297.75
575.289	323.75
575.501	318.75
575.712	313.75
575.923	309.75
576.134	306.75
576.345	300.75
576.556	308.75
576.767	290.75
576.978	311.75
577.188	310.75
577.399	302.75
577.61	304.75
577.821	306.75
578.032	310.75
578.243	344.75
578.454	604.75
578.665	434.75
578.875	314.75
579.086	299.75
579.297	288.75
579.508	288.75
579.718	294.75
579.929	289.75
580.14	278.75
580.35	291.75
580.561	302.75
580.772	294.75
580.982	266.75
581.193	290.75
581.403	268.75
581.614	290.75
581.825	274.75
582.035	292.75
582.246	282.75
582.456	310.75
582.667	289.75
582.877	284.75
583.087	280.75
583.298	269.75
583.508	288.75
583.719	266.75
583.929	277.75
584.139	264.75
584.35	271.75
584.56	264.75
584.77	271.75
584.981	277.75
585.191	274.75
585.401	278.75
585.611	292.75
585.821	275.75
586.032	276.75
586.242	286.75
586.452	268.75
586.662	270.75
586.872	274.75
587.082	270.75
587.292	265.75
587.502	257.75
587.713	275.75
587.923	264.75
588.133	276.75
588.343	263.75
588.553	264.75
588.762	265.75
588.972	261.75
589.182	275.75
589.392	263.75
589.602	291.75
589.812	272.75
590.022	263.75
590.232	269.75
590.441	276.75
590.651	278.75
590.861	282.75
591.071	269.75
591.281	260.75
591.49	277.75
591.7	255.75
591.91	282.75
592.119	256.75
592.329	266.75
592.539	282.75
592.748	268.75
592.958	251.75
593.167	274.75
593.377	254.75
593.587	276.75
593.796	284.75
594.006	288.75
594.215	262.75
594.424	265.75
594.634	272.75
594.843	292.75
595.053	286.75
595.262	269.75
595.472	257.75
595.681	274.75
595.89	261.75
596.1	262.75
596.309	239.75
596.518	248.75
596.727	260.75
596.937	240.75
597.146	254.75
597.355	257.75
597.564	252.75
597.774	254.75
597.983	245.75
598.192	240.75
598.401	248.75
598.61	249.75
598.819	233.75
599.028	264.75
599.237	250.75
599.446	255.75
599.655	241.75
599.864	224.75
600.073	250.75
600.282	256.75
600.491	239.75
600.7	241.75
600.909	249.75
601.118	225.75
601.327	236.75
601.536	229.75
601.745	240.75
601.953	238.75
602.162	243.75
602.371	243.75
602.58	232.75
602.789	233.75
602.997	229.75
603.206	244.75
603.415	233.75
603.623	250.75
603.832	240.75
604.041	231.75
604.249	238.75
604.458	241.75
604.666	238.75
604.875	235.75
605.084	230.75
605.292	239.75
605.501	241.75
605.709	241.75
605.918	232.75
606.126	215.75
606.334	212.75
606.543	222.75
606.751	234.75
606.96	232.75
607.168	228.75
607.376	223.75
607.585	221.75
607.793	240.75
608.001	235.75
608.21	215.75
608.418	229.75
608.626	212.75
608.834	224.75
609.043	232.75
609.251	213.75
609.459	217.75
609.667	227.75
609.875	205.75
610.083	226.75
610.291	216.75
610.499	217.75
610.707	224.75
610.916	213.75
611.124	215.75
611.332	236.75
611.54	232.75
611.748	237.75
611.955	213.75
612.163	217.75
612.371	230.75
612.579	220.75
612.787	228.75
612.995	212.75
613.203	222.75
613.411	235.75
613.618	227.75
613.826	216.75
614.034	228.75
614.242	211.75
614.449	219.75
614.657	221.75
614.865	208.75
615.072	229.75
615.28	216.75
615.488	226.75
615.695	224.75
615.903	217.75
616.111	224.75
616.318	212.75
616.526	211.75
616.733	220.75
616.941	211.75
617.148	218.75
617.356	219.75
617.563	216.75
617.771	207.75
617.978	216.75
618.185	215.75
618.393	212.75
618.6	221.75
618.807	203.75
619.015	224.75
619.222	186.75
619.429	214.75
619.637	216.75
619.844	214.75
620.051	206.75
620.258	216.75
620.466	216.75
620.673	204.75
620.88	201.75
621.087	208.75
621.294	199.75
621.501	208.75
621.708	208.75
621.915	198.75
622.122	212.75
622.329	210.75
622.536	200.75
622.743	197.75
622.95	197.75
623.157	202.75
623.364	204.75
623.571	204.75
623.778	215.75
623.985	209.75
624.192	188.75
624.399	184.75
624.606	204.75
624.812	183.75
625.019	203.75
625.226	192.75
625.433	199.75
625.639	197.75
625.846	210.75
626.053	204.75
626.259	195.75
626.466	208.75
626.673	189.75
626.879	200.75
627.086	194.75
627.293	208.75
627.499	196.75
627.706	193.75
627.912	182.75
628.119	174.75
628.325	191.75
628.532	195.75
628.738	192.75
628.945	186.75
629.151	195.75
629.357	186.75
629.564	178.75
629.77	184.75
629.976	178.75
630.183	184.75
630.389	190.75
630.595	179.75
630.802	193.75
631.008	187.75
631.214	179.75
631.42	190.75
631.627	185.75
631.833	177.75
632.039	185.75
632.245	181.75
632.451	187.75
632.657	174.75
632.863	187.75
633.069	168.75
633.275	169.75
633.481	182.75
633.688	178.75
633.893	175.75
634.099	176.75
634.305	180.75
634.511	180.75
634.717	168.75
634.923	182.75
635.129	176.75
635.335	179.75
635.541	169.75
635.747	171.75
635.952	180.75
636.158	174.75
636.364	179.75
636.57	184.75
636.775	179.75
636.981	169.75
637.187	168.75
637.392	196.75
637.598	167.75
637.804	175.75
638.009	170.75
638.215	164.75
638.421	160.75
638.626	155.75
638.832	157.75
639.037	165.75
639.243	162.75
639.448	167.75
639.654	172.75
639.859	165.75
640.065	160.75
640.27	170.75
640.475	164.75
640.681	152.75
640.886	151.75
641.091	159.75
641.297	164.75
641.502	168.75
641.707	158.75
641.913	164.75
642.118	166.75
642.323	162.75
642.528	152.75
642.733	163.75
642.939	135.75
643.144	150.75
643.349	160.75
643.554	166.75
643.759	161.75
643.964	156.75
644.169	151.75
644.374	140.75
644.579	144.75
644.784	154.75
644.989	170.75
645.194	163.75
645.399	161.75
645.604	172.75
645.809	171.75
646.014	183.75
646.219	157.75
646.423	170.75
646.628	153.75
646.833	150.75
647.038	157.75
647.243	148.75
647.447	144.75
647.652	152.75
647.857	133.75
648.062	151.75
648.266	155.75
648.471	158.75
648.676	156.75
648.88	167.75
649.085	150.75
649.289	160.75
649.494	169.75
649.698	170.75
649.903	189.75
650.107	186.75
650.312	168.75
650.516	158.75
650.721	154.75
650.925	150.75
651.13	141.75
651.334	154.75
651.539	146.75
651.743	146.75
651.947	145.75
652.152	149.75
652.356	134.75
652.56	139.75
652.764	150.75
652.969	134.75
653.173	138.75
653.377	124.75
653.581	135.75
653.785	134.75
653.99	136.75
654.194	118.75
654.398	139.75
654.602	117.75
654.806	118.75
655.01	131.75
655.214	124.75
655.418	138.75
655.622	133.75
655.826	130.75
656.03	120.75
656.234	135.75
656.438	137.75
656.642	125.75
656.846	130.75
657.049	122.75
657.253	127.75
657.457	122.75
657.661	118.75
657.865	103.75
658.068	107.75
658.272	120.75
658.476	103.75
658.68	97.75
658.883	91.75
659.087	98.75
659.291	104.75
659.494	103.75
659.698	111.75
659.901	86.75
660.105	114.75
660.309	95.75
660.512	105.75
660.716	96.75
660.919	90.75
661.123	99.75
661.326	84.75
661.53	96.75
661.733	96.75
661.936	93.75
662.14	81.75
662.343	93.75
662.546	103.75
662.75	91.75
662.953	97.75
663.156	73.75
663.36	67.75
663.563	76.75
663.766	88.75
663.969	77.75
664.173	78.75
664.376	96.75
664.579	73.75
664.782	70.75
664.985	82.75
665.188	76.75
665.391	72.75
665.594	78.75
665.797	80.75
666	88.75
666.203	81.75
666.406	77.75
666.609	82.75
666.812	79.75
667.015	89.75
667.218	90.75
667.421	92.75
667.624	84.75
667.827	77.75
668.03	88.75
668.232	79.75
668.435	80.75
668.638	84.75
668.841	87.75
669.043	91.75
669.246	83.75
669.449	86.75
669.651	65.75
669.854	76.75
670.057	73.75
670.259	77.75
670.462	94.75
670.665	94.75
670.867	82.75
671.07	75.75
671.272	84.75
671.475	82.75
671.677	78.75
671.88	75.75
672.082	90.75
672.284	92.75
672.487	84.75
672.689	90.75
672.892	86.75
