Data from 1989.PennyLincolnUp.Lamp.En5.5.200Scan.071819.P2_HRD10591_17-25-01-974.txt Node
Date: Thu Jul 18 17:25:01 EDT 2019
User: cochatt
Spectrometer: HR+D1059
Trigger mode: 1
Integration Time (sec): 1.000000E-1
Scans to average: 1
Electric dark correction enabled: true
Nonlinearity correction enabled: false
Boxcar width: 0
XAxis mode: Wavelengths
Number of Pixels in Spectrum: 2048
>>>>>Begin Spectral Data<<<<<
223.165	-18.12
223.4	-18.12
223.635	-18.12
223.869	-18.12
224.104	-1.12
224.338	-9.12
224.573	-12.12
224.808	-9.12
225.042	-26.12
225.277	-9.12
225.511	-13.12
225.746	-2.12
225.98	13.88
226.215	8.88
226.449	20.88
226.683	18.88
226.918	18.88
227.152	36.88
227.387	4.88
227.621	26.88
227.856	28.88
228.09	50.88
228.324	32.88
228.559	65.88
228.793	69.88
229.027	81.88
229.262	102.88
229.496	120.88
229.73	137.88
229.964	152.88
230.199	121.88
230.433	110.88
230.667	110.88
230.901	115.88
231.136	111.88
231.37	113.88
231.604	121.88
231.838	114.88
232.072	104.88
232.306	107.88
232.541	105.88
232.775	117.88
233.009	105.88
233.243	109.88
233.477	125.88
233.711	100.88
233.945	103.88
234.179	112.88
234.413	115.88
234.647	100.88
234.881	114.88
235.115	117.88
235.349	112.88
235.583	121.88
235.817	123.88
236.051	128.88
236.285	115.88
236.519	129.88
236.753	111.88
236.987	132.88
237.221	200.88
237.455	235.88
237.689	199.88
237.922	152.88
238.156	135.88
238.39	124.88
238.624	133.88
238.858	114.88
239.091	125.88
239.325	132.88
239.559	129.88
239.793	129.88
240.027	128.88
240.26	159.88
240.494	176.88
240.728	145.88
240.961	147.88
241.195	147.88
241.429	132.88
241.662	137.88
241.896	137.88
242.13	134.88
242.363	129.88
242.597	125.88
242.83	134.88
243.064	149.88
243.298	125.88
243.531	135.88
243.765	149.88
243.998	135.88
244.232	149.88
244.465	148.88
244.699	126.88
244.932	142.88
245.166	148.88
245.399	152.88
245.633	153.88
245.866	145.88
246.099	150.88
246.333	167.88
246.566	150.88
246.8	155.88
247.033	153.88
247.266	165.88
247.5	166.88
247.733	178.88
247.966	177.88
248.2	171.88
248.433	175.88
248.666	179.88
248.899	186.88
249.133	209.88
249.366	214.88
249.599	216.88
249.832	197.88
250.066	179.88
250.299	190.88
250.532	201.88
250.765	202.88
250.998	232.88
251.231	234.88
251.465	223.88
251.698	222.88
251.931	218.88
252.164	208.88
252.397	202.88
252.63	204.88
252.863	207.88
253.096	232.88
253.329	244.88
253.562	239.88
253.795	235.88
254.028	235.88
254.261	224.88
254.494	239.88
254.727	290.88
254.96	311.88
255.193	301.88
255.426	272.88
255.659	264.88
255.892	255.88
256.124	259.88
256.357	266.88
256.59	235.88
256.823	222.88
257.056	212.88
257.289	235.88
257.521	227.88
257.754	233.88
257.987	241.88
258.22	230.88
258.452	226.88
258.685	247.88
258.918	220.88
259.151	230.88
259.383	223.88
259.616	244.88
259.849	257.88
260.081	242.88
260.314	267.88
260.547	268.88
260.779	292.88
261.012	249.88
261.244	257.88
261.477	262.88
261.71	251.88
261.942	241.88
262.175	254.88
262.407	245.88
262.64	231.88
262.872	236.88
263.105	246.88
263.337	233.88
263.57	225.88
263.802	221.88
264.035	229.88
264.267	230.88
264.499	222.88
264.732	239.88
264.964	216.88
265.197	249.88
265.429	221.88
265.661	235.88
265.894	214.88
266.126	219.88
266.358	229.88
266.591	224.88
266.823	243.88
267.055	235.88
267.287	235.88
267.52	245.88
267.752	227.88
267.984	251.88
268.216	241.88
268.448	231.88
268.681	273.88
268.913	266.88
269.145	276.88
269.377	297.88
269.609	301.88
269.841	298.88
270.073	294.88
270.306	322.88
270.538	323.88
270.77	339.88
271.002	340.88
271.234	312.88
271.466	303.88
271.698	329.88
271.93	341.88
272.162	349.88
272.394	348.88
272.626	323.88
272.858	332.88
273.09	304.88
273.322	301.88
273.553	294.88
273.785	299.88
274.017	286.88
274.249	278.88
274.481	297.88
274.713	279.88
274.945	284.88
275.176	286.88
275.408	264.88
275.64	276.88
275.872	277.88
276.104	287.88
276.335	286.88
276.567	280.88
276.799	304.88
277.031	308.88
277.262	342.88
277.494	343.88
277.726	325.88
277.957	304.88
278.189	317.88
278.421	311.88
278.652	278.88
278.884	300.88
279.115	273.88
279.347	279.88
279.579	264.88
279.81	271.88
280.042	287.88
280.273	292.88
280.505	274.88
280.736	285.88
280.968	271.88
281.199	282.88
281.431	282.88
281.662	285.88
281.894	297.88
282.125	304.88
282.356	296.88
282.588	315.88
282.819	313.88
283.051	309.88
283.282	300.88
283.513	266.88
283.745	276.88
283.976	301.88
284.207	288.88
284.439	286.88
284.67	296.88
284.901	285.88
285.132	283.88
285.364	288.88
285.595	301.88
285.826	295.88
286.057	291.88
286.288	296.88
286.52	294.88
286.751	281.88
286.982	284.88
287.213	319.88
287.444	293.88
287.675	296.88
287.906	299.88
288.138	304.88
288.369	314.88
288.6	311.88
288.831	309.88
289.062	316.88
289.293	309.88
289.524	326.88
289.755	311.88
289.986	306.88
290.217	285.88
290.448	317.88
290.679	307.88
290.91	303.88
291.141	305.88
291.371	303.88
291.602	272.88
291.833	311.88
292.064	309.88
292.295	294.88
292.526	306.88
292.757	307.88
292.987	295.88
293.218	295.88
293.449	285.88
293.68	303.88
293.91	288.88
294.141	279.88
294.372	287.88
294.603	296.88
294.833	311.88
295.064	323.88
295.295	305.88
295.525	296.88
295.756	313.88
295.987	325.88
296.217	328.88
296.448	343.88
296.679	320.88
296.909	303.88
297.14	294.88
297.37	312.88
297.601	312.88
297.831	310.88
298.062	311.88
298.292	304.88
298.523	316.88
298.753	323.88
298.984	328.88
299.214	308.88
299.445	306.88
299.675	303.88
299.905	326.88
300.136	331.88
300.366	307.88
300.597	319.88
300.827	311.88
301.057	332.88
301.288	346.88
301.518	334.88
301.748	342.88
301.979	328.88
302.209	346.88
302.439	340.88
302.669	303.88
302.9	342.88
303.13	358.88
303.36	332.88
303.59	363.88
303.82	341.88
304.051	361.88
304.281	341.88
304.511	329.88
304.741	340.88
304.971	340.88
305.201	331.88
305.431	347.88
305.661	340.88
305.891	318.88
306.121	349.88
306.352	344.88
306.582	357.88
306.812	345.88
307.042	331.88
307.272	324.88
307.502	352.88
307.731	343.88
307.961	343.88
308.191	344.88
308.421	356.88
308.651	368.88
308.881	335.88
309.111	366.88
309.341	351.88
309.571	348.88
309.8	387.88
310.03	389.88
310.26	397.88
310.49	409.88
310.72	435.88
310.949	403.88
311.179	422.88
311.409	417.88
311.639	404.88
311.868	391.88
312.098	391.88
312.328	424.88
312.557	424.88
312.787	423.88
313.017	452.88
313.246	411.88
313.476	386.88
313.706	388.88
313.935	404.88
314.165	428.88
314.394	417.88
314.624	420.88
314.853	419.88
315.083	391.88
315.312	401.88
315.542	395.88
315.771	398.88
316.001	381.88
316.23	397.88
316.46	384.88
316.689	393.88
316.919	401.88
317.148	397.88
317.377	422.88
317.607	400.88
317.836	410.88
318.065	395.88
318.295	393.88
318.524	402.88
318.753	395.88
318.983	396.88
319.212	374.88
319.441	403.88
319.67	405.88
319.9	401.88
320.129	413.88
320.358	398.88
320.587	403.88
320.816	410.88
321.046	417.88
321.275	422.88
321.504	410.88
321.733	417.88
321.962	435.88
322.191	456.88
322.42	460.88
322.649	466.88
322.878	492.88
323.108	481.88
323.337	541.88
323.566	553.88
323.795	596.88
324.024	648.88
324.253	799.88
324.482	1135.88
324.71	1756.88
324.939	2480.88
325.168	2185.88
325.397	1116.88
325.626	760.88
325.855	619.88
326.084	562.88
326.313	531.88
326.542	552.88
326.77	612.88
326.999	736.88
327.228	998.88
327.457	1514.88
327.686	1894.88
327.914	1271.88
328.143	806.88
328.372	704.88
328.6	643.88
328.829	625.88
329.058	623.88
329.287	635.88
329.515	619.88
329.744	549.88
329.972	536.88
330.201	546.88
330.43	594.88
330.658	642.88
330.887	643.88
331.115	656.88
331.344	543.88
331.572	533.88
331.801	530.88
332.03	529.88
332.258	469.88
332.486	465.88
332.715	462.88
332.943	452.88
333.172	478.88
333.4	473.88
333.629	475.88
333.857	476.88
334.085	491.88
334.314	513.88
334.542	501.88
334.771	545.88
334.999	491.88
335.227	464.88
335.455	451.88
335.684	487.88
335.912	474.88
336.14	448.88
336.369	458.88
336.597	466.88
336.825	458.88
337.053	468.88
337.281	444.88
337.51	439.88
337.738	461.88
337.966	444.88
338.194	475.88
338.422	454.88
338.65	450.88
338.878	441.88
339.106	449.88
339.334	461.88
339.562	443.88
339.79	431.88
340.018	445.88
340.246	433.88
340.474	456.88
340.702	441.88
340.93	439.88
341.158	440.88
341.386	432.88
341.614	473.88
341.842	449.88
342.07	429.88
342.298	425.88
342.526	420.88
342.754	413.88
342.981	433.88
343.209	415.88
343.437	420.88
343.665	439.88
343.893	411.88
344.12	435.88
344.348	455.88
344.576	419.88
344.804	452.88
345.031	453.88
345.259	455.88
345.487	454.88
345.714	457.88
345.942	421.88
346.17	428.88
346.397	423.88
346.625	425.88
346.853	407.88
347.08	417.88
347.308	425.88
347.535	432.88
347.763	437.88
347.99	420.88
348.218	436.88
348.445	448.88
348.673	435.88
348.9	447.88
349.128	429.88
349.355	420.88
349.583	405.88
349.81	412.88
350.037	398.88
350.265	407.88
350.492	401.88
350.72	383.88
350.947	414.88
351.174	428.88
351.402	439.88
351.629	440.88
351.856	427.88
352.083	442.88
352.311	449.88
352.538	427.88
352.765	449.88
352.992	423.88
353.22	431.88
353.447	422.88
353.674	406.88
353.901	410.88
354.128	399.88
354.355	379.88
354.583	383.88
354.81	386.88
355.037	383.88
355.264	407.88
355.491	373.88
355.718	371.88
355.945	390.88
356.172	405.88
356.399	390.88
356.626	401.88
356.853	401.88
357.08	392.88
357.307	393.88
357.534	372.88
357.761	392.88
357.988	406.88
358.215	381.88
358.441	380.88
358.668	390.88
358.895	385.88
359.122	382.88
359.349	399.88
359.576	421.88
359.802	420.88
360.029	457.88
360.256	465.88
360.483	469.88
360.709	426.88
360.936	429.88
361.163	397.88
361.39	427.88
361.616	423.88
361.843	419.88
362.07	405.88
362.296	420.88
362.523	403.88
362.749	408.88
362.976	413.88
363.203	401.88
363.429	397.88
363.656	379.88
363.882	401.88
364.109	401.88
364.335	415.88
364.562	416.88
364.788	405.88
365.015	395.88
365.241	380.88
365.468	400.88
365.694	416.88
365.92	407.88
366.147	403.88
366.373	382.88
366.599	373.88
366.826	374.88
367.052	374.88
367.278	381.88
367.505	407.88
367.731	393.88
367.957	396.88
368.184	372.88
368.41	396.88
368.636	411.88
368.862	385.88
369.089	404.88
369.315	401.88
369.541	385.88
369.767	388.88
369.993	399.88
370.219	393.88
370.445	384.88
370.672	391.88
370.898	385.88
371.124	368.88
371.35	387.88
371.576	372.88
371.802	384.88
372.028	389.88
372.254	388.88
372.48	388.88
372.706	370.88
372.932	395.88
373.158	388.88
373.384	375.88
373.61	367.88
373.835	387.88
374.061	387.88
374.287	389.88
374.513	403.88
374.739	389.88
374.965	381.88
375.191	388.88
375.416	393.88
375.642	393.88
375.868	372.88
376.094	388.88
376.319	405.88
376.545	383.88
376.771	356.88
376.997	389.88
377.222	379.88
377.448	377.88
377.674	367.88
377.899	373.88
378.125	370.88
378.35	365.88
378.576	378.88
378.802	388.88
379.027	376.88
379.253	375.88
379.478	383.88
379.704	356.88
379.929	390.88
380.155	394.88
380.38	393.88
380.606	377.88
380.831	396.88
381.057	391.88
381.282	367.88
381.507	407.88
381.733	382.88
381.958	381.88
382.184	397.88
382.409	380.88
382.634	377.88
382.86	375.88
383.085	390.88
383.31	402.88
383.535	384.88
383.761	380.88
383.986	396.88
384.211	386.88
384.436	380.88
384.662	382.88
384.887	396.88
385.112	393.88
385.337	399.88
385.562	392.88
385.787	397.88
386.013	420.88
386.238	422.88
386.463	416.88
386.688	425.88
386.913	396.88
387.138	383.88
387.363	397.88
387.588	405.88
387.813	398.88
388.038	403.88
388.263	408.88
388.488	397.88
388.713	387.88
388.938	406.88
389.163	424.88
389.387	413.88
389.612	386.88
389.837	387.88
390.062	396.88
390.287	405.88
390.512	373.88
390.736	391.88
390.961	388.88
391.186	416.88
391.411	391.88
391.636	396.88
391.86	395.88
392.085	424.88
392.31	391.88
392.534	397.88
392.759	402.88
392.984	417.88
393.208	393.88
393.433	399.88
393.658	414.88
393.882	395.88
394.107	410.88
394.331	396.88
394.556	405.88
394.78	402.88
395.005	400.88
395.229	407.88
395.454	403.88
395.678	398.88
395.903	428.88
396.127	440.88
396.352	469.88
396.576	423.88
396.801	390.88
397.025	413.88
397.249	412.88
397.474	413.88
397.698	416.88
397.922	423.88
398.147	451.88
398.371	451.88
398.595	446.88
398.82	429.88
399.044	431.88
399.268	466.88
399.492	473.88
399.717	491.88
399.941	509.88
400.165	546.88
400.389	553.88
400.613	519.88
400.837	491.88
401.062	441.88
401.286	465.88
401.51	456.88
401.734	463.88
401.958	433.88
402.182	463.88
402.406	474.88
402.63	465.88
402.854	465.88
403.078	460.88
403.302	485.88
403.526	492.88
403.75	479.88
403.974	472.88
404.198	447.88
404.422	471.88
404.645	476.88
404.869	484.88
405.093	512.88
405.317	542.88
405.541	557.88
405.765	511.88
405.988	483.88
406.212	503.88
406.436	517.88
406.66	541.88
406.883	507.88
407.107	523.88
407.331	565.88
407.555	632.88
407.778	639.88
408.002	558.88
408.226	523.88
408.449	527.88
408.673	534.88
408.896	547.88
409.12	564.88
409.344	544.88
409.567	478.88
409.791	488.88
410.014	470.88
410.238	452.88
410.461	457.88
410.685	498.88
410.908	465.88
411.132	519.88
411.355	589.88
411.578	544.88
411.802	484.88
412.025	467.88
412.249	496.88
412.472	469.88
412.695	507.88
412.919	509.88
413.142	477.88
413.365	454.88
413.589	472.88
413.812	444.88
414.035	435.88
414.258	427.88
414.482	444.88
414.705	446.88
414.928	447.88
415.151	430.88
415.374	425.88
415.597	436.88
415.821	426.88
416.044	441.88
416.267	423.88
416.49	419.88
416.713	427.88
416.936	450.88
417.159	443.88
417.382	445.88
417.605	447.88
417.828	451.88
418.051	467.88
418.274	460.88
418.497	468.88
418.72	450.88
418.943	441.88
419.166	469.88
419.389	494.88
419.611	487.88
419.834	477.88
420.057	469.88
420.28	467.88
420.503	465.88
420.726	470.88
420.948	487.88
421.171	535.88
421.394	563.88
421.617	482.88
421.839	464.88
422.062	462.88
422.285	453.88
422.507	552.88
422.73	635.88
422.953	605.88
423.175	509.88
423.398	507.88
423.621	496.88
423.843	503.88
424.066	511.88
424.288	501.88
424.511	535.88
424.733	577.88
424.956	677.88
425.178	650.88
425.401	638.88
425.623	647.88
425.846	552.88
426.068	513.88
426.291	503.88
426.513	540.88
426.735	518.88
426.958	572.88
427.18	624.88
427.402	760.88
427.625	861.88
427.847	781.88
428.069	640.88
428.292	577.88
428.514	534.88
428.736	492.88
428.958	479.88
429.181	459.88
429.403	462.88
429.625	493.88
429.847	512.88
430.069	599.88
430.292	583.88
430.514	504.88
430.736	493.88
430.958	472.88
431.18	437.88
431.402	445.88
431.624	437.88
431.846	433.88
432.068	418.88
432.29	424.88
432.512	428.88
432.734	439.88
432.956	451.88
433.178	469.88
433.4	457.88
433.622	477.88
433.844	444.88
434.066	431.88
434.287	441.88
434.509	437.88
434.731	428.88
434.953	454.88
435.175	480.88
435.397	502.88
435.618	499.88
435.84	552.88
436.062	653.88
436.284	704.88
436.505	581.88
436.727	533.88
436.949	486.88
437.17	487.88
437.392	476.88
437.614	480.88
437.835	516.88
438.057	627.88
438.278	718.88
438.5	712.88
438.721	803.88
438.943	766.88
439.165	607.88
439.386	544.88
439.608	531.88
439.829	519.88
440.05	552.88
440.272	590.88
440.493	600.88
440.715	533.88
440.936	491.88
441.158	488.88
441.379	454.88
441.6	474.88
441.822	493.88
442.043	536.88
442.264	629.88
442.486	667.88
442.707	577.88
442.928	520.88
443.149	560.88
443.371	586.88
443.592	588.88
443.813	704.88
444.034	763.88
444.255	631.88
444.476	521.88
444.698	521.88
444.919	498.88
445.14	581.88
445.361	544.88
445.582	572.88
445.803	638.88
446.024	721.88
446.245	747.88
446.466	680.88
446.687	548.88
446.908	503.88
447.129	494.88
447.35	483.88
447.571	468.88
447.792	456.88
448.013	485.88
448.234	492.88
448.455	566.88
448.675	665.88
448.896	763.88
449.117	646.88
449.338	617.88
449.559	732.88
449.779	815.88
450	655.88
450.221	545.88
450.442	500.88
450.662	499.88
450.883	486.88
451.104	496.88
451.324	483.88
451.545	446.88
451.766	432.88
451.986	419.88
452.207	444.88
452.428	415.88
452.648	429.88
452.869	438.88
453.089	437.88
453.31	452.88
453.53	431.88
453.751	420.88
453.971	437.88
454.192	447.88
454.412	453.88
454.633	448.88
454.853	413.88
455.073	412.88
455.294	449.88
455.514	514.88
455.734	497.88
455.955	435.88
456.175	409.88
456.395	398.88
456.616	394.88
456.836	385.88
457.056	385.88
457.276	393.88
457.497	384.88
457.717	386.88
457.937	392.88
458.157	406.88
458.377	443.88
458.598	422.88
458.818	501.88
459.038	585.88
459.258	616.88
459.478	498.88
459.698	456.88
459.918	425.88
460.138	444.88
460.358	423.88
460.578	441.88
460.798	448.88
461.018	430.88
461.238	428.88
461.458	444.88
461.678	421.88
461.898	418.88
462.118	426.88
462.338	421.88
462.558	437.88
462.777	448.88
462.997	445.88
463.217	451.88
463.437	466.88
463.657	421.88
463.876	462.88
464.096	455.88
464.316	474.88
464.536	478.88
464.755	465.88
464.975	458.88
465.195	534.88
465.414	599.88
465.634	537.88
465.854	472.88
466.073	457.88
466.293	420.88
466.512	429.88
466.732	436.88
466.951	421.88
467.171	418.88
467.391	446.88
467.61	434.88
467.829	447.88
468.049	441.88
468.268	428.88
468.488	432.88
468.707	412.88
468.927	406.88
469.146	409.88
469.365	412.88
469.585	430.88
469.804	430.88
470.023	430.88
470.243	437.88
470.462	429.88
470.681	449.88
470.901	448.88
471.12	429.88
471.339	420.88
471.558	426.88
471.777	440.88
471.997	437.88
472.216	436.88
472.435	478.88
472.654	451.88
472.873	396.88
473.092	431.88
473.311	424.88
473.53	419.88
473.749	437.88
473.968	504.88
474.187	598.88
474.406	624.88
474.625	498.88
474.844	445.88
475.063	451.88
475.282	428.88
475.501	427.88
475.72	437.88
475.939	437.88
476.158	428.88
476.377	435.88
476.596	446.88
476.814	449.88
477.033	446.88
477.252	478.88
477.471	447.88
477.69	461.88
477.908	477.88
478.127	479.88
478.346	459.88
478.564	461.88
478.783	463.88
479.002	495.88
479.22	480.88
479.439	519.88
479.658	525.88
479.876	539.88
480.095	526.88
480.313	540.88
480.532	537.88
480.751	521.88
480.969	547.88
481.188	580.88
481.406	598.88
481.624	565.88
481.843	527.88
482.061	521.88
482.28	508.88
482.498	489.88
482.717	461.88
482.935	492.88
483.153	509.88
483.372	497.88
483.59	527.88
483.808	481.88
484.027	501.88
484.245	513.88
484.463	518.88
484.681	529.88
484.9	497.88
485.118	491.88
485.336	510.88
485.554	517.88
485.772	533.88
485.99	543.88
486.209	520.88
486.427	540.88
486.645	563.88
486.863	555.88
487.081	535.88
487.299	568.88
487.517	531.88
487.735	555.88
487.953	540.88
488.171	561.88
488.389	557.88
488.607	552.88
488.825	545.88
489.043	542.88
489.261	561.88
489.479	536.88
489.696	560.88
489.914	563.88
490.132	567.88
490.35	565.88
490.568	563.88
490.786	588.88
491.003	582.88
491.221	614.88
491.439	594.88
491.657	613.88
491.874	626.88
492.092	631.88
492.31	648.88
492.527	631.88
492.745	619.88
492.963	647.88
493.18	645.88
493.398	663.88
493.615	644.88
493.833	649.88
494.05	630.88
494.268	629.88
494.485	629.88
494.703	639.88
494.92	638.88
495.138	626.88
495.355	631.88
495.573	667.88
495.79	641.88
496.008	631.88
496.225	635.88
496.442	646.88
496.66	647.88
496.877	649.88
497.094	667.88
497.312	663.88
497.529	661.88
497.746	669.88
497.963	695.88
498.181	685.88
498.398	683.88
498.615	685.88
498.832	728.88
499.049	735.88
499.267	711.88
499.484	733.88
499.701	737.88
499.918	815.88
500.135	801.88
500.352	837.88
500.569	835.88
500.786	806.88
501.003	842.88
501.22	797.88
501.437	800.88
501.654	810.88
501.871	781.88
502.088	799.88
502.305	753.88
502.522	698.88
502.739	706.88
502.956	690.88
503.172	670.88
503.389	665.88
503.606	677.88
503.823	693.88
504.04	675.88
504.256	671.88
504.473	653.88
504.69	637.88
504.907	667.88
505.123	637.88
505.34	623.88
505.557	618.88
505.773	622.88
505.99	629.88
506.207	631.88
506.423	641.88
506.64	637.88
506.856	599.88
507.073	627.88
507.289	584.88
507.506	599.88
507.722	620.88
507.939	653.88
508.155	612.88
508.372	603.88
508.588	603.88
508.805	579.88
509.021	622.88
509.238	640.88
509.454	621.88
509.67	617.88
509.887	590.88
510.103	617.88
510.319	626.88
510.536	716.88
510.752	1269.88
510.968	1019.88
511.184	632.88
511.401	573.88
511.617	600.88
511.833	569.88
512.049	567.88
512.265	558.88
512.481	556.88
512.698	569.88
512.914	565.88
513.13	563.88
513.346	578.88
513.562	576.88
513.778	567.88
513.994	575.88
514.21	585.88
514.426	602.88
514.642	661.88
514.858	715.88
515.074	753.88
515.29	916.88
515.506	1397.88
515.721	1120.88
515.937	731.88
516.153	655.88
516.369	630.88
516.585	593.88
516.801	564.88
517.016	580.88
517.232	587.88
517.448	575.88
517.664	584.88
517.879	566.88
518.095	581.88
518.311	563.88
518.527	562.88
518.742	588.88
518.958	580.88
519.173	563.88
519.389	567.88
519.605	569.88
519.82	579.88
520.036	600.88
520.251	605.88
520.467	645.88
520.682	643.88
520.898	642.88
521.113	701.88
521.329	714.88
521.544	823.88
521.76	1083.88
521.975	1867.88
522.19	1826.88
522.406	923.88
522.621	705.88
522.836	634.88
523.052	584.88
523.267	555.88
523.482	543.88
523.698	544.88
523.913	531.88
524.128	531.88
524.343	519.88
524.559	499.88
524.774	492.88
524.989	486.88
525.204	498.88
525.419	492.88
525.634	472.88
525.849	481.88
526.064	464.88
526.28	478.88
526.495	462.88
526.71	469.88
526.925	463.88
527.14	458.88
527.355	464.88
527.57	456.88
527.785	449.88
527.999	460.88
528.214	436.88
528.429	465.88
528.644	461.88
528.859	468.88
529.074	461.88
529.289	489.88
529.503	585.88
529.718	555.88
529.933	491.88
530.148	472.88
530.363	461.88
530.577	474.88
530.792	462.88
531.007	436.88
531.221	447.88
531.436	432.88
531.651	454.88
531.865	443.88
532.08	447.88
532.295	415.88
532.509	460.88
532.724	424.88
532.938	433.88
533.153	424.88
533.367	435.88
533.582	425.88
533.796	435.88
534.011	459.88
534.225	427.88
534.44	419.88
534.654	423.88
534.868	447.88
535.083	428.88
535.297	435.88
535.511	418.88
535.726	435.88
535.94	451.88
536.154	428.88
536.369	436.88
536.583	423.88
536.797	425.88
537.011	412.88
537.225	405.88
537.44	409.88
537.654	401.88
537.868	428.88
538.082	422.88
538.296	411.88
538.51	419.88
538.724	436.88
538.938	429.88
539.153	409.88
539.367	435.88
539.581	436.88
539.795	431.88
540.009	420.88
540.222	427.88
540.436	424.88
540.65	401.88
540.864	411.88
541.078	422.88
541.292	450.88
541.506	427.88
541.72	415.88
541.934	427.88
542.147	415.88
542.361	416.88
542.575	395.88
542.789	409.88
543.002	429.88
543.216	419.88
543.43	443.88
543.644	416.88
543.857	424.88
544.071	430.88
544.285	416.88
544.498	399.88
544.712	411.88
544.925	417.88
545.139	409.88
545.352	411.88
545.566	416.88
545.779	426.88
545.993	396.88
546.206	413.88
546.42	402.88
546.633	402.88
546.847	388.88
547.06	380.88
547.274	378.88
547.487	400.88
547.7	392.88
547.914	376.88
548.127	391.88
548.34	388.88
548.554	391.88
548.767	394.88
548.98	391.88
549.193	406.88
549.407	389.88
549.62	387.88
549.833	399.88
550.046	368.88
550.259	389.88
550.473	378.88
550.686	360.88
550.899	379.88
551.112	381.88
551.325	372.88
551.538	370.88
551.751	386.88
551.964	393.88
552.177	371.88
552.39	383.88
552.603	387.88
552.816	397.88
553.029	389.88
553.242	392.88
553.455	388.88
553.667	398.88
553.88	422.88
554.093	409.88
554.306	408.88
554.519	381.88
554.732	395.88
554.944	360.88
555.157	367.88
555.37	369.88
555.583	365.88
555.795	376.88
556.008	361.88
556.221	342.88
556.433	370.88
556.646	363.88
556.859	370.88
557.071	358.88
557.284	349.88
557.496	342.88
557.709	366.88
557.921	357.88
558.134	347.88
558.346	356.88
558.559	350.88
558.771	347.88
558.984	355.88
559.196	347.88
559.409	356.88
559.621	349.88
559.833	359.88
560.046	340.88
560.258	348.88
560.47	350.88
560.683	357.88
560.895	347.88
561.107	336.88
561.32	347.88
561.532	357.88
561.744	339.88
561.956	360.88
562.168	364.88
562.381	342.88
562.593	359.88
562.805	347.88
563.017	329.88
563.229	347.88
563.441	348.88
563.653	347.88
563.865	342.88
564.077	336.88
564.289	357.88
564.501	344.88
564.713	349.88
564.925	375.88
565.137	377.88
565.349	356.88
565.561	391.88
565.773	379.88
565.985	370.88
566.197	371.88
566.408	377.88
566.62	398.88
566.832	413.88
567.044	377.88
567.255	383.88
567.467	417.88
567.679	416.88
567.891	412.88
568.102	413.88
568.314	399.88
568.526	385.88
568.737	391.88
568.949	361.88
569.161	363.88
569.372	358.88
569.584	365.88
569.795	340.88
570.007	359.88
570.218	405.88
570.43	411.88
570.641	348.88
570.853	355.88
571.064	327.88
571.276	318.88
571.487	328.88
571.698	328.88
571.91	317.88
572.121	318.88
572.333	318.88
572.544	321.88
572.755	311.88
572.966	296.88
573.178	309.88
573.389	319.88
573.6	321.88
573.811	307.88
574.023	313.88
574.234	307.88
574.445	302.88
574.656	297.88
574.867	293.88
575.078	284.88
575.289	300.88
575.501	311.88
575.712	296.88
575.923	283.88
576.134	289.88
576.345	280.88
576.556	290.88
576.767	287.88
576.978	288.88
577.188	299.88
577.399	304.88
577.61	285.88
577.821	313.88
578.032	303.88
578.243	331.88
578.454	581.88
578.665	403.88
578.875	303.88
579.086	293.88
579.297	287.88
579.508	284.88
579.718	291.88
579.929	285.88
580.14	271.88
580.35	275.88
580.561	267.88
580.772	280.88
580.982	271.88
581.193	271.88
581.403	264.88
581.614	279.88
581.825	264.88
582.035	270.88
582.246	252.88
582.456	290.88
582.667	279.88
582.877	265.88
583.087	270.88
583.298	285.88
583.508	264.88
583.719	257.88
583.929	286.88
584.139	274.88
584.35	273.88
584.56	275.88
584.77	256.88
584.981	284.88
585.191	265.88
585.401	253.88
585.611	256.88
585.821	282.88
586.032	259.88
586.242	277.88
586.452	281.88
586.662	286.88
586.872	261.88
587.082	250.88
587.292	261.88
587.502	268.88
587.713	256.88
587.923	268.88
588.133	263.88
588.343	254.88
588.553	273.88
588.762	261.88
588.972	271.88
589.182	283.88
589.392	260.88
589.602	267.88
589.812	253.88
590.022	254.88
590.232	277.88
590.441	275.88
590.651	254.88
590.861	256.88
591.071	255.88
591.281	243.88
591.49	264.88
591.7	268.88
591.91	272.88
592.119	272.88
592.329	268.88
592.539	279.88
592.748	285.88
592.958	268.88
593.167	269.88
593.377	263.88
593.587	280.88
593.796	262.88
594.006	268.88
594.215	274.88
594.424	278.88
594.634	274.88
594.843	278.88
595.053	285.88
595.262	263.88
595.472	244.88
595.681	275.88
595.89	245.88
596.1	248.88
596.309	257.88
596.518	249.88
596.727	239.88
596.937	239.88
597.146	250.88
597.355	243.88
597.564	238.88
597.774	242.88
597.983	238.88
598.192	251.88
598.401	252.88
598.61	248.88
598.819	239.88
599.028	237.88
599.237	226.88
599.446	237.88
599.655	253.88
599.864	227.88
600.073	232.88
600.282	238.88
600.491	243.88
600.7	235.88
600.909	216.88
601.118	225.88
601.327	219.88
601.536	207.88
601.745	221.88
601.953	231.88
602.162	250.88
602.371	226.88
602.58	235.88
602.789	226.88
602.997	229.88
603.206	243.88
603.415	232.88
603.623	248.88
603.832	225.88
604.041	224.88
604.249	211.88
604.458	221.88
604.666	216.88
604.875	237.88
605.084	231.88
605.292	220.88
605.501	208.88
605.709	214.88
605.918	226.88
606.126	216.88
606.334	209.88
606.543	224.88
606.751	226.88
606.96	215.88
607.168	227.88
607.376	207.88
607.585	209.88
607.793	214.88
608.001	215.88
608.21	212.88
608.418	219.88
608.626	216.88
608.834	222.88
609.043	232.88
609.251	211.88
609.459	204.88
609.667	216.88
609.875	218.88
610.083	217.88
610.291	215.88
610.499	210.88
610.707	212.88
610.916	229.88
611.124	225.88
611.332	231.88
611.54	224.88
611.748	216.88
611.955	240.88
612.163	206.88
612.371	208.88
612.579	214.88
612.787	211.88
612.995	212.88
613.203	230.88
613.411	223.88
613.618	206.88
613.826	229.88
614.034	220.88
614.242	217.88
614.449	209.88
614.657	209.88
614.865	221.88
615.072	219.88
615.28	203.88
615.488	207.88
615.695	226.88
615.903	200.88
616.111	205.88
616.318	215.88
616.526	203.88
616.733	205.88
616.941	200.88
617.148	209.88
617.356	219.88
617.563	216.88
617.771	202.88
617.978	216.88
618.185	213.88
618.393	209.88
618.6	205.88
618.807	204.88
619.015	220.88
619.222	204.88
619.429	217.88
619.637	210.88
619.844	203.88
620.051	204.88
620.258	201.88
620.466	203.88
620.673	189.88
620.88	193.88
621.087	204.88
621.294	194.88
621.501	187.88
621.708	201.88
621.915	198.88
622.122	192.88
622.329	181.88
622.536	196.88
622.743	204.88
622.95	206.88
623.157	188.88
623.364	205.88
623.571	196.88
623.778	188.88
623.985	196.88
624.192	169.88
624.399	193.88
624.606	188.88
624.812	214.88
625.019	198.88
625.226	187.88
625.433	190.88
625.639	208.88
625.846	190.88
626.053	180.88
626.259	174.88
626.466	175.88
626.673	181.88
626.879	186.88
627.086	189.88
627.293	194.88
627.499	195.88
627.706	195.88
627.912	187.88
628.119	176.88
628.325	188.88
628.532	181.88
628.738	184.88
628.945	184.88
629.151	184.88
629.357	187.88
629.564	190.88
629.77	178.88
629.976	179.88
630.183	197.88
630.389	174.88
630.595	185.88
630.802	179.88
631.008	177.88
631.214	175.88
631.42	173.88
631.627	171.88
631.833	172.88
632.039	182.88
632.245	181.88
632.451	158.88
632.657	177.88
632.863	171.88
633.069	161.88
633.275	181.88
633.481	172.88
633.688	166.88
633.893	178.88
634.099	158.88
634.305	161.88
634.511	161.88
634.717	168.88
634.923	172.88
635.129	163.88
635.335	175.88
635.541	175.88
635.747	159.88
635.952	157.88
636.158	162.88
636.364	166.88
636.57	168.88
636.775	166.88
636.981	157.88
637.187	171.88
637.392	158.88
637.598	181.88
637.804	168.88
638.009	176.88
638.215	154.88
638.421	156.88
638.626	157.88
638.832	159.88
639.037	161.88
639.243	158.88
639.448	154.88
639.654	144.88
639.859	155.88
640.065	164.88
640.27	171.88
640.475	160.88
640.681	157.88
640.886	145.88
641.091	155.88
641.297	164.88
641.502	157.88
641.707	165.88
641.913	168.88
642.118	137.88
642.323	143.88
642.528	150.88
642.733	155.88
642.939	163.88
643.144	157.88
643.349	162.88
643.554	160.88
643.759	146.88
643.964	161.88
644.169	155.88
644.374	144.88
644.579	159.88
644.784	165.88
644.989	151.88
645.194	144.88
645.399	155.88
645.604	131.88
645.809	151.88
646.014	155.88
646.219	133.88
646.423	158.88
646.628	135.88
646.833	147.88
647.038	155.88
647.243	143.88
647.447	145.88
647.652	166.88
647.857	160.88
648.062	151.88
648.266	152.88
648.471	156.88
648.676	149.88
648.88	149.88
649.085	156.88
649.289	128.88
649.494	160.88
649.698	169.88
649.903	174.88
650.107	164.88
650.312	155.88
650.516	145.88
650.721	140.88
650.925	150.88
651.13	142.88
651.334	151.88
651.539	148.88
651.743	139.88
651.947	143.88
652.152	145.88
652.356	136.88
652.56	136.88
652.764	129.88
652.969	138.88
653.173	134.88
653.377	131.88
653.581	115.88
653.785	129.88
653.99	125.88
654.194	118.88
654.398	123.88
654.602	137.88
654.806	113.88
655.01	141.88
655.214	134.88
655.418	134.88
655.622	128.88
655.826	121.88
656.03	107.88
656.234	133.88
656.438	139.88
656.642	129.88
656.846	125.88
657.049	116.88
657.253	120.88
657.457	119.88
657.661	122.88
657.865	117.88
658.068	116.88
658.272	102.88
658.476	105.88
658.68	97.88
658.883	115.88
659.087	92.88
659.291	94.88
659.494	104.88
659.698	99.88
659.901	86.88
660.105	81.88
660.309	116.88
660.512	83.88
660.716	85.88
660.919	87.88
661.123	81.88
661.326	87.88
661.53	79.88
661.733	83.88
661.936	66.88
662.14	77.88
662.343	98.88
662.546	75.88
662.75	97.88
662.953	88.88
663.156	65.88
663.36	80.88
663.563	68.88
663.766	63.88
663.969	80.88
664.173	68.88
664.376	68.88
664.579	80.88
664.782	73.88
664.985	79.88
665.188	89.88
665.391	76.88
665.594	79.88
665.797	67.88
666	81.88
666.203	79.88
666.406	78.88
666.609	80.88
666.812	81.88
667.015	64.88
667.218	80.88
667.421	82.88
667.624	85.88
667.827	71.88
668.03	93.88
668.232	81.88
668.435	64.88
668.638	88.88
668.841	68.88
669.043	77.88
669.246	80.88
669.449	79.88
669.651	75.88
669.854	70.88
670.057	82.88
670.259	73.88
670.462	80.88
670.665	78.88
670.867	72.88
671.07	79.88
671.272	80.88
671.475	90.88
671.677	80.88
671.88	78.88
672.082	93.88
672.284	73.88
672.487	76.88
672.689	70.88
672.892	78.88
