Data from 1989.PennyLincolnUp.Lamp.En5.5.200Scan.071819.P2_HRD10591_17-25-40-974.txt Node
Date: Thu Jul 18 17:25:40 EDT 2019
User: cochatt
Spectrometer: HR+D1059
Trigger mode: 1
Integration Time (sec): 1.000000E-1
Scans to average: 1
Electric dark correction enabled: true
Nonlinearity correction enabled: false
Boxcar width: 0
XAxis mode: Wavelengths
Number of Pixels in Spectrum: 2048
>>>>>Begin Spectral Data<<<<<
223.165	-14.25
223.4	-14.25
223.635	-14.25
223.869	-22.25
224.104	-26.25
224.338	-6.25
224.573	0.75
224.808	-12.25
225.042	-7.25
225.277	-11.25
225.511	6.75
225.746	8.75
225.98	12.75
226.215	3.75
226.449	19.75
226.683	14.75
226.918	16.75
227.152	15.75
227.387	26.75
227.621	29.75
227.856	37.75
228.09	48.75
228.324	46.75
228.559	42.75
228.793	70.75
229.027	96.75
229.262	102.75
229.496	117.75
229.73	134.75
229.964	162.75
230.199	144.75
230.433	122.75
230.667	102.75
230.901	120.75
231.136	109.75
231.37	132.75
231.604	116.75
231.838	116.75
232.072	104.75
232.306	119.75
232.541	125.75
232.775	108.75
233.009	126.75
233.243	120.75
233.477	113.75
233.711	128.75
233.945	116.75
234.179	114.75
234.413	125.75
234.647	117.75
234.881	130.75
235.115	118.75
235.349	116.75
235.583	109.75
235.817	121.75
236.051	130.75
236.285	121.75
236.519	131.75
236.753	135.75
236.987	148.75
237.221	194.75
237.455	226.75
237.689	206.75
237.922	137.75
238.156	134.75
238.39	133.75
238.624	128.75
238.858	131.75
239.091	124.75
239.325	120.75
239.559	138.75
239.793	124.75
240.027	141.75
240.26	144.75
240.494	166.75
240.728	164.75
240.961	145.75
241.195	149.75
241.429	133.75
241.662	135.75
241.896	138.75
242.13	139.75
242.363	148.75
242.597	135.75
242.83	146.75
243.064	141.75
243.298	134.75
243.531	131.75
243.765	132.75
243.998	142.75
244.232	150.75
244.465	141.75
244.699	150.75
244.932	151.75
245.166	146.75
245.399	146.75
245.633	157.75
245.866	160.75
246.099	164.75
246.333	172.75
246.566	157.75
246.8	166.75
247.033	152.75
247.266	162.75
247.5	179.75
247.733	186.75
247.966	174.75
248.2	185.75
248.433	180.75
248.666	201.75
248.899	191.75
249.133	211.75
249.366	240.75
249.599	214.75
249.832	200.75
250.066	187.75
250.299	200.75
250.532	202.75
250.765	229.75
250.998	249.75
251.231	240.75
251.465	237.75
251.698	221.75
251.931	209.75
252.164	217.75
252.397	216.75
252.63	219.75
252.863	233.75
253.096	240.75
253.329	245.75
253.562	251.75
253.795	249.75
254.028	247.75
254.261	237.75
254.494	252.75
254.727	297.75
254.96	318.75
255.193	302.75
255.426	267.75
255.659	261.75
255.892	260.75
256.124	267.75
256.357	262.75
256.59	250.75
256.823	245.75
257.056	228.75
257.289	220.75
257.521	236.75
257.754	221.75
257.987	233.75
258.22	236.75
258.452	217.75
258.685	216.75
258.918	233.75
259.151	245.75
259.383	224.75
259.616	245.75
259.849	251.75
260.081	264.75
260.314	290.75
260.547	297.75
260.779	269.75
261.012	268.75
261.244	250.75
261.477	230.75
261.71	234.75
261.942	234.75
262.175	252.75
262.407	241.75
262.64	235.75
262.872	230.75
263.105	240.75
263.337	244.75
263.57	220.75
263.802	230.75
264.035	232.75
264.267	234.75
264.499	224.75
264.732	237.75
264.964	240.75
265.197	240.75
265.429	226.75
265.661	240.75
265.894	214.75
266.126	226.75
266.358	220.75
266.591	229.75
266.823	240.75
267.055	248.75
267.287	246.75
267.52	226.75
267.752	246.75
267.984	230.75
268.216	244.75
268.448	255.75
268.681	249.75
268.913	245.75
269.145	297.75
269.377	297.75
269.609	297.75
269.841	286.75
270.073	288.75
270.306	320.75
270.538	325.75
270.77	354.75
271.002	318.75
271.234	311.75
271.466	325.75
271.698	332.75
271.93	333.75
272.162	334.75
272.394	353.75
272.626	343.75
272.858	304.75
273.09	302.75
273.322	312.75
273.553	290.75
273.785	285.75
274.017	281.75
274.249	298.75
274.481	292.75
274.713	283.75
274.945	282.75
275.176	274.75
275.408	285.75
275.64	288.75
275.872	289.75
276.104	295.75
276.335	292.75
276.567	296.75
276.799	317.75
277.031	325.75
277.262	342.75
277.494	326.75
277.726	326.75
277.957	317.75
278.189	308.75
278.421	308.75
278.652	284.75
278.884	301.75
279.115	293.75
279.347	283.75
279.579	300.75
279.81	281.75
280.042	280.75
280.273	296.75
280.505	291.75
280.736	294.75
280.968	271.75
281.199	272.75
281.431	274.75
281.662	276.75
281.894	276.75
282.125	295.75
282.356	314.75
282.588	322.75
282.819	316.75
283.051	291.75
283.282	287.75
283.513	288.75
283.745	308.75
283.976	284.75
284.207	295.75
284.439	296.75
284.67	300.75
284.901	301.75
285.132	281.75
285.364	284.75
285.595	300.75
285.826	306.75
286.057	306.75
286.288	310.75
286.52	304.75
286.751	293.75
286.982	290.75
287.213	293.75
287.444	304.75
287.675	310.75
287.906	305.75
288.138	299.75
288.369	319.75
288.6	320.75
288.831	302.75
289.062	315.75
289.293	307.75
289.524	312.75
289.755	309.75
289.986	292.75
290.217	313.75
290.448	299.75
290.679	301.75
290.91	304.75
291.141	296.75
291.371	297.75
291.602	313.75
291.833	296.75
292.064	293.75
292.295	294.75
292.526	316.75
292.757	308.75
292.987	315.75
293.218	310.75
293.449	305.75
293.68	295.75
293.91	303.75
294.141	316.75
294.372	295.75
294.603	275.75
294.833	291.75
295.064	316.75
295.295	309.75
295.525	300.75
295.756	316.75
295.987	317.75
296.217	342.75
296.448	350.75
296.679	320.75
296.909	312.75
297.14	315.75
297.37	302.75
297.601	295.75
297.831	298.75
298.062	286.75
298.292	304.75
298.523	312.75
298.753	307.75
298.984	309.75
299.214	325.75
299.445	324.75
299.675	306.75
299.905	316.75
300.136	304.75
300.366	329.75
300.597	323.75
300.827	343.75
301.057	339.75
301.288	332.75
301.518	326.75
301.748	325.75
301.979	344.75
302.209	363.75
302.439	335.75
302.669	314.75
302.9	341.75
303.13	342.75
303.36	356.75
303.59	336.75
303.82	335.75
304.051	340.75
304.281	344.75
304.511	333.75
304.741	329.75
304.971	323.75
305.201	347.75
305.431	333.75
305.661	337.75
305.891	346.75
306.121	342.75
306.352	340.75
306.582	333.75
306.812	335.75
307.042	333.75
307.272	350.75
307.502	342.75
307.731	354.75
307.961	334.75
308.191	339.75
308.421	354.75
308.651	348.75
308.881	351.75
309.111	357.75
309.341	362.75
309.571	370.75
309.8	368.75
310.03	376.75
310.26	382.75
310.49	392.75
310.72	416.75
310.949	425.75
311.179	425.75
311.409	403.75
311.639	384.75
311.868	389.75
312.098	402.75
312.328	409.75
312.557	420.75
312.787	436.75
313.017	440.75
313.246	403.75
313.476	394.75
313.706	414.75
313.935	417.75
314.165	417.75
314.394	431.75
314.624	421.75
314.853	410.75
315.083	392.75
315.312	397.75
315.542	413.75
315.771	414.75
316.001	381.75
316.23	376.75
316.46	398.75
316.689	396.75
316.919	398.75
317.148	395.75
317.377	414.75
317.607	411.75
317.836	388.75
318.065	406.75
318.295	378.75
318.524	396.75
318.753	396.75
318.983	391.75
319.212	388.75
319.441	402.75
319.67	410.75
319.9	405.75
320.129	411.75
320.358	398.75
320.587	406.75
320.816	420.75
321.046	413.75
321.275	422.75
321.504	430.75
321.733	430.75
321.962	439.75
322.191	436.75
322.42	468.75
322.649	479.75
322.878	488.75
323.108	482.75
323.337	517.75
323.566	561.75
323.795	607.75
324.024	625.75
324.253	787.75
324.482	1124.75
324.71	1769.75
324.939	2530.75
325.168	2212.75
325.397	1141.75
325.626	732.75
325.855	628.75
326.084	566.75
326.313	548.75
326.542	568.75
326.77	622.75
326.999	735.75
327.228	1004.75
327.457	1529.75
327.686	1875.75
327.914	1278.75
328.143	826.75
328.372	724.75
328.6	645.75
328.829	621.75
329.058	637.75
329.287	626.75
329.515	609.75
329.744	556.75
329.972	586.75
330.201	597.75
330.43	639.75
330.658	670.75
330.887	686.75
331.115	663.75
331.344	568.75
331.572	545.75
331.801	523.75
332.03	523.75
332.258	495.75
332.486	485.75
332.715	450.75
332.943	464.75
333.172	484.75
333.4	466.75
333.629	466.75
333.857	487.75
334.085	517.75
334.314	544.75
334.542	566.75
334.771	612.75
334.999	524.75
335.227	524.75
335.455	477.75
335.684	468.75
335.912	455.75
336.14	453.75
336.369	448.75
336.597	486.75
336.825	448.75
337.053	461.75
337.281	462.75
337.51	448.75
337.738	454.75
337.966	451.75
338.194	456.75
338.422	461.75
338.65	442.75
338.878	441.75
339.106	436.75
339.334	444.75
339.562	452.75
339.79	452.75
340.018	448.75
340.246	434.75
340.474	439.75
340.702	421.75
340.93	428.75
341.158	436.75
341.386	440.75
341.614	443.75
341.842	450.75
342.07	413.75
342.298	440.75
342.526	419.75
342.754	437.75
342.981	412.75
343.209	407.75
343.437	404.75
343.665	427.75
343.893	436.75
344.12	427.75
344.348	440.75
344.576	437.75
344.804	453.75
345.031	430.75
345.259	462.75
345.487	437.75
345.714	445.75
345.942	442.75
346.17	416.75
346.397	426.75
346.625	411.75
346.853	422.75
347.08	418.75
347.308	420.75
347.535	446.75
347.763	448.75
347.99	426.75
348.218	418.75
348.445	433.75
348.673	420.75
348.9	432.75
349.128	418.75
349.355	401.75
349.583	408.75
349.81	398.75
350.037	406.75
350.265	396.75
350.492	428.75
350.72	416.75
350.947	404.75
351.174	407.75
351.402	422.75
351.629	433.75
351.856	444.75
352.083	444.75
352.311	429.75
352.538	450.75
352.765	453.75
352.992	439.75
353.22	419.75
353.447	427.75
353.674	391.75
353.901	398.75
354.128	400.75
354.355	382.75
354.583	385.75
354.81	407.75
355.037	390.75
355.264	386.75
355.491	396.75
355.718	386.75
355.945	387.75
356.172	380.75
356.399	348.75
356.626	376.75
356.853	372.75
357.08	391.75
357.307	375.75
357.534	376.75
357.761	388.75
357.988	384.75
358.215	397.75
358.441	376.75
358.668	379.75
358.895	406.75
359.122	395.75
359.349	419.75
359.576	412.75
359.802	442.75
360.029	471.75
360.256	468.75
360.483	468.75
360.709	439.75
360.936	430.75
361.163	412.75
361.39	417.75
361.616	430.75
361.843	396.75
362.07	411.75
362.296	419.75
362.523	421.75
362.749	416.75
362.976	381.75
363.203	406.75
363.429	408.75
363.656	410.75
363.882	392.75
364.109	379.75
364.335	381.75
364.562	389.75
364.788	405.75
365.015	392.75
365.241	386.75
365.468	406.75
365.694	416.75
365.92	405.75
366.147	394.75
366.373	407.75
366.599	398.75
366.826	376.75
367.052	386.75
367.278	368.75
367.505	366.75
367.731	386.75
367.957	398.75
368.184	394.75
368.41	406.75
368.636	409.75
368.862	405.75
369.089	398.75
369.315	376.75
369.541	380.75
369.767	372.75
369.993	393.75
370.219	388.75
370.445	390.75
370.672	379.75
370.898	379.75
371.124	380.75
371.35	399.75
371.576	366.75
371.802	361.75
372.028	381.75
372.254	366.75
372.48	391.75
372.706	402.75
372.932	373.75
373.158	386.75
373.384	393.75
373.61	373.75
373.835	372.75
374.061	385.75
374.287	417.75
374.513	392.75
374.739	368.75
374.965	377.75
375.191	399.75
375.416	390.75
375.642	378.75
375.868	381.75
376.094	384.75
376.319	375.75
376.545	355.75
376.771	388.75
376.997	358.75
377.222	373.75
377.448	394.75
377.674	370.75
377.899	384.75
378.125	372.75
378.35	379.75
378.576	364.75
378.802	366.75
379.027	364.75
379.253	381.75
379.478	362.75
379.704	368.75
379.929	384.75
380.155	373.75
380.38	378.75
380.606	392.75
380.831	392.75
381.057	358.75
381.282	352.75
381.507	374.75
381.733	374.75
381.958	394.75
382.184	402.75
382.409	382.75
382.634	376.75
382.86	392.75
383.085	376.75
383.31	382.75
383.535	379.75
383.761	380.75
383.986	380.75
384.211	384.75
384.436	383.75
384.662	392.75
384.887	379.75
385.112	404.75
385.337	388.75
385.562	381.75
385.787	394.75
386.013	399.75
386.238	413.75
386.463	400.75
386.688	422.75
386.913	372.75
387.138	401.75
387.363	398.75
387.588	376.75
387.813	393.75
388.038	393.75
388.263	398.75
388.488	390.75
388.713	385.75
388.938	401.75
389.163	396.75
389.387	419.75
389.612	390.75
389.837	394.75
390.062	387.75
390.287	398.75
390.512	388.75
390.736	381.75
390.961	399.75
391.186	388.75
391.411	380.75
391.636	389.75
391.86	410.75
392.085	398.75
392.31	410.75
392.534	386.75
392.759	403.75
392.984	432.75
393.208	398.75
393.433	398.75
393.658	392.75
393.882	397.75
394.107	380.75
394.331	420.75
394.556	411.75
394.78	402.75
395.005	414.75
395.229	391.75
395.454	402.75
395.678	396.75
395.903	412.75
396.127	441.75
396.352	429.75
396.576	384.75
396.801	396.75
397.025	390.75
397.249	398.75
397.474	414.75
397.698	417.75
397.922	436.75
398.147	440.75
398.371	446.75
398.595	426.75
398.82	438.75
399.044	418.75
399.268	445.75
399.492	465.75
399.717	495.75
399.941	513.75
400.165	544.75
400.389	550.75
400.613	516.75
400.837	474.75
401.062	447.75
401.286	448.75
401.51	462.75
401.734	441.75
401.958	463.75
402.182	455.75
402.406	455.75
402.63	452.75
402.854	444.75
403.078	444.75
403.302	446.75
403.526	472.75
403.75	467.75
403.974	453.75
404.198	462.75
404.422	451.75
404.645	465.75
404.869	475.75
405.093	526.75
405.317	556.75
405.541	536.75
405.765	514.75
405.988	487.75
406.212	498.75
406.436	524.75
406.66	537.75
406.883	518.75
407.107	546.75
407.331	576.75
407.555	626.75
407.778	607.75
408.002	570.75
408.226	532.75
408.449	483.75
408.673	518.75
408.896	528.75
409.12	552.75
409.344	537.75
409.567	482.75
409.791	483.75
410.014	467.75
410.238	476.75
410.461	461.75
410.685	464.75
410.908	470.75
411.132	482.75
411.355	557.75
411.578	508.75
411.802	460.75
412.025	457.75
412.249	471.75
412.472	508.75
412.695	540.75
412.919	540.75
413.142	468.75
413.365	454.75
413.589	443.75
413.812	443.75
414.035	429.75
414.258	423.75
414.482	430.75
414.705	447.75
414.928	424.75
415.151	443.75
415.374	418.75
415.597	432.75
415.821	433.75
416.044	436.75
416.267	442.75
416.49	436.75
416.713	422.75
416.936	435.75
417.159	444.75
417.382	435.75
417.605	438.75
417.828	439.75
418.051	449.75
418.274	454.75
418.497	413.75
418.72	430.75
418.943	437.75
419.166	446.75
419.389	455.75
419.611	432.75
419.834	449.75
420.057	482.75
420.28	482.75
420.503	467.75
420.726	488.75
420.948	476.75
421.171	520.75
421.394	563.75
421.617	484.75
421.839	465.75
422.062	472.75
422.285	491.75
422.507	528.75
422.73	605.75
422.953	565.75
423.175	526.75
423.398	466.75
423.621	490.75
423.843	479.75
424.066	489.75
424.288	506.75
424.511	497.75
424.733	584.75
424.956	637.75
425.178	606.75
425.401	620.75
425.623	657.75
425.846	555.75
426.068	524.75
426.291	492.75
426.513	480.75
426.735	512.75
426.958	549.75
427.18	616.75
427.402	712.75
427.625	866.75
427.847	745.75
428.069	662.75
428.292	566.75
428.514	519.75
428.736	516.75
428.958	460.75
429.181	468.75
429.403	452.75
429.625	482.75
429.847	500.75
430.069	580.75
430.292	587.75
430.514	493.75
430.736	446.75
430.958	472.75
431.18	432.75
431.402	454.75
431.624	409.75
431.846	406.75
432.068	424.75
432.29	418.75
432.512	420.75
432.734	458.75
432.956	446.75
433.178	460.75
433.4	459.75
433.622	442.75
433.844	440.75
434.066	419.75
434.287	425.75
434.509	434.75
434.731	454.75
434.953	439.75
435.175	474.75
435.397	499.75
435.618	491.75
435.84	518.75
436.062	658.75
436.284	701.75
436.505	579.75
436.727	530.75
436.949	493.75
437.17	468.75
437.392	460.75
437.614	495.75
437.835	524.75
438.057	619.75
438.278	708.75
438.5	684.75
438.721	772.75
438.943	738.75
439.165	586.75
439.386	524.75
439.608	516.75
439.829	522.75
440.05	548.75
440.272	594.75
440.493	560.75
440.715	505.75
440.936	490.75
441.158	477.75
441.379	464.75
441.6	492.75
441.822	507.75
442.043	548.75
442.264	628.75
442.486	654.75
442.707	572.75
442.928	528.75
443.149	509.75
443.371	541.75
443.592	583.75
443.813	670.75
444.034	728.75
444.255	589.75
444.476	527.75
444.698	496.75
444.919	475.75
445.14	634.75
445.361	582.75
445.582	556.75
445.803	632.75
446.024	712.75
446.245	733.75
446.466	673.75
446.687	574.75
446.908	509.75
447.129	486.75
447.35	453.75
447.571	442.75
447.792	474.75
448.013	498.75
448.234	493.75
448.455	557.75
448.675	643.75
448.896	796.75
449.117	662.75
449.338	620.75
449.559	708.75
449.779	790.75
450	644.75
450.221	526.75
450.442	503.75
450.662	491.75
450.883	488.75
451.104	491.75
451.324	483.75
451.545	436.75
451.766	430.75
451.986	409.75
452.207	405.75
452.428	406.75
452.648	420.75
452.869	427.75
453.089	442.75
453.31	442.75
453.53	445.75
453.751	413.75
453.971	416.75
454.192	454.75
454.412	428.75
454.633	417.75
454.853	436.75
455.073	412.75
455.294	445.75
455.514	506.75
455.734	482.75
455.955	411.75
456.175	404.75
456.395	379.75
456.616	370.75
456.836	378.75
457.056	387.75
457.276	376.75
457.497	398.75
457.717	377.75
457.937	389.75
458.157	406.75
458.377	413.75
458.598	412.75
458.818	487.75
459.038	560.75
459.258	582.75
459.478	468.75
459.698	428.75
459.918	426.75
460.138	410.75
460.358	404.75
460.578	430.75
460.798	433.75
461.018	429.75
461.238	415.75
461.458	435.75
461.678	415.75
461.898	429.75
462.118	408.75
462.338	428.75
462.558	434.75
462.777	436.75
462.997	448.75
463.217	443.75
463.437	455.75
463.657	448.75
463.876	455.75
464.096	438.75
464.316	427.75
464.536	447.75
464.755	441.75
464.975	452.75
465.195	513.75
465.414	620.75
465.634	500.75
465.854	438.75
466.073	442.75
466.293	441.75
466.512	445.75
466.732	419.75
466.951	424.75
467.171	410.75
467.391	437.75
467.61	427.75
467.829	456.75
468.049	446.75
468.268	449.75
468.488	415.75
468.707	423.75
468.927	407.75
469.146	415.75
469.365	397.75
469.585	389.75
469.804	425.75
470.023	437.75
470.243	447.75
470.462	434.75
470.681	441.75
470.901	429.75
471.12	438.75
471.339	404.75
471.558	406.75
471.777	433.75
471.997	423.75
472.216	420.75
472.435	481.75
472.654	472.75
472.873	445.75
473.092	432.75
473.311	421.75
473.53	436.75
473.749	454.75
473.968	467.75
474.187	567.75
474.406	618.75
474.625	510.75
474.844	445.75
475.063	438.75
475.282	416.75
475.501	426.75
475.72	440.75
475.939	435.75
476.158	439.75
476.377	452.75
476.596	427.75
476.814	448.75
477.033	436.75
477.252	453.75
477.471	446.75
477.69	460.75
477.908	468.75
478.127	469.75
478.346	453.75
478.564	450.75
478.783	459.75
479.002	479.75
479.22	486.75
479.439	491.75
479.658	532.75
479.876	520.75
480.095	520.75
480.313	567.75
480.532	552.75
480.751	548.75
480.969	553.75
481.188	638.75
481.406	674.75
481.624	587.75
481.843	522.75
482.061	520.75
482.28	517.75
482.498	518.75
482.717	506.75
482.935	509.75
483.153	499.75
483.372	519.75
483.59	517.75
483.808	515.75
484.027	515.75
484.245	492.75
484.463	498.75
484.681	512.75
484.9	493.75
485.118	498.75
485.336	518.75
485.554	536.75
485.772	512.75
485.99	504.75
486.209	518.75
486.427	523.75
486.645	529.75
486.863	549.75
487.081	557.75
487.299	533.75
487.517	531.75
487.735	536.75
487.953	534.75
488.171	560.75
488.389	525.75
488.607	536.75
488.825	544.75
489.043	558.75
489.261	546.75
489.479	536.75
489.696	548.75
489.914	574.75
490.132	584.75
490.35	566.75
490.568	597.75
490.786	586.75
491.003	570.75
491.221	613.75
491.439	616.75
491.657	621.75
491.874	633.75
492.092	616.75
492.31	630.75
492.527	646.75
492.745	667.75
492.963	646.75
493.18	655.75
493.398	630.75
493.615	656.75
493.833	652.75
494.05	636.75
494.268	656.75
494.485	636.75
494.703	648.75
494.92	636.75
495.138	654.75
495.355	644.75
495.573	653.75
495.79	664.75
496.008	647.75
496.225	653.75
496.442	655.75
496.66	628.75
496.877	639.75
497.094	652.75
497.312	639.75
497.529	637.75
497.746	661.75
497.963	661.75
498.181	681.75
498.398	681.75
498.615	731.75
498.832	713.75
499.049	699.75
499.267	690.75
499.484	738.75
499.701	744.75
499.918	746.75
500.135	759.75
500.352	818.75
500.569	818.75
500.786	823.75
501.003	795.75
501.22	816.75
501.437	786.75
501.654	772.75
501.871	789.75
502.088	776.75
502.305	722.75
502.522	704.75
502.739	683.75
502.956	692.75
503.172	652.75
503.389	642.75
503.606	676.75
503.823	658.75
504.04	668.75
504.256	644.75
504.473	632.75
504.69	653.75
504.907	637.75
505.123	620.75
505.34	626.75
505.557	614.75
505.773	627.75
505.99	626.75
506.207	626.75
506.423	642.75
506.64	625.75
506.856	620.75
507.073	607.75
507.289	604.75
507.506	586.75
507.722	620.75
507.939	643.75
508.155	616.75
508.372	604.75
508.588	582.75
508.805	595.75
509.021	601.75
509.238	606.75
509.454	630.75
509.67	607.75
509.887	600.75
510.103	621.75
510.319	617.75
510.536	722.75
510.752	1240.75
510.968	1007.75
511.184	633.75
511.401	586.75
511.617	570.75
511.833	588.75
512.049	606.75
512.265	584.75
512.481	587.75
512.698	562.75
512.914	564.75
513.13	568.75
513.346	576.75
513.562	576.75
513.778	541.75
513.994	579.75
514.21	575.75
514.426	622.75
514.642	641.75
514.858	692.75
515.074	740.75
515.29	912.75
515.506	1346.75
515.721	1112.75
515.937	704.75
516.153	638.75
516.369	610.75
516.585	620.75
516.801	568.75
517.016	587.75
517.232	580.75
517.448	583.75
517.664	577.75
517.879	554.75
518.095	554.75
518.311	570.75
518.527	556.75
518.742	539.75
518.958	580.75
519.173	585.75
519.389	533.75
519.605	562.75
519.82	550.75
520.036	590.75
520.251	607.75
520.467	640.75
520.682	610.75
520.898	629.75
521.113	668.75
521.329	742.75
521.544	816.75
521.76	1082.75
521.975	1761.75
522.19	1752.75
522.406	944.75
522.621	670.75
522.836	598.75
523.052	580.75
523.267	534.75
523.482	524.75
523.698	512.75
523.913	525.75
524.128	512.75
524.343	518.75
524.559	521.75
524.774	486.75
524.989	485.75
525.204	500.75
525.419	484.75
525.634	473.75
525.849	465.75
526.064	481.75
526.28	467.75
526.495	473.75
526.71	440.75
526.925	450.75
527.14	441.75
527.355	473.75
527.57	452.75
527.785	467.75
527.999	449.75
528.214	463.75
528.429	448.75
528.644	454.75
528.859	444.75
529.074	458.75
529.289	492.75
529.503	573.75
529.718	547.75
529.933	501.75
530.148	461.75
530.363	461.75
530.577	465.75
530.792	454.75
531.007	437.75
531.221	423.75
531.436	428.75
531.651	442.75
531.865	448.75
532.08	429.75
532.295	442.75
532.509	422.75
532.724	424.75
532.938	432.75
533.153	428.75
533.367	433.75
533.582	423.75
533.796	414.75
534.011	434.75
534.225	436.75
534.44	430.75
534.654	425.75
534.868	416.75
535.083	409.75
535.297	424.75
535.511	422.75
535.726	438.75
535.94	444.75
536.154	427.75
536.369	439.75
536.583	422.75
536.797	436.75
537.011	407.75
537.225	418.75
537.44	400.75
537.654	407.75
537.868	411.75
538.082	410.75
538.296	429.75
538.51	408.75
538.724	416.75
538.938	409.75
539.153	412.75
539.367	447.75
539.581	433.75
539.795	427.75
540.009	426.75
540.222	401.75
540.436	443.75
540.65	397.75
540.864	413.75
541.078	442.75
541.292	407.75
541.506	433.75
541.72	413.75
541.934	412.75
542.147	436.75
542.361	414.75
542.575	415.75
542.789	404.75
543.002	409.75
543.216	408.75
543.43	416.75
543.644	395.75
543.857	409.75
544.071	392.75
544.285	410.75
544.498	404.75
544.712	402.75
544.925	404.75
545.139	396.75
545.352	395.75
545.566	412.75
545.779	412.75
545.993	396.75
546.206	398.75
546.42	403.75
546.633	409.75
546.847	404.75
547.06	397.75
547.274	389.75
547.487	362.75
547.7	378.75
547.914	386.75
548.127	405.75
548.34	373.75
548.554	393.75
548.767	380.75
548.98	384.75
549.193	377.75
549.407	380.75
549.62	405.75
549.833	384.75
550.046	384.75
550.259	382.75
550.473	384.75
550.686	373.75
550.899	374.75
551.112	376.75
551.325	381.75
551.538	369.75
551.751	377.75
551.964	356.75
552.177	380.75
552.39	372.75
552.603	380.75
552.816	360.75
553.029	384.75
553.242	355.75
553.455	377.75
553.667	402.75
553.88	390.75
554.093	386.75
554.306	389.75
554.519	398.75
554.732	392.75
554.944	390.75
555.157	394.75
555.37	377.75
555.583	363.75
555.795	378.75
556.008	368.75
556.221	356.75
556.433	368.75
556.646	349.75
556.859	356.75
557.071	348.75
557.284	355.75
557.496	345.75
557.709	346.75
557.921	353.75
558.134	347.75
558.346	344.75
558.559	323.75
558.771	317.75
558.984	344.75
559.196	341.75
559.409	330.75
559.621	350.75
559.833	339.75
560.046	352.75
560.258	344.75
560.47	334.75
560.683	340.75
560.895	331.75
561.107	350.75
561.32	352.75
561.532	352.75
561.744	353.75
561.956	365.75
562.168	334.75
562.381	328.75
562.593	351.75
562.805	347.75
563.017	338.75
563.229	333.75
563.441	353.75
563.653	340.75
563.865	352.75
564.077	333.75
564.289	346.75
564.501	342.75
564.713	357.75
564.925	337.75
565.137	368.75
565.349	370.75
565.561	369.75
565.773	362.75
565.985	361.75
566.197	366.75
566.408	388.75
566.62	369.75
566.832	390.75
567.044	410.75
567.255	384.75
567.467	396.75
567.679	380.75
567.891	387.75
568.102	404.75
568.314	380.75
568.526	384.75
568.737	356.75
568.949	357.75
569.161	352.75
569.372	360.75
569.584	344.75
569.795	354.75
570.007	365.75
570.218	388.75
570.43	380.75
570.641	342.75
570.853	342.75
571.064	343.75
571.276	325.75
571.487	331.75
571.698	321.75
571.91	309.75
572.121	312.75
572.333	343.75
572.544	324.75
572.755	291.75
572.966	285.75
573.178	290.75
573.389	308.75
573.6	302.75
573.811	310.75
574.023	296.75
574.234	292.75
574.445	321.75
574.656	307.75
574.867	297.75
575.078	277.75
575.289	271.75
575.501	296.75
575.712	290.75
575.923	289.75
576.134	301.75
576.345	286.75
576.556	290.75
576.767	288.75
576.978	291.75
577.188	300.75
577.399	298.75
577.61	267.75
577.821	298.75
578.032	288.75
578.243	314.75
578.454	578.75
578.665	412.75
578.875	309.75
579.086	302.75
579.297	277.75
579.508	252.75
579.718	277.75
579.929	289.75
580.14	277.75
580.35	260.75
580.561	273.75
580.772	281.75
580.982	265.75
581.193	270.75
581.403	274.75
581.614	279.75
581.825	283.75
582.035	275.75
582.246	282.75
582.456	270.75
582.667	278.75
582.877	265.75
583.087	286.75
583.298	274.75
583.508	276.75
583.719	258.75
583.929	274.75
584.139	259.75
584.35	280.75
584.56	264.75
584.77	278.75
584.981	285.75
585.191	250.75
585.401	254.75
585.611	259.75
585.821	260.75
586.032	274.75
586.242	257.75
586.452	250.75
586.662	271.75
586.872	263.75
587.082	264.75
587.292	268.75
587.502	256.75
587.713	251.75
587.923	264.75
588.133	266.75
588.343	267.75
588.553	265.75
588.762	251.75
588.972	257.75
589.182	258.75
589.392	261.75
589.602	242.75
589.812	259.75
590.022	252.75
590.232	261.75
590.441	241.75
590.651	259.75
590.861	264.75
591.071	261.75
591.281	261.75
591.49	258.75
591.7	256.75
591.91	253.75
592.119	267.75
592.329	265.75
592.539	276.75
592.748	278.75
592.958	260.75
593.167	276.75
593.377	245.75
593.587	265.75
593.796	274.75
594.006	268.75
594.215	256.75
594.424	265.75
594.634	252.75
594.843	269.75
595.053	238.75
595.262	260.75
595.472	270.75
595.681	252.75
595.89	243.75
596.1	243.75
596.309	258.75
596.518	268.75
596.727	244.75
596.937	236.75
597.146	258.75
597.355	258.75
597.564	252.75
597.774	237.75
597.983	231.75
598.192	241.75
598.401	248.75
598.61	239.75
598.819	227.75
599.028	242.75
599.237	228.75
599.446	236.75
599.655	245.75
599.864	225.75
600.073	235.75
600.282	236.75
600.491	229.75
600.7	244.75
600.909	228.75
601.118	240.75
601.327	238.75
601.536	231.75
601.745	246.75
601.953	231.75
602.162	216.75
602.371	229.75
602.58	205.75
602.789	237.75
602.997	231.75
603.206	245.75
603.415	226.75
603.623	237.75
603.832	235.75
604.041	220.75
604.249	188.75
604.458	232.75
604.666	222.75
604.875	213.75
605.084	218.75
605.292	213.75
605.501	225.75
605.709	225.75
605.918	223.75
606.126	215.75
606.334	210.75
606.543	226.75
606.751	230.75
606.96	228.75
607.168	223.75
607.376	224.75
607.585	211.75
607.793	217.75
608.001	221.75
608.21	209.75
608.418	222.75
608.626	206.75
608.834	209.75
609.043	217.75
609.251	211.75
609.459	218.75
609.667	218.75
609.875	211.75
610.083	206.75
610.291	227.75
610.499	215.75
610.707	218.75
610.916	202.75
611.124	204.75
611.332	220.75
611.54	229.75
611.748	219.75
611.955	228.75
612.163	227.75
612.371	221.75
612.579	209.75
612.787	209.75
612.995	218.75
613.203	220.75
613.411	211.75
613.618	185.75
613.826	227.75
614.034	219.75
614.242	212.75
614.449	225.75
614.657	200.75
614.865	197.75
615.072	208.75
615.28	205.75
615.488	201.75
615.695	210.75
615.903	194.75
616.111	215.75
616.318	210.75
616.526	200.75
616.733	210.75
616.941	198.75
617.148	213.75
617.356	205.75
617.563	209.75
617.771	218.75
617.978	206.75
618.185	205.75
618.393	217.75
618.6	207.75
618.807	211.75
619.015	203.75
619.222	209.75
619.429	205.75
619.637	203.75
619.844	206.75
620.051	196.75
620.258	201.75
620.466	202.75
620.673	201.75
620.88	185.75
621.087	187.75
621.294	190.75
621.501	219.75
621.708	204.75
621.915	213.75
622.122	201.75
622.329	192.75
622.536	206.75
622.743	209.75
622.95	208.75
623.157	196.75
623.364	182.75
623.571	201.75
623.778	198.75
623.985	194.75
624.192	193.75
624.399	202.75
624.606	185.75
624.812	177.75
625.019	210.75
625.226	193.75
625.433	201.75
625.639	193.75
625.846	197.75
626.053	199.75
626.259	196.75
626.466	188.75
626.673	193.75
626.879	173.75
627.086	188.75
627.293	177.75
627.499	172.75
627.706	200.75
627.912	205.75
628.119	180.75
628.325	194.75
628.532	198.75
628.738	195.75
628.945	178.75
629.151	194.75
629.357	195.75
629.564	187.75
629.77	171.75
629.976	184.75
630.183	180.75
630.389	173.75
630.595	172.75
630.802	187.75
631.008	177.75
631.214	165.75
631.42	168.75
631.627	173.75
631.833	177.75
632.039	186.75
632.245	180.75
632.451	171.75
632.657	170.75
632.863	174.75
633.069	180.75
633.275	182.75
633.481	158.75
633.688	161.75
633.893	163.75
634.099	174.75
634.305	172.75
634.511	164.75
634.717	172.75
634.923	176.75
635.129	178.75
635.335	160.75
635.541	184.75
635.747	177.75
635.952	176.75
636.158	172.75
636.364	176.75
636.57	169.75
636.775	170.75
636.981	161.75
637.187	162.75
637.392	165.75
637.598	178.75
637.804	146.75
638.009	176.75
638.215	162.75
638.421	150.75
638.626	171.75
638.832	160.75
639.037	165.75
639.243	154.75
639.448	157.75
639.654	160.75
639.859	148.75
640.065	149.75
640.27	165.75
640.475	163.75
640.681	162.75
640.886	154.75
641.091	164.75
641.297	171.75
641.502	155.75
641.707	157.75
641.913	169.75
642.118	169.75
642.323	155.75
642.528	155.75
642.733	145.75
642.939	165.75
643.144	153.75
643.349	137.75
643.554	158.75
643.759	153.75
643.964	156.75
644.169	165.75
644.374	168.75
644.579	159.75
644.784	140.75
644.989	158.75
645.194	140.75
645.399	152.75
645.604	156.75
645.809	153.75
646.014	150.75
646.219	166.75
646.423	152.75
646.628	155.75
646.833	162.75
647.038	156.75
647.243	124.75
647.447	141.75
647.652	168.75
647.857	142.75
648.062	157.75
648.266	145.75
648.471	169.75
648.676	160.75
648.88	161.75
649.085	171.75
649.289	139.75
649.494	151.75
649.698	161.75
649.903	156.75
650.107	165.75
650.312	150.75
650.516	141.75
650.721	150.75
650.925	140.75
651.13	134.75
651.334	140.75
651.539	152.75
651.743	148.75
651.947	121.75
652.152	149.75
652.356	148.75
652.56	120.75
652.764	136.75
652.969	133.75
653.173	127.75
653.377	129.75
653.581	132.75
653.785	136.75
653.99	136.75
654.194	128.75
654.398	121.75
654.602	123.75
654.806	146.75
655.01	132.75
655.214	135.75
655.418	114.75
655.622	125.75
655.826	126.75
656.03	121.75
656.234	137.75
656.438	135.75
656.642	121.75
656.846	115.75
657.049	120.75
657.253	126.75
657.457	117.75
657.661	114.75
657.865	112.75
658.068	123.75
658.272	110.75
658.476	104.75
658.68	112.75
658.883	107.75
659.087	94.75
659.291	88.75
659.494	95.75
659.698	86.75
659.901	104.75
660.105	84.75
660.309	95.75
660.512	88.75
660.716	93.75
660.919	94.75
661.123	101.75
661.326	88.75
661.53	96.75
661.733	82.75
661.936	92.75
662.14	98.75
662.343	89.75
662.546	74.75
662.75	79.75
662.953	86.75
663.156	89.75
663.36	80.75
663.563	80.75
663.766	81.75
663.969	78.75
664.173	80.75
664.376	82.75
664.579	79.75
664.782	93.75
664.985	89.75
665.188	88.75
665.391	75.75
665.594	79.75
665.797	63.75
666	85.75
666.203	85.75
666.406	92.75
666.609	86.75
666.812	96.75
667.015	74.75
667.218	86.75
667.421	84.75
667.624	89.75
667.827	76.75
668.03	75.75
668.232	85.75
668.435	73.75
668.638	76.75
668.841	73.75
669.043	82.75
669.246	95.75
669.449	73.75
669.651	78.75
669.854	81.75
670.057	85.75
670.259	91.75
670.462	91.75
670.665	75.75
670.867	84.75
671.07	84.75
671.272	83.75
671.475	79.75
671.677	81.75
671.88	91.75
672.082	97.75
672.284	92.75
672.487	89.75
672.689	91.75
672.892	85.75
