Data from 1989.PennyLincolnUp.Lamp.En5.5.200Scan.071819.P2_HRD10591_17-23-43-973.txt Node
Date: Thu Jul 18 17:23:43 EDT 2019
User: cochatt
Spectrometer: HR+D1059
Trigger mode: 1
Integration Time (sec): 1.000000E-1
Scans to average: 1
Electric dark correction enabled: true
Nonlinearity correction enabled: false
Boxcar width: 0
XAxis mode: Wavelengths
Number of Pixels in Spectrum: 2048
>>>>>Begin Spectral Data<<<<<
223.165	-12.12
223.4	-12.12
223.635	-12.12
223.869	-17.12
224.104	-10.12
224.338	-13.12
224.573	-4.12
224.808	-23.12
225.042	-18.12
225.277	-4.12
225.511	-8.12
225.746	2.88
225.98	6.88
226.215	10.88
226.449	13.88
226.683	12.88
226.918	31.88
227.152	30.88
227.387	34.88
227.621	26.88
227.856	43.88
228.09	33.88
228.324	43.88
228.559	53.88
228.793	54.88
229.027	87.88
229.262	108.88
229.496	108.88
229.73	133.88
229.964	158.88
230.199	137.88
230.433	115.88
230.667	111.88
230.901	101.88
231.136	113.88
231.37	108.88
231.604	107.88
231.838	118.88
232.072	114.88
232.306	117.88
232.541	109.88
232.775	107.88
233.009	109.88
233.243	111.88
233.477	105.88
233.711	121.88
233.945	100.88
234.179	111.88
234.413	120.88
234.647	129.88
234.881	116.88
235.115	121.88
235.349	121.88
235.583	120.88
235.817	120.88
236.051	148.88
236.285	117.88
236.519	111.88
236.753	128.88
236.987	143.88
237.221	171.88
237.455	226.88
237.689	197.88
237.922	142.88
238.156	132.88
238.39	119.88
238.624	121.88
238.858	122.88
239.091	128.88
239.325	132.88
239.559	138.88
239.793	121.88
240.027	144.88
240.26	141.88
240.494	150.88
240.728	151.88
240.961	150.88
241.195	141.88
241.429	151.88
241.662	125.88
241.896	127.88
242.13	132.88
242.363	120.88
242.597	134.88
242.83	132.88
243.064	141.88
243.298	140.88
243.531	153.88
243.765	117.88
243.998	140.88
244.232	145.88
244.465	147.88
244.699	163.88
244.932	147.88
245.166	146.88
245.399	141.88
245.633	147.88
245.866	142.88
246.099	154.88
246.333	140.88
246.566	134.88
246.8	154.88
247.033	157.88
247.266	151.88
247.5	169.88
247.733	160.88
247.966	176.88
248.2	165.88
248.433	175.88
248.666	154.88
248.899	171.88
249.133	188.88
249.366	207.88
249.599	207.88
249.832	185.88
250.066	199.88
250.299	201.88
250.532	194.88
250.765	206.88
250.998	208.88
251.231	235.88
251.465	223.88
251.698	212.88
251.931	206.88
252.164	213.88
252.397	200.88
252.63	195.88
252.863	210.88
253.096	218.88
253.329	230.88
253.562	228.88
253.795	213.88
254.028	233.88
254.261	219.88
254.494	230.88
254.727	240.88
254.96	272.88
255.193	266.88
255.426	250.88
255.659	237.88
255.892	235.88
256.124	228.88
256.357	219.88
256.59	229.88
256.823	236.88
257.056	212.88
257.289	223.88
257.521	218.88
257.754	209.88
257.987	218.88
258.22	221.88
258.452	201.88
258.685	206.88
258.918	220.88
259.151	227.88
259.383	215.88
259.616	219.88
259.849	231.88
260.081	235.88
260.314	263.88
260.547	261.88
260.779	231.88
261.012	248.88
261.244	245.88
261.477	239.88
261.71	232.88
261.942	248.88
262.175	232.88
262.407	258.88
262.64	203.88
262.872	224.88
263.105	216.88
263.337	226.88
263.57	209.88
263.802	232.88
264.035	213.88
264.267	214.88
264.499	203.88
264.732	211.88
264.964	207.88
265.197	223.88
265.429	216.88
265.661	193.88
265.894	227.88
266.126	221.88
266.358	220.88
266.591	195.88
266.823	232.88
267.055	243.88
267.287	237.88
267.52	229.88
267.752	248.88
267.984	235.88
268.216	248.88
268.448	254.88
268.681	230.88
268.913	257.88
269.145	281.88
269.377	308.88
269.609	266.88
269.841	288.88
270.073	290.88
270.306	294.88
270.538	299.88
270.77	313.88
271.002	320.88
271.234	289.88
271.466	291.88
271.698	320.88
271.93	337.88
272.162	321.88
272.394	333.88
272.626	297.88
272.858	297.88
273.09	300.88
273.322	279.88
273.553	259.88
273.785	259.88
274.017	270.88
274.249	265.88
274.481	283.88
274.713	285.88
274.945	274.88
275.176	272.88
275.408	251.88
275.64	273.88
275.872	267.88
276.104	276.88
276.335	277.88
276.567	292.88
276.799	278.88
277.031	320.88
277.262	299.88
277.494	330.88
277.726	300.88
277.957	288.88
278.189	289.88
278.421	290.88
278.652	288.88
278.884	290.88
279.115	253.88
279.347	276.88
279.579	273.88
279.81	270.88
280.042	269.88
280.273	271.88
280.505	275.88
280.736	272.88
280.968	264.88
281.199	281.88
281.431	277.88
281.662	264.88
281.894	270.88
282.125	294.88
282.356	278.88
282.588	309.88
282.819	319.88
283.051	256.88
283.282	265.88
283.513	290.88
283.745	303.88
283.976	271.88
284.207	280.88
284.439	301.88
284.67	277.88
284.901	268.88
285.132	299.88
285.364	277.88
285.595	278.88
285.826	271.88
286.057	283.88
286.288	279.88
286.52	263.88
286.751	272.88
286.982	271.88
287.213	284.88
287.444	291.88
287.675	277.88
287.906	279.88
288.138	295.88
288.369	287.88
288.6	300.88
288.831	306.88
289.062	300.88
289.293	287.88
289.524	301.88
289.755	293.88
289.986	308.88
290.217	286.88
290.448	294.88
290.679	291.88
290.91	308.88
291.141	282.88
291.371	289.88
291.602	285.88
291.833	277.88
292.064	290.88
292.295	289.88
292.526	297.88
292.757	277.88
292.987	286.88
293.218	303.88
293.449	311.88
293.68	284.88
293.91	284.88
294.141	288.88
294.372	308.88
294.603	295.88
294.833	311.88
295.064	281.88
295.295	288.88
295.525	314.88
295.756	297.88
295.987	320.88
296.217	347.88
296.448	317.88
296.679	314.88
296.909	299.88
297.14	310.88
297.37	307.88
297.601	319.88
297.831	312.88
298.062	305.88
298.292	300.88
298.523	292.88
298.753	300.88
298.984	316.88
299.214	295.88
299.445	297.88
299.675	292.88
299.905	315.88
300.136	299.88
300.366	297.88
300.597	294.88
300.827	308.88
301.057	328.88
301.288	340.88
301.518	322.88
301.748	304.88
301.979	298.88
302.209	297.88
302.439	336.88
302.669	321.88
302.9	345.88
303.13	319.88
303.36	340.88
303.59	343.88
303.82	333.88
304.051	349.88
304.281	318.88
304.511	325.88
304.741	322.88
304.971	326.88
305.201	344.88
305.431	314.88
305.661	329.88
305.891	333.88
306.121	336.88
306.352	347.88
306.582	336.88
306.812	349.88
307.042	351.88
307.272	327.88
307.502	328.88
307.731	348.88
307.961	340.88
308.191	304.88
308.421	342.88
308.651	349.88
308.881	333.88
309.111	326.88
309.341	339.88
309.571	353.88
309.8	362.88
310.03	379.88
310.26	375.88
310.49	388.88
310.72	397.88
310.949	397.88
311.179	374.88
311.409	379.88
311.639	384.88
311.868	371.88
312.098	403.88
312.328	396.88
312.557	410.88
312.787	407.88
313.017	395.88
313.246	392.88
313.476	384.88
313.706	365.88
313.935	379.88
314.165	403.88
314.394	397.88
314.624	395.88
314.853	387.88
315.083	376.88
315.312	383.88
315.542	377.88
315.771	364.88
316.001	377.88
316.23	364.88
316.46	363.88
316.689	373.88
316.919	391.88
317.148	389.88
317.377	372.88
317.607	383.88
317.836	391.88
318.065	369.88
318.295	364.88
318.524	391.88
318.753	371.88
318.983	379.88
319.212	394.88
319.441	347.88
319.67	397.88
319.9	411.88
320.129	390.88
320.358	383.88
320.587	395.88
320.816	372.88
321.046	396.88
321.275	397.88
321.504	380.88
321.733	392.88
321.962	422.88
322.191	418.88
322.42	435.88
322.649	423.88
322.878	459.88
323.108	467.88
323.337	483.88
323.566	520.88
323.795	531.88
324.024	586.88
324.253	718.88
324.482	999.88
324.71	1504.88
324.939	2185.88
325.168	1925.88
325.397	977.88
325.626	677.88
325.855	550.88
326.084	531.88
326.313	512.88
326.542	519.88
326.77	566.88
326.999	656.88
327.228	875.88
327.457	1321.88
327.686	1610.88
327.914	1099.88
328.143	714.88
328.372	613.88
328.6	571.88
328.829	565.88
329.058	608.88
329.287	575.88
329.515	536.88
329.744	508.88
329.972	486.88
330.201	511.88
330.43	529.88
330.658	544.88
330.887	609.88
331.115	565.88
331.344	504.88
331.572	499.88
331.801	495.88
332.03	511.88
332.258	458.88
332.486	441.88
332.715	454.88
332.943	451.88
333.172	451.88
333.4	436.88
333.629	439.88
333.857	467.88
334.085	431.88
334.314	439.88
334.542	438.88
334.771	442.88
334.999	432.88
335.227	466.88
335.455	456.88
335.684	444.88
335.912	437.88
336.14	428.88
336.369	421.88
336.597	424.88
336.825	431.88
337.053	432.88
337.281	421.88
337.51	412.88
337.738	406.88
337.966	445.88
338.194	426.88
338.422	442.88
338.65	419.88
338.878	427.88
339.106	402.88
339.334	406.88
339.562	390.88
339.79	402.88
340.018	412.88
340.246	424.88
340.474	427.88
340.702	430.88
340.93	417.88
341.158	410.88
341.386	432.88
341.614	435.88
341.842	425.88
342.07	430.88
342.298	411.88
342.526	423.88
342.754	404.88
342.981	390.88
343.209	385.88
343.437	407.88
343.665	402.88
343.893	407.88
344.12	424.88
344.348	424.88
344.576	419.88
344.804	440.88
345.031	444.88
345.259	437.88
345.487	437.88
345.714	428.88
345.942	395.88
346.17	407.88
346.397	409.88
346.625	401.88
346.853	391.88
347.08	407.88
347.308	393.88
347.535	421.88
347.763	402.88
347.99	435.88
348.218	411.88
348.445	420.88
348.673	422.88
348.9	394.88
349.128	401.88
349.355	391.88
349.583	399.88
349.81	385.88
350.037	405.88
350.265	412.88
350.492	402.88
350.72	394.88
350.947	393.88
351.174	416.88
351.402	409.88
351.629	424.88
351.856	408.88
352.083	425.88
352.311	425.88
352.538	412.88
352.765	420.88
352.992	401.88
353.22	419.88
353.447	383.88
353.674	372.88
353.901	379.88
354.128	393.88
354.355	373.88
354.583	365.88
354.81	377.88
355.037	379.88
355.264	372.88
355.491	357.88
355.718	370.88
355.945	369.88
356.172	361.88
356.399	377.88
356.626	378.88
356.853	384.88
357.08	379.88
357.307	371.88
357.534	379.88
357.761	389.88
357.988	365.88
358.215	386.88
358.441	380.88
358.668	369.88
358.895	380.88
359.122	375.88
359.349	389.88
359.576	425.88
359.802	414.88
360.029	441.88
360.256	456.88
360.483	426.88
360.709	397.88
360.936	405.88
361.163	394.88
361.39	395.88
361.616	408.88
361.843	394.88
362.07	381.88
362.296	388.88
362.523	389.88
362.749	404.88
362.976	389.88
363.203	387.88
363.429	372.88
363.656	378.88
363.882	377.88
364.109	391.88
364.335	368.88
364.562	384.88
364.788	383.88
365.015	386.88
365.241	369.88
365.468	393.88
365.694	380.88
365.92	380.88
366.147	365.88
366.373	378.88
366.599	383.88
366.826	376.88
367.052	379.88
367.278	365.88
367.505	360.88
367.731	374.88
367.957	376.88
368.184	369.88
368.41	359.88
368.636	397.88
368.862	364.88
369.089	385.88
369.315	399.88
369.541	382.88
369.767	385.88
369.993	380.88
370.219	368.88
370.445	368.88
370.672	380.88
370.898	362.88
371.124	361.88
371.35	384.88
371.576	401.88
371.802	369.88
372.028	375.88
372.254	379.88
372.48	367.88
372.706	363.88
372.932	354.88
373.158	373.88
373.384	380.88
373.61	379.88
373.835	367.88
374.061	378.88
374.287	379.88
374.513	386.88
374.739	385.88
374.965	392.88
375.191	377.88
375.416	401.88
375.642	379.88
375.868	381.88
376.094	392.88
376.319	352.88
376.545	347.88
376.771	367.88
376.997	367.88
377.222	363.88
377.448	381.88
377.674	358.88
377.899	359.88
378.125	375.88
378.35	378.88
378.576	364.88
378.802	357.88
379.027	372.88
379.253	359.88
379.478	367.88
379.704	361.88
379.929	367.88
380.155	369.88
380.38	358.88
380.606	375.88
380.831	387.88
381.057	358.88
381.282	377.88
381.507	360.88
381.733	366.88
381.958	375.88
382.184	391.88
382.409	361.88
382.634	373.88
382.86	369.88
383.085	387.88
383.31	387.88
383.535	384.88
383.761	384.88
383.986	387.88
384.211	386.88
384.436	375.88
384.662	367.88
384.887	389.88
385.112	381.88
385.337	389.88
385.562	393.88
385.787	389.88
386.013	393.88
386.238	412.88
386.463	413.88
386.688	406.88
386.913	392.88
387.138	406.88
387.363	389.88
387.588	388.88
387.813	379.88
388.038	393.88
388.263	370.88
388.488	383.88
388.713	404.88
388.938	410.88
389.163	396.88
389.387	380.88
389.612	388.88
389.837	385.88
390.062	397.88
390.287	396.88
390.512	396.88
390.736	390.88
390.961	399.88
391.186	412.88
391.411	387.88
391.636	401.88
391.86	394.88
392.085	394.88
392.31	397.88
392.534	370.88
392.759	408.88
392.984	416.88
393.208	391.88
393.433	383.88
393.658	375.88
393.882	385.88
394.107	386.88
394.331	396.88
394.556	401.88
394.78	402.88
395.005	377.88
395.229	374.88
395.454	399.88
395.678	407.88
395.903	423.88
396.127	428.88
396.352	448.88
396.576	401.88
396.801	395.88
397.025	404.88
397.249	404.88
397.474	408.88
397.698	406.88
397.922	404.88
398.147	442.88
398.371	431.88
398.595	428.88
398.82	440.88
399.044	433.88
399.268	434.88
399.492	467.88
399.717	518.88
399.941	525.88
400.165	539.88
400.389	577.88
400.613	514.88
400.837	466.88
401.062	435.88
401.286	464.88
401.51	458.88
401.734	441.88
401.958	438.88
402.182	438.88
402.406	467.88
402.63	458.88
402.854	469.88
403.078	438.88
403.302	441.88
403.526	458.88
403.75	462.88
403.974	438.88
404.198	449.88
404.422	455.88
404.645	447.88
404.869	447.88
405.093	496.88
405.317	467.88
405.541	512.88
405.765	474.88
405.988	450.88
406.212	465.88
406.436	511.88
406.66	519.88
406.883	502.88
407.107	500.88
407.331	538.88
407.555	596.88
407.778	615.88
408.002	565.88
408.226	529.88
408.449	504.88
408.673	489.88
408.896	548.88
409.12	571.88
409.344	543.88
409.567	484.88
409.791	475.88
410.014	443.88
410.238	428.88
410.461	437.88
410.685	476.88
410.908	477.88
411.132	474.88
411.355	525.88
411.578	501.88
411.802	467.88
412.025	455.88
412.249	441.88
412.472	453.88
412.695	435.88
412.919	451.88
413.142	448.88
413.365	443.88
413.589	438.88
413.812	427.88
414.035	432.88
414.258	407.88
414.482	429.88
414.705	455.88
414.928	437.88
415.151	424.88
415.374	416.88
415.597	434.88
415.821	423.88
416.044	409.88
416.267	434.88
416.49	438.88
416.713	418.88
416.936	427.88
417.159	446.88
417.382	431.88
417.605	429.88
417.828	441.88
418.051	461.88
418.274	448.88
418.497	416.88
418.72	418.88
418.943	424.88
419.166	442.88
419.389	455.88
419.611	474.88
419.834	436.88
420.057	448.88
420.28	437.88
420.503	425.88
420.726	437.88
420.948	455.88
421.171	510.88
421.394	528.88
421.617	471.88
421.839	459.88
422.062	455.88
422.285	463.88
422.507	533.88
422.73	601.88
422.953	567.88
423.175	512.88
423.398	473.88
423.621	460.88
423.843	475.88
424.066	491.88
424.288	459.88
424.511	505.88
424.733	571.88
424.956	615.88
425.178	604.88
425.401	615.88
425.623	647.88
425.846	546.88
426.068	511.88
426.291	496.88
426.513	506.88
426.735	515.88
426.958	561.88
427.18	634.88
427.402	741.88
427.625	812.88
427.847	706.88
428.069	602.88
428.292	522.88
428.514	475.88
428.736	478.88
428.958	503.88
429.181	452.88
429.403	459.88
429.625	461.88
429.847	511.88
430.069	565.88
430.292	560.88
430.514	483.88
430.736	470.88
430.958	444.88
431.18	428.88
431.402	428.88
431.624	423.88
431.846	431.88
432.068	421.88
432.29	423.88
432.512	412.88
432.734	461.88
432.956	439.88
433.178	451.88
433.4	445.88
433.622	441.88
433.844	423.88
434.066	420.88
434.287	428.88
434.509	427.88
434.731	443.88
434.953	437.88
435.175	479.88
435.397	469.88
435.618	499.88
435.84	545.88
436.062	664.88
436.284	688.88
436.505	568.88
436.727	511.88
436.949	487.88
437.17	442.88
437.392	451.88
437.614	475.88
437.835	531.88
438.057	576.88
438.278	687.88
438.5	663.88
438.721	746.88
438.943	721.88
439.165	568.88
439.386	510.88
439.608	509.88
439.829	508.88
440.05	563.88
440.272	585.88
440.493	572.88
440.715	500.88
440.936	457.88
441.158	450.88
441.379	454.88
441.6	468.88
441.822	484.88
442.043	523.88
442.264	599.88
442.486	629.88
442.707	537.88
442.928	517.88
443.149	500.88
443.371	507.88
443.592	567.88
443.813	656.88
444.034	731.88
444.255	583.88
444.476	524.88
444.698	491.88
444.919	497.88
445.14	578.88
445.361	543.88
445.582	544.88
445.803	597.88
446.024	701.88
446.245	708.88
446.466	645.88
446.687	562.88
446.908	501.88
447.129	490.88
447.35	480.88
447.571	459.88
447.792	456.88
448.013	463.88
448.234	488.88
448.455	518.88
448.675	643.88
448.896	733.88
449.117	628.88
449.338	591.88
449.559	677.88
449.779	793.88
450	611.88
450.221	506.88
450.442	469.88
450.662	470.88
450.883	440.88
451.104	479.88
451.324	445.88
451.545	431.88
451.766	419.88
451.986	406.88
452.207	392.88
452.428	396.88
452.648	409.88
452.869	433.88
453.089	425.88
453.31	417.88
453.53	410.88
453.751	409.88
453.971	409.88
454.192	412.88
454.412	407.88
454.633	379.88
454.853	381.88
455.073	392.88
455.294	440.88
455.514	496.88
455.734	463.88
455.955	419.88
456.175	393.88
456.395	374.88
456.616	369.88
456.836	362.88
457.056	385.88
457.276	373.88
457.497	371.88
457.717	368.88
457.937	415.88
458.157	405.88
458.377	392.88
458.598	407.88
458.818	467.88
459.038	538.88
459.258	575.88
459.478	465.88
459.698	448.88
459.918	418.88
460.138	431.88
460.358	416.88
460.578	421.88
460.798	426.88
461.018	437.88
461.238	427.88
461.458	435.88
461.678	417.88
461.898	419.88
462.118	405.88
462.338	426.88
462.558	445.88
462.777	435.88
462.997	460.88
463.217	463.88
463.437	452.88
463.657	455.88
463.876	441.88
464.096	442.88
464.316	436.88
464.536	441.88
464.755	427.88
464.975	455.88
465.195	507.88
465.414	570.88
465.634	504.88
465.854	436.88
466.073	438.88
466.293	421.88
466.512	410.88
466.732	413.88
466.951	434.88
467.171	400.88
467.391	419.88
467.61	429.88
467.829	419.88
468.049	407.88
468.268	416.88
468.488	410.88
468.707	386.88
468.927	397.88
469.146	404.88
469.365	414.88
469.585	395.88
469.804	400.88
470.023	424.88
470.243	413.88
470.462	440.88
470.681	431.88
470.901	433.88
471.12	424.88
471.339	413.88
471.558	419.88
471.777	445.88
471.997	398.88
472.216	407.88
472.435	414.88
472.654	413.88
472.873	408.88
473.092	410.88
473.311	396.88
473.53	410.88
473.749	446.88
473.968	464.88
474.187	545.88
474.406	581.88
474.625	473.88
474.844	411.88
475.063	426.88
475.282	423.88
475.501	425.88
475.72	424.88
475.939	402.88
476.158	427.88
476.377	425.88
476.596	411.88
476.814	419.88
477.033	419.88
477.252	443.88
477.471	412.88
477.69	451.88
477.908	435.88
478.127	443.88
478.346	431.88
478.564	470.88
478.783	455.88
479.002	447.88
479.22	463.88
479.439	474.88
479.658	474.88
479.876	493.88
480.095	511.88
480.313	519.88
480.532	520.88
480.751	496.88
480.969	482.88
481.188	500.88
481.406	491.88
481.624	501.88
481.843	511.88
482.061	489.88
482.28	492.88
482.498	484.88
482.717	469.88
482.935	481.88
483.153	498.88
483.372	463.88
483.59	478.88
483.808	476.88
484.027	489.88
484.245	478.88
484.463	497.88
484.681	501.88
484.9	496.88
485.118	490.88
485.336	497.88
485.554	507.88
485.772	492.88
485.99	489.88
486.209	492.88
486.427	515.88
486.645	512.88
486.863	532.88
487.081	530.88
487.299	531.88
487.517	502.88
487.735	508.88
487.953	523.88
488.171	517.88
488.389	518.88
488.607	517.88
488.825	525.88
489.043	496.88
489.261	519.88
489.479	514.88
489.696	523.88
489.914	548.88
490.132	542.88
490.35	559.88
490.568	551.88
490.786	576.88
491.003	550.88
491.221	564.88
491.439	571.88
491.657	582.88
491.874	586.88
492.092	594.88
492.31	586.88
492.527	591.88
492.745	584.88
492.963	576.88
493.18	610.88
493.398	602.88
493.615	623.88
493.833	613.88
494.05	601.88
494.268	601.88
494.485	599.88
494.703	589.88
494.92	619.88
495.138	630.88
495.355	619.88
495.573	633.88
495.79	627.88
496.008	612.88
496.225	601.88
496.442	641.88
496.66	619.88
496.877	637.88
497.094	647.88
497.312	618.88
497.529	643.88
497.746	655.88
497.963	641.88
498.181	665.88
498.398	677.88
498.615	675.88
498.832	689.88
499.049	690.88
499.267	684.88
499.484	713.88
499.701	704.88
499.918	747.88
500.135	801.88
500.352	782.88
500.569	823.88
500.786	829.88
501.003	779.88
501.22	786.88
501.437	791.88
501.654	757.88
501.871	747.88
502.088	733.88
502.305	714.88
502.522	700.88
502.739	691.88
502.956	672.88
503.172	651.88
503.389	649.88
503.606	650.88
503.823	623.88
504.04	643.88
504.256	641.88
504.473	629.88
504.69	621.88
504.907	623.88
505.123	614.88
505.34	591.88
505.557	611.88
505.773	600.88
505.99	575.88
506.207	589.88
506.423	589.88
506.64	586.88
506.856	593.88
507.073	595.88
507.289	584.88
507.506	566.88
507.722	598.88
507.939	586.88
508.155	603.88
508.372	584.88
508.588	562.88
508.805	553.88
509.021	583.88
509.238	597.88
509.454	597.88
509.67	570.88
509.887	594.88
510.103	571.88
510.319	586.88
510.536	668.88
510.752	1108.88
510.968	915.88
511.184	603.88
511.401	574.88
511.617	551.88
511.833	556.88
512.049	533.88
512.265	528.88
512.481	536.88
512.698	533.88
512.914	533.88
513.13	562.88
513.346	528.88
513.562	552.88
513.778	533.88
513.994	567.88
514.21	560.88
514.426	572.88
514.642	607.88
514.858	643.88
515.074	676.88
515.29	808.88
515.506	1224.88
515.721	978.88
515.937	665.88
516.153	605.88
516.369	582.88
516.585	564.88
516.801	548.88
517.016	552.88
517.232	533.88
517.448	533.88
517.664	538.88
517.879	566.88
518.095	556.88
518.311	563.88
518.527	541.88
518.742	548.88
518.958	551.88
519.173	539.88
519.389	523.88
519.605	552.88
519.82	536.88
520.036	549.88
520.251	560.88
520.467	599.88
520.682	618.88
520.898	589.88
521.113	604.88
521.329	676.88
521.544	739.88
521.76	937.88
521.975	1563.88
522.19	1509.88
522.406	845.88
522.621	626.88
522.836	565.88
523.052	547.88
523.267	526.88
523.482	500.88
523.698	499.88
523.913	534.88
524.128	501.88
524.343	488.88
524.559	465.88
524.774	488.88
524.989	485.88
525.204	478.88
525.419	477.88
525.634	470.88
525.849	461.88
526.064	466.88
526.28	464.88
526.495	442.88
526.71	433.88
526.925	442.88
527.14	423.88
527.355	440.88
527.57	444.88
527.785	464.88
527.999	452.88
528.214	431.88
528.429	442.88
528.644	443.88
528.859	433.88
529.074	451.88
529.289	469.88
529.503	523.88
529.718	510.88
529.933	476.88
530.148	469.88
530.363	449.88
530.577	454.88
530.792	431.88
531.007	427.88
531.221	419.88
531.436	430.88
531.651	439.88
531.865	432.88
532.08	424.88
532.295	402.88
532.509	410.88
532.724	421.88
532.938	431.88
533.153	407.88
533.367	431.88
533.582	398.88
533.796	421.88
534.011	411.88
534.225	440.88
534.44	401.88
534.654	421.88
534.868	412.88
535.083	401.88
535.297	415.88
535.511	408.88
535.726	424.88
535.94	414.88
536.154	431.88
536.369	414.88
536.583	414.88
536.797	420.88
537.011	422.88
537.225	404.88
537.44	398.88
537.654	394.88
537.868	406.88
538.082	384.88
538.296	414.88
538.51	408.88
538.724	423.88
538.938	397.88
539.153	391.88
539.367	428.88
539.581	418.88
539.795	408.88
540.009	384.88
540.222	396.88
540.436	404.88
540.65	409.88
540.864	411.88
541.078	389.88
541.292	419.88
541.506	395.88
541.72	403.88
541.934	417.88
542.147	407.88
542.361	404.88
542.575	409.88
542.789	400.88
543.002	407.88
543.216	393.88
543.43	415.88
543.644	424.88
543.857	421.88
544.071	401.88
544.285	396.88
544.498	402.88
544.712	395.88
544.925	397.88
545.139	400.88
545.352	359.88
545.566	400.88
545.779	401.88
545.993	401.88
546.206	373.88
546.42	410.88
546.633	396.88
546.847	395.88
547.06	393.88
547.274	369.88
547.487	386.88
547.7	383.88
547.914	386.88
548.127	385.88
548.34	383.88
548.554	392.88
548.767	381.88
548.98	360.88
549.193	372.88
549.407	380.88
549.62	377.88
549.833	383.88
550.046	384.88
550.259	374.88
550.473	376.88
550.686	368.88
550.899	361.88
551.112	383.88
551.325	372.88
551.538	369.88
551.751	360.88
551.964	375.88
552.177	391.88
552.39	380.88
552.603	381.88
552.816	364.88
553.029	387.88
553.242	392.88
553.455	398.88
553.667	379.88
553.88	394.88
554.093	377.88
554.306	388.88
554.519	399.88
554.732	388.88
554.944	348.88
555.157	370.88
555.37	376.88
555.583	360.88
555.795	349.88
556.008	354.88
556.221	359.88
556.433	344.88
556.646	348.88
556.859	353.88
557.071	342.88
557.284	363.88
557.496	342.88
557.709	345.88
557.921	339.88
558.134	356.88
558.346	335.88
558.559	349.88
558.771	338.88
558.984	345.88
559.196	341.88
559.409	333.88
559.621	337.88
559.833	347.88
560.046	322.88
560.258	330.88
560.47	345.88
560.683	347.88
560.895	337.88
561.107	332.88
561.32	344.88
561.532	332.88
561.744	353.88
561.956	344.88
562.168	337.88
562.381	333.88
562.593	329.88
562.805	344.88
563.017	348.88
563.229	345.88
563.441	340.88
563.653	342.88
563.865	328.88
564.077	344.88
564.289	352.88
564.501	348.88
564.713	352.88
564.925	364.88
565.137	351.88
565.349	376.88
565.561	383.88
565.773	380.88
565.985	392.88
566.197	381.88
566.408	379.88
566.62	394.88
566.832	386.88
567.044	385.88
567.255	391.88
567.467	397.88
567.679	407.88
567.891	406.88
568.102	381.88
568.314	411.88
568.526	386.88
568.737	384.88
568.949	387.88
569.161	368.88
569.372	351.88
569.584	326.88
569.795	348.88
570.007	344.88
570.218	398.88
570.43	377.88
570.641	355.88
570.853	338.88
571.064	324.88
571.276	314.88
571.487	317.88
571.698	332.88
571.91	318.88
572.121	316.88
572.333	318.88
572.544	333.88
572.755	303.88
572.966	307.88
573.178	306.88
573.389	313.88
573.6	298.88
573.811	287.88
574.023	299.88
574.234	298.88
574.445	304.88
574.656	294.88
574.867	296.88
575.078	299.88
575.289	304.88
575.501	301.88
575.712	299.88
575.923	282.88
576.134	305.88
576.345	300.88
576.556	283.88
576.767	287.88
576.978	284.88
577.188	281.88
577.399	285.88
577.61	303.88
577.821	276.88
578.032	295.88
578.243	321.88
578.454	518.88
578.665	379.88
578.875	291.88
579.086	295.88
579.297	289.88
579.508	286.88
579.718	263.88
579.929	272.88
580.14	267.88
580.35	277.88
580.561	281.88
580.772	282.88
580.982	259.88
581.193	276.88
581.403	283.88
581.614	279.88
581.825	263.88
582.035	276.88
582.246	275.88
582.456	276.88
582.667	263.88
582.877	270.88
583.087	273.88
583.298	274.88
583.508	281.88
583.719	275.88
583.929	282.88
584.139	254.88
584.35	243.88
584.56	253.88
584.77	259.88
584.981	268.88
585.191	263.88
585.401	241.88
585.611	253.88
585.821	264.88
586.032	260.88
586.242	259.88
586.452	268.88
586.662	251.88
586.872	253.88
587.082	272.88
587.292	244.88
587.502	243.88
587.713	259.88
587.923	254.88
588.133	255.88
588.343	264.88
588.553	266.88
588.762	264.88
588.972	264.88
589.182	259.88
589.392	258.88
589.602	275.88
589.812	271.88
590.022	272.88
590.232	255.88
590.441	265.88
590.651	268.88
590.861	266.88
591.071	244.88
591.281	252.88
591.49	251.88
591.7	239.88
591.91	241.88
592.119	255.88
592.329	276.88
592.539	270.88
592.748	278.88
592.958	267.88
593.167	265.88
593.377	272.88
593.587	278.88
593.796	281.88
594.006	272.88
594.215	270.88
594.424	256.88
594.634	271.88
594.843	260.88
595.053	266.88
595.262	250.88
595.472	255.88
595.681	259.88
595.89	248.88
596.1	250.88
596.309	244.88
596.518	243.88
596.727	260.88
596.937	243.88
597.146	259.88
597.355	257.88
597.564	241.88
597.774	220.88
597.983	228.88
598.192	242.88
598.401	240.88
598.61	255.88
598.819	229.88
599.028	235.88
599.237	252.88
599.446	243.88
599.655	242.88
599.864	259.88
600.073	207.88
600.282	215.88
600.491	234.88
600.7	230.88
600.909	231.88
601.118	231.88
601.327	225.88
601.536	226.88
601.745	230.88
601.953	221.88
602.162	227.88
602.371	231.88
602.58	217.88
602.789	220.88
602.997	227.88
603.206	245.88
603.415	231.88
603.623	223.88
603.832	222.88
604.041	226.88
604.249	228.88
604.458	218.88
604.666	219.88
604.875	214.88
605.084	218.88
605.292	205.88
605.501	231.88
605.709	230.88
605.918	230.88
606.126	211.88
606.334	238.88
606.543	216.88
606.751	203.88
606.96	221.88
607.168	221.88
607.376	221.88
607.585	220.88
607.793	222.88
608.001	213.88
608.21	206.88
608.418	226.88
608.626	200.88
608.834	205.88
609.043	209.88
609.251	219.88
609.459	221.88
609.667	217.88
609.875	227.88
610.083	223.88
610.291	220.88
610.499	211.88
610.707	211.88
610.916	203.88
611.124	233.88
611.332	226.88
611.54	213.88
611.748	224.88
611.955	215.88
612.163	200.88
612.371	227.88
612.579	233.88
612.787	215.88
612.995	222.88
613.203	219.88
613.411	218.88
613.618	204.88
613.826	205.88
614.034	210.88
614.242	221.88
614.449	201.88
614.657	198.88
614.865	187.88
615.072	198.88
615.28	198.88
615.488	216.88
615.695	203.88
615.903	211.88
616.111	214.88
616.318	223.88
616.526	203.88
616.733	216.88
616.941	222.88
617.148	203.88
617.356	206.88
617.563	192.88
617.771	211.88
617.978	207.88
618.185	204.88
618.393	211.88
618.6	223.88
618.807	220.88
619.015	217.88
619.222	208.88
619.429	202.88
619.637	191.88
619.844	188.88
620.051	209.88
620.258	205.88
620.466	204.88
620.673	209.88
620.88	201.88
621.087	204.88
621.294	202.88
621.501	192.88
621.708	212.88
621.915	204.88
622.122	191.88
622.329	207.88
622.536	209.88
622.743	201.88
622.95	191.88
623.157	193.88
623.364	198.88
623.571	200.88
623.778	191.88
623.985	180.88
624.192	197.88
624.399	190.88
624.606	209.88
624.812	202.88
625.019	181.88
625.226	187.88
625.433	198.88
625.639	188.88
625.846	188.88
626.053	192.88
626.259	182.88
626.466	195.88
626.673	182.88
626.879	176.88
627.086	185.88
627.293	187.88
627.499	186.88
627.706	178.88
627.912	176.88
628.119	186.88
628.325	196.88
628.532	191.88
628.738	169.88
628.945	179.88
629.151	179.88
629.357	176.88
629.564	172.88
629.77	159.88
629.976	187.88
630.183	179.88
630.389	180.88
630.595	187.88
630.802	187.88
631.008	175.88
631.214	182.88
631.42	185.88
631.627	169.88
631.833	166.88
632.039	181.88
632.245	156.88
632.451	165.88
632.657	178.88
632.863	161.88
633.069	175.88
633.275	171.88
633.481	174.88
633.688	182.88
633.893	167.88
634.099	184.88
634.305	178.88
634.511	154.88
634.717	165.88
634.923	168.88
635.129	182.88
635.335	170.88
635.541	161.88
635.747	148.88
635.952	171.88
636.158	148.88
636.364	163.88
636.57	164.88
636.775	166.88
636.981	159.88
637.187	160.88
637.392	173.88
637.598	178.88
637.804	168.88
638.009	148.88
638.215	171.88
638.421	169.88
638.626	167.88
638.832	152.88
639.037	155.88
639.243	139.88
639.448	154.88
639.654	160.88
639.859	152.88
640.065	175.88
640.27	161.88
640.475	159.88
640.681	143.88
640.886	148.88
641.091	159.88
641.297	171.88
641.502	171.88
641.707	160.88
641.913	148.88
642.118	155.88
642.323	147.88
642.528	147.88
642.733	153.88
642.939	165.88
643.144	153.88
643.349	160.88
643.554	156.88
643.759	152.88
643.964	145.88
644.169	159.88
644.374	154.88
644.579	163.88
644.784	156.88
644.989	168.88
645.194	139.88
645.399	151.88
645.604	155.88
645.809	145.88
646.014	151.88
646.219	155.88
646.423	154.88
646.628	156.88
646.833	140.88
647.038	135.88
647.243	155.88
647.447	159.88
647.652	152.88
647.857	171.88
648.062	125.88
648.266	146.88
648.471	157.88
648.676	161.88
648.88	152.88
649.085	144.88
649.289	160.88
649.494	164.88
649.698	168.88
649.903	179.88
650.107	163.88
650.312	160.88
650.516	141.88
650.721	149.88
650.925	150.88
651.13	151.88
651.334	140.88
651.539	140.88
651.743	146.88
651.947	127.88
652.152	142.88
652.356	142.88
652.56	128.88
652.764	135.88
652.969	131.88
653.173	137.88
653.377	131.88
653.581	116.88
653.785	143.88
653.99	123.88
654.194	128.88
654.398	125.88
654.602	116.88
654.806	132.88
655.01	133.88
655.214	133.88
655.418	140.88
655.622	119.88
655.826	121.88
656.03	128.88
656.234	127.88
656.438	120.88
656.642	121.88
656.846	123.88
657.049	114.88
657.253	121.88
657.457	111.88
657.661	106.88
657.865	97.88
658.068	100.88
658.272	111.88
658.476	107.88
658.68	116.88
658.883	117.88
659.087	99.88
659.291	89.88
659.494	103.88
659.698	85.88
659.901	76.88
660.105	84.88
660.309	94.88
660.512	93.88
660.716	94.88
660.919	87.88
661.123	91.88
661.326	104.88
661.53	75.88
661.733	98.88
661.936	97.88
662.14	78.88
662.343	83.88
662.546	97.88
662.75	82.88
662.953	69.88
663.156	81.88
663.36	79.88
663.563	87.88
663.766	88.88
663.969	93.88
664.173	105.88
664.376	75.88
664.579	81.88
664.782	84.88
664.985	80.88
665.188	77.88
665.391	97.88
665.594	86.88
665.797	79.88
666	84.88
666.203	74.88
666.406	84.88
666.609	82.88
666.812	70.88
667.015	81.88
667.218	78.88
667.421	88.88
667.624	68.88
667.827	82.88
668.03	83.88
668.232	74.88
668.435	86.88
668.638	84.88
668.841	94.88
669.043	82.88
669.246	84.88
669.449	82.88
669.651	74.88
669.854	80.88
670.057	93.88
670.259	79.88
670.462	72.88
670.665	81.88
670.867	85.88
671.07	97.88
671.272	94.88
671.475	81.88
671.677	80.88
671.88	99.88
672.082	77.88
672.284	85.88
672.487	86.88
672.689	86.88
672.892	78.88
