Data from 1989.PennyLincolnUp.Lamp.En5.5.200Scan.071819.P2_HRD10591_17-25-22-973.txt Node
Date: Thu Jul 18 17:25:22 EDT 2019
User: cochatt
Spectrometer: HR+D1059
Trigger mode: 1
Integration Time (sec): 1.000000E-1
Scans to average: 1
Electric dark correction enabled: true
Nonlinearity correction enabled: false
Boxcar width: 0
XAxis mode: Wavelengths
Number of Pixels in Spectrum: 2048
>>>>>Begin Spectral Data<<<<<
223.165	-10.12
223.4	-10.12
223.635	-10.12
223.869	-25.12
224.104	-20.12
224.338	-20.12
224.573	-13.12
224.808	-4.12
225.042	-8.12
225.277	-9.12
225.511	-8.12
225.746	7.88
225.98	5.88
226.215	9.88
226.449	15.88
226.683	19.88
226.918	31.88
227.152	26.88
227.387	43.88
227.621	36.88
227.856	62.88
228.09	50.88
228.324	44.88
228.559	49.88
228.793	71.88
229.027	108.88
229.262	108.88
229.496	127.88
229.73	146.88
229.964	163.88
230.199	139.88
230.433	101.88
230.667	117.88
230.901	121.88
231.136	118.88
231.37	119.88
231.604	122.88
231.838	97.88
232.072	113.88
232.306	102.88
232.541	111.88
232.775	125.88
233.009	110.88
233.243	118.88
233.477	119.88
233.711	130.88
233.945	114.88
234.179	128.88
234.413	134.88
234.647	100.88
234.881	126.88
235.115	137.88
235.349	129.88
235.583	122.88
235.817	118.88
236.051	123.88
236.285	126.88
236.519	131.88
236.753	142.88
236.987	152.88
237.221	192.88
237.455	255.88
237.689	205.88
237.922	155.88
238.156	143.88
238.39	147.88
238.624	139.88
238.858	134.88
239.091	138.88
239.325	131.88
239.559	137.88
239.793	134.88
240.027	149.88
240.26	147.88
240.494	176.88
240.728	172.88
240.961	151.88
241.195	165.88
241.429	131.88
241.662	143.88
241.896	134.88
242.13	133.88
242.363	154.88
242.597	142.88
242.83	130.88
243.064	144.88
243.298	145.88
243.531	153.88
243.765	153.88
243.998	155.88
244.232	157.88
244.465	154.88
244.699	153.88
244.932	157.88
245.166	156.88
245.399	154.88
245.633	149.88
245.866	153.88
246.099	160.88
246.333	156.88
246.566	172.88
246.8	169.88
247.033	164.88
247.266	173.88
247.5	165.88
247.733	172.88
247.966	203.88
248.2	175.88
248.433	183.88
248.666	195.88
248.899	192.88
249.133	225.88
249.366	234.88
249.599	218.88
249.832	221.88
250.066	201.88
250.299	207.88
250.532	200.88
250.765	230.88
250.998	269.88
251.231	253.88
251.465	233.88
251.698	226.88
251.931	219.88
252.164	211.88
252.397	247.88
252.63	223.88
252.863	213.88
253.096	241.88
253.329	261.88
253.562	265.88
253.795	245.88
254.028	257.88
254.261	253.88
254.494	246.88
254.727	286.88
254.96	325.88
255.193	302.88
255.426	290.88
255.659	281.88
255.892	261.88
256.124	272.88
256.357	278.88
256.59	259.88
256.823	256.88
257.056	243.88
257.289	233.88
257.521	221.88
257.754	228.88
257.987	234.88
258.22	233.88
258.452	237.88
258.685	238.88
258.918	234.88
259.151	238.88
259.383	248.88
259.616	249.88
259.849	257.88
260.081	247.88
260.314	295.88
260.547	305.88
260.779	283.88
261.012	258.88
261.244	243.88
261.477	263.88
261.71	262.88
261.942	253.88
262.175	259.88
262.407	269.88
262.64	245.88
262.872	242.88
263.105	235.88
263.337	267.88
263.57	248.88
263.802	236.88
264.035	247.88
264.267	232.88
264.499	234.88
264.732	239.88
264.964	232.88
265.197	235.88
265.429	241.88
265.661	237.88
265.894	249.88
266.126	243.88
266.358	238.88
266.591	247.88
266.823	256.88
267.055	254.88
267.287	255.88
267.52	239.88
267.752	270.88
267.984	250.88
268.216	247.88
268.448	258.88
268.681	265.88
268.913	275.88
269.145	303.88
269.377	307.88
269.609	318.88
269.841	291.88
270.073	315.88
270.306	329.88
270.538	340.88
270.77	349.88
271.002	355.88
271.234	336.88
271.466	341.88
271.698	367.88
271.93	390.88
272.162	377.88
272.394	371.88
272.626	350.88
272.858	351.88
273.09	326.88
273.322	319.88
273.553	299.88
273.785	319.88
274.017	277.88
274.249	281.88
274.481	309.88
274.713	313.88
274.945	310.88
275.176	301.88
275.408	309.88
275.64	285.88
275.872	280.88
276.104	309.88
276.335	283.88
276.567	299.88
276.799	331.88
277.031	357.88
277.262	356.88
277.494	351.88
277.726	349.88
277.957	361.88
278.189	328.88
278.421	300.88
278.652	297.88
278.884	305.88
279.115	295.88
279.347	307.88
279.579	308.88
279.81	313.88
280.042	306.88
280.273	294.88
280.505	293.88
280.736	314.88
280.968	313.88
281.199	310.88
281.431	284.88
281.662	305.88
281.894	316.88
282.125	305.88
282.356	323.88
282.588	350.88
282.819	351.88
283.051	329.88
283.282	319.88
283.513	295.88
283.745	292.88
283.976	307.88
284.207	299.88
284.439	329.88
284.67	332.88
284.901	297.88
285.132	303.88
285.364	292.88
285.595	301.88
285.826	296.88
286.057	309.88
286.288	300.88
286.52	331.88
286.751	300.88
286.982	313.88
287.213	285.88
287.444	315.88
287.675	336.88
287.906	314.88
288.138	331.88
288.369	366.88
288.6	330.88
288.831	323.88
289.062	334.88
289.293	314.88
289.524	302.88
289.755	325.88
289.986	322.88
290.217	319.88
290.448	326.88
290.679	319.88
290.91	303.88
291.141	315.88
291.371	308.88
291.602	325.88
291.833	327.88
292.064	315.88
292.295	318.88
292.526	330.88
292.757	322.88
292.987	308.88
293.218	313.88
293.449	301.88
293.68	324.88
293.91	326.88
294.141	324.88
294.372	319.88
294.603	329.88
294.833	327.88
295.064	323.88
295.295	324.88
295.525	325.88
295.756	330.88
295.987	334.88
296.217	365.88
296.448	365.88
296.679	348.88
296.909	329.88
297.14	314.88
297.37	321.88
297.601	325.88
297.831	329.88
298.062	334.88
298.292	352.88
298.523	348.88
298.753	339.88
298.984	333.88
299.214	341.88
299.445	322.88
299.675	330.88
299.905	338.88
300.136	338.88
300.366	362.88
300.597	335.88
300.827	346.88
301.057	348.88
301.288	375.88
301.518	381.88
301.748	361.88
301.979	361.88
302.209	366.88
302.439	356.88
302.669	362.88
302.9	358.88
303.13	361.88
303.36	345.88
303.59	366.88
303.82	375.88
304.051	369.88
304.281	358.88
304.511	357.88
304.741	360.88
304.971	356.88
305.201	359.88
305.431	354.88
305.661	362.88
305.891	364.88
306.121	363.88
306.352	382.88
306.582	377.88
306.812	382.88
307.042	356.88
307.272	379.88
307.502	366.88
307.731	356.88
307.961	361.88
308.191	346.88
308.421	375.88
308.651	371.88
308.881	371.88
309.111	381.88
309.341	392.88
309.571	391.88
309.8	406.88
310.03	414.88
310.26	418.88
310.49	410.88
310.72	439.88
310.949	448.88
311.179	452.88
311.409	413.88
311.639	423.88
311.868	430.88
312.098	424.88
312.328	450.88
312.557	433.88
312.787	469.88
313.017	481.88
313.246	448.88
313.476	422.88
313.706	413.88
313.935	429.88
314.165	430.88
314.394	439.88
314.624	443.88
314.853	433.88
315.083	440.88
315.312	433.88
315.542	429.88
315.771	420.88
316.001	395.88
316.23	403.88
316.46	435.88
316.689	410.88
316.919	435.88
317.148	410.88
317.377	450.88
317.607	437.88
317.836	429.88
318.065	419.88
318.295	417.88
318.524	415.88
318.753	421.88
318.983	422.88
319.212	417.88
319.441	428.88
319.67	454.88
319.9	439.88
320.129	422.88
320.358	424.88
320.587	444.88
320.816	435.88
321.046	442.88
321.275	417.88
321.504	468.88
321.733	440.88
321.962	472.88
322.191	468.88
322.42	502.88
322.649	515.88
322.878	539.88
323.108	534.88
323.337	553.88
323.566	580.88
323.795	637.88
324.024	701.88
324.253	869.88
324.482	1237.88
324.71	1865.88
324.939	2724.88
325.168	2382.88
325.397	1185.88
325.626	809.88
325.855	638.88
326.084	606.88
326.313	593.88
326.542	607.88
326.77	638.88
326.999	775.88
327.228	1087.88
327.457	1725.88
327.686	2042.88
327.914	1349.88
328.143	886.88
328.372	730.88
328.6	706.88
328.829	663.88
329.058	683.88
329.287	703.88
329.515	655.88
329.744	607.88
329.972	587.88
330.201	606.88
330.43	646.88
330.658	694.88
330.887	710.88
331.115	717.88
331.344	628.88
331.572	589.88
331.801	568.88
332.03	571.88
332.258	525.88
332.486	525.88
332.715	471.88
332.943	479.88
333.172	506.88
333.4	515.88
333.629	525.88
333.857	543.88
334.085	538.88
334.314	558.88
334.542	586.88
334.771	600.88
334.999	573.88
335.227	510.88
335.455	489.88
335.684	515.88
335.912	500.88
336.14	482.88
336.369	483.88
336.597	512.88
336.825	497.88
337.053	471.88
337.281	478.88
337.51	457.88
337.738	475.88
337.966	488.88
338.194	499.88
338.422	485.88
338.65	489.88
338.878	477.88
339.106	452.88
339.334	472.88
339.562	451.88
339.79	446.88
340.018	449.88
340.246	467.88
340.474	488.88
340.702	485.88
340.93	455.88
341.158	444.88
341.386	477.88
341.614	484.88
341.842	471.88
342.07	443.88
342.298	452.88
342.526	449.88
342.754	457.88
342.981	467.88
343.209	423.88
343.437	460.88
343.665	458.88
343.893	472.88
344.12	463.88
344.348	446.88
344.576	458.88
344.804	486.88
345.031	486.88
345.259	497.88
345.487	484.88
345.714	463.88
345.942	470.88
346.17	463.88
346.397	473.88
346.625	459.88
346.853	463.88
347.08	456.88
347.308	476.88
347.535	466.88
347.763	485.88
347.99	473.88
348.218	439.88
348.445	476.88
348.673	470.88
348.9	459.88
349.128	441.88
349.355	438.88
349.583	406.88
349.81	427.88
350.037	440.88
350.265	439.88
350.492	444.88
350.72	426.88
350.947	441.88
351.174	461.88
351.402	466.88
351.629	463.88
351.856	457.88
352.083	463.88
352.311	480.88
352.538	488.88
352.765	464.88
352.992	498.88
353.22	450.88
353.447	451.88
353.674	426.88
353.901	429.88
354.128	422.88
354.355	420.88
354.583	406.88
354.81	408.88
355.037	422.88
355.264	415.88
355.491	416.88
355.718	408.88
355.945	413.88
356.172	424.88
356.399	403.88
356.626	397.88
356.853	402.88
357.08	407.88
357.307	415.88
357.534	425.88
357.761	427.88
357.988	400.88
358.215	418.88
358.441	406.88
358.668	404.88
358.895	422.88
359.122	405.88
359.349	428.88
359.576	442.88
359.802	473.88
360.029	517.88
360.256	536.88
360.483	478.88
360.709	453.88
360.936	433.88
361.163	434.88
361.39	463.88
361.616	458.88
361.843	438.88
362.07	439.88
362.296	442.88
362.523	441.88
362.749	420.88
362.976	439.88
363.203	432.88
363.429	420.88
363.656	416.88
363.882	422.88
364.109	407.88
364.335	399.88
364.562	407.88
364.788	412.88
365.015	430.88
365.241	444.88
365.468	416.88
365.694	409.88
365.92	451.88
366.147	401.88
366.373	414.88
366.599	406.88
366.826	406.88
367.052	405.88
367.278	403.88
367.505	412.88
367.731	416.88
367.957	403.88
368.184	403.88
368.41	419.88
368.636	416.88
368.862	414.88
369.089	412.88
369.315	430.88
369.541	428.88
369.767	399.88
369.993	405.88
370.219	419.88
370.445	410.88
370.672	410.88
370.898	407.88
371.124	414.88
371.35	410.88
371.576	410.88
371.802	394.88
372.028	419.88
372.254	394.88
372.48	420.88
372.706	403.88
372.932	399.88
373.158	397.88
373.384	422.88
373.61	398.88
373.835	410.88
374.061	421.88
374.287	398.88
374.513	418.88
374.739	430.88
374.965	404.88
375.191	428.88
375.416	428.88
375.642	422.88
375.868	419.88
376.094	402.88
376.319	383.88
376.545	407.88
376.771	392.88
376.997	394.88
377.222	403.88
377.448	379.88
377.674	383.88
377.899	406.88
378.125	411.88
378.35	399.88
378.576	397.88
378.802	379.88
379.027	403.88
379.253	394.88
379.478	385.88
379.704	393.88
379.929	409.88
380.155	399.88
380.38	390.88
380.606	409.88
380.831	428.88
381.057	420.88
381.282	389.88
381.507	387.88
381.733	395.88
381.958	410.88
382.184	409.88
382.409	395.88
382.634	401.88
382.86	421.88
383.085	412.88
383.31	414.88
383.535	426.88
383.761	413.88
383.986	420.88
384.211	411.88
384.436	411.88
384.662	425.88
384.887	415.88
385.112	410.88
385.337	436.88
385.562	389.88
385.787	420.88
386.013	422.88
386.238	461.88
386.463	433.88
386.688	435.88
386.913	446.88
387.138	419.88
387.363	435.88
387.588	432.88
387.813	418.88
388.038	430.88
388.263	413.88
388.488	441.88
388.713	414.88
388.938	429.88
389.163	423.88
389.387	431.88
389.612	419.88
389.837	438.88
390.062	419.88
390.287	411.88
390.512	414.88
390.736	429.88
390.961	437.88
391.186	429.88
391.411	415.88
391.636	429.88
391.86	423.88
392.085	419.88
392.31	433.88
392.534	427.88
392.759	411.88
392.984	436.88
393.208	421.88
393.433	433.88
393.658	429.88
393.882	413.88
394.107	431.88
394.331	437.88
394.556	422.88
394.78	430.88
395.005	436.88
395.229	428.88
395.454	442.88
395.678	448.88
395.903	433.88
396.127	471.88
396.352	491.88
396.576	461.88
396.801	454.88
397.025	450.88
397.249	433.88
397.474	434.88
397.698	462.88
397.922	500.88
398.147	484.88
398.371	488.88
398.595	486.88
398.82	468.88
399.044	480.88
399.268	492.88
399.492	505.88
399.717	534.88
399.941	559.88
400.165	571.88
400.389	602.88
400.613	527.88
400.837	505.88
401.062	509.88
401.286	497.88
401.51	482.88
401.734	458.88
401.958	459.88
402.182	475.88
402.406	501.88
402.63	503.88
402.854	498.88
403.078	488.88
403.302	489.88
403.526	520.88
403.75	489.88
403.974	488.88
404.198	486.88
404.422	506.88
404.645	525.88
404.869	523.88
405.093	537.88
405.317	569.88
405.541	621.88
405.765	563.88
405.988	531.88
406.212	535.88
406.436	555.88
406.66	573.88
406.883	555.88
407.107	573.88
407.331	614.88
407.555	675.88
407.778	675.88
408.002	602.88
408.226	553.88
408.449	558.88
408.673	549.88
408.896	588.88
409.12	629.88
409.344	604.88
409.567	519.88
409.791	537.88
410.014	508.88
410.238	493.88
410.461	493.88
410.685	514.88
410.908	510.88
411.132	541.88
411.355	563.88
411.578	573.88
411.802	515.88
412.025	496.88
412.249	500.88
412.472	523.88
412.695	567.88
412.919	563.88
413.142	517.88
413.365	503.88
413.589	479.88
413.812	485.88
414.035	461.88
414.258	472.88
414.482	483.88
414.705	474.88
414.928	462.88
415.151	450.88
415.374	438.88
415.597	445.88
415.821	462.88
416.044	457.88
416.267	469.88
416.49	473.88
416.713	462.88
416.936	473.88
417.159	466.88
417.382	479.88
417.605	471.88
417.828	504.88
418.051	512.88
418.274	499.88
418.497	478.88
418.72	468.88
418.943	461.88
419.166	491.88
419.389	470.88
419.611	483.88
419.834	478.88
420.057	499.88
420.28	509.88
420.503	500.88
420.726	491.88
420.948	517.88
421.171	561.88
421.394	564.88
421.617	530.88
421.839	503.88
422.062	488.88
422.285	512.88
422.507	561.88
422.73	648.88
422.953	630.88
423.175	572.88
423.398	527.88
423.621	530.88
423.843	545.88
424.066	541.88
424.288	545.88
424.511	543.88
424.733	625.88
424.956	689.88
425.178	674.88
425.401	664.88
425.623	682.88
425.846	591.88
426.068	555.88
426.291	525.88
426.513	542.88
426.735	542.88
426.958	587.88
427.18	656.88
427.402	825.88
427.625	917.88
427.847	807.88
428.069	671.88
428.292	611.88
428.514	557.88
428.736	537.88
428.958	530.88
429.181	494.88
429.403	507.88
429.625	499.88
429.847	575.88
430.069	616.88
430.292	627.88
430.514	546.88
430.736	489.88
430.958	488.88
431.18	482.88
431.402	480.88
431.624	453.88
431.846	459.88
432.068	472.88
432.29	462.88
432.512	460.88
432.734	475.88
432.956	471.88
433.178	501.88
433.4	481.88
433.622	458.88
433.844	466.88
434.066	477.88
434.287	465.88
434.509	471.88
434.731	456.88
434.953	477.88
435.175	469.88
435.397	522.88
435.618	550.88
435.84	601.88
436.062	672.88
436.284	764.88
436.505	642.88
436.727	560.88
436.949	513.88
437.17	485.88
437.392	505.88
437.614	518.88
437.835	549.88
438.057	662.88
438.278	771.88
438.5	742.88
438.721	865.88
438.943	805.88
439.165	635.88
439.386	588.88
439.608	569.88
439.829	581.88
440.05	594.88
440.272	661.88
440.493	611.88
440.715	565.88
440.936	532.88
441.158	512.88
441.379	500.88
441.6	499.88
441.822	526.88
442.043	575.88
442.264	670.88
442.486	729.88
442.707	625.88
442.928	545.88
443.149	570.88
443.371	589.88
443.592	645.88
443.813	719.88
444.034	801.88
444.255	637.88
444.476	581.88
444.698	557.88
444.919	515.88
445.14	616.88
445.361	603.88
445.582	582.88
445.803	654.88
446.024	779.88
446.245	778.88
446.466	717.88
446.687	605.88
446.908	558.88
447.129	510.88
447.35	489.88
447.571	509.88
447.792	490.88
448.013	513.88
448.234	513.88
448.455	575.88
448.675	697.88
448.896	785.88
449.117	694.88
449.338	666.88
449.559	754.88
449.779	857.88
450	713.88
450.221	568.88
450.442	524.88
450.662	508.88
450.883	474.88
451.104	547.88
451.324	497.88
451.545	485.88
451.766	471.88
451.986	467.88
452.207	471.88
452.428	467.88
452.648	436.88
452.869	461.88
453.089	480.88
453.31	467.88
453.53	434.88
453.751	458.88
453.971	465.88
454.192	472.88
454.412	440.88
454.633	433.88
454.853	452.88
455.073	445.88
455.294	464.88
455.514	581.88
455.734	527.88
455.955	447.88
456.175	448.88
456.395	417.88
456.616	412.88
456.836	419.88
457.056	405.88
457.276	395.88
457.497	416.88
457.717	417.88
457.937	435.88
458.157	425.88
458.377	451.88
458.598	488.88
458.818	519.88
459.038	630.88
459.258	622.88
459.478	538.88
459.698	469.88
459.918	441.88
460.138	452.88
460.358	465.88
460.578	446.88
460.798	453.88
461.018	453.88
461.238	476.88
461.458	445.88
461.678	458.88
461.898	458.88
462.118	450.88
462.338	461.88
462.558	465.88
462.777	476.88
462.997	470.88
463.217	489.88
463.437	510.88
463.657	485.88
463.876	486.88
464.096	489.88
464.316	482.88
464.536	511.88
464.755	484.88
464.975	486.88
465.195	548.88
465.414	628.88
465.634	539.88
465.854	504.88
466.073	461.88
466.293	443.88
466.512	428.88
466.732	444.88
466.951	442.88
467.171	451.88
467.391	450.88
467.61	461.88
467.829	455.88
468.049	471.88
468.268	474.88
468.488	447.88
468.707	443.88
468.927	426.88
469.146	440.88
469.365	437.88
469.585	451.88
469.804	430.88
470.023	455.88
470.243	469.88
470.462	469.88
470.681	486.88
470.901	476.88
471.12	445.88
471.339	440.88
471.558	427.88
471.777	461.88
471.997	435.88
472.216	462.88
472.435	508.88
472.654	469.88
472.873	479.88
473.092	457.88
473.311	476.88
473.53	447.88
473.749	470.88
473.968	524.88
474.187	647.88
474.406	651.88
474.625	519.88
474.844	485.88
475.063	475.88
475.282	453.88
475.501	454.88
475.72	457.88
475.939	462.88
476.158	495.88
476.377	470.88
476.596	462.88
476.814	500.88
477.033	477.88
477.252	482.88
477.471	489.88
477.69	496.88
477.908	496.88
478.127	492.88
478.346	503.88
478.564	494.88
478.783	498.88
479.002	507.88
479.22	538.88
479.439	517.88
479.658	561.88
479.876	557.88
480.095	552.88
480.313	589.88
480.532	591.88
480.751	545.88
480.969	574.88
481.188	631.88
481.406	637.88
481.624	588.88
481.843	541.88
482.061	543.88
482.28	548.88
482.498	552.88
482.717	525.88
482.935	518.88
483.153	528.88
483.372	533.88
483.59	553.88
483.808	544.88
484.027	545.88
484.245	545.88
484.463	514.88
484.681	531.88
484.9	561.88
485.118	533.88
485.336	553.88
485.554	549.88
485.772	563.88
485.99	546.88
486.209	538.88
486.427	543.88
486.645	571.88
486.863	600.88
487.081	615.88
487.299	586.88
487.517	570.88
487.735	557.88
487.953	558.88
488.171	609.88
488.389	563.88
488.607	587.88
488.825	591.88
489.043	595.88
489.261	576.88
489.479	556.88
489.696	577.88
489.914	596.88
490.132	589.88
490.35	584.88
490.568	645.88
490.786	630.88
491.003	624.88
491.221	635.88
491.439	655.88
491.657	645.88
491.874	659.88
492.092	661.88
492.31	655.88
492.527	659.88
492.745	668.88
492.963	673.88
493.18	661.88
493.398	701.88
493.615	678.88
493.833	677.88
494.05	695.88
494.268	669.88
494.485	665.88
494.703	669.88
494.92	690.88
495.138	690.88
495.355	686.88
495.573	695.88
495.79	683.88
496.008	719.88
496.225	687.88
496.442	680.88
496.66	691.88
496.877	690.88
497.094	659.88
497.312	710.88
497.529	685.88
497.746	697.88
497.963	710.88
498.181	750.88
498.398	732.88
498.615	751.88
498.832	746.88
499.049	749.88
499.267	789.88
499.484	801.88
499.701	807.88
499.918	809.88
500.135	870.88
500.352	869.88
500.569	890.88
500.786	892.88
501.003	873.88
501.22	888.88
501.437	858.88
501.654	862.88
501.871	821.88
502.088	823.88
502.305	788.88
502.522	785.88
502.739	761.88
502.956	738.88
503.172	721.88
503.389	722.88
503.606	738.88
503.823	721.88
504.04	702.88
504.256	702.88
504.473	692.88
504.69	699.88
504.907	682.88
505.123	697.88
505.34	693.88
505.557	669.88
505.773	655.88
505.99	672.88
506.207	674.88
506.423	677.88
506.64	652.88
506.856	653.88
507.073	638.88
507.289	673.88
507.506	644.88
507.722	662.88
507.939	682.88
508.155	666.88
508.372	638.88
508.588	629.88
508.805	633.88
509.021	623.88
509.238	661.88
509.454	661.88
509.67	639.88
509.887	651.88
510.103	646.88
510.319	661.88
510.536	755.88
510.752	1337.88
510.968	1079.88
511.184	657.88
511.401	617.88
511.617	609.88
511.833	599.88
512.049	616.88
512.265	600.88
512.481	612.88
512.698	602.88
512.914	599.88
513.13	606.88
513.346	572.88
513.562	590.88
513.778	618.88
513.994	613.88
514.21	649.88
514.426	654.88
514.642	715.88
514.858	729.88
515.074	788.88
515.29	979.88
515.506	1481.88
515.721	1205.88
515.937	765.88
516.153	694.88
516.369	648.88
516.585	641.88
516.801	628.88
517.016	606.88
517.232	609.88
517.448	626.88
517.664	609.88
517.879	595.88
518.095	628.88
518.311	608.88
518.527	602.88
518.742	583.88
518.958	610.88
519.173	618.88
519.389	594.88
519.605	587.88
519.82	627.88
520.036	615.88
520.251	643.88
520.467	693.88
520.682	684.88
520.898	672.88
521.113	714.88
521.329	760.88
521.544	891.88
521.76	1161.88
521.975	1966.88
522.19	1958.88
522.406	1010.88
522.621	725.88
522.836	673.88
523.052	611.88
523.267	581.88
523.482	582.88
523.698	588.88
523.913	569.88
524.128	573.88
524.343	524.88
524.559	513.88
524.774	539.88
524.989	537.88
525.204	538.88
525.419	536.88
525.634	504.88
525.849	511.88
526.064	518.88
526.28	480.88
526.495	523.88
526.71	508.88
526.925	482.88
527.14	469.88
527.355	488.88
527.57	468.88
527.785	469.88
527.999	483.88
528.214	487.88
528.429	484.88
528.644	490.88
528.859	469.88
529.074	509.88
529.289	508.88
529.503	619.88
529.718	591.88
529.933	510.88
530.148	522.88
530.363	514.88
530.577	494.88
530.792	468.88
531.007	473.88
531.221	470.88
531.436	478.88
531.651	471.88
531.865	455.88
532.08	433.88
532.295	465.88
532.509	466.88
532.724	461.88
532.938	476.88
533.153	458.88
533.367	437.88
533.582	441.88
533.796	446.88
534.011	463.88
534.225	454.88
534.44	451.88
534.654	458.88
534.868	419.88
535.083	431.88
535.297	443.88
535.511	451.88
535.726	467.88
535.94	491.88
536.154	458.88
536.369	451.88
536.583	443.88
536.797	452.88
537.011	425.88
537.225	439.88
537.44	452.88
537.654	443.88
537.868	433.88
538.082	429.88
538.296	446.88
538.51	446.88
538.724	454.88
538.938	439.88
539.153	438.88
539.367	454.88
539.581	470.88
539.795	464.88
540.009	438.88
540.222	460.88
540.436	460.88
540.65	442.88
540.864	456.88
541.078	426.88
541.292	437.88
541.506	421.88
541.72	431.88
541.934	405.88
542.147	449.88
542.361	435.88
542.575	432.88
542.789	457.88
543.002	429.88
543.216	439.88
543.43	458.88
543.644	441.88
543.857	425.88
544.071	454.88
544.285	465.88
544.498	422.88
544.712	431.88
544.925	435.88
545.139	435.88
545.352	424.88
545.566	437.88
545.779	409.88
545.993	429.88
546.206	443.88
546.42	402.88
546.633	426.88
546.847	417.88
547.06	429.88
547.274	411.88
547.487	411.88
547.7	416.88
547.914	405.88
548.127	401.88
548.34	390.88
548.554	405.88
548.767	410.88
548.98	393.88
549.193	412.88
549.407	405.88
549.62	425.88
549.833	425.88
550.046	390.88
550.259	401.88
550.473	409.88
550.686	405.88
550.899	390.88
551.112	411.88
551.325	393.88
551.538	405.88
551.751	419.88
551.964	397.88
552.177	406.88
552.39	397.88
552.603	397.88
552.816	410.88
553.029	409.88
553.242	404.88
553.455	428.88
553.667	426.88
553.88	428.88
554.093	434.88
554.306	412.88
554.519	407.88
554.732	407.88
554.944	393.88
555.157	385.88
555.37	400.88
555.583	403.88
555.795	387.88
556.008	385.88
556.221	396.88
556.433	380.88
556.646	383.88
556.859	364.88
557.071	379.88
557.284	383.88
557.496	374.88
557.709	372.88
557.921	379.88
558.134	391.88
558.346	386.88
558.559	369.88
558.771	371.88
558.984	370.88
559.196	382.88
559.409	359.88
559.621	358.88
559.833	367.88
560.046	372.88
560.258	365.88
560.47	363.88
560.683	364.88
560.895	369.88
561.107	362.88
561.32	371.88
561.532	350.88
561.744	357.88
561.956	377.88
562.168	371.88
562.381	365.88
562.593	376.88
562.805	366.88
563.017	369.88
563.229	399.88
563.441	358.88
563.653	373.88
563.865	358.88
564.077	357.88
564.289	383.88
564.501	367.88
564.713	385.88
564.925	386.88
565.137	406.88
565.349	387.88
565.561	373.88
565.773	373.88
565.985	388.88
566.197	399.88
566.408	385.88
566.62	399.88
566.832	416.88
567.044	422.88
567.255	423.88
567.467	440.88
567.679	443.88
567.891	433.88
568.102	423.88
568.314	439.88
568.526	419.88
568.737	412.88
568.949	408.88
569.161	390.88
569.372	377.88
569.584	383.88
569.795	366.88
570.007	377.88
570.218	406.88
570.43	397.88
570.641	365.88
570.853	364.88
571.064	353.88
571.276	355.88
571.487	354.88
571.698	363.88
571.91	327.88
572.121	333.88
572.333	338.88
572.544	343.88
572.755	326.88
572.966	329.88
573.178	319.88
573.389	318.88
573.6	335.88
573.811	302.88
574.023	321.88
574.234	321.88
574.445	318.88
574.656	311.88
574.867	323.88
575.078	301.88
575.289	319.88
575.501	312.88
575.712	292.88
575.923	311.88
576.134	305.88
576.345	302.88
576.556	300.88
576.767	313.88
576.978	312.88
577.188	328.88
577.399	313.88
577.61	319.88
577.821	310.88
578.032	302.88
578.243	359.88
578.454	643.88
578.665	462.88
578.875	313.88
579.086	315.88
579.297	325.88
579.508	307.88
579.718	305.88
579.929	294.88
580.14	291.88
580.35	303.88
580.561	300.88
580.772	280.88
580.982	273.88
581.193	290.88
581.403	298.88
581.614	280.88
581.825	299.88
582.035	289.88
582.246	289.88
582.456	285.88
582.667	287.88
582.877	287.88
583.087	293.88
583.298	270.88
583.508	282.88
583.719	302.88
583.929	294.88
584.139	301.88
584.35	281.88
584.56	277.88
584.77	287.88
584.981	298.88
585.191	293.88
585.401	288.88
585.611	293.88
585.821	300.88
586.032	281.88
586.242	278.88
586.452	281.88
586.662	253.88
586.872	277.88
587.082	288.88
587.292	278.88
587.502	295.88
587.713	275.88
587.923	279.88
588.133	278.88
588.343	283.88
588.553	277.88
588.762	271.88
588.972	285.88
589.182	291.88
589.392	294.88
589.602	279.88
589.812	303.88
590.022	284.88
590.232	292.88
590.441	271.88
590.651	262.88
590.861	285.88
591.071	280.88
591.281	249.88
591.49	278.88
591.7	266.88
591.91	283.88
592.119	278.88
592.329	271.88
592.539	287.88
592.748	280.88
592.958	269.88
593.167	275.88
593.377	299.88
593.587	291.88
593.796	286.88
594.006	282.88
594.215	291.88
594.424	290.88
594.634	292.88
594.843	266.88
595.053	277.88
595.262	268.88
595.472	285.88
595.681	273.88
595.89	275.88
596.1	266.88
596.309	280.88
596.518	269.88
596.727	253.88
596.937	253.88
597.146	266.88
597.355	270.88
597.564	258.88
597.774	254.88
597.983	259.88
598.192	255.88
598.401	254.88
598.61	252.88
598.819	248.88
599.028	272.88
599.237	257.88
599.446	238.88
599.655	275.88
599.864	249.88
600.073	254.88
600.282	252.88
600.491	248.88
600.7	240.88
600.909	250.88
601.118	232.88
601.327	234.88
601.536	250.88
601.745	248.88
601.953	239.88
602.162	240.88
602.371	246.88
602.58	239.88
602.789	244.88
602.997	234.88
603.206	219.88
603.415	236.88
603.623	237.88
603.832	231.88
604.041	244.88
604.249	230.88
604.458	243.88
604.666	230.88
604.875	234.88
605.084	245.88
605.292	225.88
605.501	222.88
605.709	247.88
605.918	246.88
606.126	236.88
606.334	249.88
606.543	246.88
606.751	227.88
606.96	241.88
607.168	232.88
607.376	215.88
607.585	249.88
607.793	232.88
608.001	226.88
608.21	229.88
608.418	229.88
608.626	215.88
608.834	234.88
609.043	218.88
609.251	233.88
609.459	234.88
609.667	230.88
609.875	228.88
610.083	238.88
610.291	230.88
610.499	230.88
610.707	238.88
610.916	224.88
611.124	233.88
611.332	224.88
611.54	247.88
611.748	219.88
611.955	222.88
612.163	217.88
612.371	220.88
612.579	219.88
612.787	233.88
612.995	233.88
613.203	223.88
613.411	226.88
613.618	227.88
613.826	219.88
614.034	231.88
614.242	211.88
614.449	226.88
614.657	231.88
614.865	238.88
615.072	232.88
615.28	234.88
615.488	216.88
615.695	241.88
615.903	218.88
616.111	228.88
616.318	239.88
616.526	222.88
616.733	244.88
616.941	228.88
617.148	225.88
617.356	218.88
617.563	211.88
617.771	223.88
617.978	234.88
618.185	225.88
618.393	208.88
618.6	222.88
618.807	213.88
619.015	206.88
619.222	224.88
619.429	229.88
619.637	214.88
619.844	215.88
620.051	216.88
620.258	225.88
620.466	211.88
620.673	218.88
620.88	217.88
621.087	210.88
621.294	218.88
621.501	212.88
621.708	225.88
621.915	206.88
622.122	208.88
622.329	201.88
622.536	215.88
622.743	208.88
622.95	203.88
623.157	193.88
623.364	216.88
623.571	229.88
623.778	217.88
623.985	200.88
624.192	210.88
624.399	194.88
624.606	222.88
624.812	209.88
625.019	199.88
625.226	205.88
625.433	204.88
625.639	218.88
625.846	200.88
626.053	198.88
626.259	209.88
626.466	210.88
626.673	202.88
626.879	193.88
627.086	206.88
627.293	198.88
627.499	200.88
627.706	208.88
627.912	196.88
628.119	206.88
628.325	207.88
628.532	186.88
628.738	198.88
628.945	187.88
629.151	199.88
629.357	211.88
629.564	185.88
629.77	202.88
629.976	189.88
630.183	189.88
630.389	196.88
630.595	178.88
630.802	193.88
631.008	189.88
631.214	184.88
631.42	189.88
631.627	192.88
631.833	183.88
632.039	150.88
632.245	183.88
632.451	180.88
632.657	177.88
632.863	187.88
633.069	191.88
633.275	190.88
633.481	185.88
633.688	160.88
633.893	173.88
634.099	190.88
634.305	175.88
634.511	173.88
634.717	170.88
634.923	179.88
635.129	168.88
635.335	181.88
635.541	171.88
635.747	165.88
635.952	167.88
636.158	172.88
636.364	176.88
636.57	179.88
636.775	183.88
636.981	179.88
637.187	174.88
637.392	161.88
637.598	183.88
637.804	181.88
638.009	189.88
638.215	178.88
638.421	175.88
638.626	178.88
638.832	173.88
639.037	164.88
639.243	180.88
639.448	179.88
639.654	157.88
639.859	149.88
640.065	162.88
640.27	175.88
640.475	183.88
640.681	163.88
640.886	175.88
641.091	169.88
641.297	162.88
641.502	158.88
641.707	157.88
641.913	161.88
642.118	169.88
642.323	159.88
642.528	175.88
642.733	167.88
642.939	187.88
643.144	147.88
643.349	164.88
643.554	168.88
643.759	158.88
643.964	168.88
644.169	161.88
644.374	155.88
644.579	158.88
644.784	145.88
644.989	157.88
645.194	158.88
645.399	173.88
645.604	169.88
645.809	149.88
646.014	168.88
646.219	149.88
646.423	163.88
646.628	148.88
646.833	170.88
647.038	146.88
647.243	165.88
647.447	147.88
647.652	164.88
647.857	171.88
648.062	157.88
648.266	152.88
648.471	171.88
648.676	169.88
648.88	157.88
649.085	170.88
649.289	161.88
649.494	157.88
649.698	187.88
649.903	176.88
650.107	157.88
650.312	156.88
650.516	164.88
650.721	159.88
650.925	153.88
651.13	149.88
651.334	141.88
651.539	157.88
651.743	151.88
651.947	139.88
652.152	149.88
652.356	174.88
652.56	152.88
652.764	135.88
652.969	129.88
653.173	138.88
653.377	133.88
653.581	150.88
653.785	135.88
653.99	128.88
654.194	134.88
654.398	127.88
654.602	134.88
654.806	122.88
655.01	153.88
655.214	148.88
655.418	141.88
655.622	127.88
655.826	134.88
656.03	134.88
656.234	133.88
656.438	137.88
656.642	127.88
656.846	118.88
657.049	124.88
657.253	135.88
657.457	126.88
657.661	123.88
657.865	120.88
658.068	124.88
658.272	125.88
658.476	113.88
658.68	113.88
658.883	119.88
659.087	107.88
659.291	110.88
659.494	113.88
659.698	96.88
659.901	109.88
660.105	78.88
660.309	87.88
660.512	90.88
660.716	83.88
660.919	96.88
661.123	95.88
661.326	98.88
661.53	102.88
661.733	89.88
661.936	93.88
662.14	102.88
662.343	95.88
662.546	95.88
662.75	88.88
662.953	89.88
663.156	85.88
663.36	91.88
663.563	90.88
663.766	86.88
663.969	81.88
664.173	85.88
664.376	87.88
664.579	97.88
664.782	80.88
664.985	75.88
665.188	74.88
665.391	83.88
665.594	88.88
665.797	92.88
666	76.88
666.203	84.88
666.406	68.88
666.609	77.88
666.812	80.88
667.015	87.88
667.218	69.88
667.421	92.88
667.624	80.88
667.827	63.88
668.03	68.88
668.232	76.88
668.435	72.88
668.638	94.88
668.841	81.88
669.043	89.88
669.246	79.88
669.449	83.88
669.651	85.88
669.854	90.88
670.057	79.88
670.259	93.88
670.462	71.88
670.665	63.88
670.867	78.88
671.07	81.88
671.272	91.88
671.475	89.88
671.677	88.88
671.88	79.88
672.082	80.88
672.284	67.88
672.487	74.88
672.689	86.88
672.892	85.88
