Data from 1989.PennyLincolnUp.Lamp.En5.5.200Scan.071819.P2_HRD10591_17-24-56-973.txt Node
Date: Thu Jul 18 17:24:56 EDT 2019
User: cochatt
Spectrometer: HR+D1059
Trigger mode: 1
Integration Time (sec): 1.000000E-1
Scans to average: 1
Electric dark correction enabled: true
Nonlinearity correction enabled: false
Boxcar width: 0
XAxis mode: Wavelengths
Number of Pixels in Spectrum: 2048
>>>>>Begin Spectral Data<<<<<
223.165	-10.19
223.4	-10.19
223.635	-10.19
223.869	-15.19
224.104	-16.19
224.338	-28.19
224.573	1.81
224.808	-18.19
225.042	-1.19
225.277	7.81
225.511	2.81
225.746	4.81
225.98	0.81
226.215	-4.19
226.449	7.81
226.683	10.81
226.918	25.81
227.152	30.81
227.387	45.81
227.621	39.81
227.856	54.81
228.09	48.81
228.324	39.81
228.559	61.81
228.793	68.81
229.027	117.81
229.262	107.81
229.496	116.81
229.73	148.81
229.964	176.81
230.199	132.81
230.433	117.81
230.667	114.81
230.901	133.81
231.136	123.81
231.37	113.81
231.604	113.81
231.838	123.81
232.072	109.81
232.306	108.81
232.541	119.81
232.775	117.81
233.009	109.81
233.243	116.81
233.477	119.81
233.711	112.81
233.945	109.81
234.179	112.81
234.413	126.81
234.647	130.81
234.881	132.81
235.115	132.81
235.349	116.81
235.583	128.81
235.817	118.81
236.051	128.81
236.285	121.81
236.519	129.81
236.753	131.81
236.987	164.81
237.221	176.81
237.455	246.81
237.689	195.81
237.922	156.81
238.156	137.81
238.39	128.81
238.624	124.81
238.858	119.81
239.091	131.81
239.325	142.81
239.559	128.81
239.793	130.81
240.027	141.81
240.26	155.81
240.494	170.81
240.728	147.81
240.961	151.81
241.195	151.81
241.429	148.81
241.662	138.81
241.896	145.81
242.13	139.81
242.363	127.81
242.597	133.81
242.83	141.81
243.064	147.81
243.298	151.81
243.531	134.81
243.765	144.81
243.998	139.81
244.232	141.81
244.465	153.81
244.699	154.81
244.932	140.81
245.166	158.81
245.399	154.81
245.633	148.81
245.866	158.81
246.099	151.81
246.333	150.81
246.566	170.81
246.8	176.81
247.033	150.81
247.266	174.81
247.5	175.81
247.733	162.81
247.966	206.81
248.2	197.81
248.433	172.81
248.666	192.81
248.899	184.81
249.133	214.81
249.366	225.81
249.599	216.81
249.832	214.81
250.066	179.81
250.299	191.81
250.532	203.81
250.765	234.81
250.998	238.81
251.231	250.81
251.465	237.81
251.698	200.81
251.931	225.81
252.164	224.81
252.397	230.81
252.63	210.81
252.863	228.81
253.096	238.81
253.329	245.81
253.562	268.81
253.795	236.81
254.028	240.81
254.261	239.81
254.494	241.81
254.727	276.81
254.96	307.81
255.193	297.81
255.426	268.81
255.659	256.81
255.892	246.81
256.124	230.81
256.357	227.81
256.59	245.81
256.823	228.81
257.056	240.81
257.289	230.81
257.521	219.81
257.754	227.81
257.987	226.81
258.22	232.81
258.452	229.81
258.685	234.81
258.918	216.81
259.151	235.81
259.383	216.81
259.616	244.81
259.849	237.81
260.081	252.81
260.314	278.81
260.547	282.81
260.779	300.81
261.012	242.81
261.244	252.81
261.477	232.81
261.71	242.81
261.942	269.81
262.175	252.81
262.407	257.81
262.64	237.81
262.872	250.81
263.105	226.81
263.337	230.81
263.57	248.81
263.802	253.81
264.035	238.81
264.267	233.81
264.499	224.81
264.732	226.81
264.964	216.81
265.197	220.81
265.429	226.81
265.661	227.81
265.894	242.81
266.126	225.81
266.358	237.81
266.591	233.81
266.823	236.81
267.055	257.81
267.287	242.81
267.52	238.81
267.752	238.81
267.984	236.81
268.216	247.81
268.448	253.81
268.681	259.81
268.913	267.81
269.145	276.81
269.377	297.81
269.609	288.81
269.841	297.81
270.073	299.81
270.306	328.81
270.538	346.81
270.77	338.81
271.002	341.81
271.234	325.81
271.466	317.81
271.698	317.81
271.93	335.81
272.162	355.81
272.394	365.81
272.626	360.81
272.858	306.81
273.09	311.81
273.322	328.81
273.553	299.81
273.785	301.81
274.017	301.81
274.249	283.81
274.481	278.81
274.713	282.81
274.945	284.81
275.176	301.81
275.408	290.81
275.64	289.81
275.872	290.81
276.104	298.81
276.335	289.81
276.567	289.81
276.799	283.81
277.031	327.81
277.262	341.81
277.494	340.81
277.726	336.81
277.957	325.81
278.189	308.81
278.421	301.81
278.652	295.81
278.884	300.81
279.115	289.81
279.347	280.81
279.579	294.81
279.81	283.81
280.042	288.81
280.273	289.81
280.505	299.81
280.736	293.81
280.968	270.81
281.199	271.81
281.431	286.81
281.662	281.81
281.894	271.81
282.125	283.81
282.356	304.81
282.588	322.81
282.819	338.81
283.051	277.81
283.282	288.81
283.513	291.81
283.745	294.81
283.976	303.81
284.207	308.81
284.439	297.81
284.67	302.81
284.901	286.81
285.132	283.81
285.364	292.81
285.595	298.81
285.826	292.81
286.057	298.81
286.288	269.81
286.52	302.81
286.751	295.81
286.982	288.81
287.213	310.81
287.444	313.81
287.675	305.81
287.906	309.81
288.138	314.81
288.369	325.81
288.6	325.81
288.831	313.81
289.062	302.81
289.293	310.81
289.524	309.81
289.755	299.81
289.986	291.81
290.217	292.81
290.448	301.81
290.679	296.81
290.91	310.81
291.141	333.81
291.371	306.81
291.602	299.81
291.833	296.81
292.064	296.81
292.295	297.81
292.526	305.81
292.757	326.81
292.987	305.81
293.218	292.81
293.449	278.81
293.68	306.81
293.91	299.81
294.141	286.81
294.372	285.81
294.603	310.81
294.833	301.81
295.064	307.81
295.295	299.81
295.525	300.81
295.756	309.81
295.987	314.81
296.217	365.81
296.448	358.81
296.679	334.81
296.909	335.81
297.14	322.81
297.37	318.81
297.601	316.81
297.831	314.81
298.062	333.81
298.292	329.81
298.523	321.81
298.753	318.81
298.984	325.81
299.214	334.81
299.445	306.81
299.675	308.81
299.905	316.81
300.136	339.81
300.366	307.81
300.597	338.81
300.827	326.81
301.057	318.81
301.288	350.81
301.518	352.81
301.748	335.81
301.979	342.81
302.209	348.81
302.439	338.81
302.669	320.81
302.9	346.81
303.13	332.81
303.36	350.81
303.59	339.81
303.82	335.81
304.051	354.81
304.281	348.81
304.511	339.81
304.741	342.81
304.971	331.81
305.201	354.81
305.431	356.81
305.661	350.81
305.891	346.81
306.121	358.81
306.352	358.81
306.582	352.81
306.812	363.81
307.042	355.81
307.272	340.81
307.502	374.81
307.731	345.81
307.961	347.81
308.191	353.81
308.421	346.81
308.651	347.81
308.881	352.81
309.111	339.81
309.341	369.81
309.571	368.81
309.8	389.81
310.03	389.81
310.26	386.81
310.49	403.81
310.72	421.81
310.949	420.81
311.179	416.81
311.409	428.81
311.639	419.81
311.868	390.81
312.098	409.81
312.328	410.81
312.557	424.81
312.787	453.81
313.017	428.81
313.246	437.81
313.476	411.81
313.706	398.81
313.935	414.81
314.165	409.81
314.394	454.81
314.624	417.81
314.853	402.81
315.083	410.81
315.312	401.81
315.542	414.81
315.771	390.81
316.001	368.81
316.23	377.81
316.46	386.81
316.689	410.81
316.919	410.81
317.148	430.81
317.377	404.81
317.607	429.81
317.836	402.81
318.065	400.81
318.295	385.81
318.524	399.81
318.753	388.81
318.983	394.81
319.212	399.81
319.441	404.81
319.67	404.81
319.9	400.81
320.129	400.81
320.358	403.81
320.587	399.81
320.816	428.81
321.046	428.81
321.275	426.81
321.504	430.81
321.733	444.81
321.962	440.81
322.191	460.81
322.42	484.81
322.649	470.81
322.878	481.81
323.108	500.81
323.337	531.81
323.566	542.81
323.795	594.81
324.024	664.81
324.253	794.81
324.482	1149.81
324.71	1752.81
324.939	2548.81
325.168	2226.81
325.397	1137.81
325.626	772.81
325.855	613.81
326.084	555.81
326.313	555.81
326.542	543.81
326.77	594.81
326.999	721.81
327.228	994.81
327.457	1537.81
327.686	1903.81
327.914	1246.81
328.143	846.81
328.372	703.81
328.6	658.81
328.829	626.81
329.058	619.81
329.287	634.81
329.515	598.81
329.744	553.81
329.972	541.81
330.201	576.81
330.43	587.81
330.658	630.81
330.887	660.81
331.115	666.81
331.344	562.81
331.572	537.81
331.801	532.81
332.03	523.81
332.258	496.81
332.486	463.81
332.715	451.81
332.943	460.81
333.172	471.81
333.4	472.81
333.629	456.81
333.857	470.81
334.085	507.81
334.314	501.81
334.542	498.81
334.771	536.81
334.999	494.81
335.227	465.81
335.455	461.81
335.684	440.81
335.912	450.81
336.14	444.81
336.369	456.81
336.597	470.81
336.825	487.81
337.053	474.81
337.281	463.81
337.51	469.81
337.738	467.81
337.966	441.81
338.194	467.81
338.422	463.81
338.65	449.81
338.878	442.81
339.106	429.81
339.334	420.81
339.562	436.81
339.79	446.81
340.018	427.81
340.246	448.81
340.474	458.81
340.702	442.81
340.93	424.81
341.158	445.81
341.386	440.81
341.614	444.81
341.842	435.81
342.07	451.81
342.298	452.81
342.526	421.81
342.754	432.81
342.981	418.81
343.209	416.81
343.437	417.81
343.665	437.81
343.893	457.81
344.12	456.81
344.348	427.81
344.576	434.81
344.804	444.81
345.031	458.81
345.259	462.81
345.487	479.81
345.714	437.81
345.942	444.81
346.17	427.81
346.397	422.81
346.625	414.81
346.853	438.81
347.08	440.81
347.308	420.81
347.535	434.81
347.763	461.81
347.99	457.81
348.218	452.81
348.445	426.81
348.673	432.81
348.9	436.81
349.128	411.81
349.355	405.81
349.583	392.81
349.81	428.81
350.037	405.81
350.265	414.81
350.492	427.81
350.72	390.81
350.947	412.81
351.174	423.81
351.402	434.81
351.629	418.81
351.856	448.81
352.083	443.81
352.311	449.81
352.538	462.81
352.765	453.81
352.992	434.81
353.22	433.81
353.447	420.81
353.674	406.81
353.901	395.81
354.128	394.81
354.355	398.81
354.583	392.81
354.81	402.81
355.037	392.81
355.264	386.81
355.491	385.81
355.718	370.81
355.945	372.81
356.172	396.81
356.399	383.81
356.626	369.81
356.853	393.81
357.08	384.81
357.307	386.81
357.534	407.81
357.761	391.81
357.988	381.81
358.215	382.81
358.441	387.81
358.668	376.81
358.895	386.81
359.122	408.81
359.349	411.81
359.576	440.81
359.802	434.81
360.029	476.81
360.256	482.81
360.483	469.81
360.709	441.81
360.936	426.81
361.163	420.81
361.39	433.81
361.616	428.81
361.843	428.81
362.07	428.81
362.296	423.81
362.523	432.81
362.749	419.81
362.976	426.81
363.203	417.81
363.429	390.81
363.656	390.81
363.882	416.81
364.109	385.81
364.335	391.81
364.562	395.81
364.788	398.81
365.015	386.81
365.241	399.81
365.468	415.81
365.694	401.81
365.92	419.81
366.147	421.81
366.373	391.81
366.599	387.81
366.826	382.81
367.052	399.81
367.278	374.81
367.505	388.81
367.731	402.81
367.957	390.81
368.184	379.81
368.41	398.81
368.636	411.81
368.862	409.81
369.089	386.81
369.315	402.81
369.541	417.81
369.767	375.81
369.993	393.81
370.219	393.81
370.445	367.81
370.672	391.81
370.898	396.81
371.124	390.81
371.35	389.81
371.576	417.81
371.802	417.81
372.028	385.81
372.254	395.81
372.48	372.81
372.706	376.81
372.932	382.81
373.158	392.81
373.384	402.81
373.61	371.81
373.835	377.81
374.061	385.81
374.287	398.81
374.513	379.81
374.739	407.81
374.965	392.81
375.191	387.81
375.416	390.81
375.642	390.81
375.868	383.81
376.094	370.81
376.319	380.81
376.545	396.81
376.771	395.81
376.997	385.81
377.222	390.81
377.448	384.81
377.674	372.81
377.899	375.81
378.125	376.81
378.35	377.81
378.576	392.81
378.802	370.81
379.027	389.81
379.253	385.81
379.478	389.81
379.704	394.81
379.929	392.81
380.155	389.81
380.38	364.81
380.606	380.81
380.831	382.81
381.057	382.81
381.282	370.81
381.507	370.81
381.733	385.81
381.958	372.81
382.184	384.81
382.409	381.81
382.634	400.81
382.86	393.81
383.085	406.81
383.31	388.81
383.535	406.81
383.761	368.81
383.986	396.81
384.211	382.81
384.436	402.81
384.662	382.81
384.887	386.81
385.112	371.81
385.337	410.81
385.562	393.81
385.787	388.81
386.013	423.81
386.238	410.81
386.463	408.81
386.688	406.81
386.913	403.81
387.138	394.81
387.363	405.81
387.588	434.81
387.813	416.81
388.038	393.81
388.263	410.81
388.488	406.81
388.713	417.81
388.938	408.81
389.163	401.81
389.387	410.81
389.612	394.81
389.837	385.81
390.062	398.81
390.287	411.81
390.512	399.81
390.736	408.81
390.961	421.81
391.186	397.81
391.411	417.81
391.636	398.81
391.86	413.81
392.085	426.81
392.31	426.81
392.534	409.81
392.759	414.81
392.984	419.81
393.208	407.81
393.433	399.81
393.658	407.81
393.882	406.81
394.107	395.81
394.331	402.81
394.556	408.81
394.78	406.81
395.005	406.81
395.229	426.81
395.454	418.81
395.678	427.81
395.903	433.81
396.127	445.81
396.352	468.81
396.576	424.81
396.801	421.81
397.025	416.81
397.249	439.81
397.474	434.81
397.698	425.81
397.922	441.81
398.147	450.81
398.371	455.81
398.595	451.81
398.82	434.81
399.044	467.81
399.268	457.81
399.492	470.81
399.717	513.81
399.941	535.81
400.165	561.81
400.389	565.81
400.613	508.81
400.837	482.81
401.062	471.81
401.286	484.81
401.51	457.81
401.734	472.81
401.958	460.81
402.182	444.81
402.406	474.81
402.63	461.81
402.854	471.81
403.078	446.81
403.302	465.81
403.526	484.81
403.75	478.81
403.974	461.81
404.198	463.81
404.422	486.81
404.645	461.81
404.869	474.81
405.093	489.81
405.317	557.81
405.541	547.81
405.765	513.81
405.988	491.81
406.212	502.81
406.436	532.81
406.66	544.81
406.883	527.81
407.107	552.81
407.331	596.81
407.555	626.81
407.778	620.81
408.002	557.81
408.226	536.81
408.449	526.81
408.673	527.81
408.896	553.81
409.12	609.81
409.344	562.81
409.567	511.81
409.791	475.81
410.014	470.81
410.238	490.81
410.461	498.81
410.685	478.81
410.908	504.81
411.132	540.81
411.355	568.81
411.578	539.81
411.802	484.81
412.025	457.81
412.249	484.81
412.472	503.81
412.695	520.81
412.919	496.81
413.142	472.81
413.365	469.81
413.589	454.81
413.812	443.81
414.035	426.81
414.258	451.81
414.482	452.81
414.705	442.81
414.928	425.81
415.151	443.81
415.374	444.81
415.597	430.81
415.821	440.81
416.044	439.81
416.267	441.81
416.49	451.81
416.713	428.81
416.936	434.81
417.159	434.81
417.382	435.81
417.605	461.81
417.828	461.81
418.051	463.81
418.274	453.81
418.497	451.81
418.72	444.81
418.943	435.81
419.166	463.81
419.389	485.81
419.611	473.81
419.834	488.81
420.057	470.81
420.28	470.81
420.503	468.81
420.726	460.81
420.948	481.81
421.171	530.81
421.394	557.81
421.617	508.81
421.839	485.81
422.062	452.81
422.285	463.81
422.507	537.81
422.73	603.81
422.953	602.81
423.175	523.81
423.398	485.81
423.621	512.81
423.843	513.81
424.066	524.81
424.288	502.81
424.511	537.81
424.733	587.81
424.956	647.81
425.178	640.81
425.401	649.81
425.623	672.81
425.846	563.81
426.068	510.81
426.291	520.81
426.513	539.81
426.735	538.81
426.958	578.81
427.18	648.81
427.402	755.81
427.625	858.81
427.847	763.81
428.069	671.81
428.292	595.81
428.514	512.81
428.736	490.81
428.958	490.81
429.181	477.81
429.403	489.81
429.625	492.81
429.847	546.81
430.069	588.81
430.292	632.81
430.514	508.81
430.736	484.81
430.958	469.81
431.18	465.81
431.402	456.81
431.624	446.81
431.846	442.81
432.068	435.81
432.29	452.81
432.512	446.81
432.734	448.81
432.956	437.81
433.178	442.81
433.4	448.81
433.622	452.81
433.844	437.81
434.066	445.81
434.287	457.81
434.509	455.81
434.731	436.81
434.953	449.81
435.175	481.81
435.397	509.81
435.618	518.81
435.84	568.81
436.062	637.81
436.284	699.81
436.505	625.81
436.727	540.81
436.949	494.81
437.17	479.81
437.392	494.81
437.614	503.81
437.835	519.81
438.057	648.81
438.278	735.81
438.5	725.81
438.721	793.81
438.943	758.81
439.165	594.81
439.386	549.81
439.608	518.81
439.829	548.81
440.05	576.81
440.272	618.81
440.493	571.81
440.715	533.81
440.936	491.81
441.158	474.81
441.379	483.81
441.6	491.81
441.822	514.81
442.043	553.81
442.264	610.81
442.486	685.81
442.707	589.81
442.928	516.81
443.149	538.81
443.371	565.81
443.592	620.81
443.813	675.81
444.034	777.81
444.255	627.81
444.476	544.81
444.698	527.81
444.919	505.81
445.14	617.81
445.361	576.81
445.582	566.81
445.803	620.81
446.024	732.81
446.245	736.81
446.466	693.81
446.687	589.81
446.908	525.81
447.129	504.81
447.35	479.81
447.571	480.81
447.792	465.81
448.013	500.81
448.234	499.81
448.455	550.81
448.675	674.81
448.896	763.81
449.117	662.81
449.338	620.81
449.559	736.81
449.779	799.81
450	661.81
450.221	544.81
450.442	500.81
450.662	490.81
450.883	480.81
451.104	499.81
451.324	465.81
451.545	449.81
451.766	430.81
451.986	440.81
452.207	432.81
452.428	420.81
452.648	419.81
452.869	438.81
453.089	447.81
453.31	450.81
453.53	433.81
453.751	442.81
453.971	441.81
454.192	440.81
454.412	441.81
454.633	417.81
454.853	434.81
455.073	414.81
455.294	445.81
455.514	530.81
455.734	508.81
455.955	430.81
456.175	407.81
456.395	388.81
456.616	405.81
456.836	390.81
457.056	409.81
457.276	395.81
457.497	404.81
457.717	408.81
457.937	395.81
458.157	413.81
458.377	417.81
458.598	445.81
458.818	499.81
459.038	595.81
459.258	601.81
459.478	492.81
459.698	432.81
459.918	449.81
460.138	422.81
460.358	428.81
460.578	441.81
460.798	434.81
461.018	432.81
461.238	428.81
461.458	433.81
461.678	414.81
461.898	444.81
462.118	434.81
462.338	434.81
462.558	429.81
462.777	457.81
462.997	471.81
463.217	468.81
463.437	462.81
463.657	456.81
463.876	465.81
464.096	468.81
464.316	449.81
464.536	494.81
464.755	489.81
464.975	496.81
465.195	524.81
465.414	610.81
465.634	539.81
465.854	478.81
466.073	443.81
466.293	433.81
466.512	453.81
466.732	448.81
466.951	440.81
467.171	429.81
467.391	423.81
467.61	427.81
467.829	431.81
468.049	420.81
468.268	420.81
468.488	433.81
468.707	426.81
468.927	410.81
469.146	423.81
469.365	416.81
469.585	417.81
469.804	432.81
470.023	432.81
470.243	458.81
470.462	440.81
470.681	449.81
470.901	459.81
471.12	437.81
471.339	433.81
471.558	434.81
471.777	458.81
471.997	428.81
472.216	437.81
472.435	454.81
472.654	446.81
472.873	428.81
473.092	412.81
473.311	433.81
473.53	445.81
473.749	429.81
473.968	496.81
474.187	597.81
474.406	622.81
474.625	502.81
474.844	442.81
475.063	453.81
475.282	434.81
475.501	447.81
475.72	452.81
475.939	454.81
476.158	446.81
476.377	463.81
476.596	461.81
476.814	443.81
477.033	460.81
477.252	467.81
477.471	458.81
477.69	448.81
477.908	436.81
478.127	469.81
478.346	460.81
478.564	477.81
478.783	454.81
479.002	487.81
479.22	477.81
479.439	498.81
479.658	522.81
479.876	531.81
480.095	520.81
480.313	546.81
480.532	532.81
480.751	546.81
480.969	553.81
481.188	570.81
481.406	618.81
481.624	555.81
481.843	518.81
482.061	502.81
482.28	501.81
482.498	489.81
482.717	510.81
482.935	498.81
483.153	487.81
483.372	500.81
483.59	522.81
483.808	508.81
484.027	512.81
484.245	508.81
484.463	527.81
484.681	526.81
484.9	541.81
485.118	506.81
485.336	512.81
485.554	537.81
485.772	537.81
485.99	524.81
486.209	539.81
486.427	537.81
486.645	541.81
486.863	582.81
487.081	559.81
487.299	557.81
487.517	549.81
487.735	536.81
487.953	552.81
488.171	544.81
488.389	545.81
488.607	561.81
488.825	548.81
489.043	528.81
489.261	551.81
489.479	556.81
489.696	548.81
489.914	545.81
490.132	568.81
490.35	549.81
490.568	566.81
490.786	605.81
491.003	603.81
491.221	596.81
491.439	599.81
491.657	602.81
491.874	636.81
492.092	612.81
492.31	635.81
492.527	644.81
492.745	645.81
492.963	630.81
493.18	660.81
493.398	633.81
493.615	671.81
493.833	649.81
494.05	662.81
494.268	655.81
494.485	655.81
494.703	662.81
494.92	672.81
495.138	658.81
495.355	670.81
495.573	682.81
495.79	679.81
496.008	658.81
496.225	671.81
496.442	642.81
496.66	664.81
496.877	646.81
497.094	652.81
497.312	664.81
497.529	675.81
497.746	671.81
497.963	673.81
498.181	710.81
498.398	707.81
498.615	718.81
498.832	714.81
499.049	722.81
499.267	738.81
499.484	772.81
499.701	779.81
499.918	780.81
500.135	823.81
500.352	833.81
500.569	838.81
500.786	845.81
501.003	856.81
501.22	814.81
501.437	812.81
501.654	796.81
501.871	816.81
502.088	745.81
502.305	746.81
502.522	728.81
502.739	703.81
502.956	672.81
503.172	674.81
503.389	659.81
503.606	685.81
503.823	688.81
504.04	669.81
504.256	658.81
504.473	663.81
504.69	657.81
504.907	636.81
505.123	632.81
505.34	605.81
505.557	642.81
505.773	635.81
505.99	658.81
506.207	646.81
506.423	639.81
506.64	632.81
506.856	629.81
507.073	641.81
507.289	612.81
507.506	626.81
507.722	640.81
507.939	655.81
508.155	647.81
508.372	618.81
508.588	617.81
508.805	613.81
509.021	598.81
509.238	633.81
509.454	632.81
509.67	618.81
509.887	601.81
510.103	638.81
510.319	609.81
510.536	713.81
510.752	1284.81
510.968	994.81
511.184	638.81
511.401	573.81
511.617	605.81
511.833	586.81
512.049	578.81
512.265	566.81
512.481	587.81
512.698	537.81
512.914	578.81
513.13	580.81
513.346	574.81
513.562	594.81
513.778	593.81
513.994	576.81
514.21	585.81
514.426	626.81
514.642	669.81
514.858	702.81
515.074	740.81
515.29	901.81
515.506	1368.81
515.721	1132.81
515.937	739.81
516.153	660.81
516.369	635.81
516.585	584.81
516.801	604.81
517.016	607.81
517.232	584.81
517.448	584.81
517.664	586.81
517.879	563.81
518.095	578.81
518.311	599.81
518.527	575.81
518.742	581.81
518.958	548.81
519.173	584.81
519.389	562.81
519.605	560.81
519.82	588.81
520.036	604.81
520.251	618.81
520.467	651.81
520.682	653.81
520.898	645.81
521.113	662.81
521.329	718.81
521.544	812.81
521.76	1098.81
521.975	1833.81
522.19	1796.81
522.406	935.81
522.621	690.81
522.836	600.81
523.052	583.81
523.267	562.81
523.482	549.81
523.698	553.81
523.913	510.81
524.128	533.81
524.343	498.81
524.559	528.81
524.774	513.81
524.989	498.81
525.204	498.81
525.419	515.81
525.634	479.81
525.849	492.81
526.064	486.81
526.28	487.81
526.495	460.81
526.71	478.81
526.925	461.81
527.14	465.81
527.355	479.81
527.57	473.81
527.785	454.81
527.999	467.81
528.214	468.81
528.429	466.81
528.644	462.81
528.859	440.81
529.074	472.81
529.289	507.81
529.503	587.81
529.718	563.81
529.933	501.81
530.148	470.81
530.363	479.81
530.577	458.81
530.792	449.81
531.007	460.81
531.221	469.81
531.436	456.81
531.651	440.81
531.865	439.81
532.08	432.81
532.295	438.81
532.509	443.81
532.724	436.81
532.938	441.81
533.153	444.81
533.367	433.81
533.582	449.81
533.796	421.81
534.011	432.81
534.225	439.81
534.44	429.81
534.654	434.81
534.868	426.81
535.083	417.81
535.297	439.81
535.511	423.81
535.726	434.81
535.94	447.81
536.154	428.81
536.369	434.81
536.583	435.81
536.797	408.81
537.011	426.81
537.225	421.81
537.44	421.81
537.654	410.81
537.868	422.81
538.082	423.81
538.296	433.81
538.51	462.81
538.724	418.81
538.938	418.81
539.153	446.81
539.367	453.81
539.581	435.81
539.795	429.81
540.009	409.81
540.222	418.81
540.436	425.81
540.65	435.81
540.864	442.81
541.078	437.81
541.292	438.81
541.506	444.81
541.72	426.81
541.934	410.81
542.147	423.81
542.361	398.81
542.575	394.81
542.789	413.81
543.002	435.81
543.216	402.81
543.43	416.81
543.644	440.81
543.857	424.81
544.071	422.81
544.285	408.81
544.498	407.81
544.712	397.81
544.925	417.81
545.139	425.81
545.352	415.81
545.566	407.81
545.779	405.81
545.993	410.81
546.206	402.81
546.42	409.81
546.633	412.81
546.847	397.81
547.06	380.81
547.274	404.81
547.487	396.81
547.7	399.81
547.914	388.81
548.127	394.81
548.34	371.81
548.554	392.81
548.767	392.81
548.98	408.81
549.193	394.81
549.407	393.81
549.62	390.81
549.833	396.81
550.046	389.81
550.259	364.81
550.473	384.81
550.686	399.81
550.899	401.81
551.112	383.81
551.325	394.81
551.538	394.81
551.751	376.81
551.964	397.81
552.177	394.81
552.39	362.81
552.603	374.81
552.816	390.81
553.029	384.81
553.242	372.81
553.455	399.81
553.667	407.81
553.88	405.81
554.093	396.81
554.306	382.81
554.519	379.81
554.732	391.81
554.944	393.81
555.157	391.81
555.37	365.81
555.583	370.81
555.795	390.81
556.008	364.81
556.221	359.81
556.433	375.81
556.646	356.81
556.859	356.81
557.071	355.81
557.284	353.81
557.496	362.81
557.709	356.81
557.921	359.81
558.134	345.81
558.346	339.81
558.559	345.81
558.771	381.81
558.984	348.81
559.196	349.81
559.409	366.81
559.621	338.81
559.833	353.81
560.046	360.81
560.258	359.81
560.47	343.81
560.683	337.81
560.895	360.81
561.107	327.81
561.32	346.81
561.532	369.81
561.744	363.81
561.956	341.81
562.168	347.81
562.381	349.81
562.593	346.81
562.805	359.81
563.017	341.81
563.229	354.81
563.441	357.81
563.653	356.81
563.865	341.81
564.077	342.81
564.289	360.81
564.501	379.81
564.713	380.81
564.925	367.81
565.137	389.81
565.349	369.81
565.561	377.81
565.773	365.81
565.985	378.81
566.197	378.81
566.408	390.81
566.62	389.81
566.832	393.81
567.044	375.81
567.255	393.81
567.467	413.81
567.679	416.81
567.891	414.81
568.102	420.81
568.314	398.81
568.526	388.81
568.737	403.81
568.949	382.81
569.161	378.81
569.372	361.81
569.584	358.81
569.795	338.81
570.007	344.81
570.218	416.81
570.43	384.81
570.641	345.81
570.853	323.81
571.064	333.81
571.276	333.81
571.487	337.81
571.698	332.81
571.91	349.81
572.121	348.81
572.333	322.81
572.544	332.81
572.755	313.81
572.966	307.81
573.178	319.81
573.389	325.81
573.6	308.81
573.811	304.81
574.023	302.81
574.234	309.81
574.445	291.81
574.656	287.81
574.867	297.81
575.078	308.81
575.289	307.81
575.501	310.81
575.712	305.81
575.923	301.81
576.134	320.81
576.345	298.81
576.556	299.81
576.767	312.81
576.978	291.81
577.188	299.81
577.399	313.81
577.61	296.81
577.821	297.81
578.032	299.81
578.243	330.81
578.454	583.81
578.665	422.81
578.875	288.81
579.086	283.81
579.297	294.81
579.508	279.81
579.718	272.81
579.929	285.81
580.14	265.81
580.35	296.81
580.561	282.81
580.772	287.81
580.982	268.81
581.193	286.81
581.403	280.81
581.614	277.81
581.825	279.81
582.035	279.81
582.246	252.81
582.456	265.81
582.667	260.81
582.877	288.81
583.087	280.81
583.298	267.81
583.508	284.81
583.719	266.81
583.929	287.81
584.139	282.81
584.35	266.81
584.56	261.81
584.77	281.81
584.981	276.81
585.191	255.81
585.401	272.81
585.611	271.81
585.821	269.81
586.032	279.81
586.242	270.81
586.452	268.81
586.662	277.81
586.872	259.81
587.082	273.81
587.292	266.81
587.502	260.81
587.713	269.81
587.923	264.81
588.133	267.81
588.343	268.81
588.553	272.81
588.762	272.81
588.972	262.81
589.182	259.81
589.392	258.81
589.602	281.81
589.812	246.81
590.022	269.81
590.232	244.81
590.441	276.81
590.651	265.81
590.861	266.81
591.071	269.81
591.281	254.81
591.49	264.81
591.7	281.81
591.91	274.81
592.119	268.81
592.329	260.81
592.539	271.81
592.748	259.81
592.958	277.81
593.167	274.81
593.377	269.81
593.587	276.81
593.796	281.81
594.006	270.81
594.215	274.81
594.424	265.81
594.634	275.81
594.843	248.81
595.053	265.81
595.262	273.81
595.472	250.81
595.681	256.81
595.89	264.81
596.1	244.81
596.309	251.81
596.518	245.81
596.727	254.81
596.937	257.81
597.146	250.81
597.355	264.81
597.564	263.81
597.774	258.81
597.983	256.81
598.192	229.81
598.401	230.81
598.61	231.81
598.819	254.81
599.028	232.81
599.237	227.81
599.446	229.81
599.655	226.81
599.864	241.81
600.073	246.81
600.282	234.81
600.491	222.81
600.7	224.81
600.909	222.81
601.118	231.81
601.327	238.81
601.536	233.81
601.745	221.81
601.953	221.81
602.162	224.81
602.371	229.81
602.58	236.81
602.789	229.81
602.997	215.81
603.206	240.81
603.415	241.81
603.623	238.81
603.832	228.81
604.041	240.81
604.249	214.81
604.458	225.81
604.666	236.81
604.875	217.81
605.084	232.81
605.292	216.81
605.501	226.81
605.709	221.81
605.918	221.81
606.126	227.81
606.334	242.81
606.543	210.81
606.751	240.81
606.96	236.81
607.168	229.81
607.376	212.81
607.585	213.81
607.793	230.81
608.001	217.81
608.21	222.81
608.418	220.81
608.626	224.81
608.834	233.81
609.043	245.81
609.251	229.81
609.459	219.81
609.667	225.81
609.875	225.81
610.083	206.81
610.291	224.81
610.499	227.81
610.707	216.81
610.916	217.81
611.124	225.81
611.332	221.81
611.54	235.81
611.748	225.81
611.955	219.81
612.163	220.81
612.371	214.81
612.579	224.81
612.787	221.81
612.995	208.81
613.203	212.81
613.411	223.81
613.618	204.81
613.826	212.81
614.034	193.81
614.242	209.81
614.449	221.81
614.657	206.81
614.865	201.81
615.072	214.81
615.28	218.81
615.488	215.81
615.695	206.81
615.903	221.81
616.111	212.81
616.318	227.81
616.526	223.81
616.733	226.81
616.941	236.81
617.148	217.81
617.356	193.81
617.563	206.81
617.771	229.81
617.978	201.81
618.185	217.81
618.393	228.81
618.6	218.81
618.807	202.81
619.015	197.81
619.222	214.81
619.429	217.81
619.637	188.81
619.844	206.81
620.051	202.81
620.258	200.81
620.466	202.81
620.673	220.81
620.88	194.81
621.087	195.81
621.294	210.81
621.501	206.81
621.708	221.81
621.915	225.81
622.122	195.81
622.329	207.81
622.536	211.81
622.743	199.81
622.95	189.81
623.157	189.81
623.364	197.81
623.571	209.81
623.778	208.81
623.985	208.81
624.192	186.81
624.399	192.81
624.606	196.81
624.812	198.81
625.019	201.81
625.226	204.81
625.433	198.81
625.639	187.81
625.846	188.81
626.053	197.81
626.259	199.81
626.466	190.81
626.673	181.81
626.879	181.81
627.086	189.81
627.293	195.81
627.499	193.81
627.706	177.81
627.912	173.81
628.119	201.81
628.325	192.81
628.532	181.81
628.738	186.81
628.945	171.81
629.151	180.81
629.357	208.81
629.564	192.81
629.77	188.81
629.976	189.81
630.183	175.81
630.389	171.81
630.595	177.81
630.802	193.81
631.008	170.81
631.214	177.81
631.42	185.81
631.627	172.81
631.833	184.81
632.039	171.81
632.245	187.81
632.451	189.81
632.657	182.81
632.863	172.81
633.069	183.81
633.275	166.81
633.481	178.81
633.688	166.81
633.893	190.81
634.099	165.81
634.305	160.81
634.511	166.81
634.717	170.81
634.923	180.81
635.129	156.81
635.335	168.81
635.541	171.81
635.747	169.81
635.952	186.81
636.158	166.81
636.364	179.81
636.57	180.81
636.775	188.81
636.981	153.81
637.187	173.81
637.392	171.81
637.598	156.81
637.804	184.81
638.009	174.81
638.215	183.81
638.421	174.81
638.626	161.81
638.832	157.81
639.037	153.81
639.243	162.81
639.448	176.81
639.654	154.81
639.859	161.81
640.065	166.81
640.27	170.81
640.475	167.81
640.681	154.81
640.886	179.81
641.091	158.81
641.297	155.81
641.502	155.81
641.707	153.81
641.913	157.81
642.118	164.81
642.323	157.81
642.528	181.81
642.733	167.81
642.939	147.81
643.144	158.81
643.349	141.81
643.554	158.81
643.759	158.81
643.964	172.81
644.169	147.81
644.374	157.81
644.579	156.81
644.784	158.81
644.989	152.81
645.194	162.81
645.399	178.81
645.604	160.81
645.809	148.81
646.014	141.81
646.219	161.81
646.423	154.81
646.628	163.81
646.833	152.81
647.038	155.81
647.243	149.81
647.447	161.81
647.652	163.81
647.857	155.81
648.062	154.81
648.266	156.81
648.471	156.81
648.676	164.81
648.88	167.81
649.085	155.81
649.289	146.81
649.494	163.81
649.698	176.81
649.903	174.81
650.107	188.81
650.312	169.81
650.516	148.81
650.721	149.81
650.925	142.81
651.13	150.81
651.334	145.81
651.539	130.81
651.743	140.81
651.947	129.81
652.152	144.81
652.356	153.81
652.56	161.81
652.764	135.81
652.969	122.81
653.173	123.81
653.377	128.81
653.581	134.81
653.785	132.81
653.99	124.81
654.194	131.81
654.398	132.81
654.602	133.81
654.806	131.81
655.01	138.81
655.214	135.81
655.418	132.81
655.622	125.81
655.826	132.81
656.03	124.81
656.234	128.81
656.438	142.81
656.642	152.81
656.846	129.81
657.049	120.81
657.253	108.81
657.457	102.81
657.661	116.81
657.865	126.81
658.068	101.81
658.272	120.81
658.476	114.81
658.68	112.81
658.883	103.81
659.087	108.81
659.291	89.81
659.494	104.81
659.698	86.81
659.901	88.81
660.105	94.81
660.309	101.81
660.512	99.81
660.716	95.81
660.919	92.81
661.123	96.81
661.326	104.81
661.53	102.81
661.733	93.81
661.936	96.81
662.14	89.81
662.343	91.81
662.546	92.81
662.75	97.81
662.953	79.81
663.156	87.81
663.36	86.81
663.563	80.81
663.766	107.81
663.969	75.81
664.173	91.81
664.376	97.81
664.579	77.81
664.782	88.81
664.985	76.81
665.188	90.81
665.391	90.81
665.594	85.81
665.797	85.81
666	89.81
666.203	64.81
666.406	78.81
666.609	78.81
666.812	87.81
667.015	82.81
667.218	91.81
667.421	90.81
667.624	89.81
667.827	82.81
668.03	74.81
668.232	76.81
668.435	74.81
668.638	76.81
668.841	79.81
669.043	97.81
669.246	82.81
669.449	91.81
669.651	90.81
669.854	69.81
670.057	92.81
670.259	75.81
670.462	82.81
670.665	93.81
670.867	81.81
671.07	78.81
671.272	76.81
671.475	76.81
671.677	70.81
671.88	91.81
672.082	78.81
672.284	87.81
672.487	86.81
672.689	74.81
672.892	97.81
