Data from 1989.PennyLincolnUp.Lamp.En5.5.200Scan.071819.P2_HRD10591_17-23-19-972.txt Node
Date: Thu Jul 18 17:23:19 EDT 2019
User: cochatt
Spectrometer: HR+D1059
Trigger mode: 1
Integration Time (sec): 1.000000E-1
Scans to average: 1
Electric dark correction enabled: true
Nonlinearity correction enabled: false
Boxcar width: 0
XAxis mode: Wavelengths
Number of Pixels in Spectrum: 2048
>>>>>Begin Spectral Data<<<<<
223.165	-16.12
223.4	-16.12
223.635	-16.12
223.869	-23.12
224.104	-2.12
224.338	-18.12
224.573	-15.12
224.808	-14.12
225.042	-0.12
225.277	2.88
225.511	3.88
225.746	-4.12
225.98	13.88
226.215	11.88
226.449	16.88
226.683	7.88
226.918	17.88
227.152	17.88
227.387	39.88
227.621	43.88
227.856	46.88
228.09	55.88
228.324	67.88
228.559	59.88
228.793	59.88
229.027	85.88
229.262	85.88
229.496	115.88
229.73	130.88
229.964	147.88
230.199	121.88
230.433	120.88
230.667	114.88
230.901	105.88
231.136	94.88
231.37	101.88
231.604	108.88
231.838	118.88
232.072	118.88
232.306	113.88
232.541	111.88
232.775	119.88
233.009	112.88
233.243	109.88
233.477	105.88
233.711	105.88
233.945	124.88
234.179	128.88
234.413	112.88
234.647	111.88
234.881	110.88
235.115	115.88
235.349	102.88
235.583	93.88
235.817	113.88
236.051	116.88
236.285	119.88
236.519	129.88
236.753	119.88
236.987	134.88
237.221	182.88
237.455	201.88
237.689	173.88
237.922	144.88
238.156	117.88
238.39	125.88
238.624	128.88
238.858	121.88
239.091	126.88
239.325	122.88
239.559	120.88
239.793	120.88
240.027	127.88
240.26	121.88
240.494	147.88
240.728	144.88
240.961	144.88
241.195	134.88
241.429	132.88
241.662	119.88
241.896	121.88
242.13	134.88
242.363	127.88
242.597	132.88
242.83	132.88
243.064	118.88
243.298	126.88
243.531	134.88
243.765	136.88
243.998	125.88
244.232	151.88
244.465	129.88
244.699	136.88
244.932	128.88
245.166	147.88
245.399	151.88
245.633	158.88
245.866	142.88
246.099	139.88
246.333	136.88
246.566	150.88
246.8	138.88
247.033	146.88
247.266	147.88
247.5	130.88
247.733	170.88
247.966	155.88
248.2	171.88
248.433	167.88
248.666	189.88
248.899	185.88
249.133	179.88
249.366	197.88
249.599	168.88
249.832	172.88
250.066	180.88
250.299	170.88
250.532	175.88
250.765	189.88
250.998	197.88
251.231	217.88
251.465	193.88
251.698	199.88
251.931	192.88
252.164	198.88
252.397	191.88
252.63	204.88
252.863	197.88
253.096	196.88
253.329	218.88
253.562	219.88
253.795	203.88
254.028	227.88
254.261	212.88
254.494	215.88
254.727	246.88
254.96	249.88
255.193	237.88
255.426	231.88
255.659	205.88
255.892	220.88
256.124	216.88
256.357	197.88
256.59	207.88
256.823	204.88
257.056	212.88
257.289	206.88
257.521	204.88
257.754	200.88
257.987	205.88
258.22	192.88
258.452	195.88
258.685	205.88
258.918	188.88
259.151	202.88
259.383	206.88
259.616	221.88
259.849	209.88
260.081	230.88
260.314	234.88
260.547	243.88
260.779	234.88
261.012	214.88
261.244	211.88
261.477	212.88
261.71	217.88
261.942	230.88
262.175	221.88
262.407	205.88
262.64	228.88
262.872	189.88
263.105	212.88
263.337	206.88
263.57	206.88
263.802	208.88
264.035	204.88
264.267	190.88
264.499	202.88
264.732	212.88
264.964	219.88
265.197	197.88
265.429	197.88
265.661	192.88
265.894	212.88
266.126	203.88
266.358	203.88
266.591	216.88
266.823	216.88
267.055	221.88
267.287	222.88
267.52	217.88
267.752	216.88
267.984	212.88
268.216	213.88
268.448	222.88
268.681	225.88
268.913	235.88
269.145	236.88
269.377	257.88
269.609	259.88
269.841	244.88
270.073	253.88
270.306	266.88
270.538	298.88
270.77	290.88
271.002	289.88
271.234	265.88
271.466	284.88
271.698	289.88
271.93	285.88
272.162	281.88
272.394	271.88
272.626	284.88
272.858	254.88
273.09	266.88
273.322	275.88
273.553	261.88
273.785	260.88
274.017	238.88
274.249	233.88
274.481	252.88
274.713	246.88
274.945	257.88
275.176	247.88
275.408	248.88
275.64	243.88
275.872	257.88
276.104	257.88
276.335	255.88
276.567	244.88
276.799	251.88
277.031	262.88
277.262	302.88
277.494	310.88
277.726	289.88
277.957	265.88
278.189	260.88
278.421	258.88
278.652	269.88
278.884	265.88
279.115	260.88
279.347	248.88
279.579	257.88
279.81	245.88
280.042	261.88
280.273	267.88
280.505	245.88
280.736	271.88
280.968	255.88
281.199	272.88
281.431	248.88
281.662	245.88
281.894	280.88
282.125	261.88
282.356	268.88
282.588	277.88
282.819	270.88
283.051	285.88
283.282	270.88
283.513	269.88
283.745	270.88
283.976	288.88
284.207	255.88
284.439	275.88
284.67	265.88
284.901	265.88
285.132	268.88
285.364	256.88
285.595	269.88
285.826	262.88
286.057	274.88
286.288	261.88
286.52	289.88
286.751	276.88
286.982	270.88
287.213	270.88
287.444	277.88
287.675	279.88
287.906	286.88
288.138	285.88
288.369	262.88
288.6	279.88
288.831	282.88
289.062	280.88
289.293	281.88
289.524	267.88
289.755	275.88
289.986	274.88
290.217	282.88
290.448	251.88
290.679	290.88
290.91	286.88
291.141	269.88
291.371	272.88
291.602	270.88
291.833	294.88
292.064	263.88
292.295	279.88
292.526	269.88
292.757	257.88
292.987	250.88
293.218	270.88
293.449	277.88
293.68	275.88
293.91	279.88
294.141	273.88
294.372	286.88
294.603	268.88
294.833	281.88
295.064	282.88
295.295	281.88
295.525	283.88
295.756	276.88
295.987	279.88
296.217	311.88
296.448	327.88
296.679	291.88
296.909	286.88
297.14	275.88
297.37	298.88
297.601	293.88
297.831	274.88
298.062	290.88
298.292	282.88
298.523	303.88
298.753	285.88
298.984	292.88
299.214	287.88
299.445	302.88
299.675	280.88
299.905	301.88
300.136	306.88
300.366	289.88
300.597	287.88
300.827	298.88
301.057	291.88
301.288	317.88
301.518	310.88
301.748	312.88
301.979	334.88
302.209	331.88
302.439	317.88
302.669	301.88
302.9	301.88
303.13	323.88
303.36	305.88
303.59	287.88
303.82	309.88
304.051	313.88
304.281	302.88
304.511	303.88
304.741	306.88
304.971	286.88
305.201	312.88
305.431	324.88
305.661	306.88
305.891	318.88
306.121	320.88
306.352	334.88
306.582	332.88
306.812	329.88
307.042	305.88
307.272	301.88
307.502	333.88
307.731	301.88
307.961	311.88
308.191	295.88
308.421	329.88
308.651	314.88
308.881	318.88
309.111	331.88
309.341	311.88
309.571	323.88
309.8	338.88
310.03	344.88
310.26	339.88
310.49	344.88
310.72	363.88
310.949	359.88
311.179	358.88
311.409	333.88
311.639	339.88
311.868	363.88
312.098	334.88
312.328	349.88
312.557	373.88
312.787	369.88
313.017	355.88
313.246	349.88
313.476	330.88
313.706	343.88
313.935	365.88
314.165	373.88
314.394	367.88
314.624	387.88
314.853	341.88
315.083	350.88
315.312	357.88
315.542	344.88
315.771	326.88
316.001	337.88
316.23	349.88
316.46	363.88
316.689	343.88
316.919	351.88
317.148	362.88
317.377	369.88
317.607	349.88
317.836	349.88
318.065	322.88
318.295	355.88
318.524	343.88
318.753	357.88
318.983	344.88
319.212	333.88
319.441	341.88
319.67	378.88
319.9	362.88
320.129	355.88
320.358	359.88
320.587	358.88
320.816	346.88
321.046	353.88
321.275	373.88
321.504	370.88
321.733	379.88
321.962	380.88
322.191	379.88
322.42	409.88
322.649	414.88
322.878	391.88
323.108	412.88
323.337	420.88
323.566	427.88
323.795	484.88
324.024	472.88
324.253	523.88
324.482	778.88
324.71	1145.88
324.939	1692.88
325.168	1452.88
325.397	772.88
325.626	543.88
325.855	471.88
326.084	459.88
326.313	451.88
326.542	442.88
326.77	460.88
326.999	539.88
327.228	712.88
327.457	1043.88
327.686	1257.88
327.914	859.88
328.143	576.88
328.372	519.88
328.6	459.88
328.829	470.88
329.058	473.88
329.287	481.88
329.515	461.88
329.744	423.88
329.972	435.88
330.201	443.88
330.43	450.88
330.658	460.88
330.887	502.88
331.115	494.88
331.344	448.88
331.572	433.88
331.801	431.88
332.03	408.88
332.258	412.88
332.486	390.88
332.715	407.88
332.943	398.88
333.172	417.88
333.4	421.88
333.629	405.88
333.857	417.88
334.085	414.88
334.314	391.88
334.542	431.88
334.771	420.88
334.999	418.88
335.227	424.88
335.455	423.88
335.684	399.88
335.912	413.88
336.14	411.88
336.369	394.88
336.597	406.88
336.825	414.88
337.053	410.88
337.281	415.88
337.51	417.88
337.738	402.88
337.966	406.88
338.194	380.88
338.422	391.88
338.65	397.88
338.878	394.88
339.106	382.88
339.334	397.88
339.562	389.88
339.79	400.88
340.018	389.88
340.246	381.88
340.474	385.88
340.702	399.88
340.93	422.88
341.158	401.88
341.386	405.88
341.614	398.88
341.842	399.88
342.07	384.88
342.298	381.88
342.526	376.88
342.754	369.88
342.981	367.88
343.209	387.88
343.437	393.88
343.665	406.88
343.893	398.88
344.12	419.88
344.348	390.88
344.576	404.88
344.804	399.88
345.031	399.88
345.259	428.88
345.487	382.88
345.714	378.88
345.942	377.88
346.17	375.88
346.397	391.88
346.625	388.88
346.853	356.88
347.08	373.88
347.308	373.88
347.535	389.88
347.763	366.88
347.99	366.88
348.218	374.88
348.445	380.88
348.673	379.88
348.9	377.88
349.128	377.88
349.355	378.88
349.583	363.88
349.81	376.88
350.037	353.88
350.265	350.88
350.492	354.88
350.72	340.88
350.947	378.88
351.174	371.88
351.402	382.88
351.629	370.88
351.856	386.88
352.083	381.88
352.311	376.88
352.538	396.88
352.765	383.88
352.992	376.88
353.22	369.88
353.447	351.88
353.674	369.88
353.901	373.88
354.128	358.88
354.355	354.88
354.583	355.88
354.81	368.88
355.037	369.88
355.264	342.88
355.491	352.88
355.718	355.88
355.945	370.88
356.172	356.88
356.399	367.88
356.626	350.88
356.853	362.88
357.08	350.88
357.307	352.88
357.534	361.88
357.761	348.88
357.988	357.88
358.215	371.88
358.441	359.88
358.668	352.88
358.895	345.88
359.122	337.88
359.349	360.88
359.576	376.88
359.802	377.88
360.029	392.88
360.256	421.88
360.483	385.88
360.709	369.88
360.936	367.88
361.163	366.88
361.39	375.88
361.616	383.88
361.843	388.88
362.07	369.88
362.296	373.88
362.523	362.88
362.749	351.88
362.976	344.88
363.203	363.88
363.429	372.88
363.656	379.88
363.882	354.88
364.109	358.88
364.335	364.88
364.562	357.88
364.788	354.88
365.015	355.88
365.241	359.88
365.468	361.88
365.694	356.88
365.92	387.88
366.147	363.88
366.373	366.88
366.599	347.88
366.826	329.88
367.052	345.88
367.278	344.88
367.505	351.88
367.731	371.88
367.957	361.88
368.184	343.88
368.41	377.88
368.636	350.88
368.862	356.88
369.089	370.88
369.315	342.88
369.541	367.88
369.767	356.88
369.993	342.88
370.219	353.88
370.445	361.88
370.672	380.88
370.898	351.88
371.124	358.88
371.35	355.88
371.576	352.88
371.802	339.88
372.028	356.88
372.254	351.88
372.48	350.88
372.706	351.88
372.932	353.88
373.158	343.88
373.384	350.88
373.61	376.88
373.835	361.88
374.061	366.88
374.287	375.88
374.513	373.88
374.739	357.88
374.965	375.88
375.191	366.88
375.416	357.88
375.642	363.88
375.868	357.88
376.094	346.88
376.319	349.88
376.545	348.88
376.771	358.88
376.997	355.88
377.222	357.88
377.448	349.88
377.674	347.88
377.899	357.88
378.125	355.88
378.35	340.88
378.576	346.88
378.802	366.88
379.027	347.88
379.253	364.88
379.478	347.88
379.704	372.88
379.929	345.88
380.155	369.88
380.38	352.88
380.606	369.88
380.831	380.88
381.057	359.88
381.282	345.88
381.507	367.88
381.733	378.88
381.958	375.88
382.184	349.88
382.409	369.88
382.634	366.88
382.86	364.88
383.085	355.88
383.31	351.88
383.535	370.88
383.761	360.88
383.986	365.88
384.211	381.88
384.436	390.88
384.662	360.88
384.887	359.88
385.112	378.88
385.337	385.88
385.562	381.88
385.787	385.88
386.013	392.88
386.238	382.88
386.463	388.88
386.688	398.88
386.913	399.88
387.138	378.88
387.363	379.88
387.588	385.88
387.813	366.88
388.038	377.88
388.263	389.88
388.488	387.88
388.713	380.88
388.938	376.88
389.163	406.88
389.387	377.88
389.612	369.88
389.837	391.88
390.062	395.88
390.287	391.88
390.512	361.88
390.736	359.88
390.961	361.88
391.186	375.88
391.411	387.88
391.636	381.88
391.86	381.88
392.085	394.88
392.31	372.88
392.534	402.88
392.759	385.88
392.984	379.88
393.208	394.88
393.433	390.88
393.658	388.88
393.882	377.88
394.107	377.88
394.331	367.88
394.556	378.88
394.78	397.88
395.005	383.88
395.229	389.88
395.454	376.88
395.678	387.88
395.903	406.88
396.127	393.88
396.352	401.88
396.576	400.88
396.801	395.88
397.025	397.88
397.249	403.88
397.474	403.88
397.698	390.88
397.922	443.88
398.147	399.88
398.371	410.88
398.595	415.88
398.82	417.88
399.044	427.88
399.268	445.88
399.492	454.88
399.717	494.88
399.941	510.88
400.165	525.88
400.389	509.88
400.613	466.88
400.837	445.88
401.062	429.88
401.286	422.88
401.51	427.88
401.734	427.88
401.958	427.88
402.182	438.88
402.406	446.88
402.63	425.88
402.854	434.88
403.078	425.88
403.302	417.88
403.526	454.88
403.75	445.88
403.974	430.88
404.198	418.88
404.422	427.88
404.645	433.88
404.869	440.88
405.093	425.88
405.317	445.88
405.541	497.88
405.765	450.88
405.988	442.88
406.212	446.88
406.436	464.88
406.66	478.88
406.883	447.88
407.107	499.88
407.331	505.88
407.555	585.88
407.778	581.88
408.002	517.88
408.226	467.88
408.449	481.88
408.673	503.88
408.896	505.88
409.12	545.88
409.344	513.88
409.567	457.88
409.791	435.88
410.014	415.88
410.238	429.88
410.461	439.88
410.685	446.88
410.908	465.88
411.132	490.88
411.355	513.88
411.578	482.88
411.802	449.88
412.025	429.88
412.249	444.88
412.472	445.88
412.695	449.88
412.919	444.88
413.142	428.88
413.365	399.88
413.589	412.88
413.812	413.88
414.035	408.88
414.258	421.88
414.482	418.88
414.705	406.88
414.928	408.88
415.151	411.88
415.374	409.88
415.597	395.88
415.821	380.88
416.044	414.88
416.267	390.88
416.49	418.88
416.713	402.88
416.936	411.88
417.159	404.88
417.382	398.88
417.605	419.88
417.828	414.88
418.051	442.88
418.274	415.88
418.497	413.88
418.72	403.88
418.943	418.88
419.166	433.88
419.389	426.88
419.611	449.88
419.834	440.88
420.057	445.88
420.28	416.88
420.503	419.88
420.726	417.88
420.948	433.88
421.171	461.88
421.394	494.88
421.617	440.88
421.839	423.88
422.062	427.88
422.285	446.88
422.507	506.88
422.73	574.88
422.953	542.88
423.175	471.88
423.398	455.88
423.621	477.88
423.843	466.88
424.066	466.88
424.288	455.88
424.511	479.88
424.733	525.88
424.956	589.88
425.178	569.88
425.401	569.88
425.623	573.88
425.846	498.88
426.068	483.88
426.291	440.88
426.513	458.88
426.735	473.88
426.958	506.88
427.18	577.88
427.402	675.88
427.625	745.88
427.847	625.88
428.069	518.88
428.292	490.88
428.514	476.88
428.736	454.88
428.958	449.88
429.181	426.88
429.403	444.88
429.625	429.88
429.847	471.88
430.069	494.88
430.292	525.88
430.514	456.88
430.736	442.88
430.958	445.88
431.18	394.88
431.402	408.88
431.624	399.88
431.846	397.88
432.068	403.88
432.29	391.88
432.512	394.88
432.734	418.88
432.956	426.88
433.178	437.88
433.4	411.88
433.622	408.88
433.844	407.88
434.066	395.88
434.287	389.88
434.509	411.88
434.731	426.88
434.953	427.88
435.175	437.88
435.397	451.88
435.618	451.88
435.84	505.88
436.062	567.88
436.284	614.88
436.505	530.88
436.727	490.88
436.949	423.88
437.17	430.88
437.392	431.88
437.614	431.88
437.835	482.88
438.057	559.88
438.278	597.88
438.5	619.88
438.721	718.88
438.943	678.88
439.165	547.88
439.386	460.88
439.608	473.88
439.829	472.88
440.05	477.88
440.272	511.88
440.493	518.88
440.715	471.88
440.936	452.88
441.158	419.88
441.379	421.88
441.6	452.88
441.822	456.88
442.043	479.88
442.264	572.88
442.486	599.88
442.707	507.88
442.928	479.88
443.149	470.88
443.371	478.88
443.592	519.88
443.813	600.88
444.034	637.88
444.255	539.88
444.476	485.88
444.698	447.88
444.919	439.88
445.14	526.88
445.361	506.88
445.582	507.88
445.803	550.88
446.024	639.88
446.245	646.88
446.466	602.88
446.687	508.88
446.908	475.88
447.129	439.88
447.35	444.88
447.571	443.88
447.792	424.88
448.013	431.88
448.234	451.88
448.455	481.88
448.675	600.88
448.896	693.88
449.117	577.88
449.338	533.88
449.559	638.88
449.779	717.88
450	577.88
450.221	483.88
450.442	431.88
450.662	405.88
450.883	424.88
451.104	440.88
451.324	422.88
451.545	419.88
451.766	399.88
451.986	373.88
452.207	391.88
452.428	360.88
452.648	398.88
452.869	383.88
453.089	387.88
453.31	377.88
453.53	401.88
453.751	368.88
453.971	392.88
454.192	389.88
454.412	381.88
454.633	374.88
454.853	373.88
455.073	375.88
455.294	386.88
455.514	460.88
455.734	431.88
455.955	385.88
456.175	367.88
456.395	372.88
456.616	381.88
456.836	353.88
457.056	358.88
457.276	356.88
457.497	377.88
457.717	345.88
457.937	372.88
458.157	381.88
458.377	369.88
458.598	389.88
458.818	428.88
459.038	471.88
459.258	506.88
459.478	453.88
459.698	413.88
459.918	385.88
460.138	400.88
460.358	389.88
460.578	398.88
460.798	412.88
461.018	407.88
461.238	419.88
461.458	410.88
461.678	400.88
461.898	421.88
462.118	437.88
462.338	419.88
462.558	429.88
462.777	422.88
462.997	443.88
463.217	445.88
463.437	458.88
463.657	433.88
463.876	421.88
464.096	449.88
464.316	442.88
464.536	439.88
464.755	444.88
464.975	421.88
465.195	460.88
465.414	528.88
465.634	444.88
465.854	419.88
466.073	417.88
466.293	407.88
466.512	408.88
466.732	406.88
466.951	398.88
467.171	382.88
467.391	396.88
467.61	406.88
467.829	395.88
468.049	387.88
468.268	390.88
468.488	379.88
468.707	382.88
468.927	384.88
469.146	374.88
469.365	379.88
469.585	368.88
469.804	397.88
470.023	400.88
470.243	389.88
470.462	394.88
470.681	409.88
470.901	421.88
471.12	382.88
471.339	371.88
471.558	394.88
471.777	398.88
471.997	399.88
472.216	386.88
472.435	398.88
472.654	373.88
472.873	373.88
473.092	397.88
473.311	382.88
473.53	397.88
473.749	405.88
473.968	427.88
474.187	517.88
474.406	538.88
474.625	455.88
474.844	428.88
475.063	408.88
475.282	401.88
475.501	389.88
475.72	409.88
475.939	425.88
476.158	405.88
476.377	413.88
476.596	414.88
476.814	420.88
477.033	419.88
477.252	427.88
477.471	417.88
477.69	418.88
477.908	423.88
478.127	426.88
478.346	437.88
478.564	441.88
478.783	438.88
479.002	438.88
479.22	454.88
479.439	458.88
479.658	460.88
479.876	467.88
480.095	469.88
480.313	485.88
480.532	491.88
480.751	500.88
480.969	501.88
481.188	475.88
481.406	451.88
481.624	469.88
481.843	458.88
482.061	435.88
482.28	458.88
482.498	462.88
482.717	475.88
482.935	460.88
483.153	478.88
483.372	467.88
483.59	443.88
483.808	453.88
484.027	459.88
484.245	463.88
484.463	469.88
484.681	475.88
484.9	488.88
485.118	476.88
485.336	476.88
485.554	488.88
485.772	461.88
485.99	464.88
486.209	479.88
486.427	504.88
486.645	477.88
486.863	492.88
487.081	502.88
487.299	493.88
487.517	484.88
487.735	483.88
487.953	474.88
488.171	511.88
488.389	494.88
488.607	496.88
488.825	492.88
489.043	514.88
489.261	485.88
489.479	513.88
489.696	501.88
489.914	510.88
490.132	499.88
490.35	527.88
490.568	512.88
490.786	514.88
491.003	538.88
491.221	524.88
491.439	537.88
491.657	564.88
491.874	565.88
492.092	569.88
492.31	558.88
492.527	551.88
492.745	567.88
492.963	534.88
493.18	565.88
493.398	574.88
493.615	575.88
493.833	574.88
494.05	562.88
494.268	593.88
494.485	554.88
494.703	550.88
494.92	583.88
495.138	555.88
495.355	547.88
495.573	588.88
495.79	606.88
496.008	588.88
496.225	600.88
496.442	565.88
496.66	572.88
496.877	579.88
497.094	590.88
497.312	622.88
497.529	611.88
497.746	603.88
497.963	620.88
498.181	638.88
498.398	655.88
498.615	637.88
498.832	652.88
499.049	649.88
499.267	664.88
499.484	701.88
499.701	702.88
499.918	737.88
500.135	781.88
500.352	749.88
500.569	803.88
500.786	810.88
501.003	782.88
501.22	771.88
501.437	767.88
501.654	738.88
501.871	725.88
502.088	699.88
502.305	683.88
502.522	662.88
502.739	637.88
502.956	645.88
503.172	635.88
503.389	618.88
503.606	616.88
503.823	600.88
504.04	581.88
504.256	582.88
504.473	595.88
504.69	556.88
504.907	582.88
505.123	560.88
505.34	549.88
505.557	571.88
505.773	565.88
505.99	556.88
506.207	548.88
506.423	555.88
506.64	558.88
506.856	549.88
507.073	558.88
507.289	541.88
507.506	541.88
507.722	543.88
507.939	564.88
508.155	528.88
508.372	528.88
508.588	549.88
508.805	537.88
509.021	524.88
509.238	532.88
509.454	539.88
509.67	528.88
509.887	538.88
510.103	537.88
510.319	527.88
510.536	602.88
510.752	895.88
510.968	766.88
511.184	527.88
511.401	492.88
511.617	515.88
511.833	496.88
512.049	485.88
512.265	468.88
512.481	494.88
512.698	480.88
512.914	471.88
513.13	479.88
513.346	498.88
513.562	481.88
513.778	477.88
513.994	484.88
514.21	507.88
514.426	515.88
514.642	544.88
514.858	555.88
515.074	577.88
515.29	671.88
515.506	921.88
515.721	776.88
515.937	585.88
516.153	527.88
516.369	500.88
516.585	517.88
516.801	493.88
517.016	498.88
517.232	507.88
517.448	534.88
517.664	517.88
517.879	515.88
518.095	514.88
518.311	495.88
518.527	513.88
518.742	511.88
518.958	517.88
519.173	502.88
519.389	513.88
519.605	487.88
519.82	498.88
520.036	517.88
520.251	530.88
520.467	515.88
520.682	546.88
520.898	534.88
521.113	548.88
521.329	566.88
521.544	620.88
521.76	725.88
521.975	1132.88
522.19	1131.88
522.406	681.88
522.621	537.88
522.836	512.88
523.052	482.88
523.267	482.88
523.482	449.88
523.698	424.88
523.913	463.88
524.128	475.88
524.343	457.88
524.559	456.88
524.774	450.88
524.989	421.88
525.204	443.88
525.419	448.88
525.634	434.88
525.849	425.88
526.064	446.88
526.28	437.88
526.495	419.88
526.71	420.88
526.925	426.88
527.14	422.88
527.355	417.88
527.57	427.88
527.785	424.88
527.999	428.88
528.214	398.88
528.429	435.88
528.644	424.88
528.859	431.88
529.074	415.88
529.289	426.88
529.503	474.88
529.718	452.88
529.933	429.88
530.148	412.88
530.363	407.88
530.577	419.88
530.792	424.88
531.007	403.88
531.221	397.88
531.436	398.88
531.651	412.88
531.865	425.88
532.08	429.88
532.295	403.88
532.509	396.88
532.724	404.88
532.938	396.88
533.153	420.88
533.367	414.88
533.582	414.88
533.796	405.88
534.011	397.88
534.225	405.88
534.44	411.88
534.654	394.88
534.868	382.88
535.083	397.88
535.297	401.88
535.511	392.88
535.726	405.88
535.94	403.88
536.154	395.88
536.369	378.88
536.583	399.88
536.797	400.88
537.011	378.88
537.225	383.88
537.44	385.88
537.654	394.88
537.868	371.88
538.082	402.88
538.296	389.88
538.51	397.88
538.724	386.88
538.938	391.88
539.153	392.88
539.367	391.88
539.581	395.88
539.795	372.88
540.009	373.88
540.222	374.88
540.436	385.88
540.65	398.88
540.864	400.88
541.078	397.88
541.292	419.88
541.506	401.88
541.72	373.88
541.934	374.88
542.147	394.88
542.361	381.88
542.575	390.88
542.789	380.88
543.002	375.88
543.216	383.88
543.43	386.88
543.644	395.88
543.857	383.88
544.071	383.88
544.285	392.88
544.498	404.88
544.712	396.88
544.925	386.88
545.139	382.88
545.352	378.88
545.566	376.88
545.779	377.88
545.993	386.88
546.206	397.88
546.42	397.88
546.633	381.88
546.847	386.88
547.06	362.88
547.274	389.88
547.487	380.88
547.7	386.88
547.914	353.88
548.127	361.88
548.34	359.88
548.554	378.88
548.767	358.88
548.98	381.88
549.193	383.88
549.407	390.88
549.62	389.88
549.833	379.88
550.046	365.88
550.259	367.88
550.473	375.88
550.686	370.88
550.899	365.88
551.112	364.88
551.325	357.88
551.538	365.88
551.751	365.88
551.964	362.88
552.177	377.88
552.39	353.88
552.603	385.88
552.816	400.88
553.029	364.88
553.242	367.88
553.455	360.88
553.667	359.88
553.88	383.88
554.093	393.88
554.306	369.88
554.519	362.88
554.732	368.88
554.944	382.88
555.157	357.88
555.37	347.88
555.583	371.88
555.795	357.88
556.008	347.88
556.221	337.88
556.433	353.88
556.646	357.88
556.859	335.88
557.071	335.88
557.284	327.88
557.496	343.88
557.709	343.88
557.921	354.88
558.134	322.88
558.346	342.88
558.559	336.88
558.771	350.88
558.984	324.88
559.196	313.88
559.409	335.88
559.621	334.88
559.833	332.88
560.046	327.88
560.258	323.88
560.47	332.88
560.683	335.88
560.895	333.88
561.107	333.88
561.32	332.88
561.532	323.88
561.744	348.88
561.956	316.88
562.168	345.88
562.381	316.88
562.593	343.88
562.805	347.88
563.017	345.88
563.229	342.88
563.441	350.88
563.653	342.88
563.865	345.88
564.077	336.88
564.289	333.88
564.501	345.88
564.713	360.88
564.925	355.88
565.137	354.88
565.349	363.88
565.561	359.88
565.773	371.88
565.985	369.88
566.197	386.88
566.408	393.88
566.62	395.88
566.832	390.88
567.044	410.88
567.255	382.88
567.467	424.88
567.679	404.88
567.891	412.88
568.102	423.88
568.314	409.88
568.526	383.88
568.737	359.88
568.949	371.88
569.161	357.88
569.372	361.88
569.584	374.88
569.795	350.88
570.007	369.88
570.218	379.88
570.43	338.88
570.641	329.88
570.853	308.88
571.064	317.88
571.276	324.88
571.487	325.88
571.698	330.88
571.91	328.88
572.121	332.88
572.333	310.88
572.544	316.88
572.755	319.88
572.966	303.88
573.178	307.88
573.389	313.88
573.6	298.88
573.811	305.88
574.023	296.88
574.234	294.88
574.445	292.88
574.656	290.88
574.867	275.88
575.078	294.88
575.289	294.88
575.501	267.88
575.712	284.88
575.923	296.88
576.134	297.88
576.345	283.88
576.556	294.88
576.767	286.88
576.978	310.88
577.188	292.88
577.399	267.88
577.61	286.88
577.821	277.88
578.032	278.88
578.243	292.88
578.454	439.88
578.665	341.88
578.875	288.88
579.086	286.88
579.297	272.88
579.508	279.88
579.718	276.88
579.929	281.88
580.14	271.88
580.35	285.88
580.561	279.88
580.772	265.88
580.982	287.88
581.193	264.88
581.403	268.88
581.614	270.88
581.825	268.88
582.035	259.88
582.246	262.88
582.456	266.88
582.667	261.88
582.877	262.88
583.087	259.88
583.298	274.88
583.508	269.88
583.719	249.88
583.929	265.88
584.139	271.88
584.35	258.88
584.56	265.88
584.77	262.88
584.981	265.88
585.191	264.88
585.401	270.88
585.611	271.88
585.821	254.88
586.032	277.88
586.242	247.88
586.452	269.88
586.662	250.88
586.872	257.88
587.082	248.88
587.292	250.88
587.502	259.88
587.713	237.88
587.923	261.88
588.133	257.88
588.343	248.88
588.553	248.88
588.762	262.88
588.972	265.88
589.182	293.88
589.392	286.88
589.602	269.88
589.812	281.88
590.022	276.88
590.232	237.88
590.441	260.88
590.651	262.88
590.861	275.88
591.071	269.88
591.281	275.88
591.49	259.88
591.7	263.88
591.91	253.88
592.119	251.88
592.329	271.88
592.539	254.88
592.748	278.88
592.958	264.88
593.167	275.88
593.377	273.88
593.587	278.88
593.796	278.88
594.006	258.88
594.215	277.88
594.424	251.88
594.634	255.88
594.843	259.88
595.053	259.88
595.262	263.88
595.472	237.88
595.681	248.88
595.89	261.88
596.1	246.88
596.309	242.88
596.518	267.88
596.727	263.88
596.937	260.88
597.146	239.88
597.355	246.88
597.564	249.88
597.774	229.88
597.983	239.88
598.192	229.88
598.401	230.88
598.61	237.88
598.819	234.88
599.028	249.88
599.237	222.88
599.446	248.88
599.655	231.88
599.864	246.88
600.073	240.88
600.282	229.88
600.491	220.88
600.7	242.88
600.909	219.88
601.118	236.88
601.327	227.88
601.536	244.88
601.745	233.88
601.953	233.88
602.162	203.88
602.371	218.88
602.58	224.88
602.789	227.88
602.997	228.88
603.206	221.88
603.415	218.88
603.623	214.88
603.832	214.88
604.041	222.88
604.249	230.88
604.458	215.88
604.666	216.88
604.875	227.88
605.084	213.88
605.292	215.88
605.501	230.88
605.709	235.88
605.918	216.88
606.126	245.88
606.334	225.88
606.543	214.88
606.751	225.88
606.96	241.88
607.168	223.88
607.376	201.88
607.585	226.88
607.793	198.88
608.001	206.88
608.21	218.88
608.418	212.88
608.626	228.88
608.834	203.88
609.043	216.88
609.251	217.88
609.459	232.88
609.667	234.88
609.875	206.88
610.083	201.88
610.291	222.88
610.499	233.88
610.707	208.88
610.916	206.88
611.124	210.88
611.332	212.88
611.54	217.88
611.748	223.88
611.955	214.88
612.163	242.88
612.371	219.88
612.579	220.88
612.787	202.88
612.995	222.88
613.203	202.88
613.411	205.88
613.618	207.88
613.826	246.88
614.034	218.88
614.242	205.88
614.449	211.88
614.657	213.88
614.865	206.88
615.072	220.88
615.28	200.88
615.488	206.88
615.695	211.88
615.903	208.88
616.111	212.88
616.318	212.88
616.526	229.88
616.733	202.88
616.941	200.88
617.148	211.88
617.356	219.88
617.563	215.88
617.771	192.88
617.978	209.88
618.185	205.88
618.393	221.88
618.6	206.88
618.807	206.88
619.015	201.88
619.222	211.88
619.429	205.88
619.637	221.88
619.844	220.88
620.051	214.88
620.258	199.88
620.466	189.88
620.673	204.88
620.88	199.88
621.087	207.88
621.294	216.88
621.501	210.88
621.708	210.88
621.915	206.88
622.122	191.88
622.329	207.88
622.536	213.88
622.743	214.88
622.95	200.88
623.157	209.88
623.364	200.88
623.571	182.88
623.778	210.88
623.985	193.88
624.192	196.88
624.399	211.88
624.606	209.88
624.812	193.88
625.019	179.88
625.226	190.88
625.433	177.88
625.639	185.88
625.846	184.88
626.053	189.88
626.259	179.88
626.466	189.88
626.673	175.88
626.879	181.88
627.086	195.88
627.293	192.88
627.499	166.88
627.706	181.88
627.912	193.88
628.119	181.88
628.325	178.88
628.532	199.88
628.738	206.88
628.945	200.88
629.151	183.88
629.357	173.88
629.564	183.88
629.77	184.88
629.976	187.88
630.183	185.88
630.389	194.88
630.595	197.88
630.802	182.88
631.008	187.88
631.214	173.88
631.42	161.88
631.627	183.88
631.833	180.88
632.039	174.88
632.245	171.88
632.451	167.88
632.657	173.88
632.863	187.88
633.069	173.88
633.275	169.88
633.481	172.88
633.688	163.88
633.893	179.88
634.099	169.88
634.305	181.88
634.511	177.88
634.717	175.88
634.923	168.88
635.129	175.88
635.335	165.88
635.541	167.88
635.747	166.88
635.952	155.88
636.158	165.88
636.364	177.88
636.57	176.88
636.775	165.88
636.981	169.88
637.187	162.88
637.392	157.88
637.598	153.88
637.804	170.88
638.009	188.88
638.215	169.88
638.421	156.88
638.626	163.88
638.832	173.88
639.037	164.88
639.243	166.88
639.448	160.88
639.654	157.88
639.859	153.88
640.065	163.88
640.27	161.88
640.475	180.88
640.681	163.88
640.886	167.88
641.091	172.88
641.297	165.88
641.502	157.88
641.707	156.88
641.913	161.88
642.118	169.88
642.323	158.88
642.528	147.88
642.733	154.88
642.939	153.88
643.144	157.88
643.349	153.88
643.554	155.88
643.759	161.88
643.964	162.88
644.169	167.88
644.374	153.88
644.579	163.88
644.784	168.88
644.989	161.88
645.194	146.88
645.399	155.88
645.604	152.88
645.809	160.88
646.014	159.88
646.219	167.88
646.423	144.88
646.628	153.88
646.833	141.88
647.038	172.88
647.243	152.88
647.447	151.88
647.652	156.88
647.857	155.88
648.062	165.88
648.266	161.88
648.471	153.88
648.676	166.88
648.88	156.88
649.085	145.88
649.289	167.88
649.494	169.88
649.698	171.88
649.903	155.88
650.107	158.88
650.312	163.88
650.516	150.88
650.721	144.88
650.925	151.88
651.13	162.88
651.334	151.88
651.539	158.88
651.743	141.88
651.947	149.88
652.152	153.88
652.356	144.88
652.56	146.88
652.764	127.88
652.969	130.88
653.173	143.88
653.377	143.88
653.581	130.88
653.785	116.88
653.99	135.88
654.194	138.88
654.398	129.88
654.602	135.88
654.806	131.88
655.01	133.88
655.214	147.88
655.418	119.88
655.622	124.88
655.826	133.88
656.03	120.88
656.234	130.88
656.438	142.88
656.642	125.88
656.846	137.88
657.049	126.88
657.253	117.88
657.457	110.88
657.661	117.88
657.865	119.88
658.068	109.88
658.272	111.88
658.476	108.88
658.68	112.88
658.883	104.88
659.087	98.88
659.291	113.88
659.494	98.88
659.698	91.88
659.901	90.88
660.105	89.88
660.309	101.88
660.512	99.88
660.716	93.88
660.919	99.88
661.123	98.88
661.326	86.88
661.53	89.88
661.733	79.88
661.936	62.88
662.14	84.88
662.343	90.88
662.546	89.88
662.75	85.88
662.953	79.88
663.156	71.88
663.36	94.88
663.563	84.88
663.766	84.88
663.969	87.88
664.173	82.88
664.376	77.88
664.579	73.88
664.782	95.88
664.985	99.88
665.188	91.88
665.391	90.88
665.594	75.88
665.797	90.88
666	79.88
666.203	83.88
666.406	82.88
666.609	94.88
666.812	88.88
667.015	86.88
667.218	94.88
667.421	86.88
667.624	85.88
667.827	83.88
668.03	77.88
668.232	79.88
668.435	83.88
668.638	103.88
668.841	93.88
669.043	85.88
669.246	101.88
669.449	90.88
669.651	78.88
669.854	69.88
670.057	84.88
670.259	88.88
670.462	80.88
670.665	74.88
670.867	76.88
671.07	74.88
671.272	88.88
671.475	83.88
671.677	91.88
671.88	83.88
672.082	72.88
672.284	99.88
672.487	74.88
672.689	87.88
672.892	89.88
