Data from 1989.PennyLincolnUp.Lamp.En5.5.200Scan.071819.P2_HRD10591_17-25-34-973.txt Node
Date: Thu Jul 18 17:25:34 EDT 2019
User: cochatt
Spectrometer: HR+D1059
Trigger mode: 1
Integration Time (sec): 1.000000E-1
Scans to average: 1
Electric dark correction enabled: true
Nonlinearity correction enabled: false
Boxcar width: 0
XAxis mode: Wavelengths
Number of Pixels in Spectrum: 2048
>>>>>Begin Spectral Data<<<<<
223.165	-18.31
223.4	-18.31
223.635	-18.31
223.869	-15.31
224.104	-23.31
224.338	-23.31
224.573	-17.31
224.808	-12.31
225.042	-24.31
225.277	-1.31
225.511	-9.31
225.746	18.69
225.98	3.69
226.215	22.69
226.449	12.69
226.683	23.69
226.918	26.69
227.152	36.69
227.387	37.69
227.621	53.69
227.856	36.69
228.09	39.69
228.324	44.69
228.559	61.69
228.793	81.69
229.027	106.69
229.262	89.69
229.496	121.69
229.73	138.69
229.964	166.69
230.199	149.69
230.433	126.69
230.667	116.69
230.901	116.69
231.136	130.69
231.37	122.69
231.604	117.69
231.838	104.69
232.072	126.69
232.306	126.69
232.541	132.69
232.775	122.69
233.009	122.69
233.243	123.69
233.477	113.69
233.711	109.69
233.945	122.69
234.179	125.69
234.413	123.69
234.647	129.69
234.881	124.69
235.115	124.69
235.349	121.69
235.583	120.69
235.817	121.69
236.051	124.69
236.285	130.69
236.519	132.69
236.753	129.69
236.987	146.69
237.221	188.69
237.455	251.69
237.689	212.69
237.922	152.69
238.156	137.69
238.39	135.69
238.624	124.69
238.858	139.69
239.091	116.69
239.325	114.69
239.559	142.69
239.793	153.69
240.027	137.69
240.26	161.69
240.494	176.69
240.728	174.69
240.961	158.69
241.195	155.69
241.429	156.69
241.662	137.69
241.896	157.69
242.13	136.69
242.363	152.69
242.597	152.69
242.83	151.69
243.064	139.69
243.298	158.69
243.531	144.69
243.765	159.69
243.998	154.69
244.232	153.69
244.465	161.69
244.699	153.69
244.932	158.69
245.166	162.69
245.399	159.69
245.633	153.69
245.866	159.69
246.099	152.69
246.333	162.69
246.566	161.69
246.8	159.69
247.033	164.69
247.266	179.69
247.5	176.69
247.733	169.69
247.966	192.69
248.2	183.69
248.433	192.69
248.666	185.69
248.899	190.69
249.133	205.69
249.366	242.69
249.599	212.69
249.832	203.69
250.066	205.69
250.299	203.69
250.532	227.69
250.765	231.69
250.998	255.69
251.231	256.69
251.465	259.69
251.698	244.69
251.931	229.69
252.164	222.69
252.397	234.69
252.63	204.69
252.863	222.69
253.096	232.69
253.329	268.69
253.562	253.69
253.795	250.69
254.028	232.69
254.261	249.69
254.494	257.69
254.727	285.69
254.96	325.69
255.193	312.69
255.426	294.69
255.659	258.69
255.892	268.69
256.124	285.69
256.357	287.69
256.59	286.69
256.823	244.69
257.056	261.69
257.289	250.69
257.521	243.69
257.754	241.69
257.987	253.69
258.22	232.69
258.452	237.69
258.685	237.69
258.918	215.69
259.151	221.69
259.383	236.69
259.616	243.69
259.849	232.69
260.081	252.69
260.314	281.69
260.547	303.69
260.779	285.69
261.012	267.69
261.244	266.69
261.477	257.69
261.71	255.69
261.942	261.69
262.175	254.69
262.407	262.69
262.64	229.69
262.872	246.69
263.105	233.69
263.337	231.69
263.57	225.69
263.802	235.69
264.035	230.69
264.267	240.69
264.499	235.69
264.732	213.69
264.964	244.69
265.197	228.69
265.429	244.69
265.661	243.69
265.894	232.69
266.126	231.69
266.358	245.69
266.591	239.69
266.823	240.69
267.055	241.69
267.287	266.69
267.52	263.69
267.752	260.69
267.984	265.69
268.216	255.69
268.448	246.69
268.681	253.69
268.913	289.69
269.145	290.69
269.377	316.69
269.609	301.69
269.841	308.69
270.073	304.69
270.306	339.69
270.538	370.69
270.77	357.69
271.002	340.69
271.234	342.69
271.466	339.69
271.698	361.69
271.93	384.69
272.162	364.69
272.394	363.69
272.626	346.69
272.858	328.69
273.09	328.69
273.322	307.69
273.553	324.69
273.785	301.69
274.017	317.69
274.249	293.69
274.481	284.69
274.713	296.69
274.945	296.69
275.176	304.69
275.408	308.69
275.64	294.69
275.872	284.69
276.104	284.69
276.335	307.69
276.567	296.69
276.799	329.69
277.031	344.69
277.262	370.69
277.494	340.69
277.726	326.69
277.957	321.69
278.189	323.69
278.421	287.69
278.652	299.69
278.884	321.69
279.115	288.69
279.347	315.69
279.579	308.69
279.81	299.69
280.042	301.69
280.273	298.69
280.505	293.69
280.736	287.69
280.968	293.69
281.199	300.69
281.431	304.69
281.662	285.69
281.894	297.69
282.125	302.69
282.356	338.69
282.588	343.69
282.819	347.69
283.051	325.69
283.282	300.69
283.513	298.69
283.745	306.69
283.976	309.69
284.207	314.69
284.439	310.69
284.67	309.69
284.901	299.69
285.132	292.69
285.364	299.69
285.595	309.69
285.826	298.69
286.057	306.69
286.288	293.69
286.52	312.69
286.751	315.69
286.982	306.69
287.213	295.69
287.444	326.69
287.675	308.69
287.906	314.69
288.138	320.69
288.369	348.69
288.6	345.69
288.831	318.69
289.062	324.69
289.293	336.69
289.524	314.69
289.755	306.69
289.986	321.69
290.217	312.69
290.448	332.69
290.679	317.69
290.91	316.69
291.141	314.69
291.371	306.69
291.602	325.69
291.833	299.69
292.064	325.69
292.295	311.69
292.526	326.69
292.757	319.69
292.987	333.69
293.218	325.69
293.449	313.69
293.68	316.69
293.91	298.69
294.141	336.69
294.372	324.69
294.603	341.69
294.833	320.69
295.064	319.69
295.295	310.69
295.525	327.69
295.756	324.69
295.987	334.69
296.217	360.69
296.448	370.69
296.679	336.69
296.909	332.69
297.14	341.69
297.37	341.69
297.601	321.69
297.831	327.69
298.062	321.69
298.292	325.69
298.523	338.69
298.753	342.69
298.984	327.69
299.214	338.69
299.445	324.69
299.675	325.69
299.905	333.69
300.136	364.69
300.366	324.69
300.597	333.69
300.827	352.69
301.057	343.69
301.288	380.69
301.518	365.69
301.748	364.69
301.979	355.69
302.209	349.69
302.439	358.69
302.669	359.69
302.9	350.69
303.13	347.69
303.36	355.69
303.59	352.69
303.82	374.69
304.051	384.69
304.281	364.69
304.511	365.69
304.741	352.69
304.971	357.69
305.201	360.69
305.431	364.69
305.661	365.69
305.891	373.69
306.121	353.69
306.352	370.69
306.582	361.69
306.812	356.69
307.042	363.69
307.272	371.69
307.502	352.69
307.731	369.69
307.961	373.69
308.191	349.69
308.421	351.69
308.651	369.69
308.881	368.69
309.111	389.69
309.341	374.69
309.571	381.69
309.8	391.69
310.03	407.69
310.26	416.69
310.49	405.69
310.72	430.69
310.949	436.69
311.179	446.69
311.409	415.69
311.639	417.69
311.868	421.69
312.098	398.69
312.328	441.69
312.557	455.69
312.787	467.69
313.017	475.69
313.246	433.69
313.476	412.69
313.706	421.69
313.935	418.69
314.165	414.69
314.394	459.69
314.624	448.69
314.853	415.69
315.083	414.69
315.312	430.69
315.542	412.69
315.771	423.69
316.001	380.69
316.23	423.69
316.46	398.69
316.689	413.69
316.919	432.69
317.148	432.69
317.377	417.69
317.607	432.69
317.836	441.69
318.065	410.69
318.295	412.69
318.524	417.69
318.753	405.69
318.983	413.69
319.212	421.69
319.441	440.69
319.67	418.69
319.9	419.69
320.129	404.69
320.358	406.69
320.587	419.69
320.816	425.69
321.046	432.69
321.275	445.69
321.504	434.69
321.733	435.69
321.962	471.69
322.191	500.69
322.42	491.69
322.649	492.69
322.878	516.69
323.108	511.69
323.337	562.69
323.566	598.69
323.795	627.69
324.024	693.69
324.253	835.69
324.482	1188.69
324.71	1836.69
324.939	2603.69
325.168	2318.69
325.397	1168.69
325.626	802.69
325.855	631.69
326.084	593.69
326.313	590.69
326.542	605.69
326.77	649.69
326.999	751.69
327.228	1049.69
327.457	1599.69
327.686	1988.69
327.914	1328.69
328.143	845.69
328.372	736.69
328.6	704.69
328.829	660.69
329.058	688.69
329.287	679.69
329.515	641.69
329.744	606.69
329.972	578.69
330.201	624.69
330.43	639.69
330.658	675.69
330.887	727.69
331.115	696.69
331.344	598.69
331.572	542.69
331.801	555.69
332.03	550.69
332.258	522.69
332.486	533.69
332.715	507.69
332.943	501.69
333.172	489.69
333.4	493.69
333.629	516.69
333.857	534.69
334.085	568.69
334.314	552.69
334.542	607.69
334.771	599.69
334.999	545.69
335.227	516.69
335.455	508.69
335.684	492.69
335.912	506.69
336.14	469.69
336.369	484.69
336.597	494.69
336.825	499.69
337.053	489.69
337.281	482.69
337.51	488.69
337.738	474.69
337.966	489.69
338.194	492.69
338.422	476.69
338.65	463.69
338.878	462.69
339.106	461.69
339.334	459.69
339.562	456.69
339.79	460.69
340.018	472.69
340.246	473.69
340.474	484.69
340.702	453.69
340.93	454.69
341.158	453.69
341.386	463.69
341.614	469.69
341.842	443.69
342.07	444.69
342.298	457.69
342.526	452.69
342.754	441.69
342.981	443.69
343.209	429.69
343.437	438.69
343.665	448.69
343.893	454.69
344.12	455.69
344.348	463.69
344.576	487.69
344.804	476.69
345.031	469.69
345.259	483.69
345.487	478.69
345.714	472.69
345.942	441.69
346.17	435.69
346.397	433.69
346.625	457.69
346.853	462.69
347.08	451.69
347.308	445.69
347.535	464.69
347.763	451.69
347.99	471.69
348.218	458.69
348.445	443.69
348.673	469.69
348.9	442.69
349.128	413.69
349.355	422.69
349.583	413.69
349.81	416.69
350.037	452.69
350.265	418.69
350.492	427.69
350.72	441.69
350.947	447.69
351.174	445.69
351.402	455.69
351.629	463.69
351.856	446.69
352.083	460.69
352.311	464.69
352.538	475.69
352.765	455.69
352.992	446.69
353.22	427.69
353.447	436.69
353.674	423.69
353.901	439.69
354.128	399.69
354.355	422.69
354.583	420.69
354.81	414.69
355.037	409.69
355.264	400.69
355.491	413.69
355.718	423.69
355.945	394.69
356.172	408.69
356.399	400.69
356.626	413.69
356.853	398.69
357.08	398.69
357.307	419.69
357.534	421.69
357.761	408.69
357.988	395.69
358.215	382.69
358.441	410.69
358.668	412.69
358.895	397.69
359.122	396.69
359.349	418.69
359.576	431.69
359.802	469.69
360.029	482.69
360.256	534.69
360.483	473.69
360.709	439.69
360.936	437.69
361.163	435.69
361.39	457.69
361.616	457.69
361.843	441.69
362.07	427.69
362.296	440.69
362.523	439.69
362.749	439.69
362.976	433.69
363.203	397.69
363.429	418.69
363.656	422.69
363.882	417.69
364.109	415.69
364.335	424.69
364.562	428.69
364.788	410.69
365.015	402.69
365.241	411.69
365.468	429.69
365.694	405.69
365.92	398.69
366.147	418.69
366.373	398.69
366.599	420.69
366.826	411.69
367.052	406.69
367.278	391.69
367.505	424.69
367.731	414.69
367.957	408.69
368.184	400.69
368.41	409.69
368.636	419.69
368.862	449.69
369.089	412.69
369.315	412.69
369.541	408.69
369.767	420.69
369.993	398.69
370.219	420.69
370.445	419.69
370.672	417.69
370.898	405.69
371.124	391.69
371.35	380.69
371.576	400.69
371.802	402.69
372.028	381.69
372.254	393.69
372.48	385.69
372.706	399.69
372.932	402.69
373.158	396.69
373.384	416.69
373.61	411.69
373.835	412.69
374.061	410.69
374.287	416.69
374.513	418.69
374.739	418.69
374.965	420.69
375.191	424.69
375.416	391.69
375.642	418.69
375.868	425.69
376.094	409.69
376.319	410.69
376.545	391.69
376.771	400.69
376.997	399.69
377.222	411.69
377.448	411.69
377.674	398.69
377.899	385.69
378.125	394.69
378.35	378.69
378.576	377.69
378.802	385.69
379.027	377.69
379.253	393.69
379.478	387.69
379.704	396.69
379.929	406.69
380.155	391.69
380.38	396.69
380.606	413.69
380.831	413.69
381.057	392.69
381.282	378.69
381.507	389.69
381.733	382.69
381.958	388.69
382.184	397.69
382.409	407.69
382.634	402.69
382.86	385.69
383.085	403.69
383.31	397.69
383.535	412.69
383.761	388.69
383.986	400.69
384.211	408.69
384.436	390.69
384.662	426.69
384.887	419.69
385.112	410.69
385.337	402.69
385.562	434.69
385.787	409.69
386.013	434.69
386.238	437.69
386.463	425.69
386.688	413.69
386.913	419.69
387.138	428.69
387.363	428.69
387.588	431.69
387.813	419.69
388.038	428.69
388.263	417.69
388.488	449.69
388.713	413.69
388.938	413.69
389.163	409.69
389.387	422.69
389.612	412.69
389.837	427.69
390.062	407.69
390.287	417.69
390.512	410.69
390.736	414.69
390.961	406.69
391.186	406.69
391.411	440.69
391.636	414.69
391.86	441.69
392.085	428.69
392.31	427.69
392.534	437.69
392.759	420.69
392.984	417.69
393.208	402.69
393.433	412.69
393.658	416.69
393.882	416.69
394.107	424.69
394.331	426.69
394.556	413.69
394.78	411.69
395.005	412.69
395.229	411.69
395.454	440.69
395.678	436.69
395.903	436.69
396.127	461.69
396.352	475.69
396.576	450.69
396.801	435.69
397.025	429.69
397.249	458.69
397.474	442.69
397.698	448.69
397.922	460.69
398.147	461.69
398.371	471.69
398.595	457.69
398.82	446.69
399.044	474.69
399.268	485.69
399.492	497.69
399.717	526.69
399.941	557.69
400.165	582.69
400.389	582.69
400.613	548.69
400.837	530.69
401.062	484.69
401.286	492.69
401.51	487.69
401.734	460.69
401.958	477.69
402.182	486.69
402.406	498.69
402.63	499.69
402.854	494.69
403.078	487.69
403.302	491.69
403.526	499.69
403.75	494.69
403.974	485.69
404.198	460.69
404.422	499.69
404.645	501.69
404.869	506.69
405.093	530.69
405.317	564.69
405.541	610.69
405.765	570.69
405.988	519.69
406.212	552.69
406.436	554.69
406.66	571.69
406.883	552.69
407.107	562.69
407.331	592.69
407.555	674.69
407.778	644.69
408.002	591.69
408.226	564.69
408.449	539.69
408.673	538.69
408.896	541.69
409.12	619.69
409.344	588.69
409.567	520.69
409.791	518.69
410.014	506.69
410.238	494.69
410.461	479.69
410.685	496.69
410.908	510.69
411.132	573.69
411.355	573.69
411.578	544.69
411.802	512.69
412.025	510.69
412.249	508.69
412.472	520.69
412.695	588.69
412.919	562.69
413.142	511.69
413.365	490.69
413.589	493.69
413.812	476.69
414.035	478.69
414.258	458.69
414.482	455.69
414.705	458.69
414.928	466.69
415.151	461.69
415.374	451.69
415.597	474.69
415.821	468.69
416.044	473.69
416.267	477.69
416.49	473.69
416.713	444.69
416.936	450.69
417.159	457.69
417.382	476.69
417.605	473.69
417.828	475.69
418.051	484.69
418.274	470.69
418.497	456.69
418.72	469.69
418.943	454.69
419.166	486.69
419.389	494.69
419.611	501.69
419.834	486.69
420.057	505.69
420.28	500.69
420.503	501.69
420.726	481.69
420.948	516.69
421.171	560.69
421.394	569.69
421.617	516.69
421.839	493.69
422.062	500.69
422.285	527.69
422.507	570.69
422.73	634.69
422.953	634.69
423.175	533.69
423.398	514.69
423.621	493.69
423.843	536.69
424.066	539.69
424.288	556.69
424.511	549.69
424.733	610.69
424.956	696.69
425.178	694.69
425.401	655.69
425.623	691.69
425.846	579.69
426.068	545.69
426.291	548.69
426.513	533.69
426.735	564.69
426.958	580.69
427.18	676.69
427.402	793.69
427.625	863.69
427.847	787.69
428.069	689.69
428.292	614.69
428.514	550.69
428.736	508.69
428.958	503.69
429.181	489.69
429.403	503.69
429.625	484.69
429.847	552.69
430.069	613.69
430.292	601.69
430.514	517.69
430.736	506.69
430.958	504.69
431.18	448.69
431.402	466.69
431.624	448.69
431.846	467.69
432.068	467.69
432.29	468.69
432.512	460.69
432.734	467.69
432.956	467.69
433.178	482.69
433.4	469.69
433.622	459.69
433.844	466.69
434.066	472.69
434.287	466.69
434.509	474.69
434.731	468.69
434.953	458.69
435.175	492.69
435.397	524.69
435.618	549.69
435.84	564.69
436.062	668.69
436.284	750.69
436.505	621.69
436.727	553.69
436.949	506.69
437.17	502.69
437.392	519.69
437.614	530.69
437.835	537.69
438.057	652.69
438.278	754.69
438.5	728.69
438.721	792.69
438.943	798.69
439.165	603.69
439.386	568.69
439.608	558.69
439.829	547.69
440.05	578.69
440.272	622.69
440.493	601.69
440.715	541.69
440.936	504.69
441.158	509.69
441.379	499.69
441.6	516.69
441.822	523.69
442.043	563.69
442.264	667.69
442.486	705.69
442.707	624.69
442.928	582.69
443.149	589.69
443.371	590.69
443.592	618.69
443.813	724.69
444.034	789.69
444.255	638.69
444.476	565.69
444.698	553.69
444.919	551.69
445.14	649.69
445.361	588.69
445.582	578.69
445.803	637.69
446.024	783.69
446.245	777.69
446.466	708.69
446.687	611.69
446.908	564.69
447.129	516.69
447.35	479.69
447.571	489.69
447.792	490.69
448.013	491.69
448.234	510.69
448.455	590.69
448.675	690.69
448.896	817.69
449.117	659.69
449.338	649.69
449.559	760.69
449.779	859.69
450	674.69
450.221	547.69
450.442	505.69
450.662	498.69
450.883	489.69
451.104	503.69
451.324	489.69
451.545	490.69
451.766	460.69
451.986	443.69
452.207	446.69
452.428	459.69
452.648	441.69
452.869	438.69
453.089	438.69
453.31	465.69
453.53	443.69
453.751	461.69
453.971	444.69
454.192	478.69
454.412	481.69
454.633	469.69
454.853	447.69
455.073	438.69
455.294	450.69
455.514	533.69
455.734	514.69
455.955	446.69
456.175	414.69
456.395	424.69
456.616	410.69
456.836	418.69
457.056	416.69
457.276	422.69
457.497	427.69
457.717	391.69
457.937	410.69
458.157	408.69
458.377	425.69
458.598	429.69
458.818	507.69
459.038	616.69
459.258	630.69
459.478	529.69
459.698	481.69
459.918	462.69
460.138	473.69
460.358	442.69
460.578	442.69
460.798	452.69
461.018	450.69
461.238	468.69
461.458	431.69
461.678	446.69
461.898	445.69
462.118	463.69
462.338	447.69
462.558	473.69
462.777	458.69
462.997	502.69
463.217	492.69
463.437	487.69
463.657	460.69
463.876	466.69
464.096	472.69
464.316	467.69
464.536	471.69
464.755	492.69
464.975	494.69
465.195	529.69
465.414	640.69
465.634	556.69
465.854	504.69
466.073	478.69
466.293	462.69
466.512	453.69
466.732	448.69
466.951	434.69
467.171	447.69
467.391	445.69
467.61	463.69
467.829	458.69
468.049	466.69
468.268	468.69
468.488	440.69
468.707	432.69
468.927	434.69
469.146	426.69
469.365	413.69
469.585	429.69
469.804	424.69
470.023	460.69
470.243	453.69
470.462	468.69
470.681	473.69
470.901	474.69
471.12	468.69
471.339	452.69
471.558	445.69
471.777	453.69
471.997	447.69
472.216	452.69
472.435	525.69
472.654	482.69
472.873	475.69
473.092	460.69
473.311	469.69
473.53	460.69
473.749	478.69
473.968	525.69
474.187	644.69
474.406	666.69
474.625	512.69
474.844	485.69
475.063	492.69
475.282	467.69
475.501	467.69
475.72	465.69
475.939	460.69
476.158	468.69
476.377	485.69
476.596	439.69
476.814	468.69
477.033	470.69
477.252	458.69
477.471	491.69
477.69	509.69
477.908	489.69
478.127	486.69
478.346	483.69
478.564	497.69
478.783	500.69
479.002	519.69
479.22	509.69
479.439	533.69
479.658	531.69
479.876	561.69
480.095	550.69
480.313	582.69
480.532	555.69
480.751	580.69
480.969	551.69
481.188	636.69
481.406	690.69
481.624	595.69
481.843	582.69
482.061	534.69
482.28	521.69
482.498	539.69
482.717	523.69
482.935	533.69
483.153	534.69
483.372	518.69
483.59	520.69
483.808	530.69
484.027	541.69
484.245	535.69
484.463	541.69
484.681	548.69
484.9	548.69
485.118	551.69
485.336	539.69
485.554	546.69
485.772	532.69
485.99	536.69
486.209	552.69
486.427	550.69
486.645	584.69
486.863	581.69
487.081	599.69
487.299	570.69
487.517	577.69
487.735	550.69
487.953	563.69
488.171	566.69
488.389	578.69
488.607	573.69
488.825	589.69
489.043	573.69
489.261	569.69
489.479	581.69
489.696	591.69
489.914	588.69
490.132	592.69
490.35	616.69
490.568	610.69
490.786	620.69
491.003	630.69
491.221	626.69
491.439	636.69
491.657	633.69
491.874	677.69
492.092	652.69
492.31	669.69
492.527	692.69
492.745	673.69
492.963	666.69
493.18	668.69
493.398	684.69
493.615	701.69
493.833	682.69
494.05	674.69
494.268	697.69
494.485	678.69
494.703	674.69
494.92	678.69
495.138	691.69
495.355	673.69
495.573	678.69
495.79	697.69
496.008	711.69
496.225	676.69
496.442	692.69
496.66	681.69
496.877	668.69
497.094	681.69
497.312	681.69
497.529	674.69
497.746	697.69
497.963	722.69
498.181	757.69
498.398	725.69
498.615	747.69
498.832	762.69
499.049	750.69
499.267	762.69
499.484	777.69
499.701	776.69
499.918	811.69
500.135	841.69
500.352	876.69
500.569	869.69
500.786	892.69
501.003	888.69
501.22	848.69
501.437	831.69
501.654	828.69
501.871	829.69
502.088	795.69
502.305	781.69
502.522	755.69
502.739	766.69
502.956	741.69
503.172	733.69
503.389	709.69
503.606	698.69
503.823	717.69
504.04	690.69
504.256	664.69
504.473	672.69
504.69	668.69
504.907	675.69
505.123	658.69
505.34	653.69
505.557	646.69
505.773	687.69
505.99	646.69
506.207	640.69
506.423	639.69
506.64	640.69
506.856	627.69
507.073	666.69
507.289	640.69
507.506	630.69
507.722	676.69
507.939	642.69
508.155	630.69
508.372	634.69
508.588	626.69
508.805	620.69
509.021	651.69
509.238	660.69
509.454	660.69
509.67	652.69
509.887	639.69
510.103	636.69
510.319	652.69
510.536	755.69
510.752	1303.69
510.968	1010.69
511.184	667.69
511.401	624.69
511.617	638.69
511.833	590.69
512.049	589.69
512.265	605.69
512.481	600.69
512.698	601.69
512.914	601.69
513.13	592.69
513.346	598.69
513.562	614.69
513.778	604.69
513.994	604.69
514.21	607.69
514.426	660.69
514.642	678.69
514.858	720.69
515.074	786.69
515.29	915.69
515.506	1389.69
515.721	1128.69
515.937	742.69
516.153	697.69
516.369	654.69
516.585	629.69
516.801	603.69
517.016	597.69
517.232	577.69
517.448	594.69
517.664	606.69
517.879	604.69
518.095	604.69
518.311	595.69
518.527	594.69
518.742	594.69
518.958	599.69
519.173	577.69
519.389	572.69
519.605	604.69
519.82	602.69
520.036	617.69
520.251	636.69
520.467	669.69
520.682	669.69
520.898	669.69
521.113	712.69
521.329	744.69
521.544	852.69
521.76	1094.69
521.975	1866.69
522.19	1794.69
522.406	993.69
522.621	725.69
522.836	650.69
523.052	609.69
523.267	562.69
523.482	550.69
523.698	568.69
523.913	554.69
524.128	535.69
524.343	545.69
524.559	541.69
524.774	519.69
524.989	516.69
525.204	558.69
525.419	556.69
525.634	538.69
525.849	516.69
526.064	492.69
526.28	488.69
526.495	486.69
526.71	500.69
526.925	480.69
527.14	478.69
527.355	486.69
527.57	471.69
527.785	479.69
527.999	483.69
528.214	464.69
528.429	459.69
528.644	475.69
528.859	466.69
529.074	482.69
529.289	490.69
529.503	609.69
529.718	572.69
529.933	502.69
530.148	490.69
530.363	500.69
530.577	480.69
530.792	467.69
531.007	456.69
531.221	468.69
531.436	460.69
531.651	485.69
531.865	453.69
532.08	452.69
532.295	459.69
532.509	435.69
532.724	458.69
532.938	450.69
533.153	448.69
533.367	457.69
533.582	453.69
533.796	445.69
534.011	445.69
534.225	436.69
534.44	433.69
534.654	438.69
534.868	447.69
535.083	467.69
535.297	443.69
535.511	428.69
535.726	462.69
535.94	456.69
536.154	454.69
536.369	465.69
536.583	441.69
536.797	437.69
537.011	462.69
537.225	458.69
537.44	432.69
537.654	451.69
537.868	440.69
538.082	414.69
538.296	440.69
538.51	416.69
538.724	422.69
538.938	433.69
539.153	408.69
539.367	457.69
539.581	454.69
539.795	423.69
540.009	448.69
540.222	444.69
540.436	468.69
540.65	424.69
540.864	457.69
541.078	461.69
541.292	450.69
541.506	440.69
541.72	417.69
541.934	453.69
542.147	444.69
542.361	433.69
542.575	410.69
542.789	428.69
543.002	427.69
543.216	448.69
543.43	445.69
543.644	445.69
543.857	453.69
544.071	435.69
544.285	438.69
544.498	444.69
544.712	440.69
544.925	441.69
545.139	450.69
545.352	428.69
545.566	423.69
545.779	423.69
545.993	442.69
546.206	388.69
546.42	422.69
546.633	396.69
546.847	407.69
547.06	408.69
547.274	428.69
547.487	416.69
547.7	421.69
547.914	411.69
548.127	414.69
548.34	396.69
548.554	426.69
548.767	420.69
548.98	400.69
549.193	408.69
549.407	426.69
549.62	409.69
549.833	391.69
550.046	400.69
550.259	387.69
550.473	393.69
550.686	414.69
550.899	398.69
551.112	411.69
551.325	387.69
551.538	378.69
551.751	382.69
551.964	394.69
552.177	408.69
552.39	419.69
552.603	413.69
552.816	390.69
553.029	421.69
553.242	397.69
553.455	412.69
553.667	418.69
553.88	439.69
554.093	430.69
554.306	419.69
554.519	393.69
554.732	393.69
554.944	395.69
555.157	377.69
555.37	401.69
555.583	403.69
555.795	401.69
556.008	398.69
556.221	394.69
556.433	375.69
556.646	371.69
556.859	364.69
557.071	360.69
557.284	374.69
557.496	376.69
557.709	364.69
557.921	354.69
558.134	354.69
558.346	374.69
558.559	374.69
558.771	369.69
558.984	360.69
559.196	349.69
559.409	362.69
559.621	359.69
559.833	358.69
560.046	368.69
560.258	354.69
560.47	376.69
560.683	364.69
560.895	348.69
561.107	345.69
561.32	346.69
561.532	364.69
561.744	379.69
561.956	358.69
562.168	381.69
562.381	361.69
562.593	342.69
562.805	364.69
563.017	359.69
563.229	356.69
563.441	355.69
563.653	368.69
563.865	350.69
564.077	360.69
564.289	368.69
564.501	356.69
564.713	388.69
564.925	365.69
565.137	388.69
565.349	380.69
565.561	389.69
565.773	397.69
565.985	392.69
566.197	382.69
566.408	403.69
566.62	394.69
566.832	399.69
567.044	418.69
567.255	420.69
567.467	416.69
567.679	428.69
567.891	442.69
568.102	409.69
568.314	432.69
568.526	428.69
568.737	410.69
568.949	395.69
569.161	370.69
569.372	363.69
569.584	364.69
569.795	366.69
570.007	376.69
570.218	406.69
570.43	394.69
570.641	363.69
570.853	359.69
571.064	339.69
571.276	356.69
571.487	332.69
571.698	340.69
571.91	342.69
572.121	342.69
572.333	340.69
572.544	338.69
572.755	338.69
572.966	331.69
573.178	320.69
573.389	333.69
573.6	313.69
573.811	317.69
574.023	313.69
574.234	316.69
574.445	309.69
574.656	328.69
574.867	316.69
575.078	321.69
575.289	299.69
575.501	315.69
575.712	309.69
575.923	313.69
576.134	307.69
576.345	305.69
576.556	313.69
576.767	313.69
576.978	307.69
577.188	304.69
577.399	303.69
577.61	307.69
577.821	312.69
578.032	302.69
578.243	325.69
578.454	598.69
578.665	458.69
578.875	317.69
579.086	300.69
579.297	297.69
579.508	278.69
579.718	272.69
579.929	292.69
580.14	289.69
580.35	297.69
580.561	274.69
580.772	278.69
580.982	272.69
581.193	292.69
581.403	295.69
581.614	281.69
581.825	297.69
582.035	279.69
582.246	276.69
582.456	294.69
582.667	281.69
582.877	278.69
583.087	266.69
583.298	285.69
583.508	284.69
583.719	269.69
583.929	277.69
584.139	291.69
584.35	269.69
584.56	277.69
584.77	300.69
584.981	282.69
585.191	268.69
585.401	292.69
585.611	285.69
585.821	284.69
586.032	282.69
586.242	276.69
586.452	284.69
586.662	289.69
586.872	262.69
587.082	288.69
587.292	264.69
587.502	263.69
587.713	271.69
587.923	260.69
588.133	281.69
588.343	277.69
588.553	271.69
588.762	287.69
588.972	267.69
589.182	282.69
589.392	283.69
589.602	269.69
589.812	283.69
590.022	269.69
590.232	277.69
590.441	262.69
590.651	259.69
590.861	277.69
591.071	288.69
591.281	265.69
591.49	256.69
591.7	254.69
591.91	282.69
592.119	266.69
592.329	286.69
592.539	277.69
592.748	282.69
592.958	288.69
593.167	278.69
593.377	284.69
593.587	281.69
593.796	280.69
594.006	298.69
594.215	283.69
594.424	276.69
594.634	292.69
594.843	294.69
595.053	262.69
595.262	273.69
595.472	286.69
595.681	273.69
595.89	262.69
596.1	263.69
596.309	247.69
596.518	281.69
596.727	273.69
596.937	249.69
597.146	251.69
597.355	262.69
597.564	256.69
597.774	262.69
597.983	240.69
598.192	232.69
598.401	266.69
598.61	256.69
598.819	244.69
599.028	263.69
599.237	269.69
599.446	237.69
599.655	248.69
599.864	249.69
600.073	235.69
600.282	244.69
600.491	256.69
600.7	235.69
600.909	240.69
601.118	245.69
601.327	226.69
601.536	218.69
601.745	247.69
601.953	256.69
602.162	249.69
602.371	241.69
602.58	230.69
602.789	229.69
602.997	261.69
603.206	247.69
603.415	232.69
603.623	232.69
603.832	254.69
604.041	236.69
604.249	225.69
604.458	226.69
604.666	221.69
604.875	228.69
605.084	237.69
605.292	236.69
605.501	229.69
605.709	246.69
605.918	219.69
606.126	231.69
606.334	229.69
606.543	242.69
606.751	237.69
606.96	244.69
607.168	224.69
607.376	240.69
607.585	238.69
607.793	241.69
608.001	222.69
608.21	232.69
608.418	230.69
608.626	237.69
608.834	234.69
609.043	234.69
609.251	230.69
609.459	231.69
609.667	225.69
609.875	224.69
610.083	221.69
610.291	227.69
610.499	227.69
610.707	236.69
610.916	197.69
611.124	237.69
611.332	216.69
611.54	231.69
611.748	231.69
611.955	229.69
612.163	220.69
612.371	237.69
612.579	231.69
612.787	238.69
612.995	226.69
613.203	220.69
613.411	226.69
613.618	222.69
613.826	222.69
614.034	208.69
614.242	229.69
614.449	214.69
614.657	228.69
614.865	227.69
615.072	220.69
615.28	214.69
615.488	203.69
615.695	222.69
615.903	219.69
616.111	210.69
616.318	215.69
616.526	231.69
616.733	224.69
616.941	230.69
617.148	213.69
617.356	204.69
617.563	211.69
617.771	220.69
617.978	225.69
618.185	217.69
618.393	206.69
618.6	195.69
618.807	201.69
619.015	218.69
619.222	201.69
619.429	214.69
619.637	198.69
619.844	216.69
620.051	204.69
620.258	215.69
620.466	202.69
620.673	201.69
620.88	220.69
621.087	201.69
621.294	218.69
621.501	206.69
621.708	211.69
621.915	215.69
622.122	213.69
622.329	213.69
622.536	205.69
622.743	203.69
622.95	205.69
623.157	201.69
623.364	207.69
623.571	199.69
623.778	204.69
623.985	197.69
624.192	202.69
624.399	207.69
624.606	219.69
624.812	203.69
625.019	182.69
625.226	207.69
625.433	178.69
625.639	199.69
625.846	196.69
626.053	182.69
626.259	203.69
626.466	198.69
626.673	181.69
626.879	202.69
627.086	212.69
627.293	194.69
627.499	195.69
627.706	202.69
627.912	183.69
628.119	197.69
628.325	189.69
628.532	194.69
628.738	200.69
628.945	183.69
629.151	187.69
629.357	195.69
629.564	208.69
629.77	206.69
629.976	192.69
630.183	178.69
630.389	195.69
630.595	185.69
630.802	186.69
631.008	189.69
631.214	181.69
631.42	173.69
631.627	183.69
631.833	186.69
632.039	192.69
632.245	185.69
632.451	173.69
632.657	188.69
632.863	184.69
633.069	176.69
633.275	188.69
633.481	160.69
633.688	162.69
633.893	192.69
634.099	157.69
634.305	181.69
634.511	168.69
634.717	177.69
634.923	168.69
635.129	170.69
635.335	165.69
635.541	165.69
635.747	171.69
635.952	172.69
636.158	164.69
636.364	163.69
636.57	183.69
636.775	172.69
636.981	170.69
637.187	173.69
637.392	190.69
637.598	181.69
637.804	172.69
638.009	163.69
638.215	182.69
638.421	176.69
638.626	165.69
638.832	162.69
639.037	170.69
639.243	162.69
639.448	144.69
639.654	162.69
639.859	161.69
640.065	162.69
640.27	166.69
640.475	170.69
640.681	185.69
640.886	177.69
641.091	158.69
641.297	168.69
641.502	168.69
641.707	168.69
641.913	164.69
642.118	172.69
642.323	142.69
642.528	166.69
642.733	150.69
642.939	157.69
643.144	154.69
643.349	170.69
643.554	161.69
643.759	157.69
643.964	140.69
644.169	153.69
644.374	171.69
644.579	168.69
644.784	167.69
644.989	159.69
645.194	154.69
645.399	157.69
645.604	162.69
645.809	165.69
646.014	165.69
646.219	153.69
646.423	162.69
646.628	158.69
646.833	148.69
647.038	144.69
647.243	156.69
647.447	164.69
647.652	150.69
647.857	158.69
648.062	161.69
648.266	165.69
648.471	162.69
648.676	165.69
648.88	169.69
649.085	166.69
649.289	162.69
649.494	174.69
649.698	190.69
649.903	192.69
650.107	179.69
650.312	160.69
650.516	146.69
650.721	144.69
650.925	154.69
651.13	145.69
651.334	132.69
651.539	147.69
651.743	144.69
651.947	147.69
652.152	134.69
652.356	143.69
652.56	150.69
652.764	138.69
652.969	139.69
653.173	139.69
653.377	132.69
653.581	138.69
653.785	140.69
653.99	137.69
654.194	137.69
654.398	152.69
654.602	142.69
654.806	151.69
655.01	143.69
655.214	142.69
655.418	129.69
655.622	142.69
655.826	140.69
656.03	128.69
656.234	138.69
656.438	131.69
656.642	137.69
656.846	116.69
657.049	128.69
657.253	129.69
657.457	102.69
657.661	110.69
657.865	114.69
658.068	107.69
658.272	110.69
658.476	120.69
658.68	98.69
658.883	98.69
659.087	92.69
659.291	98.69
659.494	115.69
659.698	107.69
659.901	98.69
660.105	112.69
660.309	92.69
660.512	98.69
660.716	92.69
660.919	91.69
661.123	97.69
661.326	98.69
661.53	97.69
661.733	96.69
661.936	92.69
662.14	88.69
662.343	89.69
662.546	100.69
662.75	88.69
662.953	80.69
663.156	90.69
663.36	75.69
663.563	86.69
663.766	80.69
663.969	86.69
664.173	89.69
664.376	91.69
664.579	91.69
664.782	97.69
664.985	82.69
665.188	88.69
665.391	93.69
665.594	82.69
665.797	88.69
666	85.69
666.203	86.69
666.406	85.69
666.609	90.69
666.812	90.69
667.015	85.69
667.218	90.69
667.421	86.69
667.624	81.69
667.827	94.69
668.03	78.69
668.232	97.69
668.435	85.69
668.638	82.69
668.841	76.69
669.043	84.69
669.246	78.69
669.449	76.69
669.651	88.69
669.854	69.69
670.057	73.69
670.259	85.69
670.462	78.69
670.665	65.69
670.867	99.69
671.07	70.69
671.272	85.69
671.475	86.69
671.677	94.69
671.88	84.69
672.082	88.69
672.284	93.69
672.487	77.69
672.689	89.69
672.892	81.69
