Data from 1989.PennyLincolnUp.Lamp.En5.5.200Scan.071819.P2_HRD10591_17-25-49-974.txt Node
Date: Thu Jul 18 17:25:49 EDT 2019
User: cochatt
Spectrometer: HR+D1059
Trigger mode: 1
Integration Time (sec): 1.000000E-1
Scans to average: 1
Electric dark correction enabled: true
Nonlinearity correction enabled: false
Boxcar width: 0
XAxis mode: Wavelengths
Number of Pixels in Spectrum: 2048
>>>>>Begin Spectral Data<<<<<
223.165	-9.31
223.4	-9.31
223.635	-9.31
223.869	-18.31
224.104	-21.31
224.338	-14.31
224.573	-21.31
224.808	-13.31
225.042	-10.31
225.277	-4.31
225.511	-1.31
225.746	16.69
225.98	3.69
226.215	19.69
226.449	21.69
226.683	17.69
226.918	20.69
227.152	13.69
227.387	26.69
227.621	58.69
227.856	41.69
228.09	53.69
228.324	53.69
228.559	49.69
228.793	83.69
229.027	108.69
229.262	113.69
229.496	102.69
229.73	142.69
229.964	158.69
230.199	141.69
230.433	123.69
230.667	114.69
230.901	117.69
231.136	106.69
231.37	121.69
231.604	118.69
231.838	117.69
232.072	113.69
232.306	125.69
232.541	108.69
232.775	119.69
233.009	119.69
233.243	126.69
233.477	117.69
233.711	102.69
233.945	109.69
234.179	121.69
234.413	131.69
234.647	125.69
234.881	125.69
235.115	130.69
235.349	125.69
235.583	121.69
235.817	130.69
236.051	142.69
236.285	134.69
236.519	139.69
236.753	155.69
236.987	160.69
237.221	187.69
237.455	267.69
237.689	182.69
237.922	148.69
238.156	138.69
238.39	141.69
238.624	147.69
238.858	132.69
239.091	148.69
239.325	138.69
239.559	133.69
239.793	119.69
240.027	146.69
240.26	169.69
240.494	184.69
240.728	169.69
240.961	155.69
241.195	156.69
241.429	154.69
241.662	140.69
241.896	135.69
242.13	140.69
242.363	149.69
242.597	144.69
242.83	158.69
243.064	149.69
243.298	135.69
243.531	164.69
243.765	172.69
243.998	164.69
244.232	136.69
244.465	152.69
244.699	178.69
244.932	163.69
245.166	158.69
245.399	165.69
245.633	157.69
245.866	162.69
246.099	154.69
246.333	162.69
246.566	145.69
246.8	158.69
247.033	165.69
247.266	167.69
247.5	169.69
247.733	193.69
247.966	190.69
248.2	192.69
248.433	190.69
248.666	187.69
248.899	207.69
249.133	214.69
249.366	239.69
249.599	233.69
249.832	206.69
250.066	205.69
250.299	204.69
250.532	231.69
250.765	236.69
250.998	267.69
251.231	245.69
251.465	237.69
251.698	233.69
251.931	219.69
252.164	239.69
252.397	221.69
252.63	220.69
252.863	226.69
253.096	237.69
253.329	264.69
253.562	269.69
253.795	251.69
254.028	269.69
254.261	250.69
254.494	259.69
254.727	276.69
254.96	305.69
255.193	311.69
255.426	271.69
255.659	280.69
255.892	277.69
256.124	278.69
256.357	295.69
256.59	278.69
256.823	252.69
257.056	246.69
257.289	246.69
257.521	252.69
257.754	243.69
257.987	240.69
258.22	260.69
258.452	241.69
258.685	248.69
258.918	233.69
259.151	230.69
259.383	248.69
259.616	245.69
259.849	255.69
260.081	267.69
260.314	295.69
260.547	299.69
260.779	276.69
261.012	265.69
261.244	260.69
261.477	264.69
261.71	258.69
261.942	254.69
262.175	278.69
262.407	253.69
262.64	243.69
262.872	241.69
263.105	237.69
263.337	234.69
263.57	236.69
263.802	237.69
264.035	246.69
264.267	228.69
264.499	226.69
264.732	230.69
264.964	236.69
265.197	246.69
265.429	257.69
265.661	237.69
265.894	246.69
266.126	232.69
266.358	249.69
266.591	241.69
266.823	249.69
267.055	247.69
267.287	277.69
267.52	256.69
267.752	234.69
267.984	278.69
268.216	252.69
268.448	248.69
268.681	263.69
268.913	277.69
269.145	294.69
269.377	289.69
269.609	315.69
269.841	312.69
270.073	297.69
270.306	333.69
270.538	351.69
270.77	359.69
271.002	350.69
271.234	340.69
271.466	339.69
271.698	363.69
271.93	362.69
272.162	375.69
272.394	345.69
272.626	332.69
272.858	329.69
273.09	331.69
273.322	309.69
273.553	310.69
273.785	283.69
274.017	296.69
274.249	290.69
274.481	299.69
274.713	297.69
274.945	321.69
275.176	305.69
275.408	300.69
275.64	306.69
275.872	294.69
276.104	286.69
276.335	297.69
276.567	315.69
276.799	307.69
277.031	340.69
277.262	362.69
277.494	356.69
277.726	349.69
277.957	326.69
278.189	323.69
278.421	310.69
278.652	308.69
278.884	309.69
279.115	290.69
279.347	301.69
279.579	309.69
279.81	297.69
280.042	304.69
280.273	295.69
280.505	299.69
280.736	300.69
280.968	305.69
281.199	301.69
281.431	295.69
281.662	294.69
281.894	298.69
282.125	309.69
282.356	314.69
282.588	361.69
282.819	355.69
283.051	308.69
283.282	311.69
283.513	321.69
283.745	313.69
283.976	311.69
284.207	312.69
284.439	327.69
284.67	313.69
284.901	315.69
285.132	292.69
285.364	315.69
285.595	319.69
285.826	303.69
286.057	309.69
286.288	317.69
286.52	324.69
286.751	321.69
286.982	300.69
287.213	305.69
287.444	311.69
287.675	296.69
287.906	331.69
288.138	343.69
288.369	319.69
288.6	327.69
288.831	328.69
289.062	339.69
289.293	306.69
289.524	331.69
289.755	327.69
289.986	324.69
290.217	321.69
290.448	312.69
290.679	319.69
290.91	315.69
291.141	314.69
291.371	302.69
291.602	315.69
291.833	306.69
292.064	316.69
292.295	317.69
292.526	339.69
292.757	324.69
292.987	319.69
293.218	325.69
293.449	307.69
293.68	307.69
293.91	317.69
294.141	315.69
294.372	323.69
294.603	338.69
294.833	309.69
295.064	306.69
295.295	298.69
295.525	313.69
295.756	310.69
295.987	351.69
296.217	362.69
296.448	362.69
296.679	342.69
296.909	319.69
297.14	333.69
297.37	335.69
297.601	322.69
297.831	333.69
298.062	330.69
298.292	334.69
298.523	331.69
298.753	347.69
298.984	357.69
299.214	335.69
299.445	335.69
299.675	332.69
299.905	337.69
300.136	339.69
300.366	341.69
300.597	353.69
300.827	329.69
301.057	339.69
301.288	357.69
301.518	377.69
301.748	342.69
301.979	359.69
302.209	362.69
302.439	373.69
302.669	373.69
302.9	363.69
303.13	349.69
303.36	337.69
303.59	365.69
303.82	357.69
304.051	365.69
304.281	360.69
304.511	358.69
304.741	344.69
304.971	359.69
305.201	366.69
305.431	369.69
305.661	361.69
305.891	367.69
306.121	356.69
306.352	377.69
306.582	365.69
306.812	361.69
307.042	378.69
307.272	360.69
307.502	358.69
307.731	369.69
307.961	375.69
308.191	388.69
308.421	363.69
308.651	370.69
308.881	359.69
309.111	385.69
309.341	376.69
309.571	403.69
309.8	418.69
310.03	409.69
310.26	411.69
310.49	405.69
310.72	416.69
310.949	437.69
311.179	441.69
311.409	419.69
311.639	401.69
311.868	423.69
312.098	443.69
312.328	412.69
312.557	437.69
312.787	461.69
313.017	451.69
313.246	425.69
313.476	419.69
313.706	415.69
313.935	443.69
314.165	427.69
314.394	450.69
314.624	451.69
314.853	429.69
315.083	433.69
315.312	428.69
315.542	409.69
315.771	416.69
316.001	412.69
316.23	395.69
316.46	402.69
316.689	413.69
316.919	434.69
317.148	435.69
317.377	429.69
317.607	440.69
317.836	424.69
318.065	403.69
318.295	437.69
318.524	410.69
318.753	410.69
318.983	408.69
319.212	412.69
319.441	424.69
319.67	439.69
319.9	439.69
320.129	423.69
320.358	406.69
320.587	429.69
320.816	435.69
321.046	456.69
321.275	428.69
321.504	453.69
321.733	451.69
321.962	454.69
322.191	460.69
322.42	483.69
322.649	494.69
322.878	511.69
323.108	529.69
323.337	537.69
323.566	554.69
323.795	615.69
324.024	686.69
324.253	827.69
324.482	1178.69
324.71	1818.69
324.939	2655.69
325.168	2307.69
325.397	1165.69
325.626	775.69
325.855	628.69
326.084	585.69
326.313	580.69
326.542	589.69
326.77	631.69
326.999	761.69
327.228	1046.69
327.457	1604.69
327.686	2002.69
327.914	1310.69
328.143	881.69
328.372	733.69
328.6	706.69
328.829	639.69
329.058	655.69
329.287	662.69
329.515	616.69
329.744	585.69
329.972	583.69
330.201	645.69
330.43	679.69
330.658	707.69
330.887	709.69
331.115	695.69
331.344	608.69
331.572	541.69
331.801	557.69
332.03	550.69
332.258	525.69
332.486	510.69
332.715	501.69
332.943	479.69
333.172	493.69
333.4	504.69
333.629	521.69
333.857	549.69
334.085	537.69
334.314	576.69
334.542	629.69
334.771	659.69
334.999	578.69
335.227	545.69
335.455	515.69
335.684	505.69
335.912	516.69
336.14	487.69
336.369	493.69
336.597	477.69
336.825	469.69
337.053	476.69
337.281	494.69
337.51	478.69
337.738	487.69
337.966	458.69
338.194	477.69
338.422	493.69
338.65	440.69
338.878	464.69
339.106	453.69
339.334	477.69
339.562	477.69
339.79	458.69
340.018	469.69
340.246	474.69
340.474	475.69
340.702	466.69
340.93	458.69
341.158	461.69
341.386	450.69
341.614	467.69
341.842	467.69
342.07	455.69
342.298	426.69
342.526	428.69
342.754	443.69
342.981	449.69
343.209	437.69
343.437	457.69
343.665	447.69
343.893	454.69
344.12	464.69
344.348	463.69
344.576	453.69
344.804	458.69
345.031	478.69
345.259	490.69
345.487	488.69
345.714	471.69
345.942	461.69
346.17	469.69
346.397	453.69
346.625	440.69
346.853	469.69
347.08	459.69
347.308	461.69
347.535	460.69
347.763	460.69
347.99	451.69
348.218	442.69
348.445	469.69
348.673	448.69
348.9	466.69
349.128	426.69
349.355	422.69
349.583	452.69
349.81	456.69
350.037	439.69
350.265	423.69
350.492	453.69
350.72	453.69
350.947	448.69
351.174	466.69
351.402	486.69
351.629	438.69
351.856	450.69
352.083	466.69
352.311	449.69
352.538	443.69
352.765	470.69
352.992	464.69
353.22	430.69
353.447	436.69
353.674	444.69
353.901	419.69
354.128	449.69
354.355	401.69
354.583	435.69
354.81	407.69
355.037	400.69
355.264	385.69
355.491	405.69
355.718	380.69
355.945	412.69
356.172	400.69
356.399	391.69
356.626	414.69
356.853	403.69
357.08	396.69
357.307	393.69
357.534	409.69
357.761	411.69
357.988	406.69
358.215	415.69
358.441	422.69
358.668	407.69
358.895	431.69
359.122	393.69
359.349	421.69
359.576	441.69
359.802	459.69
360.029	493.69
360.256	507.69
360.483	478.69
360.709	428.69
360.936	430.69
361.163	450.69
361.39	453.69
361.616	455.69
361.843	441.69
362.07	432.69
362.296	459.69
362.523	425.69
362.749	429.69
362.976	453.69
363.203	417.69
363.429	419.69
363.656	421.69
363.882	416.69
364.109	433.69
364.335	415.69
364.562	409.69
364.788	409.69
365.015	413.69
365.241	420.69
365.468	425.69
365.694	411.69
365.92	427.69
366.147	411.69
366.373	407.69
366.599	413.69
366.826	396.69
367.052	402.69
367.278	413.69
367.505	409.69
367.731	434.69
367.957	408.69
368.184	422.69
368.41	407.69
368.636	442.69
368.862	435.69
369.089	416.69
369.315	410.69
369.541	420.69
369.767	403.69
369.993	409.69
370.219	418.69
370.445	416.69
370.672	390.69
370.898	387.69
371.124	407.69
371.35	390.69
371.576	412.69
371.802	402.69
372.028	387.69
372.254	390.69
372.48	403.69
372.706	403.69
372.932	403.69
373.158	397.69
373.384	402.69
373.61	408.69
373.835	394.69
374.061	396.69
374.287	388.69
374.513	415.69
374.739	387.69
374.965	400.69
375.191	413.69
375.416	421.69
375.642	408.69
375.868	417.69
376.094	414.69
376.319	416.69
376.545	378.69
376.771	402.69
376.997	377.69
377.222	395.69
377.448	382.69
377.674	390.69
377.899	390.69
378.125	395.69
378.35	408.69
378.576	398.69
378.802	399.69
379.027	375.69
379.253	406.69
379.478	392.69
379.704	385.69
379.929	378.69
380.155	390.69
380.38	363.69
380.606	399.69
380.831	385.69
381.057	390.69
381.282	397.69
381.507	393.69
381.733	386.69
381.958	403.69
382.184	389.69
382.409	411.69
382.634	388.69
382.86	400.69
383.085	407.69
383.31	404.69
383.535	433.69
383.761	398.69
383.986	406.69
384.211	393.69
384.436	395.69
384.662	413.69
384.887	439.69
385.112	396.69
385.337	405.69
385.562	420.69
385.787	416.69
386.013	410.69
386.238	428.69
386.463	437.69
386.688	420.69
386.913	419.69
387.138	419.69
387.363	421.69
387.588	423.69
387.813	425.69
388.038	411.69
388.263	407.69
388.488	411.69
388.713	435.69
388.938	426.69
389.163	418.69
389.387	421.69
389.612	440.69
389.837	420.69
390.062	428.69
390.287	423.69
390.512	404.69
390.736	423.69
390.961	425.69
391.186	418.69
391.411	417.69
391.636	419.69
391.86	446.69
392.085	424.69
392.31	429.69
392.534	426.69
392.759	439.69
392.984	414.69
393.208	411.69
393.433	424.69
393.658	424.69
393.882	423.69
394.107	424.69
394.331	431.69
394.556	420.69
394.78	414.69
395.005	412.69
395.229	433.69
395.454	428.69
395.678	441.69
395.903	433.69
396.127	455.69
396.352	476.69
396.576	440.69
396.801	443.69
397.025	429.69
397.249	433.69
397.474	439.69
397.698	456.69
397.922	435.69
398.147	460.69
398.371	458.69
398.595	487.69
398.82	495.69
399.044	484.69
399.268	479.69
399.492	507.69
399.717	532.69
399.941	567.69
400.165	590.69
400.389	592.69
400.613	533.69
400.837	517.69
401.062	474.69
401.286	474.69
401.51	481.69
401.734	460.69
401.958	478.69
402.182	491.69
402.406	486.69
402.63	511.69
402.854	509.69
403.078	523.69
403.302	479.69
403.526	497.69
403.75	507.69
403.974	491.69
404.198	480.69
404.422	505.69
404.645	519.69
404.869	527.69
405.093	566.69
405.317	597.69
405.541	636.69
405.765	563.69
405.988	521.69
406.212	541.69
406.436	551.69
406.66	586.69
406.883	537.69
407.107	558.69
407.331	581.69
407.555	666.69
407.778	667.69
408.002	603.69
408.226	568.69
408.449	567.69
408.673	537.69
408.896	566.69
409.12	599.69
409.344	581.69
409.567	515.69
409.791	497.69
410.014	476.69
410.238	500.69
410.461	502.69
410.685	493.69
410.908	515.69
411.132	543.69
411.355	558.69
411.578	570.69
411.802	521.69
412.025	507.69
412.249	518.69
412.472	528.69
412.695	586.69
412.919	585.69
413.142	541.69
413.365	500.69
413.589	479.69
413.812	467.69
414.035	463.69
414.258	471.69
414.482	462.69
414.705	461.69
414.928	469.69
415.151	465.69
415.374	464.69
415.597	454.69
415.821	430.69
416.044	454.69
416.267	468.69
416.49	456.69
416.713	448.69
416.936	473.69
417.159	452.69
417.382	477.69
417.605	469.69
417.828	489.69
418.051	504.69
418.274	493.69
418.497	470.69
418.72	453.69
418.943	450.69
419.166	478.69
419.389	484.69
419.611	484.69
419.834	496.69
420.057	509.69
420.28	516.69
420.503	507.69
420.726	520.69
420.948	524.69
421.171	543.69
421.394	583.69
421.617	524.69
421.839	503.69
422.062	475.69
422.285	517.69
422.507	547.69
422.73	653.69
422.953	606.69
423.175	527.69
423.398	507.69
423.621	519.69
423.843	521.69
424.066	533.69
424.288	522.69
424.511	549.69
424.733	603.69
424.956	699.69
425.178	640.69
425.401	661.69
425.623	665.69
425.846	579.69
426.068	550.69
426.291	570.69
426.513	504.69
426.735	547.69
426.958	582.69
427.18	687.69
427.402	797.69
427.625	886.69
427.847	798.69
428.069	699.69
428.292	610.69
428.514	541.69
428.736	516.69
428.958	514.69
429.181	489.69
429.403	481.69
429.625	503.69
429.847	515.69
430.069	616.69
430.292	610.69
430.514	517.69
430.736	497.69
430.958	476.69
431.18	461.69
431.402	451.69
431.624	444.69
431.846	441.69
432.068	437.69
432.29	462.69
432.512	479.69
432.734	461.69
432.956	466.69
433.178	488.69
433.4	492.69
433.622	456.69
433.844	475.69
434.066	461.69
434.287	451.69
434.509	465.69
434.731	472.69
434.953	481.69
435.175	497.69
435.397	530.69
435.618	509.69
435.84	582.69
436.062	685.69
436.284	747.69
436.505	625.69
436.727	568.69
436.949	507.69
437.17	499.69
437.392	473.69
437.614	508.69
437.835	550.69
438.057	666.69
438.278	772.69
438.5	775.69
438.721	823.69
438.943	808.69
439.165	607.69
439.386	565.69
439.608	556.69
439.829	554.69
440.05	578.69
440.272	654.69
440.493	585.69
440.715	525.69
440.936	521.69
441.158	515.69
441.379	504.69
441.6	491.69
441.822	537.69
442.043	588.69
442.264	663.69
442.486	711.69
442.707	614.69
442.928	565.69
443.149	549.69
443.371	585.69
443.592	636.69
443.813	731.69
444.034	798.69
444.255	667.69
444.476	554.69
444.698	541.69
444.919	520.69
445.14	645.69
445.361	611.69
445.582	583.69
445.803	660.69
446.024	767.69
446.245	769.69
446.466	693.69
446.687	571.69
446.908	558.69
447.129	535.69
447.35	497.69
447.571	470.69
447.792	490.69
448.013	502.69
448.234	530.69
448.455	575.69
448.675	709.69
448.896	787.69
449.117	703.69
449.338	645.69
449.559	748.69
449.779	845.69
450	693.69
450.221	567.69
450.442	507.69
450.662	473.69
450.883	482.69
451.104	485.69
451.324	500.69
451.545	490.69
451.766	457.69
451.986	428.69
452.207	440.69
452.428	430.69
452.648	430.69
452.869	468.69
453.089	454.69
453.31	473.69
453.53	446.69
453.751	452.69
453.971	463.69
454.192	494.69
454.412	457.69
454.633	457.69
454.853	429.69
455.073	461.69
455.294	484.69
455.514	536.69
455.734	517.69
455.955	447.69
456.175	422.69
456.395	437.69
456.616	399.69
456.836	430.69
457.056	406.69
457.276	398.69
457.497	430.69
457.717	425.69
457.937	433.69
458.157	418.69
458.377	431.69
458.598	447.69
458.818	509.69
459.038	617.69
459.258	622.69
459.478	527.69
459.698	475.69
459.918	457.69
460.138	453.69
460.358	444.69
460.578	477.69
460.798	440.69
461.018	461.69
461.238	467.69
461.458	474.69
461.678	449.69
461.898	452.69
462.118	460.69
462.338	463.69
462.558	470.69
462.777	461.69
462.997	467.69
463.217	492.69
463.437	499.69
463.657	494.69
463.876	475.69
464.096	479.69
464.316	479.69
464.536	479.69
464.755	484.69
464.975	518.69
465.195	562.69
465.414	610.69
465.634	556.69
465.854	489.69
466.073	486.69
466.293	447.69
466.512	441.69
466.732	438.69
466.951	438.69
467.171	436.69
467.391	442.69
467.61	459.69
467.829	467.69
468.049	466.69
468.268	453.69
468.488	438.69
468.707	442.69
468.927	440.69
469.146	411.69
469.365	434.69
469.585	421.69
469.804	437.69
470.023	459.69
470.243	451.69
470.462	456.69
470.681	488.69
470.901	454.69
471.12	452.69
471.339	436.69
471.558	463.69
471.777	450.69
471.997	441.69
472.216	477.69
472.435	539.69
472.654	502.69
472.873	459.69
473.092	482.69
473.311	469.69
473.53	468.69
473.749	472.69
473.968	513.69
474.187	637.69
474.406	655.69
474.625	515.69
474.844	485.69
475.063	465.69
475.282	442.69
475.501	441.69
475.72	458.69
475.939	462.69
476.158	469.69
476.377	470.69
476.596	477.69
476.814	458.69
477.033	475.69
477.252	472.69
477.471	478.69
477.69	479.69
477.908	485.69
478.127	479.69
478.346	478.69
478.564	477.69
478.783	506.69
479.002	480.69
479.22	491.69
479.439	523.69
479.658	541.69
479.876	546.69
480.095	577.69
480.313	592.69
480.532	569.69
480.751	548.69
480.969	576.69
481.188	652.69
481.406	718.69
481.624	609.69
481.843	576.69
482.061	569.69
482.28	547.69
482.498	542.69
482.717	525.69
482.935	553.69
483.153	519.69
483.372	538.69
483.59	546.69
483.808	527.69
484.027	537.69
484.245	526.69
484.463	548.69
484.681	546.69
484.9	543.69
485.118	549.69
485.336	554.69
485.554	557.69
485.772	562.69
485.99	532.69
486.209	543.69
486.427	554.69
486.645	558.69
486.863	589.69
487.081	589.69
487.299	602.69
487.517	575.69
487.735	557.69
487.953	567.69
488.171	550.69
488.389	573.69
488.607	585.69
488.825	569.69
489.043	582.69
489.261	590.69
489.479	593.69
489.696	585.69
489.914	580.69
490.132	583.69
490.35	617.69
490.568	637.69
490.786	633.69
491.003	630.69
491.221	651.69
491.439	664.69
491.657	663.69
491.874	647.69
492.092	673.69
492.31	674.69
492.527	673.69
492.745	666.69
492.963	669.69
493.18	679.69
493.398	657.69
493.615	688.69
493.833	693.69
494.05	680.69
494.268	674.69
494.485	701.69
494.703	691.69
494.92	685.69
495.138	651.69
495.355	681.69
495.573	685.69
495.79	697.69
496.008	663.69
496.225	681.69
496.442	709.69
496.66	683.69
496.877	694.69
497.094	682.69
497.312	653.69
497.529	699.69
497.746	712.69
497.963	725.69
498.181	718.69
498.398	751.69
498.615	748.69
498.832	777.69
499.049	757.69
499.267	777.69
499.484	809.69
499.701	815.69
499.918	828.69
500.135	863.69
500.352	849.69
500.569	873.69
500.786	884.69
501.003	878.69
501.22	883.69
501.437	866.69
501.654	840.69
501.871	856.69
502.088	809.69
502.305	769.69
502.522	779.69
502.739	746.69
502.956	729.69
503.172	702.69
503.389	681.69
503.606	689.69
503.823	729.69
504.04	710.69
504.256	699.69
504.473	699.69
504.69	659.69
504.907	682.69
505.123	683.69
505.34	633.69
505.557	652.69
505.773	650.69
505.99	635.69
506.207	655.69
506.423	671.69
506.64	662.69
506.856	673.69
507.073	622.69
507.289	648.69
507.506	645.69
507.722	648.69
507.939	677.69
508.155	638.69
508.372	624.69
508.588	614.69
508.805	613.69
509.021	615.69
509.238	635.69
509.454	662.69
509.67	657.69
509.887	635.69
510.103	630.69
510.319	633.69
510.536	750.69
510.752	1289.69
510.968	1046.69
511.184	650.69
511.401	639.69
511.617	629.69
511.833	596.69
512.049	599.69
512.265	579.69
512.481	606.69
512.698	580.69
512.914	622.69
513.13	610.69
513.346	588.69
513.562	567.69
513.778	630.69
513.994	597.69
514.21	611.69
514.426	666.69
514.642	687.69
514.858	739.69
515.074	783.69
515.29	937.69
515.506	1383.69
515.721	1147.69
515.937	727.69
516.153	677.69
516.369	634.69
516.585	626.69
516.801	618.69
517.016	609.69
517.232	591.69
517.448	620.69
517.664	616.69
517.879	602.69
518.095	605.69
518.311	601.69
518.527	571.69
518.742	573.69
518.958	602.69
519.173	602.69
519.389	579.69
519.605	595.69
519.82	594.69
520.036	621.69
520.251	628.69
520.467	663.69
520.682	671.69
520.898	669.69
521.113	693.69
521.329	760.69
521.544	866.69
521.76	1092.69
521.975	1837.69
522.19	1845.69
522.406	966.69
522.621	717.69
522.836	650.69
523.052	619.69
523.267	598.69
523.482	540.69
523.698	542.69
523.913	545.69
524.128	540.69
524.343	533.69
524.559	516.69
524.774	504.69
524.989	536.69
525.204	541.69
525.419	537.69
525.634	523.69
525.849	514.69
526.064	502.69
526.28	489.69
526.495	488.69
526.71	471.69
526.925	460.69
527.14	476.69
527.355	489.69
527.57	482.69
527.785	495.69
527.999	474.69
528.214	477.69
528.429	487.69
528.644	485.69
528.859	470.69
529.074	480.69
529.289	503.69
529.503	620.69
529.718	589.69
529.933	516.69
530.148	492.69
530.363	472.69
530.577	504.69
530.792	477.69
531.007	463.69
531.221	477.69
531.436	464.69
531.651	458.69
531.865	487.69
532.08	462.69
532.295	473.69
532.509	460.69
532.724	451.69
532.938	457.69
533.153	466.69
533.367	453.69
533.582	463.69
533.796	448.69
534.011	455.69
534.225	465.69
534.44	434.69
534.654	450.69
534.868	441.69
535.083	442.69
535.297	433.69
535.511	460.69
535.726	465.69
535.94	468.69
536.154	459.69
536.369	445.69
536.583	447.69
536.797	445.69
537.011	420.69
537.225	444.69
537.44	408.69
537.654	441.69
537.868	417.69
538.082	419.69
538.296	434.69
538.51	443.69
538.724	443.69
538.938	419.69
539.153	462.69
539.367	423.69
539.581	437.69
539.795	425.69
540.009	441.69
540.222	433.69
540.436	449.69
540.65	441.69
540.864	415.69
541.078	439.69
541.292	451.69
541.506	444.69
541.72	429.69
541.934	414.69
542.147	414.69
542.361	415.69
542.575	411.69
542.789	417.69
543.002	425.69
543.216	431.69
543.43	432.69
543.644	437.69
543.857	431.69
544.071	450.69
544.285	450.69
544.498	436.69
544.712	434.69
544.925	419.69
545.139	414.69
545.352	421.69
545.566	416.69
545.779	401.69
545.993	405.69
546.206	422.69
546.42	431.69
546.633	442.69
546.847	415.69
547.06	424.69
547.274	398.69
547.487	410.69
547.7	399.69
547.914	405.69
548.127	404.69
548.34	424.69
548.554	399.69
548.767	411.69
548.98	412.69
549.193	418.69
549.407	400.69
549.62	421.69
549.833	433.69
550.046	406.69
550.259	409.69
550.473	405.69
550.686	404.69
550.899	405.69
551.112	409.69
551.325	421.69
551.538	416.69
551.751	399.69
551.964	383.69
552.177	407.69
552.39	393.69
552.603	385.69
552.816	415.69
553.029	413.69
553.242	436.69
553.455	401.69
553.667	411.69
553.88	436.69
554.093	414.69
554.306	429.69
554.519	399.69
554.732	397.69
554.944	401.69
555.157	405.69
555.37	383.69
555.583	381.69
555.795	364.69
556.008	377.69
556.221	399.69
556.433	390.69
556.646	369.69
556.859	380.69
557.071	381.69
557.284	378.69
557.496	373.69
557.709	362.69
557.921	360.69
558.134	381.69
558.346	372.69
558.559	369.69
558.771	383.69
558.984	342.69
559.196	348.69
559.409	357.69
559.621	362.69
559.833	350.69
560.046	363.69
560.258	364.69
560.47	356.69
560.683	366.69
560.895	359.69
561.107	355.69
561.32	358.69
561.532	367.69
561.744	381.69
561.956	353.69
562.168	348.69
562.381	386.69
562.593	362.69
562.805	355.69
563.017	356.69
563.229	373.69
563.441	369.69
563.653	376.69
563.865	364.69
564.077	363.69
564.289	361.69
564.501	371.69
564.713	359.69
564.925	364.69
565.137	377.69
565.349	375.69
565.561	381.69
565.773	401.69
565.985	373.69
566.197	404.69
566.408	370.69
566.62	413.69
566.832	412.69
567.044	400.69
567.255	450.69
567.467	431.69
567.679	447.69
567.891	440.69
568.102	426.69
568.314	431.69
568.526	422.69
568.737	437.69
568.949	401.69
569.161	374.69
569.372	366.69
569.584	365.69
569.795	350.69
570.007	381.69
570.218	407.69
570.43	419.69
570.641	366.69
570.853	348.69
571.064	346.69
571.276	341.69
571.487	337.69
571.698	335.69
571.91	340.69
572.121	323.69
572.333	329.69
572.544	341.69
572.755	329.69
572.966	313.69
573.178	326.69
573.389	334.69
573.6	323.69
573.811	325.69
574.023	314.69
574.234	335.69
574.445	315.69
574.656	327.69
574.867	306.69
575.078	317.69
575.289	291.69
575.501	323.69
575.712	314.69
575.923	323.69
576.134	310.69
576.345	308.69
576.556	301.69
576.767	317.69
576.978	314.69
577.188	302.69
577.399	311.69
577.61	306.69
577.821	299.69
578.032	329.69
578.243	349.69
578.454	589.69
578.665	449.69
578.875	322.69
579.086	309.69
579.297	291.69
579.508	317.69
579.718	300.69
579.929	307.69
580.14	301.69
580.35	296.69
580.561	281.69
580.772	285.69
580.982	297.69
581.193	290.69
581.403	296.69
581.614	297.69
581.825	299.69
582.035	277.69
582.246	294.69
582.456	295.69
582.667	287.69
582.877	285.69
583.087	283.69
583.298	277.69
583.508	270.69
583.719	277.69
583.929	275.69
584.139	297.69
584.35	261.69
584.56	289.69
584.77	278.69
584.981	295.69
585.191	282.69
585.401	291.69
585.611	266.69
585.821	287.69
586.032	280.69
586.242	276.69
586.452	293.69
586.662	296.69
586.872	279.69
587.082	254.69
587.292	283.69
587.502	267.69
587.713	274.69
587.923	284.69
588.133	274.69
588.343	266.69
588.553	268.69
588.762	259.69
588.972	297.69
589.182	272.69
589.392	273.69
589.602	272.69
589.812	281.69
590.022	265.69
590.232	263.69
590.441	270.69
590.651	281.69
590.861	270.69
591.071	266.69
591.281	294.69
591.49	277.69
591.7	289.69
591.91	279.69
592.119	275.69
592.329	277.69
592.539	283.69
592.748	282.69
592.958	277.69
593.167	279.69
593.377	271.69
593.587	295.69
593.796	274.69
594.006	276.69
594.215	265.69
594.424	269.69
594.634	265.69
594.843	283.69
595.053	281.69
595.262	274.69
595.472	259.69
595.681	252.69
595.89	252.69
596.1	257.69
596.309	253.69
596.518	249.69
596.727	259.69
596.937	266.69
597.146	263.69
597.355	263.69
597.564	251.69
597.774	258.69
597.983	244.69
598.192	260.69
598.401	252.69
598.61	259.69
598.819	253.69
599.028	251.69
599.237	237.69
599.446	231.69
599.655	250.69
599.864	245.69
600.073	246.69
600.282	236.69
600.491	233.69
600.7	243.69
600.909	250.69
601.118	255.69
601.327	247.69
601.536	250.69
601.745	256.69
601.953	257.69
602.162	244.69
602.371	244.69
602.58	242.69
602.789	219.69
602.997	247.69
603.206	258.69
603.415	244.69
603.623	238.69
603.832	238.69
604.041	218.69
604.249	226.69
604.458	237.69
604.666	250.69
604.875	227.69
605.084	224.69
605.292	233.69
605.501	250.69
605.709	231.69
605.918	214.69
606.126	238.69
606.334	232.69
606.543	234.69
606.751	227.69
606.96	222.69
607.168	235.69
607.376	213.69
607.585	234.69
607.793	222.69
608.001	229.69
608.21	217.69
608.418	228.69
608.626	218.69
608.834	217.69
609.043	226.69
609.251	220.69
609.459	221.69
609.667	218.69
609.875	228.69
610.083	233.69
610.291	236.69
610.499	228.69
610.707	219.69
610.916	228.69
611.124	219.69
611.332	225.69
611.54	217.69
611.748	233.69
611.955	230.69
612.163	224.69
612.371	225.69
612.579	226.69
612.787	227.69
612.995	226.69
613.203	228.69
613.411	214.69
613.618	228.69
613.826	222.69
614.034	227.69
614.242	224.69
614.449	233.69
614.657	211.69
614.865	208.69
615.072	230.69
615.28	222.69
615.488	227.69
615.695	204.69
615.903	233.69
616.111	223.69
616.318	227.69
616.526	221.69
616.733	221.69
616.941	214.69
617.148	224.69
617.356	237.69
617.563	217.69
617.771	231.69
617.978	230.69
618.185	227.69
618.393	224.69
618.6	225.69
618.807	222.69
619.015	208.69
619.222	227.69
619.429	206.69
619.637	227.69
619.844	214.69
620.051	200.69
620.258	217.69
620.466	201.69
620.673	212.69
620.88	206.69
621.087	202.69
621.294	241.69
621.501	226.69
621.708	217.69
621.915	198.69
622.122	215.69
622.329	203.69
622.536	210.69
622.743	207.69
622.95	212.69
623.157	197.69
623.364	203.69
623.571	213.69
623.778	196.69
623.985	195.69
624.192	210.69
624.399	188.69
624.606	197.69
624.812	220.69
625.019	213.69
625.226	175.69
625.433	195.69
625.639	199.69
625.846	203.69
626.053	192.69
626.259	201.69
626.466	188.69
626.673	205.69
626.879	185.69
627.086	201.69
627.293	209.69
627.499	190.69
627.706	186.69
627.912	188.69
628.119	194.69
628.325	213.69
628.532	189.69
628.738	190.69
628.945	186.69
629.151	191.69
629.357	203.69
629.564	200.69
629.77	201.69
629.976	189.69
630.183	192.69
630.389	202.69
630.595	174.69
630.802	173.69
631.008	191.69
631.214	183.69
631.42	194.69
631.627	186.69
631.833	191.69
632.039	194.69
632.245	171.69
632.451	184.69
632.657	180.69
632.863	183.69
633.069	179.69
633.275	170.69
633.481	189.69
633.688	181.69
633.893	186.69
634.099	202.69
634.305	167.69
634.511	179.69
634.717	173.69
634.923	160.69
635.129	172.69
635.335	184.69
635.541	186.69
635.747	180.69
635.952	182.69
636.158	185.69
636.364	190.69
636.57	199.69
636.775	189.69
636.981	170.69
637.187	179.69
637.392	172.69
637.598	180.69
637.804	185.69
638.009	188.69
638.215	181.69
638.421	179.69
638.626	166.69
638.832	176.69
639.037	164.69
639.243	161.69
639.448	166.69
639.654	170.69
639.859	171.69
640.065	171.69
640.27	175.69
640.475	170.69
640.681	165.69
640.886	163.69
641.091	161.69
641.297	164.69
641.502	174.69
641.707	154.69
641.913	164.69
642.118	181.69
642.323	161.69
642.528	156.69
642.733	153.69
642.939	165.69
643.144	159.69
643.349	161.69
643.554	140.69
643.759	157.69
643.964	172.69
644.169	157.69
644.374	150.69
644.579	159.69
644.784	156.69
644.989	158.69
645.194	159.69
645.399	173.69
645.604	164.69
645.809	168.69
646.014	151.69
646.219	159.69
646.423	159.69
646.628	155.69
646.833	166.69
647.038	151.69
647.243	178.69
647.447	149.69
647.652	157.69
647.857	156.69
648.062	166.69
648.266	168.69
648.471	161.69
648.676	165.69
648.88	151.69
649.085	151.69
649.289	163.69
649.494	181.69
649.698	188.69
649.903	183.69
650.107	166.69
650.312	157.69
650.516	165.69
650.721	151.69
650.925	147.69
651.13	148.69
651.334	167.69
651.539	144.69
651.743	149.69
651.947	154.69
652.152	148.69
652.356	155.69
652.56	153.69
652.764	135.69
652.969	138.69
653.173	131.69
653.377	142.69
653.581	130.69
653.785	127.69
653.99	144.69
654.194	133.69
654.398	128.69
654.602	132.69
654.806	146.69
655.01	149.69
655.214	131.69
655.418	135.69
655.622	147.69
655.826	134.69
656.03	132.69
656.234	146.69
656.438	129.69
656.642	131.69
656.846	131.69
657.049	135.69
657.253	133.69
657.457	119.69
657.661	117.69
657.865	112.69
658.068	105.69
658.272	99.69
658.476	117.69
658.68	93.69
658.883	100.69
659.087	93.69
659.291	113.69
659.494	115.69
659.698	117.69
659.901	97.69
660.105	95.69
660.309	92.69
660.512	99.69
660.716	114.69
660.919	91.69
661.123	99.69
661.326	102.69
661.53	78.69
661.733	85.69
661.936	81.69
662.14	95.69
662.343	87.69
662.546	79.69
662.75	94.69
662.953	96.69
663.156	87.69
663.36	90.69
663.563	99.69
663.766	99.69
663.969	94.69
664.173	97.69
664.376	88.69
664.579	85.69
664.782	75.69
664.985	85.69
665.188	82.69
665.391	84.69
665.594	92.69
665.797	73.69
666	97.69
666.203	71.69
666.406	74.69
666.609	89.69
666.812	88.69
667.015	91.69
667.218	86.69
667.421	78.69
667.624	85.69
667.827	100.69
668.03	86.69
668.232	77.69
668.435	85.69
668.638	81.69
668.841	78.69
669.043	83.69
669.246	85.69
669.449	78.69
669.651	73.69
669.854	81.69
670.057	76.69
670.259	95.69
670.462	86.69
670.665	79.69
670.867	80.69
671.07	105.69
671.272	85.69
671.475	88.69
671.677	77.69
671.88	89.69
672.082	76.69
672.284	83.69
672.487	72.69
672.689	79.69
672.892	79.69
