Data from 1989.PennyLincolnUp.Lamp.En5.5.200Scan.071819.P2_HRD10591_17-25-45-974.txt Node
Date: Thu Jul 18 17:25:45 EDT 2019
User: cochatt
Spectrometer: HR+D1059
Trigger mode: 1
Integration Time (sec): 1.000000E-1
Scans to average: 1
Electric dark correction enabled: true
Nonlinearity correction enabled: false
Boxcar width: 0
XAxis mode: Wavelengths
Number of Pixels in Spectrum: 2048
>>>>>Begin Spectral Data<<<<<
223.165	-11.25
223.4	-11.25
223.635	-11.25
223.869	-11.25
224.104	-22.25
224.338	-7.25
224.573	-26.25
224.808	-19.25
225.042	0.75
225.277	-8.25
225.511	12.75
225.746	6.75
225.98	2.75
226.215	1.75
226.449	10.75
226.683	36.75
226.918	8.75
227.152	24.75
227.387	42.75
227.621	38.75
227.856	34.75
228.09	41.75
228.324	58.75
228.559	57.75
228.793	64.75
229.027	100.75
229.262	107.75
229.496	115.75
229.73	146.75
229.964	157.75
230.199	141.75
230.433	115.75
230.667	121.75
230.901	108.75
231.136	121.75
231.37	121.75
231.604	109.75
231.838	103.75
232.072	128.75
232.306	121.75
232.541	123.75
232.775	109.75
233.009	114.75
233.243	116.75
233.477	126.75
233.711	115.75
233.945	121.75
234.179	121.75
234.413	130.75
234.647	109.75
234.881	115.75
235.115	131.75
235.349	124.75
235.583	135.75
235.817	124.75
236.051	125.75
236.285	126.75
236.519	132.75
236.753	146.75
236.987	167.75
237.221	210.75
237.455	261.75
237.689	209.75
237.922	146.75
238.156	161.75
238.39	143.75
238.624	137.75
238.858	130.75
239.091	130.75
239.325	130.75
239.559	136.75
239.793	139.75
240.027	134.75
240.26	150.75
240.494	178.75
240.728	165.75
240.961	175.75
241.195	159.75
241.429	140.75
241.662	138.75
241.896	140.75
242.13	150.75
242.363	143.75
242.597	142.75
242.83	152.75
243.064	144.75
243.298	139.75
243.531	135.75
243.765	162.75
243.998	143.75
244.232	153.75
244.465	149.75
244.699	169.75
244.932	151.75
245.166	158.75
245.399	138.75
245.633	148.75
245.866	151.75
246.099	160.75
246.333	162.75
246.566	173.75
246.8	149.75
247.033	156.75
247.266	156.75
247.5	173.75
247.733	191.75
247.966	175.75
248.2	188.75
248.433	208.75
248.666	182.75
248.899	194.75
249.133	215.75
249.366	225.75
249.599	215.75
249.832	212.75
250.066	207.75
250.299	237.75
250.532	210.75
250.765	227.75
250.998	257.75
251.231	281.75
251.465	239.75
251.698	229.75
251.931	207.75
252.164	206.75
252.397	227.75
252.63	232.75
252.863	231.75
253.096	252.75
253.329	231.75
253.562	257.75
253.795	257.75
254.028	244.75
254.261	257.75
254.494	260.75
254.727	280.75
254.96	298.75
255.193	311.75
255.426	284.75
255.659	269.75
255.892	263.75
256.124	271.75
256.357	283.75
256.59	264.75
256.823	250.75
257.056	262.75
257.289	237.75
257.521	252.75
257.754	234.75
257.987	247.75
258.22	230.75
258.452	227.75
258.685	225.75
258.918	221.75
259.151	240.75
259.383	230.75
259.616	245.75
259.849	254.75
260.081	261.75
260.314	275.75
260.547	293.75
260.779	258.75
261.012	251.75
261.244	255.75
261.477	258.75
261.71	254.75
261.942	261.75
262.175	266.75
262.407	275.75
262.64	248.75
262.872	221.75
263.105	230.75
263.337	238.75
263.57	239.75
263.802	247.75
264.035	204.75
264.267	222.75
264.499	227.75
264.732	232.75
264.964	233.75
265.197	233.75
265.429	231.75
265.661	226.75
265.894	223.75
266.126	245.75
266.358	248.75
266.591	237.75
266.823	243.75
267.055	263.75
267.287	265.75
267.52	241.75
267.752	268.75
267.984	244.75
268.216	252.75
268.448	257.75
268.681	264.75
268.913	266.75
269.145	287.75
269.377	315.75
269.609	315.75
269.841	303.75
270.073	300.75
270.306	311.75
270.538	347.75
270.77	353.75
271.002	335.75
271.234	344.75
271.466	345.75
271.698	341.75
271.93	354.75
272.162	346.75
272.394	355.75
272.626	330.75
272.858	317.75
273.09	326.75
273.322	297.75
273.553	298.75
273.785	293.75
274.017	290.75
274.249	297.75
274.481	297.75
274.713	291.75
274.945	284.75
275.176	296.75
275.408	287.75
275.64	303.75
275.872	281.75
276.104	303.75
276.335	302.75
276.567	300.75
276.799	324.75
277.031	323.75
277.262	360.75
277.494	363.75
277.726	330.75
277.957	316.75
278.189	328.75
278.421	307.75
278.652	285.75
278.884	289.75
279.115	300.75
279.347	314.75
279.579	295.75
279.81	296.75
280.042	297.75
280.273	284.75
280.505	284.75
280.736	270.75
280.968	280.75
281.199	284.75
281.431	297.75
281.662	307.75
281.894	294.75
282.125	297.75
282.356	309.75
282.588	327.75
282.819	349.75
283.051	297.75
283.282	316.75
283.513	293.75
283.745	311.75
283.976	301.75
284.207	311.75
284.439	299.75
284.67	295.75
284.901	315.75
285.132	313.75
285.364	300.75
285.595	307.75
285.826	294.75
286.057	309.75
286.288	313.75
286.52	299.75
286.751	303.75
286.982	312.75
287.213	299.75
287.444	301.75
287.675	317.75
287.906	308.75
288.138	337.75
288.369	331.75
288.6	334.75
288.831	320.75
289.062	316.75
289.293	331.75
289.524	302.75
289.755	302.75
289.986	315.75
290.217	318.75
290.448	310.75
290.679	299.75
290.91	321.75
291.141	302.75
291.371	312.75
291.602	311.75
291.833	305.75
292.064	309.75
292.295	323.75
292.526	324.75
292.757	318.75
292.987	301.75
293.218	283.75
293.449	318.75
293.68	303.75
293.91	307.75
294.141	294.75
294.372	296.75
294.603	322.75
294.833	301.75
295.064	318.75
295.295	315.75
295.525	314.75
295.756	309.75
295.987	314.75
296.217	352.75
296.448	370.75
296.679	339.75
296.909	319.75
297.14	324.75
297.37	318.75
297.601	330.75
297.831	329.75
298.062	319.75
298.292	318.75
298.523	338.75
298.753	323.75
298.984	329.75
299.214	326.75
299.445	339.75
299.675	329.75
299.905	315.75
300.136	325.75
300.366	335.75
300.597	325.75
300.827	331.75
301.057	327.75
301.288	334.75
301.518	343.75
301.748	367.75
301.979	348.75
302.209	362.75
302.439	347.75
302.669	340.75
302.9	347.75
303.13	335.75
303.36	347.75
303.59	357.75
303.82	354.75
304.051	362.75
304.281	347.75
304.511	340.75
304.741	341.75
304.971	366.75
305.201	337.75
305.431	351.75
305.661	356.75
305.891	343.75
306.121	347.75
306.352	360.75
306.582	347.75
306.812	370.75
307.042	363.75
307.272	349.75
307.502	342.75
307.731	342.75
307.961	366.75
308.191	365.75
308.421	343.75
308.651	374.75
308.881	387.75
309.111	361.75
309.341	374.75
309.571	375.75
309.8	386.75
310.03	399.75
310.26	410.75
310.49	424.75
310.72	419.75
310.949	420.75
311.179	415.75
311.409	417.75
311.639	385.75
311.868	429.75
312.098	417.75
312.328	417.75
312.557	425.75
312.787	463.75
313.017	443.75
313.246	424.75
313.476	394.75
313.706	421.75
313.935	406.75
314.165	421.75
314.394	427.75
314.624	453.75
314.853	424.75
315.083	435.75
315.312	423.75
315.542	407.75
315.771	390.75
316.001	392.75
316.23	397.75
316.46	398.75
316.689	423.75
316.919	407.75
317.148	413.75
317.377	412.75
317.607	410.75
317.836	390.75
318.065	400.75
318.295	413.75
318.524	406.75
318.753	417.75
318.983	435.75
319.212	411.75
319.441	421.75
319.67	396.75
319.9	435.75
320.129	409.75
320.358	399.75
320.587	410.75
320.816	414.75
321.046	423.75
321.275	444.75
321.504	452.75
321.733	433.75
321.962	453.75
322.191	476.75
322.42	463.75
322.649	489.75
322.878	518.75
323.108	509.75
323.337	546.75
323.566	565.75
323.795	596.75
324.024	675.75
324.253	801.75
324.482	1132.75
324.71	1793.75
324.939	2611.75
325.168	2243.75
325.397	1135.75
325.626	754.75
325.855	616.75
326.084	568.75
326.313	550.75
326.542	583.75
326.77	636.75
326.999	759.75
327.228	1048.75
327.457	1554.75
327.686	1918.75
327.914	1290.75
328.143	839.75
328.372	739.75
328.6	674.75
328.829	638.75
329.058	639.75
329.287	684.75
329.515	619.75
329.744	577.75
329.972	581.75
330.201	604.75
330.43	645.75
330.658	677.75
330.887	704.75
331.115	691.75
331.344	583.75
331.572	540.75
331.801	569.75
332.03	544.75
332.258	519.75
332.486	499.75
332.715	466.75
332.943	480.75
333.172	486.75
333.4	487.75
333.629	502.75
333.857	524.75
334.085	535.75
334.314	546.75
334.542	612.75
334.771	594.75
334.999	553.75
335.227	525.75
335.455	501.75
335.684	494.75
335.912	494.75
336.14	455.75
336.369	473.75
336.597	481.75
336.825	494.75
337.053	470.75
337.281	455.75
337.51	459.75
337.738	460.75
337.966	448.75
338.194	464.75
338.422	470.75
338.65	463.75
338.878	443.75
339.106	449.75
339.334	445.75
339.562	436.75
339.79	438.75
340.018	452.75
340.246	457.75
340.474	474.75
340.702	462.75
340.93	450.75
341.158	463.75
341.386	475.75
341.614	456.75
341.842	453.75
342.07	452.75
342.298	445.75
342.526	433.75
342.754	411.75
342.981	436.75
343.209	423.75
343.437	440.75
343.665	439.75
343.893	431.75
344.12	458.75
344.348	450.75
344.576	448.75
344.804	482.75
345.031	484.75
345.259	468.75
345.487	467.75
345.714	450.75
345.942	443.75
346.17	449.75
346.397	430.75
346.625	418.75
346.853	410.75
347.08	431.75
347.308	436.75
347.535	448.75
347.763	460.75
347.99	424.75
348.218	440.75
348.445	449.75
348.673	441.75
348.9	441.75
349.128	431.75
349.355	417.75
349.583	425.75
349.81	410.75
350.037	415.75
350.265	411.75
350.492	410.75
350.72	416.75
350.947	429.75
351.174	457.75
351.402	451.75
351.629	444.75
351.856	449.75
352.083	455.75
352.311	450.75
352.538	462.75
352.765	459.75
352.992	426.75
353.22	451.75
353.447	417.75
353.674	410.75
353.901	426.75
354.128	399.75
354.355	410.75
354.583	401.75
354.81	431.75
355.037	382.75
355.264	385.75
355.491	389.75
355.718	374.75
355.945	395.75
356.172	406.75
356.399	362.75
356.626	374.75
356.853	399.75
357.08	384.75
357.307	410.75
357.534	413.75
357.761	387.75
357.988	415.75
358.215	395.75
358.441	385.75
358.668	388.75
358.895	380.75
359.122	420.75
359.349	411.75
359.576	438.75
359.802	462.75
360.029	470.75
360.256	488.75
360.483	489.75
360.709	437.75
360.936	439.75
361.163	425.75
361.39	424.75
361.616	431.75
361.843	444.75
362.07	435.75
362.296	418.75
362.523	416.75
362.749	438.75
362.976	414.75
363.203	386.75
363.429	400.75
363.656	410.75
363.882	395.75
364.109	390.75
364.335	384.75
364.562	387.75
364.788	413.75
365.015	389.75
365.241	414.75
365.468	392.75
365.694	401.75
365.92	423.75
366.147	395.75
366.373	411.75
366.599	410.75
366.826	382.75
367.052	411.75
367.278	399.75
367.505	390.75
367.731	401.75
367.957	389.75
368.184	391.75
368.41	402.75
368.636	408.75
368.862	415.75
369.089	398.75
369.315	405.75
369.541	403.75
369.767	388.75
369.993	399.75
370.219	382.75
370.445	399.75
370.672	382.75
370.898	365.75
371.124	383.75
371.35	388.75
371.576	403.75
371.802	405.75
372.028	387.75
372.254	383.75
372.48	386.75
372.706	389.75
372.932	386.75
373.158	401.75
373.384	395.75
373.61	398.75
373.835	411.75
374.061	390.75
374.287	404.75
374.513	388.75
374.739	392.75
374.965	397.75
375.191	413.75
375.416	395.75
375.642	384.75
375.868	380.75
376.094	399.75
376.319	390.75
376.545	373.75
376.771	379.75
376.997	382.75
377.222	414.75
377.448	393.75
377.674	375.75
377.899	387.75
378.125	360.75
378.35	385.75
378.576	388.75
378.802	379.75
379.027	377.75
379.253	397.75
379.478	372.75
379.704	382.75
379.929	369.75
380.155	382.75
380.38	385.75
380.606	385.75
380.831	381.75
381.057	387.75
381.282	381.75
381.507	391.75
381.733	389.75
381.958	386.75
382.184	381.75
382.409	396.75
382.634	387.75
382.86	385.75
383.085	388.75
383.31	388.75
383.535	397.75
383.761	396.75
383.986	407.75
384.211	399.75
384.436	411.75
384.662	397.75
384.887	422.75
385.112	407.75
385.337	415.75
385.562	420.75
385.787	435.75
386.013	428.75
386.238	425.75
386.463	429.75
386.688	407.75
386.913	404.75
387.138	413.75
387.363	415.75
387.588	411.75
387.813	417.75
388.038	429.75
388.263	424.75
388.488	420.75
388.713	402.75
388.938	389.75
389.163	406.75
389.387	407.75
389.612	406.75
389.837	408.75
390.062	409.75
390.287	414.75
390.512	396.75
390.736	420.75
390.961	411.75
391.186	404.75
391.411	408.75
391.636	405.75
391.86	416.75
392.085	406.75
392.31	433.75
392.534	404.75
392.759	420.75
392.984	410.75
393.208	396.75
393.433	415.75
393.658	389.75
393.882	410.75
394.107	413.75
394.331	403.75
394.556	386.75
394.78	410.75
395.005	417.75
395.229	401.75
395.454	420.75
395.678	413.75
395.903	437.75
396.127	451.75
396.352	456.75
396.576	443.75
396.801	436.75
397.025	423.75
397.249	424.75
397.474	442.75
397.698	423.75
397.922	450.75
398.147	464.75
398.371	479.75
398.595	447.75
398.82	456.75
399.044	452.75
399.268	463.75
399.492	480.75
399.717	502.75
399.941	537.75
400.165	553.75
400.389	570.75
400.613	522.75
400.837	491.75
401.062	474.75
401.286	476.75
401.51	456.75
401.734	450.75
401.958	469.75
402.182	467.75
402.406	482.75
402.63	484.75
402.854	473.75
403.078	455.75
403.302	483.75
403.526	512.75
403.75	462.75
403.974	477.75
404.198	495.75
404.422	468.75
404.645	503.75
404.869	490.75
405.093	533.75
405.317	563.75
405.541	599.75
405.765	558.75
405.988	523.75
406.212	538.75
406.436	547.75
406.66	548.75
406.883	526.75
407.107	547.75
407.331	577.75
407.555	620.75
407.778	654.75
408.002	584.75
408.226	545.75
408.449	531.75
408.673	513.75
408.896	539.75
409.12	587.75
409.344	543.75
409.567	513.75
409.791	497.75
410.014	483.75
410.238	481.75
410.461	485.75
410.685	492.75
410.908	495.75
411.132	525.75
411.355	564.75
411.578	545.75
411.802	488.75
412.025	491.75
412.249	495.75
412.472	533.75
412.695	556.75
412.919	565.75
413.142	498.75
413.365	483.75
413.589	454.75
413.812	444.75
414.035	452.75
414.258	458.75
414.482	452.75
414.705	420.75
414.928	477.75
415.151	428.75
415.374	439.75
415.597	448.75
415.821	454.75
416.044	458.75
416.267	473.75
416.49	475.75
416.713	431.75
416.936	439.75
417.159	453.75
417.382	461.75
417.605	449.75
417.828	474.75
418.051	502.75
418.274	483.75
418.497	455.75
418.72	475.75
418.943	440.75
419.166	476.75
419.389	481.75
419.611	471.75
419.834	489.75
420.057	481.75
420.28	490.75
420.503	483.75
420.726	492.75
420.948	508.75
421.171	552.75
421.394	580.75
421.617	505.75
421.839	466.75
422.062	481.75
422.285	484.75
422.507	542.75
422.73	629.75
422.953	601.75
423.175	553.75
423.398	488.75
423.621	517.75
423.843	519.75
424.066	513.75
424.288	519.75
424.511	521.75
424.733	612.75
424.956	688.75
425.178	661.75
425.401	635.75
425.623	650.75
425.846	581.75
426.068	532.75
426.291	523.75
426.513	520.75
426.735	535.75
426.958	582.75
427.18	663.75
427.402	792.75
427.625	852.75
427.847	758.75
428.069	675.75
428.292	569.75
428.514	536.75
428.736	534.75
428.958	494.75
429.181	482.75
429.403	494.75
429.625	474.75
429.847	535.75
430.069	575.75
430.292	596.75
430.514	518.75
430.736	479.75
430.958	484.75
431.18	435.75
431.402	443.75
431.624	446.75
431.846	456.75
432.068	442.75
432.29	462.75
432.512	449.75
432.734	455.75
432.956	459.75
433.178	473.75
433.4	465.75
433.622	444.75
433.844	444.75
434.066	434.75
434.287	468.75
434.509	453.75
434.731	459.75
434.953	463.75
435.175	475.75
435.397	505.75
435.618	503.75
435.84	562.75
436.062	626.75
436.284	711.75
436.505	628.75
436.727	543.75
436.949	498.75
437.17	470.75
437.392	465.75
437.614	494.75
437.835	537.75
438.057	646.75
438.278	733.75
438.5	732.75
438.721	801.75
438.943	761.75
439.165	597.75
439.386	550.75
439.608	540.75
439.829	556.75
440.05	583.75
440.272	610.75
440.493	587.75
440.715	523.75
440.936	498.75
441.158	465.75
441.379	470.75
441.6	481.75
441.822	522.75
442.043	573.75
442.264	614.75
442.486	662.75
442.707	586.75
442.928	545.75
443.149	531.75
443.371	558.75
443.592	608.75
443.813	684.75
444.034	761.75
444.255	611.75
444.476	554.75
444.698	528.75
444.919	524.75
445.14	627.75
445.361	583.75
445.582	571.75
445.803	647.75
446.024	731.75
446.245	769.75
446.466	684.75
446.687	575.75
446.908	524.75
447.129	492.75
447.35	504.75
447.571	465.75
447.792	471.75
448.013	476.75
448.234	489.75
448.455	557.75
448.675	673.75
448.896	789.75
449.117	683.75
449.338	631.75
449.559	738.75
449.779	812.75
450	668.75
450.221	547.75
450.442	486.75
450.662	473.75
450.883	478.75
451.104	513.75
451.324	491.75
451.545	467.75
451.766	431.75
451.986	434.75
452.207	437.75
452.428	433.75
452.648	418.75
452.869	421.75
453.089	449.75
453.31	454.75
453.53	439.75
453.751	437.75
453.971	427.75
454.192	456.75
454.412	433.75
454.633	441.75
454.853	434.75
455.073	420.75
455.294	447.75
455.514	515.75
455.734	501.75
455.955	425.75
456.175	403.75
456.395	406.75
456.616	412.75
456.836	404.75
457.056	402.75
457.276	405.75
457.497	405.75
457.717	400.75
457.937	395.75
458.157	407.75
458.377	411.75
458.598	456.75
458.818	477.75
459.038	568.75
459.258	601.75
459.478	517.75
459.698	469.75
459.918	446.75
460.138	458.75
460.358	430.75
460.578	430.75
460.798	454.75
461.018	433.75
461.238	442.75
461.458	438.75
461.678	452.75
461.898	447.75
462.118	430.75
462.338	446.75
462.558	462.75
462.777	450.75
462.997	453.75
463.217	463.75
463.437	476.75
463.657	462.75
463.876	452.75
464.096	467.75
464.316	453.75
464.536	473.75
464.755	479.75
464.975	475.75
465.195	530.75
465.414	620.75
465.634	551.75
465.854	504.75
466.073	467.75
466.293	444.75
466.512	425.75
466.732	441.75
466.951	436.75
467.171	417.75
467.391	425.75
467.61	441.75
467.829	441.75
468.049	431.75
468.268	445.75
468.488	437.75
468.707	423.75
468.927	409.75
469.146	418.75
469.365	434.75
469.585	420.75
469.804	431.75
470.023	438.75
470.243	463.75
470.462	429.75
470.681	475.75
470.901	477.75
471.12	459.75
471.339	433.75
471.558	449.75
471.777	441.75
471.997	430.75
472.216	441.75
472.435	487.75
472.654	471.75
472.873	446.75
473.092	458.75
473.311	439.75
473.53	444.75
473.749	456.75
473.968	531.75
474.187	596.75
474.406	641.75
474.625	518.75
474.844	462.75
475.063	442.75
475.282	433.75
475.501	434.75
475.72	466.75
475.939	449.75
476.158	441.75
476.377	440.75
476.596	451.75
476.814	467.75
477.033	458.75
477.252	486.75
477.471	473.75
477.69	473.75
477.908	472.75
478.127	486.75
478.346	475.75
478.564	493.75
478.783	489.75
479.002	515.75
479.22	478.75
479.439	511.75
479.658	527.75
479.876	534.75
480.095	520.75
480.313	560.75
480.532	548.75
480.751	532.75
480.969	546.75
481.188	626.75
481.406	698.75
481.624	587.75
481.843	545.75
482.061	535.75
482.28	545.75
482.498	528.75
482.717	524.75
482.935	513.75
483.153	500.75
483.372	538.75
483.59	517.75
483.808	509.75
484.027	501.75
484.245	515.75
484.463	517.75
484.681	514.75
484.9	526.75
485.118	539.75
485.336	528.75
485.554	542.75
485.772	534.75
485.99	526.75
486.209	541.75
486.427	556.75
486.645	542.75
486.863	579.75
487.081	579.75
487.299	550.75
487.517	565.75
487.735	561.75
487.953	567.75
488.171	573.75
488.389	562.75
488.607	585.75
488.825	549.75
489.043	554.75
489.261	577.75
489.479	565.75
489.696	556.75
489.914	569.75
490.132	548.75
490.35	565.75
490.568	588.75
490.786	594.75
491.003	628.75
491.221	643.75
491.439	634.75
491.657	638.75
491.874	643.75
492.092	645.75
492.31	641.75
492.527	637.75
492.745	645.75
492.963	669.75
493.18	674.75
493.398	672.75
493.615	663.75
493.833	686.75
494.05	668.75
494.268	674.75
494.485	645.75
494.703	662.75
494.92	669.75
495.138	663.75
495.355	677.75
495.573	659.75
495.79	679.75
496.008	669.75
496.225	649.75
496.442	666.75
496.66	676.75
496.877	667.75
497.094	666.75
497.312	676.75
497.529	655.75
497.746	697.75
497.963	698.75
498.181	692.75
498.398	711.75
498.615	697.75
498.832	715.75
499.049	719.75
499.267	747.75
499.484	735.75
499.701	773.75
499.918	779.75
500.135	815.75
500.352	820.75
500.569	820.75
500.786	858.75
501.003	856.75
501.22	851.75
501.437	811.75
501.654	811.75
501.871	815.75
502.088	808.75
502.305	752.75
502.522	732.75
502.739	727.75
502.956	684.75
503.172	685.75
503.389	675.75
503.606	688.75
503.823	689.75
504.04	675.75
504.256	669.75
504.473	664.75
504.69	664.75
504.907	678.75
505.123	645.75
505.34	649.75
505.557	636.75
505.773	628.75
505.99	638.75
506.207	646.75
506.423	639.75
506.64	623.75
506.856	632.75
507.073	639.75
507.289	625.75
507.506	629.75
507.722	623.75
507.939	663.75
508.155	627.75
508.372	633.75
508.588	589.75
508.805	597.75
509.021	603.75
509.238	626.75
509.454	644.75
509.67	642.75
509.887	638.75
510.103	635.75
510.319	650.75
510.536	738.75
510.752	1209.75
510.968	997.75
511.184	641.75
511.401	611.75
511.617	599.75
511.833	610.75
512.049	594.75
512.265	563.75
512.481	582.75
512.698	559.75
512.914	559.75
513.13	581.75
513.346	581.75
513.562	587.75
513.778	572.75
513.994	590.75
514.21	599.75
514.426	621.75
514.642	679.75
514.858	701.75
515.074	744.75
515.29	899.75
515.506	1365.75
515.721	1084.75
515.937	737.75
516.153	656.75
516.369	638.75
516.585	610.75
516.801	603.75
517.016	606.75
517.232	587.75
517.448	591.75
517.664	601.75
517.879	593.75
518.095	594.75
518.311	586.75
518.527	561.75
518.742	577.75
518.958	586.75
519.173	578.75
519.389	576.75
519.605	573.75
519.82	582.75
520.036	627.75
520.251	602.75
520.467	635.75
520.682	627.75
520.898	655.75
521.113	695.75
521.329	737.75
521.544	834.75
521.76	1088.75
521.975	1827.75
522.19	1770.75
522.406	948.75
522.621	697.75
522.836	628.75
523.052	592.75
523.267	566.75
523.482	535.75
523.698	537.75
523.913	537.75
524.128	548.75
524.343	513.75
524.559	504.75
524.774	506.75
524.989	492.75
525.204	522.75
525.419	526.75
525.634	508.75
525.849	493.75
526.064	487.75
526.28	480.75
526.495	473.75
526.71	483.75
526.925	462.75
527.14	473.75
527.355	466.75
527.57	482.75
527.785	467.75
527.999	447.75
528.214	461.75
528.429	476.75
528.644	486.75
528.859	468.75
529.074	473.75
529.289	491.75
529.503	597.75
529.718	549.75
529.933	515.75
530.148	483.75
530.363	486.75
530.577	462.75
530.792	472.75
531.007	449.75
531.221	464.75
531.436	462.75
531.651	445.75
531.865	463.75
532.08	437.75
532.295	451.75
532.509	448.75
532.724	436.75
532.938	455.75
533.153	430.75
533.367	451.75
533.582	448.75
533.796	440.75
534.011	429.75
534.225	417.75
534.44	403.75
534.654	429.75
534.868	444.75
535.083	434.75
535.297	433.75
535.511	455.75
535.726	444.75
535.94	461.75
536.154	433.75
536.369	424.75
536.583	433.75
536.797	418.75
537.011	455.75
537.225	420.75
537.44	426.75
537.654	424.75
537.868	434.75
538.082	414.75
538.296	448.75
538.51	427.75
538.724	413.75
538.938	429.75
539.153	438.75
539.367	448.75
539.581	443.75
539.795	413.75
540.009	423.75
540.222	441.75
540.436	443.75
540.65	413.75
540.864	446.75
541.078	423.75
541.292	429.75
541.506	442.75
541.72	429.75
541.934	399.75
542.147	404.75
542.361	432.75
542.575	398.75
542.789	422.75
543.002	406.75
543.216	430.75
543.43	430.75
543.644	436.75
543.857	421.75
544.071	411.75
544.285	405.75
544.498	407.75
544.712	433.75
544.925	393.75
545.139	429.75
545.352	410.75
545.566	426.75
545.779	413.75
545.993	409.75
546.206	411.75
546.42	405.75
546.633	407.75
546.847	418.75
547.06	408.75
547.274	378.75
547.487	396.75
547.7	419.75
547.914	405.75
548.127	415.75
548.34	403.75
548.554	388.75
548.767	389.75
548.98	406.75
549.193	401.75
549.407	395.75
549.62	401.75
549.833	401.75
550.046	403.75
550.259	407.75
550.473	373.75
550.686	388.75
550.899	387.75
551.112	382.75
551.325	393.75
551.538	376.75
551.751	391.75
551.964	386.75
552.177	388.75
552.39	373.75
552.603	381.75
552.816	381.75
553.029	386.75
553.242	382.75
553.455	396.75
553.667	394.75
553.88	402.75
554.093	402.75
554.306	404.75
554.519	382.75
554.732	395.75
554.944	381.75
555.157	380.75
555.37	377.75
555.583	374.75
555.795	370.75
556.008	368.75
556.221	363.75
556.433	369.75
556.646	371.75
556.859	361.75
557.071	375.75
557.284	364.75
557.496	357.75
557.709	372.75
557.921	360.75
558.134	373.75
558.346	362.75
558.559	359.75
558.771	359.75
558.984	355.75
559.196	377.75
559.409	354.75
559.621	368.75
559.833	340.75
560.046	347.75
560.258	342.75
560.47	347.75
560.683	345.75
560.895	347.75
561.107	348.75
561.32	338.75
561.532	355.75
561.744	350.75
561.956	353.75
562.168	353.75
562.381	373.75
562.593	349.75
562.805	346.75
563.017	367.75
563.229	341.75
563.441	349.75
563.653	342.75
563.865	350.75
564.077	378.75
564.289	369.75
564.501	378.75
564.713	391.75
564.925	359.75
565.137	392.75
565.349	387.75
565.561	373.75
565.773	387.75
565.985	361.75
566.197	370.75
566.408	380.75
566.62	392.75
566.832	414.75
567.044	397.75
567.255	406.75
567.467	422.75
567.679	411.75
567.891	422.75
568.102	403.75
568.314	389.75
568.526	391.75
568.737	393.75
568.949	379.75
569.161	370.75
569.372	379.75
569.584	356.75
569.795	365.75
570.007	352.75
570.218	407.75
570.43	370.75
570.641	362.75
570.853	335.75
571.064	335.75
571.276	325.75
571.487	339.75
571.698	313.75
571.91	331.75
572.121	329.75
572.333	329.75
572.544	327.75
572.755	335.75
572.966	333.75
573.178	309.75
573.389	326.75
573.6	319.75
573.811	315.75
574.023	327.75
574.234	332.75
574.445	302.75
574.656	307.75
574.867	290.75
575.078	290.75
575.289	315.75
575.501	305.75
575.712	310.75
575.923	296.75
576.134	300.75
576.345	317.75
576.556	281.75
576.767	292.75
576.978	292.75
577.188	310.75
577.399	297.75
577.61	297.75
577.821	300.75
578.032	307.75
578.243	349.75
578.454	585.75
578.665	422.75
578.875	307.75
579.086	300.75
579.297	295.75
579.508	287.75
579.718	293.75
579.929	289.75
580.14	295.75
580.35	297.75
580.561	281.75
580.772	293.75
580.982	305.75
581.193	290.75
581.403	283.75
581.614	286.75
581.825	267.75
582.035	270.75
582.246	287.75
582.456	279.75
582.667	262.75
582.877	276.75
583.087	265.75
583.298	282.75
583.508	277.75
583.719	285.75
583.929	286.75
584.139	285.75
584.35	271.75
584.56	263.75
584.77	274.75
584.981	270.75
585.191	281.75
585.401	273.75
585.611	265.75
585.821	265.75
586.032	270.75
586.242	268.75
586.452	257.75
586.662	274.75
586.872	269.75
587.082	286.75
587.292	245.75
587.502	259.75
587.713	272.75
587.923	248.75
588.133	266.75
588.343	272.75
588.553	270.75
588.762	274.75
588.972	275.75
589.182	261.75
589.392	259.75
589.602	266.75
589.812	274.75
590.022	270.75
590.232	273.75
590.441	273.75
590.651	278.75
590.861	273.75
591.071	250.75
591.281	286.75
591.49	262.75
591.7	285.75
591.91	257.75
592.119	276.75
592.329	271.75
592.539	271.75
592.748	260.75
592.958	267.75
593.167	287.75
593.377	266.75
593.587	278.75
593.796	284.75
594.006	281.75
594.215	277.75
594.424	272.75
594.634	275.75
594.843	273.75
595.053	281.75
595.262	266.75
595.472	256.75
595.681	263.75
595.89	280.75
596.1	263.75
596.309	262.75
596.518	251.75
596.727	259.75
596.937	229.75
597.146	243.75
597.355	259.75
597.564	249.75
597.774	241.75
597.983	249.75
598.192	250.75
598.401	253.75
598.61	248.75
598.819	257.75
599.028	242.75
599.237	245.75
599.446	236.75
599.655	245.75
599.864	225.75
600.073	238.75
600.282	239.75
600.491	254.75
600.7	235.75
600.909	245.75
601.118	227.75
601.327	229.75
601.536	262.75
601.745	242.75
601.953	233.75
602.162	251.75
602.371	232.75
602.58	227.75
602.789	229.75
602.997	229.75
603.206	236.75
603.415	222.75
603.623	221.75
603.832	227.75
604.041	230.75
604.249	242.75
604.458	222.75
604.666	232.75
604.875	227.75
605.084	234.75
605.292	229.75
605.501	217.75
605.709	221.75
605.918	222.75
606.126	234.75
606.334	220.75
606.543	236.75
606.751	221.75
606.96	225.75
607.168	226.75
607.376	215.75
607.585	223.75
607.793	236.75
608.001	227.75
608.21	210.75
608.418	228.75
608.626	236.75
608.834	233.75
609.043	219.75
609.251	214.75
609.459	218.75
609.667	232.75
609.875	227.75
610.083	215.75
610.291	215.75
610.499	226.75
610.707	209.75
610.916	236.75
611.124	227.75
611.332	228.75
611.54	236.75
611.748	235.75
611.955	231.75
612.163	235.75
612.371	226.75
612.579	228.75
612.787	225.75
612.995	215.75
613.203	224.75
613.411	228.75
613.618	222.75
613.826	213.75
614.034	210.75
614.242	216.75
614.449	208.75
614.657	206.75
614.865	227.75
615.072	217.75
615.28	207.75
615.488	219.75
615.695	212.75
615.903	209.75
616.111	220.75
616.318	228.75
616.526	217.75
616.733	232.75
616.941	216.75
617.148	226.75
617.356	202.75
617.563	214.75
617.771	208.75
617.978	207.75
618.185	214.75
618.393	213.75
618.6	235.75
618.807	190.75
619.015	223.75
619.222	234.75
619.429	218.75
619.637	203.75
619.844	221.75
620.051	210.75
620.258	213.75
620.466	200.75
620.673	203.75
620.88	200.75
621.087	207.75
621.294	219.75
621.501	211.75
621.708	220.75
621.915	196.75
622.122	202.75
622.329	213.75
622.536	209.75
622.743	202.75
622.95	212.75
623.157	214.75
623.364	195.75
623.571	217.75
623.778	192.75
623.985	217.75
624.192	209.75
624.399	200.75
624.606	212.75
624.812	198.75
625.019	204.75
625.226	199.75
625.433	205.75
625.639	202.75
625.846	193.75
626.053	211.75
626.259	191.75
626.466	189.75
626.673	205.75
626.879	200.75
627.086	198.75
627.293	182.75
627.499	208.75
627.706	185.75
627.912	193.75
628.119	193.75
628.325	190.75
628.532	195.75
628.738	179.75
628.945	201.75
629.151	196.75
629.357	197.75
629.564	177.75
629.77	179.75
629.976	190.75
630.183	187.75
630.389	185.75
630.595	191.75
630.802	184.75
631.008	200.75
631.214	183.75
631.42	173.75
631.627	194.75
631.833	176.75
632.039	168.75
632.245	192.75
632.451	183.75
632.657	171.75
632.863	176.75
633.069	173.75
633.275	170.75
633.481	176.75
633.688	179.75
633.893	149.75
634.099	181.75
634.305	157.75
634.511	165.75
634.717	175.75
634.923	175.75
635.129	173.75
635.335	166.75
635.541	165.75
635.747	168.75
635.952	161.75
636.158	181.75
636.364	169.75
636.57	173.75
636.775	179.75
636.981	179.75
637.187	167.75
637.392	164.75
637.598	174.75
637.804	179.75
638.009	174.75
638.215	169.75
638.421	163.75
638.626	156.75
638.832	156.75
639.037	174.75
639.243	153.75
639.448	151.75
639.654	164.75
639.859	152.75
640.065	182.75
640.27	167.75
640.475	180.75
640.681	158.75
640.886	158.75
641.091	158.75
641.297	176.75
641.502	166.75
641.707	169.75
641.913	183.75
642.118	169.75
642.323	149.75
642.528	158.75
642.733	164.75
642.939	183.75
643.144	157.75
643.349	157.75
643.554	148.75
643.759	159.75
643.964	160.75
644.169	167.75
644.374	167.75
644.579	155.75
644.784	156.75
644.989	160.75
645.194	156.75
645.399	168.75
645.604	154.75
645.809	162.75
646.014	158.75
646.219	164.75
646.423	167.75
646.628	160.75
646.833	164.75
647.038	162.75
647.243	171.75
647.447	168.75
647.652	170.75
647.857	177.75
648.062	151.75
648.266	158.75
648.471	153.75
648.676	156.75
648.88	165.75
649.085	156.75
649.289	149.75
649.494	166.75
649.698	186.75
649.903	177.75
650.107	179.75
650.312	162.75
650.516	141.75
650.721	157.75
650.925	144.75
651.13	140.75
651.334	144.75
651.539	137.75
651.743	139.75
651.947	150.75
652.152	147.75
652.356	143.75
652.56	135.75
652.764	129.75
652.969	129.75
653.173	135.75
653.377	137.75
653.581	139.75
653.785	129.75
653.99	139.75
654.194	138.75
654.398	135.75
654.602	149.75
654.806	140.75
655.01	156.75
655.214	132.75
655.418	124.75
655.622	152.75
655.826	129.75
656.03	132.75
656.234	122.75
656.438	129.75
656.642	135.75
656.846	127.75
657.049	117.75
657.253	121.75
657.457	127.75
657.661	130.75
657.865	130.75
658.068	107.75
658.272	97.75
658.476	106.75
658.68	100.75
658.883	109.75
659.087	104.75
659.291	108.75
659.494	103.75
659.698	93.75
659.901	109.75
660.105	98.75
660.309	85.75
660.512	94.75
660.716	92.75
660.919	99.75
661.123	98.75
661.326	76.75
661.53	93.75
661.733	106.75
661.936	88.75
662.14	93.75
662.343	97.75
662.546	86.75
662.75	92.75
662.953	86.75
663.156	78.75
663.36	83.75
663.563	85.75
663.766	87.75
663.969	90.75
664.173	82.75
664.376	82.75
664.579	77.75
664.782	90.75
664.985	82.75
665.188	88.75
665.391	84.75
665.594	92.75
665.797	83.75
666	87.75
666.203	81.75
666.406	76.75
666.609	77.75
666.812	73.75
667.015	71.75
667.218	96.75
667.421	97.75
667.624	81.75
667.827	82.75
668.03	82.75
668.232	99.75
668.435	86.75
668.638	70.75
668.841	96.75
669.043	75.75
669.246	78.75
669.449	85.75
669.651	76.75
669.854	89.75
670.057	84.75
670.259	91.75
670.462	75.75
670.665	82.75
670.867	74.75
671.07	77.75
671.272	95.75
671.475	99.75
671.677	89.75
671.88	81.75
672.082	82.75
672.284	80.75
672.487	91.75
672.689	80.75
672.892	74.75
