Data from 1989.PennyLincolnUp.Lamp.En5.5.200Scan.071819.P2_HRD10591_17-23-20-972.txt Node
Date: Thu Jul 18 17:23:20 EDT 2019
User: cochatt
Spectrometer: HR+D1059
Trigger mode: 1
Integration Time (sec): 1.000000E-1
Scans to average: 1
Electric dark correction enabled: true
Nonlinearity correction enabled: false
Boxcar width: 0
XAxis mode: Wavelengths
Number of Pixels in Spectrum: 2048
>>>>>Begin Spectral Data<<<<<
223.165	-28.31
223.4	-28.31
223.635	-28.31
223.869	-17.31
224.104	-12.31
224.338	1.69
224.573	-7.31
224.808	-9.31
225.042	-15.31
225.277	-9.31
225.511	-16.31
225.746	1.69
225.98	11.69
226.215	6.69
226.449	12.69
226.683	20.69
226.918	30.69
227.152	29.69
227.387	26.69
227.621	31.69
227.856	29.69
228.09	44.69
228.324	60.69
228.559	58.69
228.793	67.69
229.027	88.69
229.262	112.69
229.496	101.69
229.73	123.69
229.964	126.69
230.199	123.69
230.433	107.69
230.667	105.69
230.901	105.69
231.136	116.69
231.37	99.69
231.604	118.69
231.838	113.69
232.072	107.69
232.306	106.69
232.541	97.69
232.775	111.69
233.009	103.69
233.243	122.69
233.477	106.69
233.711	120.69
233.945	119.69
234.179	106.69
234.413	111.69
234.647	115.69
234.881	112.69
235.115	109.69
235.349	100.69
235.583	107.69
235.817	116.69
236.051	116.69
236.285	133.69
236.519	119.69
236.753	119.69
236.987	141.69
237.221	164.69
237.455	206.69
237.689	179.69
237.922	125.69
238.156	135.69
238.39	127.69
238.624	126.69
238.858	117.69
239.091	129.69
239.325	118.69
239.559	110.69
239.793	118.69
240.027	132.69
240.26	141.69
240.494	148.69
240.728	124.69
240.961	141.69
241.195	139.69
241.429	131.69
241.662	130.69
241.896	120.69
242.13	123.69
242.363	140.69
242.597	126.69
242.83	145.69
243.064	128.69
243.298	125.69
243.531	120.69
243.765	130.69
243.998	137.69
244.232	126.69
244.465	134.69
244.699	147.69
244.932	129.69
245.166	140.69
245.399	129.69
245.633	136.69
245.866	137.69
246.099	140.69
246.333	142.69
246.566	146.69
246.8	134.69
247.033	151.69
247.266	144.69
247.5	172.69
247.733	172.69
247.966	168.69
248.2	159.69
248.433	158.69
248.666	171.69
248.899	180.69
249.133	169.69
249.366	196.69
249.599	174.69
249.832	165.69
250.066	166.69
250.299	179.69
250.532	187.69
250.765	173.69
250.998	196.69
251.231	223.69
251.465	213.69
251.698	196.69
251.931	192.69
252.164	182.69
252.397	195.69
252.63	183.69
252.863	195.69
253.096	193.69
253.329	201.69
253.562	204.69
253.795	203.69
254.028	210.69
254.261	217.69
254.494	213.69
254.727	241.69
254.96	261.69
255.193	232.69
255.426	228.69
255.659	225.69
255.892	208.69
256.124	203.69
256.357	219.69
256.59	214.69
256.823	191.69
257.056	203.69
257.289	195.69
257.521	186.69
257.754	197.69
257.987	195.69
258.22	195.69
258.452	193.69
258.685	205.69
258.918	212.69
259.151	209.69
259.383	189.69
259.616	222.69
259.849	209.69
260.081	231.69
260.314	248.69
260.547	240.69
260.779	234.69
261.012	221.69
261.244	212.69
261.477	205.69
261.71	221.69
261.942	225.69
262.175	232.69
262.407	211.69
262.64	200.69
262.872	201.69
263.105	215.69
263.337	209.69
263.57	218.69
263.802	211.69
264.035	205.69
264.267	208.69
264.499	202.69
264.732	199.69
264.964	201.69
265.197	198.69
265.429	225.69
265.661	197.69
265.894	200.69
266.126	215.69
266.358	212.69
266.591	210.69
266.823	204.69
267.055	210.69
267.287	213.69
267.52	217.69
267.752	214.69
267.984	218.69
268.216	211.69
268.448	215.69
268.681	220.69
268.913	232.69
269.145	259.69
269.377	252.69
269.609	251.69
269.841	252.69
270.073	257.69
270.306	261.69
270.538	281.69
270.77	268.69
271.002	270.69
271.234	252.69
271.466	275.69
271.698	286.69
271.93	288.69
272.162	300.69
272.394	295.69
272.626	269.69
272.858	263.69
273.09	267.69
273.322	256.69
273.553	251.69
273.785	261.69
274.017	235.69
274.249	249.69
274.481	236.69
274.713	236.69
274.945	248.69
275.176	258.69
275.408	245.69
275.64	247.69
275.872	246.69
276.104	256.69
276.335	250.69
276.567	252.69
276.799	284.69
277.031	289.69
277.262	289.69
277.494	280.69
277.726	273.69
277.957	283.69
278.189	257.69
278.421	257.69
278.652	268.69
278.884	249.69
279.115	248.69
279.347	251.69
279.579	246.69
279.81	255.69
280.042	244.69
280.273	277.69
280.505	261.69
280.736	251.69
280.968	270.69
281.199	252.69
281.431	251.69
281.662	251.69
281.894	258.69
282.125	246.69
282.356	247.69
282.588	279.69
282.819	271.69
283.051	281.69
283.282	244.69
283.513	263.69
283.745	242.69
283.976	253.69
284.207	262.69
284.439	259.69
284.67	247.69
284.901	265.69
285.132	256.69
285.364	269.69
285.595	285.69
285.826	245.69
286.057	264.69
286.288	265.69
286.52	286.69
286.751	269.69
286.982	259.69
287.213	268.69
287.444	265.69
287.675	283.69
287.906	273.69
288.138	279.69
288.369	265.69
288.6	288.69
288.831	287.69
289.062	276.69
289.293	267.69
289.524	261.69
289.755	242.69
289.986	272.69
290.217	265.69
290.448	257.69
290.679	278.69
290.91	275.69
291.141	261.69
291.371	265.69
291.602	278.69
291.833	258.69
292.064	278.69
292.295	267.69
292.526	274.69
292.757	275.69
292.987	274.69
293.218	268.69
293.449	272.69
293.68	281.69
293.91	269.69
294.141	283.69
294.372	272.69
294.603	259.69
294.833	273.69
295.064	259.69
295.295	279.69
295.525	280.69
295.756	266.69
295.987	275.69
296.217	293.69
296.448	305.69
296.679	281.69
296.909	267.69
297.14	279.69
297.37	283.69
297.601	276.69
297.831	272.69
298.062	280.69
298.292	265.69
298.523	277.69
298.753	290.69
298.984	286.69
299.214	263.69
299.445	295.69
299.675	290.69
299.905	282.69
300.136	285.69
300.366	306.69
300.597	290.69
300.827	293.69
301.057	305.69
301.288	307.69
301.518	304.69
301.748	281.69
301.979	290.69
302.209	296.69
302.439	291.69
302.669	309.69
302.9	316.69
303.13	307.69
303.36	301.69
303.59	316.69
303.82	306.69
304.051	294.69
304.281	305.69
304.511	303.69
304.741	308.69
304.971	305.69
305.201	297.69
305.431	309.69
305.661	292.69
305.891	296.69
306.121	319.69
306.352	300.69
306.582	313.69
306.812	309.69
307.042	308.69
307.272	312.69
307.502	295.69
307.731	324.69
307.961	329.69
308.191	290.69
308.421	318.69
308.651	321.69
308.881	323.69
309.111	309.69
309.341	309.69
309.571	316.69
309.8	317.69
310.03	324.69
310.26	348.69
310.49	335.69
310.72	342.69
310.949	346.69
311.179	336.69
311.409	348.69
311.639	334.69
311.868	347.69
312.098	344.69
312.328	372.69
312.557	369.69
312.787	372.69
313.017	357.69
313.246	357.69
313.476	341.69
313.706	340.69
313.935	330.69
314.165	347.69
314.394	352.69
314.624	349.69
314.853	330.69
315.083	338.69
315.312	333.69
315.542	329.69
315.771	350.69
316.001	337.69
316.23	329.69
316.46	337.69
316.689	356.69
316.919	339.69
317.148	340.69
317.377	357.69
317.607	356.69
317.836	338.69
318.065	329.69
318.295	370.69
318.524	353.69
318.753	343.69
318.983	353.69
319.212	345.69
319.441	351.69
319.67	360.69
319.9	343.69
320.129	349.69
320.358	343.69
320.587	347.69
320.816	357.69
321.046	367.69
321.275	378.69
321.504	349.69
321.733	361.69
321.962	371.69
322.191	347.69
322.42	381.69
322.649	387.69
322.878	403.69
323.108	406.69
323.337	415.69
323.566	415.69
323.795	469.69
324.024	463.69
324.253	553.69
324.482	796.69
324.71	1172.69
324.939	1677.69
325.168	1441.69
325.397	757.69
325.626	544.69
325.855	460.69
326.084	443.69
326.313	428.69
326.542	437.69
326.77	451.69
326.999	549.69
327.228	700.69
327.457	1066.69
327.686	1259.69
327.914	832.69
328.143	554.69
328.372	488.69
328.6	461.69
328.829	460.69
329.058	483.69
329.287	487.69
329.515	454.69
329.744	427.69
329.972	418.69
330.201	430.69
330.43	421.69
330.658	460.69
330.887	482.69
331.115	499.69
331.344	442.69
331.572	425.69
331.801	437.69
332.03	436.69
332.258	431.69
332.486	395.69
332.715	387.69
332.943	394.69
333.172	397.69
333.4	391.69
333.629	400.69
333.857	409.69
334.085	418.69
334.314	408.69
334.542	415.69
334.771	419.69
334.999	411.69
335.227	400.69
335.455	407.69
335.684	401.69
335.912	402.69
336.14	399.69
336.369	394.69
336.597	415.69
336.825	395.69
337.053	407.69
337.281	405.69
337.51	377.69
337.738	391.69
337.966	383.69
338.194	396.69
338.422	401.69
338.65	385.69
338.878	405.69
339.106	388.69
339.334	387.69
339.562	387.69
339.79	388.69
340.018	379.69
340.246	377.69
340.474	402.69
340.702	397.69
340.93	375.69
341.158	388.69
341.386	381.69
341.614	396.69
341.842	385.69
342.07	391.69
342.298	387.69
342.526	367.69
342.754	361.69
342.981	369.69
343.209	379.69
343.437	360.69
343.665	393.69
343.893	393.69
344.12	384.69
344.348	392.69
344.576	382.69
344.804	400.69
345.031	372.69
345.259	391.69
345.487	400.69
345.714	403.69
345.942	383.69
346.17	378.69
346.397	371.69
346.625	378.69
346.853	377.69
347.08	362.69
347.308	372.69
347.535	389.69
347.763	369.69
347.99	381.69
348.218	401.69
348.445	380.69
348.673	387.69
348.9	374.69
349.128	361.69
349.355	367.69
349.583	355.69
349.81	376.69
350.037	360.69
350.265	367.69
350.492	359.69
350.72	370.69
350.947	357.69
351.174	367.69
351.402	375.69
351.629	377.69
351.856	359.69
352.083	370.69
352.311	377.69
352.538	396.69
352.765	380.69
352.992	360.69
353.22	383.69
353.447	361.69
353.674	350.69
353.901	355.69
354.128	360.69
354.355	361.69
354.583	341.69
354.81	376.69
355.037	364.69
355.264	351.69
355.491	334.69
355.718	338.69
355.945	333.69
356.172	334.69
356.399	339.69
356.626	334.69
356.853	348.69
357.08	326.69
357.307	360.69
357.534	352.69
357.761	337.69
357.988	355.69
358.215	326.69
358.441	361.69
358.668	337.69
358.895	332.69
359.122	361.69
359.349	375.69
359.576	353.69
359.802	383.69
360.029	395.69
360.256	401.69
360.483	400.69
360.709	365.69
360.936	355.69
361.163	336.69
361.39	360.69
361.616	364.69
361.843	361.69
362.07	387.69
362.296	360.69
362.523	375.69
362.749	355.69
362.976	362.69
363.203	354.69
363.429	362.69
363.656	368.69
363.882	341.69
364.109	343.69
364.335	353.69
364.562	356.69
364.788	338.69
365.015	339.69
365.241	341.69
365.468	360.69
365.694	360.69
365.92	355.69
366.147	351.69
366.373	342.69
366.599	327.69
366.826	358.69
367.052	370.69
367.278	348.69
367.505	325.69
367.731	343.69
367.957	349.69
368.184	352.69
368.41	357.69
368.636	362.69
368.862	359.69
369.089	367.69
369.315	353.69
369.541	338.69
369.767	346.69
369.993	346.69
370.219	352.69
370.445	351.69
370.672	344.69
370.898	329.69
371.124	336.69
371.35	342.69
371.576	328.69
371.802	334.69
372.028	344.69
372.254	356.69
372.48	355.69
372.706	372.69
372.932	346.69
373.158	356.69
373.384	337.69
373.61	347.69
373.835	356.69
374.061	343.69
374.287	369.69
374.513	364.69
374.739	343.69
374.965	362.69
375.191	362.69
375.416	357.69
375.642	339.69
375.868	346.69
376.094	345.69
376.319	346.69
376.545	344.69
376.771	361.69
376.997	358.69
377.222	357.69
377.448	351.69
377.674	366.69
377.899	363.69
378.125	329.69
378.35	344.69
378.576	348.69
378.802	339.69
379.027	345.69
379.253	345.69
379.478	341.69
379.704	346.69
379.929	341.69
380.155	340.69
380.38	341.69
380.606	339.69
380.831	357.69
381.057	326.69
381.282	350.69
381.507	365.69
381.733	359.69
381.958	348.69
382.184	353.69
382.409	340.69
382.634	354.69
382.86	353.69
383.085	351.69
383.31	344.69
383.535	352.69
383.761	355.69
383.986	371.69
384.211	367.69
384.436	348.69
384.662	357.69
384.887	360.69
385.112	366.69
385.337	367.69
385.562	373.69
385.787	377.69
386.013	391.69
386.238	380.69
386.463	369.69
386.688	381.69
386.913	377.69
387.138	361.69
387.363	383.69
387.588	363.69
387.813	391.69
388.038	375.69
388.263	366.69
388.488	373.69
388.713	363.69
388.938	367.69
389.163	365.69
389.387	373.69
389.612	377.69
389.837	360.69
390.062	360.69
390.287	385.69
390.512	385.69
390.736	359.69
390.961	365.69
391.186	369.69
391.411	369.69
391.636	380.69
391.86	380.69
392.085	385.69
392.31	370.69
392.534	391.69
392.759	374.69
392.984	383.69
393.208	360.69
393.433	371.69
393.658	377.69
393.882	388.69
394.107	377.69
394.331	385.69
394.556	361.69
394.78	367.69
395.005	375.69
395.229	367.69
395.454	371.69
395.678	374.69
395.903	389.69
396.127	403.69
396.352	411.69
396.576	407.69
396.801	384.69
397.025	400.69
397.249	387.69
397.474	396.69
397.698	380.69
397.922	400.69
398.147	419.69
398.371	407.69
398.595	424.69
398.82	410.69
399.044	432.69
399.268	423.69
399.492	442.69
399.717	455.69
399.941	487.69
400.165	484.69
400.389	511.69
400.613	474.69
400.837	441.69
401.062	423.69
401.286	431.69
401.51	418.69
401.734	409.69
401.958	411.69
402.182	427.69
402.406	413.69
402.63	405.69
402.854	419.69
403.078	419.69
403.302	429.69
403.526	437.69
403.75	418.69
403.974	408.69
404.198	415.69
404.422	423.69
404.645	423.69
404.869	410.69
405.093	436.69
405.317	454.69
405.541	464.69
405.765	469.69
405.988	422.69
406.212	450.69
406.436	460.69
406.66	475.69
406.883	459.69
407.107	479.69
407.331	495.69
407.555	578.69
407.778	570.69
408.002	520.69
408.226	474.69
408.449	468.69
408.673	463.69
408.896	509.69
409.12	522.69
409.344	495.69
409.567	441.69
409.791	440.69
410.014	418.69
410.238	449.69
410.461	428.69
410.685	443.69
410.908	419.69
411.132	456.69
411.355	502.69
411.578	490.69
411.802	451.69
412.025	409.69
412.249	421.69
412.472	410.69
412.695	421.69
412.919	419.69
413.142	412.69
413.365	395.69
413.589	422.69
413.812	408.69
414.035	379.69
414.258	397.69
414.482	387.69
414.705	419.69
414.928	421.69
415.151	412.69
415.374	391.69
415.597	393.69
415.821	402.69
416.044	390.69
416.267	389.69
416.49	395.69
416.713	417.69
416.936	396.69
417.159	419.69
417.382	414.69
417.605	403.69
417.828	393.69
418.051	404.69
418.274	407.69
418.497	402.69
418.72	405.69
418.943	385.69
419.166	406.69
419.389	433.69
419.611	411.69
419.834	414.69
420.057	424.69
420.28	413.69
420.503	389.69
420.726	403.69
420.948	432.69
421.171	458.69
421.394	497.69
421.617	441.69
421.839	432.69
422.062	426.69
422.285	439.69
422.507	473.69
422.73	552.69
422.953	535.69
423.175	451.69
423.398	443.69
423.621	440.69
423.843	449.69
424.066	448.69
424.288	434.69
424.511	464.69
424.733	513.69
424.956	570.69
425.178	543.69
425.401	552.69
425.623	577.69
425.846	482.69
426.068	455.69
426.291	457.69
426.513	440.69
426.735	458.69
426.958	476.69
427.18	560.69
427.402	665.69
427.625	718.69
427.847	633.69
428.069	514.69
428.292	483.69
428.514	416.69
428.736	422.69
428.958	426.69
429.181	428.69
429.403	429.69
429.625	435.69
429.847	447.69
430.069	501.69
430.292	527.69
430.514	443.69
430.736	430.69
430.958	399.69
431.18	384.69
431.402	417.69
431.624	415.69
431.846	397.69
432.068	396.69
432.29	419.69
432.512	405.69
432.734	415.69
432.956	396.69
433.178	411.69
433.4	421.69
433.622	404.69
433.844	392.69
434.066	381.69
434.287	396.69
434.509	385.69
434.731	404.69
434.953	412.69
435.175	438.69
435.397	436.69
435.618	436.69
435.84	499.69
436.062	564.69
436.284	638.69
436.505	515.69
436.727	485.69
436.949	443.69
437.17	448.69
437.392	419.69
437.614	421.69
437.835	489.69
438.057	528.69
438.278	613.69
438.5	607.69
438.721	673.69
438.943	635.69
439.165	539.69
439.386	479.69
439.608	455.69
439.829	458.69
440.05	475.69
440.272	499.69
440.493	496.69
440.715	452.69
440.936	426.69
441.158	436.69
441.379	415.69
441.6	431.69
441.822	417.69
442.043	459.69
442.264	534.69
442.486	603.69
442.707	501.69
442.928	456.69
443.149	453.69
443.371	491.69
443.592	520.69
443.813	612.69
444.034	647.69
444.255	547.69
444.476	465.69
444.698	461.69
444.919	454.69
445.14	532.69
445.361	511.69
445.582	480.69
445.803	540.69
446.024	655.69
446.245	632.69
446.466	571.69
446.687	475.69
446.908	452.69
447.129	425.69
447.35	421.69
447.571	419.69
447.792	410.69
448.013	450.69
448.234	427.69
448.455	495.69
448.675	581.69
448.896	652.69
449.117	576.69
449.338	519.69
449.559	620.69
449.779	731.69
450	556.69
450.221	489.69
450.442	444.69
450.662	407.69
450.883	415.69
451.104	413.69
451.324	400.69
451.545	386.69
451.766	405.69
451.986	379.69
452.207	375.69
452.428	384.69
452.648	379.69
452.869	373.69
453.089	390.69
453.31	373.69
453.53	395.69
453.751	348.69
453.971	372.69
454.192	361.69
454.412	362.69
454.633	362.69
454.853	362.69
455.073	389.69
455.294	387.69
455.514	441.69
455.734	422.69
455.955	385.69
456.175	362.69
456.395	364.69
456.616	356.69
456.836	370.69
457.056	369.69
457.276	353.69
457.497	339.69
457.717	368.69
457.937	362.69
458.157	359.69
458.377	354.69
458.598	381.69
458.818	427.69
459.038	463.69
459.258	496.69
459.478	441.69
459.698	389.69
459.918	375.69
460.138	379.69
460.358	373.69
460.578	395.69
460.798	400.69
461.018	412.69
461.238	406.69
461.458	412.69
461.678	404.69
461.898	409.69
462.118	385.69
462.338	412.69
462.558	405.69
462.777	389.69
462.997	422.69
463.217	433.69
463.437	420.69
463.657	420.69
463.876	423.69
464.096	434.69
464.316	441.69
464.536	425.69
464.755	418.69
464.975	418.69
465.195	443.69
465.414	487.69
465.634	427.69
465.854	401.69
466.073	414.69
466.293	397.69
466.512	380.69
466.732	362.69
466.951	375.69
467.171	362.69
467.391	382.69
467.61	379.69
467.829	380.69
468.049	386.69
468.268	378.69
468.488	362.69
468.707	353.69
468.927	378.69
469.146	381.69
469.365	369.69
469.585	375.69
469.804	362.69
470.023	383.69
470.243	385.69
470.462	388.69
470.681	397.69
470.901	369.69
471.12	396.69
471.339	375.69
471.558	368.69
471.777	403.69
471.997	392.69
472.216	383.69
472.435	380.69
472.654	380.69
472.873	383.69
473.092	382.69
473.311	404.69
473.53	388.69
473.749	379.69
473.968	413.69
474.187	496.69
474.406	537.69
474.625	439.69
474.844	395.69
475.063	415.69
475.282	392.69
475.501	403.69
475.72	411.69
475.939	407.69
476.158	384.69
476.377	406.69
476.596	391.69
476.814	380.69
477.033	391.69
477.252	387.69
477.471	401.69
477.69	402.69
477.908	407.69
478.127	418.69
478.346	427.69
478.564	407.69
478.783	444.69
479.002	435.69
479.22	445.69
479.439	457.69
479.658	434.69
479.876	454.69
480.095	467.69
480.313	493.69
480.532	487.69
480.751	471.69
480.969	448.69
481.188	467.69
481.406	463.69
481.624	456.69
481.843	433.69
482.061	444.69
482.28	440.69
482.498	435.69
482.717	432.69
482.935	450.69
483.153	452.69
483.372	456.69
483.59	449.69
483.808	451.69
484.027	446.69
484.245	468.69
484.463	441.69
484.681	455.69
484.9	448.69
485.118	458.69
485.336	461.69
485.554	451.69
485.772	456.69
485.99	460.69
486.209	442.69
486.427	464.69
486.645	491.69
486.863	491.69
487.081	509.69
487.299	482.69
487.517	491.69
487.735	512.69
487.953	476.69
488.171	477.69
488.389	497.69
488.607	464.69
488.825	480.69
489.043	485.69
489.261	485.69
489.479	486.69
489.696	495.69
489.914	483.69
490.132	514.69
490.35	496.69
490.568	498.69
490.786	514.69
491.003	513.69
491.221	510.69
491.439	539.69
491.657	540.69
491.874	547.69
492.092	537.69
492.31	548.69
492.527	547.69
492.745	540.69
492.963	527.69
493.18	559.69
493.398	552.69
493.615	531.69
493.833	571.69
494.05	541.69
494.268	555.69
494.485	540.69
494.703	563.69
494.92	569.69
495.138	565.69
495.355	569.69
495.573	573.69
495.79	590.69
496.008	563.69
496.225	554.69
496.442	562.69
496.66	559.69
496.877	555.69
497.094	580.69
497.312	591.69
497.529	591.69
497.746	592.69
497.963	587.69
498.181	616.69
498.398	620.69
498.615	635.69
498.832	633.69
499.049	630.69
499.267	628.69
499.484	669.69
499.701	675.69
499.918	706.69
500.135	718.69
500.352	743.69
500.569	775.69
500.786	795.69
501.003	759.69
501.22	752.69
501.437	701.69
501.654	711.69
501.871	709.69
502.088	699.69
502.305	665.69
502.522	625.69
502.739	634.69
502.956	613.69
503.172	609.69
503.389	581.69
503.606	565.69
503.823	588.69
504.04	595.69
504.256	593.69
504.473	557.69
504.69	571.69
504.907	568.69
505.123	553.69
505.34	549.69
505.557	568.69
505.773	541.69
505.99	554.69
506.207	565.69
506.423	547.69
506.64	544.69
506.856	541.69
507.073	521.69
507.289	505.69
507.506	551.69
507.722	521.69
507.939	554.69
508.155	535.69
508.372	527.69
508.588	514.69
508.805	529.69
509.021	518.69
509.238	521.69
509.454	523.69
509.67	517.69
509.887	520.69
510.103	526.69
510.319	553.69
510.536	595.69
510.752	875.69
510.968	735.69
511.184	512.69
511.401	507.69
511.617	492.69
511.833	482.69
512.049	466.69
512.265	491.69
512.481	489.69
512.698	489.69
512.914	499.69
513.13	479.69
513.346	483.69
513.562	502.69
513.778	456.69
513.994	469.69
514.21	502.69
514.426	524.69
514.642	526.69
514.858	564.69
515.074	564.69
515.29	658.69
515.506	916.69
515.721	759.69
515.937	568.69
516.153	514.69
516.369	523.69
516.585	519.69
516.801	510.69
517.016	485.69
517.232	505.69
517.448	490.69
517.664	497.69
517.879	498.69
518.095	511.69
518.311	503.69
518.527	488.69
518.742	491.69
518.958	490.69
519.173	497.69
519.389	507.69
519.605	497.69
519.82	479.69
520.036	503.69
520.251	512.69
520.467	525.69
520.682	519.69
520.898	516.69
521.113	533.69
521.329	559.69
521.544	603.69
521.76	719.69
521.975	1130.69
522.19	1101.69
522.406	679.69
522.621	511.69
522.836	497.69
523.052	484.69
523.267	442.69
523.482	437.69
523.698	468.69
523.913	457.69
524.128	459.69
524.343	458.69
524.559	443.69
524.774	432.69
524.989	446.69
525.204	420.69
525.419	420.69
525.634	419.69
525.849	423.69
526.064	423.69
526.28	401.69
526.495	385.69
526.71	403.69
526.925	418.69
527.14	418.69
527.355	404.69
527.57	411.69
527.785	422.69
527.999	404.69
528.214	401.69
528.429	409.69
528.644	408.69
528.859	411.69
529.074	407.69
529.289	425.69
529.503	468.69
529.718	444.69
529.933	454.69
530.148	437.69
530.363	429.69
530.577	391.69
530.792	379.69
531.007	400.69
531.221	404.69
531.436	408.69
531.651	391.69
531.865	406.69
532.08	379.69
532.295	399.69
532.509	411.69
532.724	396.69
532.938	393.69
533.153	372.69
533.367	386.69
533.582	395.69
533.796	380.69
534.011	401.69
534.225	410.69
534.44	384.69
534.654	387.69
534.868	401.69
535.083	391.69
535.297	383.69
535.511	379.69
535.726	405.69
535.94	391.69
536.154	367.69
536.369	395.69
536.583	401.69
536.797	383.69
537.011	391.69
537.225	375.69
537.44	372.69
537.654	357.69
537.868	366.69
538.082	363.69
538.296	364.69
538.51	376.69
538.724	382.69
538.938	384.69
539.153	388.69
539.367	398.69
539.581	396.69
539.795	374.69
540.009	386.69
540.222	383.69
540.436	382.69
540.65	373.69
540.864	369.69
541.078	396.69
541.292	395.69
541.506	384.69
541.72	381.69
541.934	381.69
542.147	396.69
542.361	391.69
542.575	373.69
542.789	380.69
543.002	391.69
543.216	383.69
543.43	385.69
543.644	386.69
543.857	391.69
544.071	383.69
544.285	366.69
544.498	376.69
544.712	373.69
544.925	386.69
545.139	387.69
545.352	378.69
545.566	364.69
545.779	373.69
545.993	373.69
546.206	380.69
546.42	387.69
546.633	381.69
546.847	363.69
547.06	353.69
547.274	361.69
547.487	356.69
547.7	368.69
547.914	363.69
548.127	362.69
548.34	354.69
548.554	362.69
548.767	358.69
548.98	348.69
549.193	368.69
549.407	364.69
549.62	379.69
549.833	379.69
550.046	361.69
550.259	363.69
550.473	353.69
550.686	357.69
550.899	372.69
551.112	356.69
551.325	369.69
551.538	336.69
551.751	337.69
551.964	351.69
552.177	340.69
552.39	338.69
552.603	357.69
552.816	367.69
553.029	364.69
553.242	374.69
553.455	357.69
553.667	360.69
553.88	360.69
554.093	373.69
554.306	379.69
554.519	370.69
554.732	348.69
554.944	351.69
555.157	337.69
555.37	353.69
555.583	338.69
555.795	330.69
556.008	328.69
556.221	320.69
556.433	332.69
556.646	333.69
556.859	332.69
557.071	313.69
557.284	327.69
557.496	332.69
557.709	313.69
557.921	321.69
558.134	341.69
558.346	305.69
558.559	344.69
558.771	324.69
558.984	316.69
559.196	320.69
559.409	336.69
559.621	333.69
559.833	325.69
560.046	316.69
560.258	322.69
560.47	307.69
560.683	323.69
560.895	332.69
561.107	334.69
561.32	315.69
561.532	328.69
561.744	321.69
561.956	336.69
562.168	320.69
562.381	332.69
562.593	323.69
562.805	319.69
563.017	316.69
563.229	311.69
563.441	332.69
563.653	316.69
563.865	316.69
564.077	310.69
564.289	338.69
564.501	320.69
564.713	351.69
564.925	320.69
565.137	351.69
565.349	345.69
565.561	349.69
565.773	349.69
565.985	349.69
566.197	356.69
566.408	349.69
566.62	364.69
566.832	404.69
567.044	390.69
567.255	373.69
567.467	375.69
567.679	377.69
567.891	386.69
568.102	381.69
568.314	379.69
568.526	372.69
568.737	356.69
568.949	351.69
569.161	330.69
569.372	328.69
569.584	339.69
569.795	347.69
570.007	340.69
570.218	356.69
570.43	349.69
570.641	333.69
570.853	337.69
571.064	331.69
571.276	303.69
571.487	327.69
571.698	322.69
571.91	295.69
572.121	316.69
572.333	301.69
572.544	292.69
572.755	275.69
572.966	297.69
573.178	295.69
573.389	280.69
573.6	285.69
573.811	282.69
574.023	277.69
574.234	295.69
574.445	289.69
574.656	289.69
574.867	292.69
575.078	292.69
575.289	288.69
575.501	270.69
575.712	278.69
575.923	284.69
576.134	266.69
576.345	277.69
576.556	291.69
576.767	278.69
576.978	272.69
577.188	292.69
577.399	287.69
577.61	269.69
577.821	282.69
578.032	263.69
578.243	306.69
578.454	413.69
578.665	344.69
578.875	263.69
579.086	262.69
579.297	264.69
579.508	271.69
579.718	246.69
579.929	289.69
580.14	279.69
580.35	279.69
580.561	280.69
580.772	259.69
580.982	275.69
581.193	261.69
581.403	245.69
581.614	260.69
581.825	248.69
582.035	264.69
582.246	264.69
582.456	255.69
582.667	263.69
582.877	254.69
583.087	241.69
583.298	248.69
583.508	253.69
583.719	261.69
583.929	240.69
584.139	269.69
584.35	246.69
584.56	250.69
584.77	258.69
584.981	254.69
585.191	248.69
585.401	236.69
585.611	263.69
585.821	242.69
586.032	275.69
586.242	248.69
586.452	261.69
586.662	256.69
586.872	239.69
587.082	267.69
587.292	281.69
587.502	248.69
587.713	247.69
587.923	251.69
588.133	253.69
588.343	247.69
588.553	248.69
588.762	256.69
588.972	266.69
589.182	267.69
589.392	264.69
589.602	259.69
589.812	255.69
590.022	247.69
590.232	255.69
590.441	256.69
590.651	253.69
590.861	246.69
591.071	260.69
591.281	247.69
591.49	247.69
591.7	239.69
591.91	262.69
592.119	254.69
592.329	265.69
592.539	263.69
592.748	255.69
592.958	258.69
593.167	265.69
593.377	263.69
593.587	275.69
593.796	255.69
594.006	273.69
594.215	260.69
594.424	265.69
594.634	246.69
594.843	241.69
595.053	260.69
595.262	262.69
595.472	264.69
595.681	247.69
595.89	249.69
596.1	239.69
596.309	239.69
596.518	232.69
596.727	255.69
596.937	239.69
597.146	241.69
597.355	233.69
597.564	252.69
597.774	216.69
597.983	223.69
598.192	236.69
598.401	231.69
598.61	219.69
598.819	205.69
599.028	215.69
599.237	234.69
599.446	210.69
599.655	215.69
599.864	216.69
600.073	231.69
600.282	223.69
600.491	216.69
600.7	240.69
600.909	205.69
601.118	229.69
601.327	211.69
601.536	225.69
601.745	208.69
601.953	220.69
602.162	197.69
602.371	216.69
602.58	220.69
602.789	217.69
602.997	224.69
603.206	212.69
603.415	226.69
603.623	228.69
603.832	218.69
604.041	220.69
604.249	207.69
604.458	217.69
604.666	206.69
604.875	213.69
605.084	218.69
605.292	218.69
605.501	215.69
605.709	220.69
605.918	202.69
606.126	189.69
606.334	218.69
606.543	211.69
606.751	207.69
606.96	214.69
607.168	205.69
607.376	205.69
607.585	216.69
607.793	199.69
608.001	218.69
608.21	205.69
608.418	233.69
608.626	217.69
608.834	208.69
609.043	204.69
609.251	232.69
609.459	213.69
609.667	221.69
609.875	199.69
610.083	212.69
610.291	209.69
610.499	208.69
610.707	212.69
610.916	219.69
611.124	219.69
611.332	221.69
611.54	212.69
611.748	208.69
611.955	216.69
612.163	218.69
612.371	217.69
612.579	203.69
612.787	225.69
612.995	208.69
613.203	204.69
613.411	217.69
613.618	211.69
613.826	220.69
614.034	213.69
614.242	218.69
614.449	210.69
614.657	215.69
614.865	201.69
615.072	196.69
615.28	203.69
615.488	211.69
615.695	188.69
615.903	207.69
616.111	221.69
616.318	226.69
616.526	193.69
616.733	217.69
616.941	189.69
617.148	204.69
617.356	229.69
617.563	195.69
617.771	209.69
617.978	188.69
618.185	196.69
618.393	201.69
618.6	212.69
618.807	227.69
619.015	223.69
619.222	215.69
619.429	208.69
619.637	194.69
619.844	197.69
620.051	216.69
620.258	189.69
620.466	185.69
620.673	204.69
620.88	195.69
621.087	205.69
621.294	214.69
621.501	197.69
621.708	183.69
621.915	209.69
622.122	191.69
622.329	195.69
622.536	189.69
622.743	186.69
622.95	202.69
623.157	194.69
623.364	190.69
623.571	204.69
623.778	185.69
623.985	193.69
624.192	182.69
624.399	163.69
624.606	195.69
624.812	195.69
625.019	186.69
625.226	180.69
625.433	189.69
625.639	177.69
625.846	197.69
626.053	200.69
626.259	172.69
626.466	182.69
626.673	181.69
626.879	183.69
627.086	191.69
627.293	191.69
627.499	191.69
627.706	182.69
627.912	188.69
628.119	186.69
628.325	169.69
628.532	191.69
628.738	175.69
628.945	188.69
629.151	177.69
629.357	195.69
629.564	190.69
629.77	180.69
629.976	167.69
630.183	179.69
630.389	175.69
630.595	176.69
630.802	178.69
631.008	175.69
631.214	167.69
631.42	177.69
631.627	159.69
631.833	181.69
632.039	179.69
632.245	160.69
632.451	155.69
632.657	162.69
632.863	152.69
633.069	175.69
633.275	179.69
633.481	167.69
633.688	179.69
633.893	162.69
634.099	156.69
634.305	176.69
634.511	172.69
634.717	161.69
634.923	153.69
635.129	171.69
635.335	165.69
635.541	152.69
635.747	167.69
635.952	165.69
636.158	169.69
636.364	167.69
636.57	158.69
636.775	164.69
636.981	170.69
637.187	158.69
637.392	147.69
637.598	149.69
637.804	156.69
638.009	140.69
638.215	165.69
638.421	172.69
638.626	155.69
638.832	149.69
639.037	174.69
639.243	168.69
639.448	148.69
639.654	164.69
639.859	159.69
640.065	153.69
640.27	157.69
640.475	153.69
640.681	139.69
640.886	153.69
641.091	161.69
641.297	155.69
641.502	175.69
641.707	150.69
641.913	149.69
642.118	158.69
642.323	171.69
642.528	160.69
642.733	155.69
642.939	153.69
643.144	141.69
643.349	156.69
643.554	147.69
643.759	161.69
643.964	144.69
644.169	173.69
644.374	155.69
644.579	149.69
644.784	144.69
644.989	160.69
645.194	155.69
645.399	141.69
645.604	152.69
645.809	152.69
646.014	148.69
646.219	162.69
646.423	161.69
646.628	145.69
646.833	154.69
647.038	147.69
647.243	140.69
647.447	145.69
647.652	176.69
647.857	147.69
648.062	157.69
648.266	163.69
648.471	163.69
648.676	150.69
648.88	135.69
649.085	147.69
649.289	165.69
649.494	155.69
649.698	181.69
649.903	157.69
650.107	154.69
650.312	161.69
650.516	145.69
650.721	148.69
650.925	156.69
651.13	165.69
651.334	149.69
651.539	148.69
651.743	147.69
651.947	155.69
652.152	151.69
652.356	140.69
652.56	129.69
652.764	143.69
652.969	136.69
653.173	123.69
653.377	134.69
653.581	124.69
653.785	139.69
653.99	117.69
654.194	132.69
654.398	118.69
654.602	117.69
654.806	132.69
655.01	137.69
655.214	133.69
655.418	142.69
655.622	135.69
655.826	128.69
656.03	128.69
656.234	134.69
656.438	126.69
656.642	136.69
656.846	125.69
657.049	112.69
657.253	119.69
657.457	116.69
657.661	131.69
657.865	111.69
658.068	116.69
658.272	92.69
658.476	90.69
658.68	106.69
658.883	112.69
659.087	95.69
659.291	92.69
659.494	98.69
659.698	97.69
659.901	96.69
660.105	97.69
660.309	88.69
660.512	84.69
660.716	83.69
660.919	104.69
661.123	96.69
661.326	88.69
661.53	85.69
661.733	86.69
661.936	84.69
662.14	96.69
662.343	90.69
662.546	88.69
662.75	84.69
662.953	98.69
663.156	91.69
663.36	97.69
663.563	88.69
663.766	84.69
663.969	72.69
664.173	60.69
664.376	77.69
664.579	97.69
664.782	73.69
664.985	81.69
665.188	83.69
665.391	77.69
665.594	83.69
665.797	82.69
666	88.69
666.203	89.69
666.406	88.69
666.609	85.69
666.812	83.69
667.015	72.69
667.218	72.69
667.421	83.69
667.624	85.69
667.827	74.69
668.03	79.69
668.232	72.69
668.435	99.69
668.638	92.69
668.841	84.69
669.043	83.69
669.246	65.69
669.449	93.69
669.651	81.69
669.854	66.69
670.057	73.69
670.259	87.69
670.462	99.69
670.665	87.69
670.867	100.69
671.07	74.69
671.272	84.69
671.475	83.69
671.677	84.69
671.88	93.69
672.082	78.69
672.284	78.69
672.487	66.69
672.689	86.69
672.892	76.69
