Data from 1989.PennyLincolnUp.Lamp.En5.5.200Scan.071819.P2_HRD10591_17-24-46-974.txt Node
Date: Thu Jul 18 17:24:46 EDT 2019
User: cochatt
Spectrometer: HR+D1059
Trigger mode: 1
Integration Time (sec): 1.000000E-1
Scans to average: 1
Electric dark correction enabled: true
Nonlinearity correction enabled: false
Boxcar width: 0
XAxis mode: Wavelengths
Number of Pixels in Spectrum: 2048
>>>>>Begin Spectral Data<<<<<
223.165	-19.12
223.4	-19.12
223.635	-19.12
223.869	-19.12
224.104	-13.12
224.338	-15.12
224.573	-27.12
224.808	4.88
225.042	-8.12
225.277	-3.12
225.511	-0.12
225.746	3.88
225.98	-0.12
226.215	6.88
226.449	32.88
226.683	8.88
226.918	13.88
227.152	33.88
227.387	40.88
227.621	38.88
227.856	46.88
228.09	36.88
228.324	28.88
228.559	55.88
228.793	62.88
229.027	103.88
229.262	98.88
229.496	106.88
229.73	129.88
229.964	156.88
230.199	142.88
230.433	131.88
230.667	133.88
230.901	128.88
231.136	112.88
231.37	108.88
231.604	126.88
231.838	104.88
232.072	112.88
232.306	123.88
232.541	111.88
232.775	111.88
233.009	116.88
233.243	116.88
233.477	120.88
233.711	100.88
233.945	120.88
234.179	134.88
234.413	116.88
234.647	121.88
234.881	114.88
235.115	120.88
235.349	95.88
235.583	103.88
235.817	122.88
236.051	124.88
236.285	121.88
236.519	134.88
236.753	146.88
236.987	152.88
237.221	187.88
237.455	258.88
237.689	182.88
237.922	144.88
238.156	146.88
238.39	131.88
238.624	130.88
238.858	122.88
239.091	118.88
239.325	126.88
239.559	135.88
239.793	123.88
240.027	130.88
240.26	150.88
240.494	185.88
240.728	166.88
240.961	152.88
241.195	138.88
241.429	141.88
241.662	144.88
241.896	125.88
242.13	126.88
242.363	122.88
242.597	134.88
242.83	152.88
243.064	156.88
243.298	129.88
243.531	146.88
243.765	144.88
243.998	147.88
244.232	144.88
244.465	156.88
244.699	135.88
244.932	147.88
245.166	146.88
245.399	153.88
245.633	149.88
245.866	148.88
246.099	163.88
246.333	151.88
246.566	142.88
246.8	150.88
247.033	166.88
247.266	160.88
247.5	164.88
247.733	170.88
247.966	170.88
248.2	177.88
248.433	176.88
248.666	189.88
248.899	213.88
249.133	205.88
249.366	211.88
249.599	210.88
249.832	190.88
250.066	192.88
250.299	191.88
250.532	210.88
250.765	196.88
250.998	232.88
251.231	227.88
251.465	217.88
251.698	223.88
251.931	207.88
252.164	202.88
252.397	218.88
252.63	223.88
252.863	222.88
253.096	239.88
253.329	251.88
253.562	238.88
253.795	235.88
254.028	238.88
254.261	232.88
254.494	249.88
254.727	297.88
254.96	312.88
255.193	299.88
255.426	281.88
255.659	252.88
255.892	254.88
256.124	263.88
256.357	234.88
256.59	236.88
256.823	237.88
257.056	252.88
257.289	225.88
257.521	244.88
257.754	245.88
257.987	220.88
258.22	216.88
258.452	232.88
258.685	240.88
258.918	233.88
259.151	222.88
259.383	243.88
259.616	231.88
259.849	257.88
260.081	259.88
260.314	278.88
260.547	274.88
260.779	274.88
261.012	269.88
261.244	262.88
261.477	249.88
261.71	254.88
261.942	242.88
262.175	254.88
262.407	266.88
262.64	216.88
262.872	248.88
263.105	227.88
263.337	232.88
263.57	207.88
263.802	219.88
264.035	216.88
264.267	223.88
264.499	214.88
264.732	206.88
264.964	234.88
265.197	219.88
265.429	227.88
265.661	240.88
265.894	223.88
266.126	245.88
266.358	222.88
266.591	235.88
266.823	265.88
267.055	246.88
267.287	244.88
267.52	267.88
267.752	225.88
267.984	249.88
268.216	253.88
268.448	260.88
268.681	272.88
268.913	271.88
269.145	280.88
269.377	310.88
269.609	289.88
269.841	281.88
270.073	286.88
270.306	302.88
270.538	323.88
270.77	357.88
271.002	332.88
271.234	331.88
271.466	339.88
271.698	350.88
271.93	328.88
272.162	353.88
272.394	357.88
272.626	325.88
272.858	334.88
273.09	302.88
273.322	304.88
273.553	303.88
273.785	299.88
274.017	284.88
274.249	299.88
274.481	298.88
274.713	305.88
274.945	286.88
275.176	297.88
275.408	283.88
275.64	276.88
275.872	295.88
276.104	284.88
276.335	308.88
276.567	306.88
276.799	327.88
277.031	357.88
277.262	338.88
277.494	358.88
277.726	347.88
277.957	300.88
278.189	304.88
278.421	292.88
278.652	286.88
278.884	280.88
279.115	292.88
279.347	297.88
279.579	298.88
279.81	287.88
280.042	281.88
280.273	306.88
280.505	293.88
280.736	272.88
280.968	272.88
281.199	284.88
281.431	280.88
281.662	293.88
281.894	289.88
282.125	299.88
282.356	320.88
282.588	316.88
282.819	333.88
283.051	302.88
283.282	293.88
283.513	291.88
283.745	304.88
283.976	298.88
284.207	288.88
284.439	295.88
284.67	300.88
284.901	292.88
285.132	302.88
285.364	304.88
285.595	302.88
285.826	288.88
286.057	307.88
286.288	313.88
286.52	298.88
286.751	283.88
286.982	305.88
287.213	308.88
287.444	299.88
287.675	298.88
287.906	318.88
288.138	323.88
288.369	333.88
288.6	323.88
288.831	323.88
289.062	304.88
289.293	291.88
289.524	312.88
289.755	312.88
289.986	313.88
290.217	314.88
290.448	309.88
290.679	310.88
290.91	328.88
291.141	297.88
291.371	304.88
291.602	304.88
291.833	308.88
292.064	312.88
292.295	299.88
292.526	307.88
292.757	314.88
292.987	294.88
293.218	315.88
293.449	303.88
293.68	312.88
293.91	297.88
294.141	286.88
294.372	299.88
294.603	310.88
294.833	318.88
295.064	299.88
295.295	318.88
295.525	320.88
295.756	318.88
295.987	333.88
296.217	371.88
296.448	363.88
296.679	322.88
296.909	324.88
297.14	298.88
297.37	312.88
297.601	322.88
297.831	308.88
298.062	298.88
298.292	317.88
298.523	322.88
298.753	331.88
298.984	315.88
299.214	305.88
299.445	323.88
299.675	319.88
299.905	344.88
300.136	340.88
300.366	334.88
300.597	318.88
300.827	330.88
301.057	342.88
301.288	332.88
301.518	330.88
301.748	333.88
301.979	347.88
302.209	335.88
302.439	339.88
302.669	345.88
302.9	338.88
303.13	347.88
303.36	336.88
303.59	343.88
303.82	348.88
304.051	344.88
304.281	331.88
304.511	342.88
304.741	330.88
304.971	333.88
305.201	355.88
305.431	338.88
305.661	353.88
305.891	345.88
306.121	364.88
306.352	340.88
306.582	350.88
306.812	353.88
307.042	339.88
307.272	360.88
307.502	348.88
307.731	359.88
307.961	350.88
308.191	344.88
308.421	341.88
308.651	353.88
308.881	353.88
309.111	363.88
309.341	378.88
309.571	356.88
309.8	374.88
310.03	424.88
310.26	424.88
310.49	375.88
310.72	410.88
310.949	399.88
311.179	419.88
311.409	396.88
311.639	403.88
311.868	410.88
312.098	425.88
312.328	419.88
312.557	425.88
312.787	447.88
313.017	444.88
313.246	419.88
313.476	425.88
313.706	407.88
313.935	420.88
314.165	442.88
314.394	446.88
314.624	430.88
314.853	419.88
315.083	409.88
315.312	416.88
315.542	396.88
315.771	388.88
316.001	400.88
316.23	397.88
316.46	387.88
316.689	399.88
316.919	401.88
317.148	431.88
317.377	417.88
317.607	417.88
317.836	419.88
318.065	421.88
318.295	399.88
318.524	393.88
318.753	398.88
318.983	403.88
319.212	406.88
319.441	414.88
319.67	419.88
319.9	404.88
320.129	419.88
320.358	395.88
320.587	398.88
320.816	463.88
321.046	415.88
321.275	443.88
321.504	434.88
321.733	421.88
321.962	432.88
322.191	455.88
322.42	449.88
322.649	477.88
322.878	482.88
323.108	507.88
323.337	540.88
323.566	553.88
323.795	609.88
324.024	631.88
324.253	800.88
324.482	1131.88
324.71	1737.88
324.939	2459.88
325.168	2153.88
325.397	1157.88
325.626	760.88
325.855	602.88
326.084	574.88
326.313	550.88
326.542	548.88
326.77	608.88
326.999	716.88
327.228	999.88
327.457	1526.88
327.686	1889.88
327.914	1242.88
328.143	844.88
328.372	686.88
328.6	637.88
328.829	609.88
329.058	602.88
329.287	622.88
329.515	592.88
329.744	563.88
329.972	548.88
330.201	553.88
330.43	585.88
330.658	637.88
330.887	657.88
331.115	616.88
331.344	544.88
331.572	532.88
331.801	521.88
332.03	527.88
332.258	489.88
332.486	459.88
332.715	473.88
332.943	488.88
333.172	461.88
333.4	456.88
333.629	485.88
333.857	502.88
334.085	490.88
334.314	481.88
334.542	479.88
334.771	520.88
334.999	514.88
335.227	475.88
335.455	475.88
335.684	466.88
335.912	458.88
336.14	444.88
336.369	450.88
336.597	450.88
336.825	477.88
337.053	458.88
337.281	462.88
337.51	478.88
337.738	455.88
337.966	451.88
338.194	465.88
338.422	471.88
338.65	467.88
338.878	466.88
339.106	455.88
339.334	462.88
339.562	447.88
339.79	438.88
340.018	474.88
340.246	443.88
340.474	453.88
340.702	452.88
340.93	440.88
341.158	452.88
341.386	438.88
341.614	448.88
341.842	469.88
342.07	444.88
342.298	438.88
342.526	468.88
342.754	433.88
342.981	424.88
343.209	416.88
343.437	436.88
343.665	438.88
343.893	426.88
344.12	448.88
344.348	424.88
344.576	422.88
344.804	469.88
345.031	465.88
345.259	471.88
345.487	451.88
345.714	451.88
345.942	440.88
346.17	437.88
346.397	420.88
346.625	435.88
346.853	433.88
347.08	446.88
347.308	435.88
347.535	440.88
347.763	447.88
347.99	458.88
348.218	461.88
348.445	462.88
348.673	458.88
348.9	435.88
349.128	426.88
349.355	417.88
349.583	426.88
349.81	420.88
350.037	404.88
350.265	423.88
350.492	414.88
350.72	406.88
350.947	420.88
351.174	440.88
351.402	447.88
351.629	454.88
351.856	440.88
352.083	422.88
352.311	458.88
352.538	444.88
352.765	444.88
352.992	423.88
353.22	432.88
353.447	418.88
353.674	413.88
353.901	390.88
354.128	418.88
354.355	409.88
354.583	414.88
354.81	394.88
355.037	406.88
355.264	406.88
355.491	392.88
355.718	395.88
355.945	394.88
356.172	399.88
356.399	401.88
356.626	402.88
356.853	412.88
357.08	400.88
357.307	397.88
357.534	384.88
357.761	387.88
357.988	386.88
358.215	390.88
358.441	384.88
358.668	389.88
358.895	411.88
359.122	404.88
359.349	404.88
359.576	417.88
359.802	457.88
360.029	480.88
360.256	483.88
360.483	486.88
360.709	434.88
360.936	435.88
361.163	406.88
361.39	425.88
361.616	426.88
361.843	431.88
362.07	425.88
362.296	424.88
362.523	422.88
362.749	436.88
362.976	413.88
363.203	423.88
363.429	404.88
363.656	400.88
363.882	410.88
364.109	400.88
364.335	417.88
364.562	390.88
364.788	400.88
365.015	396.88
365.241	392.88
365.468	399.88
365.694	403.88
365.92	406.88
366.147	411.88
366.373	419.88
366.599	385.88
366.826	402.88
367.052	402.88
367.278	393.88
367.505	416.88
367.731	422.88
367.957	401.88
368.184	390.88
368.41	394.88
368.636	411.88
368.862	418.88
369.089	394.88
369.315	409.88
369.541	402.88
369.767	388.88
369.993	401.88
370.219	391.88
370.445	390.88
370.672	377.88
370.898	388.88
371.124	378.88
371.35	374.88
371.576	411.88
371.802	384.88
372.028	390.88
372.254	408.88
372.48	381.88
372.706	384.88
372.932	390.88
373.158	395.88
373.384	396.88
373.61	395.88
373.835	391.88
374.061	390.88
374.287	399.88
374.513	407.88
374.739	380.88
374.965	397.88
375.191	395.88
375.416	398.88
375.642	394.88
375.868	396.88
376.094	378.88
376.319	388.88
376.545	384.88
376.771	387.88
376.997	391.88
377.222	391.88
377.448	394.88
377.674	392.88
377.899	385.88
378.125	382.88
378.35	373.88
378.576	384.88
378.802	391.88
379.027	363.88
379.253	396.88
379.478	407.88
379.704	384.88
379.929	386.88
380.155	374.88
380.38	387.88
380.606	400.88
380.831	394.88
381.057	405.88
381.282	377.88
381.507	401.88
381.733	391.88
381.958	372.88
382.184	405.88
382.409	408.88
382.634	390.88
382.86	400.88
383.085	399.88
383.31	392.88
383.535	388.88
383.761	384.88
383.986	428.88
384.211	389.88
384.436	390.88
384.662	401.88
384.887	397.88
385.112	412.88
385.337	408.88
385.562	409.88
385.787	405.88
386.013	424.88
386.238	424.88
386.463	414.88
386.688	406.88
386.913	399.88
387.138	410.88
387.363	410.88
387.588	411.88
387.813	383.88
388.038	409.88
388.263	411.88
388.488	401.88
388.713	417.88
388.938	394.88
389.163	418.88
389.387	405.88
389.612	412.88
389.837	401.88
390.062	409.88
390.287	419.88
390.512	403.88
390.736	404.88
390.961	414.88
391.186	415.88
391.411	424.88
391.636	416.88
391.86	405.88
392.085	434.88
392.31	407.88
392.534	402.88
392.759	411.88
392.984	411.88
393.208	414.88
393.433	410.88
393.658	394.88
393.882	405.88
394.107	419.88
394.331	409.88
394.556	410.88
394.78	405.88
395.005	430.88
395.229	416.88
395.454	427.88
395.678	420.88
395.903	440.88
396.127	456.88
396.352	472.88
396.576	424.88
396.801	435.88
397.025	425.88
397.249	425.88
397.474	432.88
397.698	418.88
397.922	440.88
398.147	465.88
398.371	467.88
398.595	442.88
398.82	448.88
399.044	466.88
399.268	459.88
399.492	484.88
399.717	506.88
399.941	548.88
400.165	554.88
400.389	589.88
400.613	555.88
400.837	498.88
401.062	475.88
401.286	470.88
401.51	462.88
401.734	458.88
401.958	476.88
402.182	456.88
402.406	490.88
402.63	471.88
402.854	466.88
403.078	471.88
403.302	464.88
403.526	484.88
403.75	478.88
403.974	483.88
404.198	474.88
404.422	466.88
404.645	468.88
404.869	483.88
405.093	507.88
405.317	558.88
405.541	551.88
405.765	532.88
405.988	529.88
406.212	524.88
406.436	537.88
406.66	572.88
406.883	524.88
407.107	548.88
407.331	569.88
407.555	640.88
407.778	630.88
408.002	592.88
408.226	564.88
408.449	527.88
408.673	536.88
408.896	560.88
409.12	612.88
409.344	558.88
409.567	500.88
409.791	499.88
410.014	475.88
410.238	482.88
410.461	491.88
410.685	470.88
410.908	525.88
411.132	538.88
411.355	575.88
411.578	532.88
411.802	494.88
412.025	471.88
412.249	480.88
412.472	482.88
412.695	508.88
412.919	510.88
413.142	485.88
413.365	451.88
413.589	461.88
413.812	473.88
414.035	453.88
414.258	427.88
414.482	437.88
414.705	463.88
414.928	440.88
415.151	450.88
415.374	467.88
415.597	444.88
415.821	444.88
416.044	425.88
416.267	439.88
416.49	427.88
416.713	451.88
416.936	450.88
417.159	442.88
417.382	455.88
417.605	469.88
417.828	461.88
418.051	474.88
418.274	451.88
418.497	459.88
418.72	454.88
418.943	440.88
419.166	449.88
419.389	488.88
419.611	474.88
419.834	471.88
420.057	495.88
420.28	472.88
420.503	461.88
420.726	470.88
420.948	476.88
421.171	526.88
421.394	550.88
421.617	482.88
421.839	487.88
422.062	484.88
422.285	478.88
422.507	520.88
422.73	624.88
422.953	593.88
423.175	521.88
423.398	510.88
423.621	482.88
423.843	519.88
424.066	510.88
424.288	518.88
424.511	538.88
424.733	600.88
424.956	679.88
425.178	635.88
425.401	627.88
425.623	658.88
425.846	579.88
426.068	524.88
426.291	538.88
426.513	512.88
426.735	534.88
426.958	601.88
427.18	679.88
427.402	775.88
427.625	879.88
427.847	749.88
428.069	625.88
428.292	552.88
428.514	541.88
428.736	514.88
428.958	505.88
429.181	485.88
429.403	475.88
429.625	488.88
429.847	517.88
430.069	597.88
430.292	577.88
430.514	492.88
430.736	479.88
430.958	458.88
431.18	454.88
431.402	473.88
431.624	436.88
431.846	446.88
432.068	454.88
432.29	435.88
432.512	434.88
432.734	453.88
432.956	459.88
433.178	468.88
433.4	449.88
433.622	449.88
433.844	442.88
434.066	455.88
434.287	438.88
434.509	458.88
434.731	461.88
434.953	455.88
435.175	489.88
435.397	485.88
435.618	507.88
435.84	552.88
436.062	653.88
436.284	719.88
436.505	619.88
436.727	538.88
436.949	504.88
437.17	491.88
437.392	480.88
437.614	501.88
437.835	542.88
438.057	604.88
438.278	741.88
438.5	716.88
438.721	787.88
438.943	778.88
439.165	612.88
439.386	554.88
439.608	526.88
439.829	555.88
440.05	548.88
440.272	622.88
440.493	592.88
440.715	528.88
440.936	485.88
441.158	490.88
441.379	491.88
441.6	490.88
441.822	517.88
442.043	573.88
442.264	638.88
442.486	684.88
442.707	596.88
442.928	544.88
443.149	558.88
443.371	608.88
443.592	647.88
443.813	698.88
444.034	773.88
444.255	604.88
444.476	556.88
444.698	533.88
444.919	531.88
445.14	635.88
445.361	617.88
445.582	572.88
445.803	611.88
446.024	712.88
446.245	771.88
446.466	684.88
446.687	583.88
446.908	532.88
447.129	490.88
447.35	483.88
447.571	500.88
447.792	483.88
448.013	489.88
448.234	507.88
448.455	566.88
448.675	665.88
448.896	764.88
449.117	674.88
449.338	617.88
449.559	735.88
449.779	816.88
450	654.88
450.221	542.88
450.442	515.88
450.662	472.88
450.883	489.88
451.104	516.88
451.324	525.88
451.545	476.88
451.766	457.88
451.986	440.88
452.207	448.88
452.428	422.88
452.648	445.88
452.869	442.88
453.089	438.88
453.31	459.88
453.53	444.88
453.751	448.88
453.971	462.88
454.192	470.88
454.412	444.88
454.633	432.88
454.853	423.88
455.073	428.88
455.294	452.88
455.514	542.88
455.734	525.88
455.955	443.88
456.175	412.88
456.395	409.88
456.616	386.88
456.836	387.88
457.056	382.88
457.276	406.88
457.497	406.88
457.717	410.88
457.937	400.88
458.157	412.88
458.377	415.88
458.598	431.88
458.818	499.88
459.038	597.88
459.258	594.88
459.478	508.88
459.698	464.88
459.918	441.88
460.138	443.88
460.358	449.88
460.578	446.88
460.798	457.88
461.018	448.88
461.238	440.88
461.458	443.88
461.678	444.88
461.898	432.88
462.118	448.88
462.338	452.88
462.558	463.88
462.777	459.88
462.997	475.88
463.217	476.88
463.437	460.88
463.657	455.88
463.876	481.88
464.096	453.88
464.316	459.88
464.536	469.88
464.755	470.88
464.975	468.88
465.195	517.88
465.414	620.88
465.634	558.88
465.854	463.88
466.073	436.88
466.293	457.88
466.512	466.88
466.732	430.88
466.951	446.88
467.171	431.88
467.391	426.88
467.61	453.88
467.829	461.88
468.049	437.88
468.268	434.88
468.488	420.88
468.707	438.88
468.927	416.88
469.146	400.88
469.365	414.88
469.585	404.88
469.804	439.88
470.023	450.88
470.243	422.88
470.462	434.88
470.681	468.88
470.901	462.88
471.12	434.88
471.339	442.88
471.558	437.88
471.777	419.88
471.997	431.88
472.216	440.88
472.435	443.88
472.654	442.88
472.873	430.88
473.092	427.88
473.311	427.88
473.53	436.88
473.749	446.88
473.968	490.88
474.187	609.88
474.406	614.88
474.625	510.88
474.844	474.88
475.063	445.88
475.282	447.88
475.501	451.88
475.72	471.88
475.939	432.88
476.158	459.88
476.377	461.88
476.596	470.88
476.814	468.88
477.033	483.88
477.252	456.88
477.471	472.88
477.69	459.88
477.908	483.88
478.127	475.88
478.346	459.88
478.564	484.88
478.783	487.88
479.002	496.88
479.22	487.88
479.439	489.88
479.658	512.88
479.876	542.88
480.095	541.88
480.313	556.88
480.532	564.88
480.751	534.88
480.969	536.88
481.188	576.88
481.406	593.88
481.624	551.88
481.843	526.88
482.061	514.88
482.28	520.88
482.498	514.88
482.717	517.88
482.935	515.88
483.153	514.88
483.372	519.88
483.59	490.88
483.808	507.88
484.027	504.88
484.245	529.88
484.463	516.88
484.681	522.88
484.9	518.88
485.118	527.88
485.336	500.88
485.554	528.88
485.772	541.88
485.99	529.88
486.209	543.88
486.427	521.88
486.645	550.88
486.863	556.88
487.081	573.88
487.299	548.88
487.517	549.88
487.735	572.88
487.953	557.88
488.171	530.88
488.389	555.88
488.607	558.88
488.825	544.88
489.043	551.88
489.261	568.88
489.479	577.88
489.696	571.88
489.914	557.88
490.132	563.88
490.35	561.88
490.568	582.88
490.786	595.88
491.003	599.88
491.221	614.88
491.439	620.88
491.657	640.88
491.874	633.88
492.092	644.88
492.31	651.88
492.527	624.88
492.745	628.88
492.963	612.88
493.18	638.88
493.398	644.88
493.615	674.88
493.833	655.88
494.05	670.88
494.268	654.88
494.485	655.88
494.703	658.88
494.92	643.88
495.138	678.88
495.355	653.88
495.573	644.88
495.79	674.88
496.008	678.88
496.225	670.88
496.442	636.88
496.66	636.88
496.877	663.88
497.094	662.88
497.312	657.88
497.529	696.88
497.746	682.88
497.963	680.88
498.181	706.88
498.398	723.88
498.615	721.88
498.832	724.88
499.049	715.88
499.267	735.88
499.484	783.88
499.701	774.88
499.918	808.88
500.135	827.88
500.352	823.88
500.569	857.88
500.786	877.88
501.003	844.88
501.22	841.88
501.437	817.88
501.654	816.88
501.871	826.88
502.088	786.88
502.305	745.88
502.522	729.88
502.739	750.88
502.956	745.88
503.172	707.88
503.389	685.88
503.606	704.88
503.823	698.88
504.04	678.88
504.256	672.88
504.473	655.88
504.69	665.88
504.907	640.88
505.123	648.88
505.34	655.88
505.557	624.88
505.773	652.88
505.99	640.88
506.207	629.88
506.423	632.88
506.64	623.88
506.856	638.88
507.073	618.88
507.289	629.88
507.506	624.88
507.722	634.88
507.939	667.88
508.155	627.88
508.372	622.88
508.588	614.88
508.805	617.88
509.021	618.88
509.238	623.88
509.454	640.88
509.67	632.88
509.887	594.88
510.103	636.88
510.319	627.88
510.536	751.88
510.752	1270.88
510.968	1000.88
511.184	629.88
511.401	600.88
511.617	587.88
511.833	585.88
512.049	583.88
512.265	584.88
512.481	601.88
512.698	600.88
512.914	575.88
513.13	585.88
513.346	580.88
513.562	604.88
513.778	604.88
513.994	595.88
514.21	603.88
514.426	666.88
514.642	702.88
514.858	705.88
515.074	738.88
515.29	901.88
515.506	1396.88
515.721	1105.88
515.937	730.88
516.153	659.88
516.369	628.88
516.585	590.88
516.801	594.88
517.016	600.88
517.232	577.88
517.448	598.88
517.664	594.88
517.879	585.88
518.095	586.88
518.311	591.88
518.527	593.88
518.742	563.88
518.958	564.88
519.173	583.88
519.389	583.88
519.605	587.88
519.82	583.88
520.036	600.88
520.251	612.88
520.467	656.88
520.682	660.88
520.898	647.88
521.113	700.88
521.329	750.88
521.544	855.88
521.76	1091.88
521.975	1828.88
522.19	1770.88
522.406	940.88
522.621	692.88
522.836	625.88
523.052	599.88
523.267	567.88
523.482	546.88
523.698	525.88
523.913	537.88
524.128	537.88
524.343	532.88
524.559	510.88
524.774	513.88
524.989	494.88
525.204	517.88
525.419	521.88
525.634	503.88
525.849	478.88
526.064	510.88
526.28	484.88
526.495	518.88
526.71	472.88
526.925	472.88
527.14	466.88
527.355	469.88
527.57	481.88
527.785	487.88
527.999	480.88
528.214	498.88
528.429	492.88
528.644	482.88
528.859	458.88
529.074	476.88
529.289	516.88
529.503	603.88
529.718	547.88
529.933	532.88
530.148	508.88
530.363	498.88
530.577	464.88
530.792	448.88
531.007	459.88
531.221	465.88
531.436	458.88
531.651	455.88
531.865	435.88
532.08	468.88
532.295	437.88
532.509	446.88
532.724	440.88
532.938	419.88
533.153	428.88
533.367	456.88
533.582	444.88
533.796	445.88
534.011	425.88
534.225	455.88
534.44	436.88
534.654	447.88
534.868	444.88
535.083	434.88
535.297	456.88
535.511	456.88
535.726	466.88
535.94	451.88
536.154	461.88
536.369	425.88
536.583	436.88
536.797	423.88
537.011	439.88
537.225	444.88
537.44	417.88
537.654	430.88
537.868	418.88
538.082	415.88
538.296	413.88
538.51	446.88
538.724	428.88
538.938	428.88
539.153	426.88
539.367	442.88
539.581	439.88
539.795	410.88
540.009	421.88
540.222	433.88
540.436	423.88
540.65	424.88
540.864	447.88
541.078	431.88
541.292	424.88
541.506	432.88
541.72	443.88
541.934	434.88
542.147	427.88
542.361	416.88
542.575	431.88
542.789	421.88
543.002	439.88
543.216	419.88
543.43	420.88
543.644	410.88
543.857	424.88
544.071	407.88
544.285	413.88
544.498	419.88
544.712	405.88
544.925	421.88
545.139	416.88
545.352	411.88
545.566	394.88
545.779	426.88
545.993	426.88
546.206	426.88
546.42	411.88
546.633	407.88
546.847	405.88
547.06	419.88
547.274	423.88
547.487	410.88
547.7	402.88
547.914	382.88
548.127	389.88
548.34	408.88
548.554	394.88
548.767	411.88
548.98	396.88
549.193	398.88
549.407	391.88
549.62	402.88
549.833	434.88
550.046	389.88
550.259	400.88
550.473	377.88
550.686	390.88
550.899	404.88
551.112	380.88
551.325	385.88
551.538	386.88
551.751	382.88
551.964	394.88
552.177	390.88
552.39	399.88
552.603	386.88
552.816	388.88
553.029	385.88
553.242	382.88
553.455	402.88
553.667	418.88
553.88	414.88
554.093	396.88
554.306	410.88
554.519	396.88
554.732	386.88
554.944	403.88
555.157	374.88
555.37	387.88
555.583	375.88
555.795	370.88
556.008	374.88
556.221	378.88
556.433	373.88
556.646	364.88
556.859	380.88
557.071	358.88
557.284	367.88
557.496	370.88
557.709	363.88
557.921	359.88
558.134	355.88
558.346	372.88
558.559	363.88
558.771	349.88
558.984	357.88
559.196	362.88
559.409	363.88
559.621	345.88
559.833	346.88
560.046	343.88
560.258	342.88
560.47	352.88
560.683	340.88
560.895	339.88
561.107	357.88
561.32	359.88
561.532	352.88
561.744	358.88
561.956	362.88
562.168	354.88
562.381	337.88
562.593	362.88
562.805	386.88
563.017	341.88
563.229	355.88
563.441	356.88
563.653	359.88
563.865	354.88
564.077	359.88
564.289	357.88
564.501	355.88
564.713	373.88
564.925	366.88
565.137	390.88
565.349	372.88
565.561	382.88
565.773	364.88
565.985	390.88
566.197	377.88
566.408	390.88
566.62	395.88
566.832	409.88
567.044	415.88
567.255	416.88
567.467	420.88
567.679	415.88
567.891	432.88
568.102	412.88
568.314	411.88
568.526	402.88
568.737	392.88
568.949	363.88
569.161	382.88
569.372	371.88
569.584	353.88
569.795	372.88
570.007	372.88
570.218	422.88
570.43	378.88
570.641	353.88
570.853	353.88
571.064	332.88
571.276	328.88
571.487	345.88
571.698	336.88
571.91	326.88
572.121	315.88
572.333	326.88
572.544	320.88
572.755	341.88
572.966	328.88
573.178	328.88
573.389	317.88
573.6	319.88
573.811	305.88
574.023	330.88
574.234	318.88
574.445	308.88
574.656	320.88
574.867	300.88
575.078	311.88
575.289	309.88
575.501	296.88
575.712	294.88
575.923	315.88
576.134	302.88
576.345	319.88
576.556	312.88
576.767	297.88
576.978	314.88
577.188	302.88
577.399	310.88
577.61	306.88
577.821	295.88
578.032	306.88
578.243	333.88
578.454	600.88
578.665	442.88
578.875	308.88
579.086	293.88
579.297	305.88
579.508	314.88
579.718	296.88
579.929	275.88
580.14	275.88
580.35	281.88
580.561	279.88
580.772	294.88
580.982	298.88
581.193	287.88
581.403	278.88
581.614	281.88
581.825	286.88
582.035	259.88
582.246	280.88
582.456	286.88
582.667	269.88
582.877	286.88
583.087	249.88
583.298	284.88
583.508	272.88
583.719	272.88
583.929	277.88
584.139	297.88
584.35	292.88
584.56	286.88
584.77	299.88
584.981	270.88
585.191	271.88
585.401	300.88
585.611	271.88
585.821	280.88
586.032	273.88
586.242	274.88
586.452	273.88
586.662	295.88
586.872	265.88
587.082	281.88
587.292	264.88
587.502	265.88
587.713	267.88
587.923	281.88
588.133	266.88
588.343	260.88
588.553	263.88
588.762	289.88
588.972	275.88
589.182	283.88
589.392	279.88
589.602	265.88
589.812	258.88
590.022	271.88
590.232	274.88
590.441	248.88
590.651	279.88
590.861	274.88
591.071	268.88
591.281	290.88
591.49	273.88
591.7	260.88
591.91	254.88
592.119	276.88
592.329	264.88
592.539	278.88
592.748	262.88
592.958	279.88
593.167	284.88
593.377	275.88
593.587	281.88
593.796	264.88
594.006	268.88
594.215	281.88
594.424	278.88
594.634	279.88
594.843	295.88
595.053	266.88
595.262	282.88
595.472	243.88
595.681	268.88
595.89	277.88
596.1	264.88
596.309	268.88
596.518	266.88
596.727	268.88
596.937	260.88
597.146	254.88
597.355	233.88
597.564	246.88
597.774	234.88
597.983	268.88
598.192	235.88
598.401	242.88
598.61	239.88
598.819	240.88
599.028	248.88
599.237	239.88
599.446	239.88
599.655	226.88
599.864	243.88
600.073	247.88
600.282	246.88
600.491	245.88
600.7	242.88
600.909	236.88
601.118	242.88
601.327	242.88
601.536	254.88
601.745	239.88
601.953	234.88
602.162	258.88
602.371	240.88
602.58	239.88
602.789	239.88
602.997	239.88
603.206	255.88
603.415	239.88
603.623	220.88
603.832	224.88
604.041	219.88
604.249	230.88
604.458	231.88
604.666	222.88
604.875	224.88
605.084	215.88
605.292	225.88
605.501	236.88
605.709	198.88
605.918	231.88
606.126	243.88
606.334	235.88
606.543	210.88
606.751	220.88
606.96	212.88
607.168	222.88
607.376	211.88
607.585	223.88
607.793	216.88
608.001	234.88
608.21	218.88
608.418	224.88
608.626	218.88
608.834	217.88
609.043	225.88
609.251	221.88
609.459	223.88
609.667	235.88
609.875	224.88
610.083	214.88
610.291	211.88
610.499	220.88
610.707	225.88
610.916	224.88
611.124	215.88
611.332	233.88
611.54	231.88
611.748	224.88
611.955	218.88
612.163	197.88
612.371	224.88
612.579	224.88
612.787	229.88
612.995	212.88
613.203	223.88
613.411	213.88
613.618	204.88
613.826	206.88
614.034	227.88
614.242	219.88
614.449	214.88
614.657	214.88
614.865	215.88
615.072	222.88
615.28	195.88
615.488	214.88
615.695	212.88
615.903	205.88
616.111	226.88
616.318	208.88
616.526	224.88
616.733	215.88
616.941	201.88
617.148	237.88
617.356	222.88
617.563	213.88
617.771	219.88
617.978	207.88
618.185	208.88
618.393	235.88
618.6	200.88
618.807	211.88
619.015	217.88
619.222	209.88
619.429	225.88
619.637	205.88
619.844	232.88
620.051	215.88
620.258	228.88
620.466	186.88
620.673	208.88
620.88	208.88
621.087	202.88
621.294	213.88
621.501	219.88
621.708	222.88
621.915	221.88
622.122	207.88
622.329	210.88
622.536	212.88
622.743	193.88
622.95	196.88
623.157	202.88
623.364	203.88
623.571	200.88
623.778	202.88
623.985	200.88
624.192	202.88
624.399	200.88
624.606	204.88
624.812	201.88
625.019	193.88
625.226	202.88
625.433	210.88
625.639	192.88
625.846	195.88
626.053	192.88
626.259	207.88
626.466	180.88
626.673	175.88
626.879	184.88
627.086	197.88
627.293	179.88
627.499	188.88
627.706	193.88
627.912	181.88
628.119	189.88
628.325	178.88
628.532	191.88
628.738	179.88
628.945	178.88
629.151	191.88
629.357	183.88
629.564	172.88
629.77	170.88
629.976	191.88
630.183	188.88
630.389	187.88
630.595	176.88
630.802	174.88
631.008	171.88
631.214	192.88
631.42	176.88
631.627	190.88
631.833	181.88
632.039	192.88
632.245	168.88
632.451	167.88
632.657	170.88
632.863	180.88
633.069	176.88
633.275	177.88
633.481	190.88
633.688	170.88
633.893	174.88
634.099	183.88
634.305	165.88
634.511	164.88
634.717	175.88
634.923	176.88
635.129	155.88
635.335	164.88
635.541	182.88
635.747	179.88
635.952	166.88
636.158	168.88
636.364	165.88
636.57	187.88
636.775	195.88
636.981	164.88
637.187	179.88
637.392	184.88
637.598	163.88
637.804	176.88
638.009	166.88
638.215	170.88
638.421	154.88
638.626	152.88
638.832	161.88
639.037	171.88
639.243	174.88
639.448	174.88
639.654	178.88
639.859	165.88
640.065	165.88
640.27	170.88
640.475	160.88
640.681	158.88
640.886	156.88
641.091	164.88
641.297	152.88
641.502	160.88
641.707	177.88
641.913	160.88
642.118	156.88
642.323	158.88
642.528	154.88
642.733	168.88
642.939	159.88
643.144	160.88
643.349	131.88
643.554	146.88
643.759	168.88
643.964	152.88
644.169	154.88
644.374	153.88
644.579	151.88
644.784	143.88
644.989	159.88
645.194	153.88
645.399	158.88
645.604	153.88
645.809	155.88
646.014	152.88
646.219	156.88
646.423	149.88
646.628	146.88
646.833	144.88
647.038	169.88
647.243	143.88
647.447	145.88
647.652	163.88
647.857	161.88
648.062	154.88
648.266	183.88
648.471	160.88
648.676	149.88
648.88	170.88
649.085	159.88
649.289	172.88
649.494	166.88
649.698	168.88
649.903	172.88
650.107	154.88
650.312	167.88
650.516	160.88
650.721	143.88
650.925	145.88
651.13	137.88
651.334	154.88
651.539	141.88
651.743	131.88
651.947	138.88
652.152	126.88
652.356	146.88
652.56	134.88
652.764	138.88
652.969	135.88
653.173	128.88
653.377	126.88
653.581	123.88
653.785	143.88
653.99	145.88
654.194	149.88
654.398	131.88
654.602	128.88
654.806	135.88
655.01	141.88
655.214	118.88
655.418	130.88
655.622	119.88
655.826	131.88
656.03	128.88
656.234	120.88
656.438	114.88
656.642	120.88
656.846	118.88
657.049	111.88
657.253	132.88
657.457	112.88
657.661	106.88
657.865	112.88
658.068	106.88
658.272	114.88
658.476	101.88
658.68	101.88
658.883	126.88
659.087	103.88
659.291	99.88
659.494	101.88
659.698	100.88
659.901	96.88
660.105	85.88
660.309	85.88
660.512	88.88
660.716	101.88
660.919	90.88
661.123	105.88
661.326	88.88
661.53	85.88
661.733	91.88
661.936	80.88
662.14	82.88
662.343	82.88
662.546	88.88
662.75	89.88
662.953	86.88
663.156	94.88
663.36	81.88
663.563	57.88
663.766	95.88
663.969	85.88
664.173	86.88
664.376	89.88
664.579	83.88
664.782	84.88
664.985	82.88
665.188	94.88
665.391	85.88
665.594	80.88
665.797	87.88
666	84.88
666.203	67.88
666.406	80.88
666.609	82.88
666.812	87.88
667.015	77.88
667.218	88.88
667.421	89.88
667.624	72.88
667.827	61.88
668.03	77.88
668.232	82.88
668.435	87.88
668.638	90.88
668.841	70.88
669.043	73.88
669.246	83.88
669.449	75.88
669.651	96.88
669.854	82.88
670.057	87.88
670.259	82.88
670.462	85.88
670.665	83.88
670.867	73.88
671.07	75.88
671.272	80.88
671.475	81.88
671.677	84.88
671.88	87.88
672.082	86.88
672.284	79.88
672.487	79.88
672.689	82.88
672.892	94.88
