Data from 1989.PennyLincolnUp.Lamp.En5.5.200Scan.071819.P2_HRD10591_17-25-05-973.txt Node
Date: Thu Jul 18 17:25:05 EDT 2019
User: cochatt
Spectrometer: HR+D1059
Trigger mode: 1
Integration Time (sec): 1.000000E-1
Scans to average: 1
Electric dark correction enabled: true
Nonlinearity correction enabled: false
Boxcar width: 0
XAxis mode: Wavelengths
Number of Pixels in Spectrum: 2048
>>>>>Begin Spectral Data<<<<<
223.165	-12.62
223.4	-12.62
223.635	-12.62
223.869	-18.62
224.104	-17.62
224.338	-16.62
224.573	-13.62
224.808	-25.62
225.042	-17.62
225.277	-10.62
225.511	7.38
225.746	18.38
225.98	3.38
226.215	12.38
226.449	11.38
226.683	26.38
226.918	30.38
227.152	23.38
227.387	28.38
227.621	30.38
227.856	37.38
228.09	38.38
228.324	51.38
228.559	73.38
228.793	71.38
229.027	102.38
229.262	101.38
229.496	120.38
229.73	143.38
229.964	157.38
230.199	135.38
230.433	97.38
230.667	121.38
230.901	120.38
231.136	113.38
231.37	122.38
231.604	128.38
231.838	114.38
232.072	126.38
232.306	113.38
232.541	115.38
232.775	111.38
233.009	104.38
233.243	109.38
233.477	129.38
233.711	124.38
233.945	117.38
234.179	135.38
234.413	126.38
234.647	116.38
234.881	126.38
235.115	128.38
235.349	111.38
235.583	123.38
235.817	134.38
236.051	126.38
236.285	123.38
236.519	129.38
236.753	143.38
236.987	159.38
237.221	187.38
237.455	261.38
237.689	212.38
237.922	155.38
238.156	150.38
238.39	132.38
238.624	134.38
238.858	133.38
239.091	129.38
239.325	130.38
239.559	135.38
239.793	136.38
240.027	156.38
240.26	139.38
240.494	165.38
240.728	166.38
240.961	163.38
241.195	168.38
241.429	149.38
241.662	139.38
241.896	134.38
242.13	142.38
242.363	146.38
242.597	143.38
242.83	137.38
243.064	150.38
243.298	159.38
243.531	138.38
243.765	147.38
243.998	148.38
244.232	138.38
244.465	157.38
244.699	137.38
244.932	146.38
245.166	155.38
245.399	154.38
245.633	153.38
245.866	167.38
246.099	164.38
246.333	146.38
246.566	159.38
246.8	151.38
247.033	157.38
247.266	181.38
247.5	177.38
247.733	176.38
247.966	184.38
248.2	183.38
248.433	192.38
248.666	195.38
248.899	202.38
249.133	219.38
249.366	222.38
249.599	228.38
249.832	217.38
250.066	209.38
250.299	179.38
250.532	216.38
250.765	220.38
250.998	258.38
251.231	236.38
251.465	243.38
251.698	240.38
251.931	223.38
252.164	210.38
252.397	210.38
252.63	244.38
252.863	232.38
253.096	245.38
253.329	246.38
253.562	261.38
253.795	245.38
254.028	249.38
254.261	228.38
254.494	241.38
254.727	291.38
254.96	306.38
255.193	312.38
255.426	288.38
255.659	270.38
255.892	263.38
256.124	249.38
256.357	261.38
256.59	235.38
256.823	239.38
257.056	232.38
257.289	230.38
257.521	225.38
257.754	239.38
257.987	246.38
258.22	245.38
258.452	247.38
258.685	241.38
258.918	249.38
259.151	228.38
259.383	261.38
259.616	255.38
259.849	269.38
260.081	288.38
260.314	274.38
260.547	280.38
260.779	280.38
261.012	288.38
261.244	244.38
261.477	279.38
261.71	254.38
261.942	255.38
262.175	263.38
262.407	263.38
262.64	242.38
262.872	242.38
263.105	235.38
263.337	241.38
263.57	233.38
263.802	223.38
264.035	235.38
264.267	232.38
264.499	235.38
264.732	234.38
264.964	257.38
265.197	245.38
265.429	227.38
265.661	242.38
265.894	223.38
266.126	244.38
266.358	236.38
266.591	229.38
266.823	246.38
267.055	247.38
267.287	242.38
267.52	246.38
267.752	266.38
267.984	261.38
268.216	259.38
268.448	257.38
268.681	273.38
268.913	271.38
269.145	289.38
269.377	307.38
269.609	312.38
269.841	305.38
270.073	299.38
270.306	337.38
270.538	370.38
270.77	364.38
271.002	351.38
271.234	333.38
271.466	346.38
271.698	360.38
271.93	369.38
272.162	373.38
272.394	361.38
272.626	333.38
272.858	339.38
273.09	326.38
273.322	317.38
273.553	310.38
273.785	311.38
274.017	291.38
274.249	314.38
274.481	293.38
274.713	311.38
274.945	321.38
275.176	298.38
275.408	301.38
275.64	309.38
275.872	290.38
276.104	294.38
276.335	299.38
276.567	315.38
276.799	321.38
277.031	341.38
277.262	346.38
277.494	348.38
277.726	333.38
277.957	316.38
278.189	316.38
278.421	298.38
278.652	306.38
278.884	300.38
279.115	314.38
279.347	291.38
279.579	309.38
279.81	289.38
280.042	301.38
280.273	280.38
280.505	299.38
280.736	299.38
280.968	295.38
281.199	290.38
281.431	289.38
281.662	303.38
281.894	292.38
282.125	297.38
282.356	323.38
282.588	321.38
282.819	364.38
283.051	311.38
283.282	308.38
283.513	309.38
283.745	301.38
283.976	295.38
284.207	317.38
284.439	313.38
284.67	321.38
284.901	321.38
285.132	329.38
285.364	311.38
285.595	300.38
285.826	308.38
286.057	315.38
286.288	315.38
286.52	286.38
286.751	313.38
286.982	318.38
287.213	301.38
287.444	305.38
287.675	295.38
287.906	302.38
288.138	336.38
288.369	314.38
288.6	349.38
288.831	313.38
289.062	326.38
289.293	341.38
289.524	325.38
289.755	327.38
289.986	317.38
290.217	329.38
290.448	320.38
290.679	312.38
290.91	331.38
291.141	296.38
291.371	321.38
291.602	313.38
291.833	318.38
292.064	334.38
292.295	310.38
292.526	324.38
292.757	324.38
292.987	323.38
293.218	301.38
293.449	338.38
293.68	309.38
293.91	345.38
294.141	327.38
294.372	320.38
294.603	331.38
294.833	335.38
295.064	311.38
295.295	335.38
295.525	318.38
295.756	339.38
295.987	337.38
296.217	350.38
296.448	384.38
296.679	351.38
296.909	325.38
297.14	324.38
297.37	324.38
297.601	344.38
297.831	333.38
298.062	346.38
298.292	317.38
298.523	320.38
298.753	342.38
298.984	313.38
299.214	341.38
299.445	321.38
299.675	331.38
299.905	349.38
300.136	337.38
300.366	333.38
300.597	339.38
300.827	353.38
301.057	372.38
301.288	358.38
301.518	344.38
301.748	347.38
301.979	351.38
302.209	346.38
302.439	350.38
302.669	353.38
302.9	355.38
303.13	374.38
303.36	363.38
303.59	365.38
303.82	374.38
304.051	375.38
304.281	354.38
304.511	347.38
304.741	345.38
304.971	336.38
305.201	357.38
305.431	334.38
305.661	345.38
305.891	364.38
306.121	358.38
306.352	364.38
306.582	365.38
306.812	379.38
307.042	374.38
307.272	369.38
307.502	379.38
307.731	379.38
307.961	372.38
308.191	349.38
308.421	361.38
308.651	371.38
308.881	389.38
309.111	381.38
309.341	402.38
309.571	380.38
309.8	419.38
310.03	399.38
310.26	419.38
310.49	422.38
310.72	418.38
310.949	443.38
311.179	438.38
311.409	402.38
311.639	417.38
311.868	404.38
312.098	425.38
312.328	423.38
312.557	448.38
312.787	454.38
313.017	443.38
313.246	440.38
313.476	420.38
313.706	423.38
313.935	404.38
314.165	433.38
314.394	448.38
314.624	433.38
314.853	431.38
315.083	425.38
315.312	418.38
315.542	428.38
315.771	409.38
316.001	415.38
316.23	429.38
316.46	407.38
316.689	430.38
316.919	412.38
317.148	435.38
317.377	433.38
317.607	435.38
317.836	427.38
318.065	414.38
318.295	421.38
318.524	404.38
318.753	433.38
318.983	397.38
319.212	407.38
319.441	422.38
319.67	418.38
319.9	413.38
320.129	413.38
320.358	426.38
320.587	414.38
320.816	433.38
321.046	441.38
321.275	461.38
321.504	429.38
321.733	453.38
321.962	447.38
322.191	459.38
322.42	488.38
322.649	488.38
322.878	517.38
323.108	522.38
323.337	548.38
323.566	554.38
323.795	614.38
324.024	674.38
324.253	836.38
324.482	1188.38
324.71	1825.38
324.939	2553.38
325.168	2252.38
325.397	1171.38
325.626	765.38
325.855	653.38
326.084	582.38
326.313	573.38
326.542	568.38
326.77	641.38
326.999	773.38
327.228	1034.38
327.457	1595.38
327.686	1934.38
327.914	1289.38
328.143	846.38
328.372	726.38
328.6	685.38
328.829	642.38
329.058	657.38
329.287	665.38
329.515	625.38
329.744	591.38
329.972	570.38
330.201	571.38
330.43	625.38
330.658	651.38
330.887	697.38
331.115	679.38
331.344	581.38
331.572	544.38
331.801	535.38
332.03	547.38
332.258	527.38
332.486	504.38
332.715	476.38
332.943	506.38
333.172	508.38
333.4	505.38
333.629	514.38
333.857	505.38
334.085	505.38
334.314	518.38
334.542	557.38
334.771	580.38
334.999	532.38
335.227	528.38
335.455	478.38
335.684	489.38
335.912	472.38
336.14	481.38
336.369	480.38
336.597	486.38
336.825	482.38
337.053	477.38
337.281	478.38
337.51	462.38
337.738	475.38
337.966	466.38
338.194	459.38
338.422	463.38
338.65	466.38
338.878	469.38
339.106	473.38
339.334	466.38
339.562	463.38
339.79	476.38
340.018	458.38
340.246	461.38
340.474	481.38
340.702	462.38
340.93	453.38
341.158	473.38
341.386	444.38
341.614	459.38
341.842	467.38
342.07	458.38
342.298	476.38
342.526	437.38
342.754	432.38
342.981	447.38
343.209	454.38
343.437	438.38
343.665	447.38
343.893	444.38
344.12	449.38
344.348	473.38
344.576	472.38
344.804	474.38
345.031	482.38
345.259	486.38
345.487	442.38
345.714	455.38
345.942	439.38
346.17	433.38
346.397	430.38
346.625	437.38
346.853	464.38
347.08	465.38
347.308	442.38
347.535	463.38
347.763	473.38
347.99	477.38
348.218	451.38
348.445	457.38
348.673	461.38
348.9	452.38
349.128	468.38
349.355	430.38
349.583	410.38
349.81	410.38
350.037	430.38
350.265	410.38
350.492	422.38
350.72	441.38
350.947	439.38
351.174	433.38
351.402	457.38
351.629	465.38
351.856	451.38
352.083	453.38
352.311	468.38
352.538	467.38
352.765	466.38
352.992	437.38
353.22	477.38
353.447	424.38
353.674	439.38
353.901	428.38
354.128	411.38
354.355	400.38
354.583	402.38
354.81	413.38
355.037	413.38
355.264	417.38
355.491	417.38
355.718	406.38
355.945	401.38
356.172	389.38
356.399	395.38
356.626	405.38
356.853	412.38
357.08	420.38
357.307	403.38
357.534	405.38
357.761	413.38
357.988	398.38
358.215	410.38
358.441	377.38
358.668	425.38
358.895	392.38
359.122	415.38
359.349	427.38
359.576	433.38
359.802	459.38
360.029	481.38
360.256	478.38
360.483	481.38
360.709	441.38
360.936	444.38
361.163	428.38
361.39	426.38
361.616	421.38
361.843	427.38
362.07	445.38
362.296	461.38
362.523	433.38
362.749	419.38
362.976	413.38
363.203	431.38
363.429	407.38
363.656	422.38
363.882	422.38
364.109	423.38
364.335	423.38
364.562	423.38
364.788	401.38
365.015	408.38
365.241	411.38
365.468	437.38
365.694	426.38
365.92	424.38
366.147	440.38
366.373	411.38
366.599	433.38
366.826	421.38
367.052	388.38
367.278	412.38
367.505	425.38
367.731	401.38
367.957	411.38
368.184	411.38
368.41	414.38
368.636	450.38
368.862	442.38
369.089	432.38
369.315	413.38
369.541	419.38
369.767	412.38
369.993	412.38
370.219	404.38
370.445	387.38
370.672	421.38
370.898	391.38
371.124	379.38
371.35	405.38
371.576	410.38
371.802	395.38
372.028	395.38
372.254	389.38
372.48	397.38
372.706	393.38
372.932	405.38
373.158	394.38
373.384	402.38
373.61	399.38
373.835	405.38
374.061	406.38
374.287	423.38
374.513	406.38
374.739	419.38
374.965	411.38
375.191	418.38
375.416	417.38
375.642	405.38
375.868	402.38
376.094	390.38
376.319	409.38
376.545	387.38
376.771	387.38
376.997	391.38
377.222	390.38
377.448	375.38
377.674	393.38
377.899	409.38
378.125	384.38
378.35	389.38
378.576	401.38
378.802	397.38
379.027	391.38
379.253	377.38
379.478	368.38
379.704	394.38
379.929	406.38
380.155	403.38
380.38	402.38
380.606	413.38
380.831	381.38
381.057	401.38
381.282	405.38
381.507	410.38
381.733	405.38
381.958	415.38
382.184	391.38
382.409	400.38
382.634	409.38
382.86	416.38
383.085	393.38
383.31	390.38
383.535	399.38
383.761	397.38
383.986	415.38
384.211	425.38
384.436	403.38
384.662	409.38
384.887	435.38
385.112	437.38
385.337	417.38
385.562	430.38
385.787	411.38
386.013	437.38
386.238	429.38
386.463	413.38
386.688	434.38
386.913	415.38
387.138	425.38
387.363	431.38
387.588	422.38
387.813	413.38
388.038	421.38
388.263	430.38
388.488	422.38
388.713	422.38
388.938	421.38
389.163	416.38
389.387	430.38
389.612	412.38
389.837	418.38
390.062	399.38
390.287	428.38
390.512	421.38
390.736	426.38
390.961	413.38
391.186	413.38
391.411	422.38
391.636	425.38
391.86	437.38
392.085	455.38
392.31	437.38
392.534	400.38
392.759	425.38
392.984	411.38
393.208	436.38
393.433	420.38
393.658	418.38
393.882	402.38
394.107	424.38
394.331	415.38
394.556	416.38
394.78	441.38
395.005	421.38
395.229	426.38
395.454	452.38
395.678	449.38
395.903	457.38
396.127	459.38
396.352	477.38
396.576	471.38
396.801	428.38
397.025	439.38
397.249	445.38
397.474	423.38
397.698	449.38
397.922	451.38
398.147	465.38
398.371	464.38
398.595	471.38
398.82	486.38
399.044	483.38
399.268	466.38
399.492	498.38
399.717	526.38
399.941	559.38
400.165	592.38
400.389	582.38
400.613	557.38
400.837	509.38
401.062	503.38
401.286	490.38
401.51	481.38
401.734	471.38
401.958	474.38
402.182	469.38
402.406	498.38
402.63	500.38
402.854	504.38
403.078	498.38
403.302	483.38
403.526	494.38
403.75	476.38
403.974	473.38
404.198	490.38
404.422	512.38
404.645	502.38
404.869	510.38
405.093	538.38
405.317	553.38
405.541	587.38
405.765	532.38
405.988	529.38
406.212	541.38
406.436	533.38
406.66	573.38
406.883	543.38
407.107	574.38
407.331	607.38
407.555	680.38
407.778	661.38
408.002	572.38
408.226	568.38
408.449	549.38
408.673	532.38
408.896	581.38
409.12	619.38
409.344	579.38
409.567	520.38
409.791	519.38
410.014	503.38
410.238	487.38
410.461	496.38
410.685	511.38
410.908	517.38
411.132	550.38
411.355	586.38
411.578	547.38
411.802	522.38
412.025	499.38
412.249	511.38
412.472	528.38
412.695	550.38
412.919	527.38
413.142	484.38
413.365	487.38
413.589	475.38
413.812	467.38
414.035	460.38
414.258	470.38
414.482	460.38
414.705	441.38
414.928	443.38
415.151	472.38
415.374	452.38
415.597	451.38
415.821	465.38
416.044	452.38
416.267	467.38
416.49	457.38
416.713	441.38
416.936	455.38
417.159	467.38
417.382	475.38
417.605	465.38
417.828	508.38
418.051	482.38
418.274	484.38
418.497	458.38
418.72	449.38
418.943	462.38
419.166	484.38
419.389	506.38
419.611	478.38
419.834	483.38
420.057	484.38
420.28	486.38
420.503	472.38
420.726	488.38
420.948	507.38
421.171	573.38
421.394	577.38
421.617	519.38
421.839	490.38
422.062	507.38
422.285	509.38
422.507	590.38
422.73	655.38
422.953	630.38
423.175	541.38
423.398	507.38
423.621	501.38
423.843	523.38
424.066	518.38
424.288	532.38
424.511	565.38
424.733	602.38
424.956	685.38
425.178	682.38
425.401	677.38
425.623	689.38
425.846	578.38
426.068	534.38
426.291	541.38
426.513	522.38
426.735	546.38
426.958	575.38
427.18	679.38
427.402	830.38
427.625	895.38
427.847	786.38
428.069	698.38
428.292	581.38
428.514	545.38
428.736	510.38
428.958	518.38
429.181	497.38
429.403	491.38
429.625	506.38
429.847	523.38
430.069	626.38
430.292	583.38
430.514	525.38
430.736	494.38
430.958	477.38
431.18	477.38
431.402	475.38
431.624	456.38
431.846	465.38
432.068	438.38
432.29	456.38
432.512	463.38
432.734	485.38
432.956	454.38
433.178	492.38
433.4	484.38
433.622	499.38
433.844	461.38
434.066	449.38
434.287	453.38
434.509	448.38
434.731	476.38
434.953	476.38
435.175	495.38
435.397	505.38
435.618	543.38
435.84	597.38
436.062	679.38
436.284	747.38
436.505	617.38
436.727	555.38
436.949	527.38
437.17	489.38
437.392	487.38
437.614	519.38
437.835	559.38
438.057	650.38
438.278	766.38
438.5	737.38
438.721	810.38
438.943	810.38
439.165	631.38
439.386	568.38
439.608	551.38
439.829	566.38
440.05	584.38
440.272	641.38
440.493	593.38
440.715	529.38
440.936	504.38
441.158	503.38
441.379	509.38
441.6	497.38
441.822	526.38
442.043	584.38
442.264	649.38
442.486	695.38
442.707	602.38
442.928	547.38
443.149	543.38
443.371	569.38
443.592	610.38
443.813	708.38
444.034	806.38
444.255	653.38
444.476	576.38
444.698	557.38
444.919	543.38
445.14	637.38
445.361	597.38
445.582	568.38
445.803	658.38
446.024	741.38
446.245	778.38
446.466	687.38
446.687	588.38
446.908	539.38
447.129	499.38
447.35	490.38
447.571	492.38
447.792	497.38
448.013	492.38
448.234	523.38
448.455	580.38
448.675	689.38
448.896	802.38
449.117	694.38
449.338	629.38
449.559	770.38
449.779	848.38
450	699.38
450.221	574.38
450.442	526.38
450.662	519.38
450.883	519.38
451.104	514.38
451.324	492.38
451.545	479.38
451.766	457.38
451.986	450.38
452.207	435.38
452.428	412.38
452.648	439.38
452.869	421.38
453.089	445.38
453.31	472.38
453.53	456.38
453.751	443.38
453.971	429.38
454.192	453.38
454.412	467.38
454.633	443.38
454.853	433.38
455.073	442.38
455.294	468.38
455.514	548.38
455.734	522.38
455.955	459.38
456.175	422.38
456.395	415.38
456.616	403.38
456.836	435.38
457.056	409.38
457.276	414.38
457.497	407.38
457.717	401.38
457.937	422.38
458.157	407.38
458.377	424.38
458.598	459.38
458.818	529.38
459.038	611.38
459.258	623.38
459.478	516.38
459.698	481.38
459.918	449.38
460.138	449.38
460.358	455.38
460.578	469.38
460.798	458.38
461.018	458.38
461.238	444.38
461.458	455.38
461.678	445.38
461.898	462.38
462.118	451.38
462.338	473.38
462.558	461.38
462.777	454.38
462.997	471.38
463.217	504.38
463.437	502.38
463.657	480.38
463.876	480.38
464.096	485.38
464.316	473.38
464.536	492.38
464.755	474.38
464.975	498.38
465.195	557.38
465.414	663.38
465.634	551.38
465.854	517.38
466.073	490.38
466.293	461.38
466.512	462.38
466.732	474.38
466.951	438.38
467.171	424.38
467.391	441.38
467.61	465.38
467.829	466.38
468.049	470.38
468.268	468.38
468.488	426.38
468.707	419.38
468.927	416.38
469.146	426.38
469.365	424.38
469.585	439.38
469.804	447.38
470.023	459.38
470.243	445.38
470.462	471.38
470.681	482.38
470.901	484.38
471.12	435.38
471.339	453.38
471.558	465.38
471.777	476.38
471.997	461.38
472.216	443.38
472.435	486.38
472.654	457.38
472.873	444.38
473.092	451.38
473.311	459.38
473.53	443.38
473.749	461.38
473.968	503.38
474.187	593.38
474.406	620.38
474.625	532.38
474.844	487.38
475.063	463.38
475.282	440.38
475.501	464.38
475.72	469.38
475.939	461.38
476.158	457.38
476.377	460.38
476.596	464.38
476.814	473.38
477.033	475.38
477.252	482.38
477.471	465.38
477.69	475.38
477.908	485.38
478.127	490.38
478.346	476.38
478.564	488.38
478.783	504.38
479.002	493.38
479.22	515.38
479.439	530.38
479.658	555.38
479.876	548.38
480.095	553.38
480.313	563.38
480.532	551.38
480.751	541.38
480.969	538.38
481.188	610.38
481.406	636.38
481.624	577.38
481.843	541.38
482.061	534.38
482.28	552.38
482.498	547.38
482.717	527.38
482.935	519.38
483.153	523.38
483.372	524.38
483.59	513.38
483.808	525.38
484.027	501.38
484.245	529.38
484.463	523.38
484.681	523.38
484.9	534.38
485.118	526.38
485.336	522.38
485.554	517.38
485.772	538.38
485.99	569.38
486.209	546.38
486.427	564.38
486.645	561.38
486.863	568.38
487.081	564.38
487.299	588.38
487.517	574.38
487.735	584.38
487.953	588.38
488.171	588.38
488.389	570.38
488.607	563.38
488.825	573.38
489.043	548.38
489.261	602.38
489.479	569.38
489.696	577.38
489.914	579.38
490.132	576.38
490.35	593.38
490.568	598.38
490.786	609.38
491.003	609.38
491.221	630.38
491.439	649.38
491.657	658.38
491.874	663.38
492.092	642.38
492.31	637.38
492.527	652.38
492.745	677.38
492.963	647.38
493.18	674.38
493.398	665.38
493.615	668.38
493.833	683.38
494.05	672.38
494.268	691.38
494.485	683.38
494.703	664.38
494.92	657.38
495.138	715.38
495.355	689.38
495.573	698.38
495.79	693.38
496.008	667.38
496.225	679.38
496.442	677.38
496.66	676.38
496.877	692.38
497.094	685.38
497.312	673.38
497.529	704.38
497.746	685.38
497.963	690.38
498.181	737.38
498.398	755.38
498.615	734.38
498.832	777.38
499.049	754.38
499.267	753.38
499.484	784.38
499.701	809.38
499.918	822.38
500.135	851.38
500.352	857.38
500.569	859.38
500.786	894.38
501.003	858.38
501.22	881.38
501.437	847.38
501.654	834.38
501.871	820.38
502.088	845.38
502.305	788.38
502.522	779.38
502.739	730.38
502.956	725.38
503.172	715.38
503.389	713.38
503.606	703.38
503.823	693.38
504.04	687.38
504.256	703.38
504.473	672.38
504.69	671.38
504.907	682.38
505.123	674.38
505.34	678.38
505.557	649.38
505.773	653.38
505.99	641.38
506.207	663.38
506.423	681.38
506.64	645.38
506.856	631.38
507.073	621.38
507.289	635.38
507.506	631.38
507.722	629.38
507.939	662.38
508.155	635.38
508.372	636.38
508.588	630.38
508.805	618.38
509.021	613.38
509.238	654.38
509.454	633.38
509.67	650.38
509.887	618.38
510.103	613.38
510.319	656.38
510.536	748.38
510.752	1313.38
510.968	1068.38
511.184	689.38
511.401	643.38
511.617	593.38
511.833	595.38
512.049	575.38
512.265	609.38
512.481	599.38
512.698	590.38
512.914	585.38
513.13	598.38
513.346	588.38
513.562	598.38
513.778	585.38
513.994	618.38
514.21	625.38
514.426	645.38
514.642	705.38
514.858	736.38
515.074	762.38
515.29	911.38
515.506	1406.38
515.721	1143.38
515.937	758.38
516.153	702.38
516.369	660.38
516.585	619.38
516.801	616.38
517.016	617.38
517.232	598.38
517.448	589.38
517.664	583.38
517.879	603.38
518.095	611.38
518.311	580.38
518.527	603.38
518.742	606.38
518.958	596.38
519.173	601.38
519.389	579.38
519.605	575.38
519.82	592.38
520.036	618.38
520.251	604.38
520.467	670.38
520.682	675.38
520.898	679.38
521.113	714.38
521.329	729.38
521.544	859.38
521.76	1100.38
521.975	1879.38
522.19	1827.38
522.406	953.38
522.621	709.38
522.836	632.38
523.052	592.38
523.267	565.38
523.482	555.38
523.698	531.38
523.913	575.38
524.128	534.38
524.343	533.38
524.559	544.38
524.774	518.38
524.989	515.38
525.204	525.38
525.419	521.38
525.634	519.38
525.849	488.38
526.064	515.38
526.28	473.38
526.495	477.38
526.71	479.38
526.925	490.38
527.14	497.38
527.355	473.38
527.57	473.38
527.785	470.38
527.999	478.38
528.214	486.38
528.429	491.38
528.644	486.38
528.859	467.38
529.074	504.38
529.289	523.38
529.503	586.38
529.718	565.38
529.933	519.38
530.148	497.38
530.363	490.38
530.577	468.38
530.792	475.38
531.007	473.38
531.221	483.38
531.436	455.38
531.651	472.38
531.865	445.38
532.08	462.38
532.295	458.38
532.509	470.38
532.724	477.38
532.938	436.38
533.153	462.38
533.367	464.38
533.582	457.38
533.796	455.38
534.011	459.38
534.225	453.38
534.44	426.38
534.654	465.38
534.868	447.38
535.083	443.38
535.297	440.38
535.511	459.38
535.726	464.38
535.94	449.38
536.154	429.38
536.369	454.38
536.583	466.38
536.797	440.38
537.011	445.38
537.225	449.38
537.44	426.38
537.654	436.38
537.868	446.38
538.082	413.38
538.296	429.38
538.51	445.38
538.724	445.38
538.938	435.38
539.153	426.38
539.367	459.38
539.581	460.38
539.795	449.38
540.009	444.38
540.222	428.38
540.436	435.38
540.65	443.38
540.864	433.38
541.078	440.38
541.292	454.38
541.506	449.38
541.72	433.38
541.934	440.38
542.147	461.38
542.361	433.38
542.575	425.38
542.789	422.38
543.002	449.38
543.216	437.38
543.43	425.38
543.644	445.38
543.857	453.38
544.071	432.38
544.285	420.38
544.498	418.38
544.712	442.38
544.925	433.38
545.139	436.38
545.352	425.38
545.566	415.38
545.779	439.38
545.993	446.38
546.206	411.38
546.42	442.38
546.633	464.38
546.847	414.38
547.06	418.38
547.274	411.38
547.487	411.38
547.7	415.38
547.914	426.38
548.127	410.38
548.34	409.38
548.554	420.38
548.767	420.38
548.98	409.38
549.193	408.38
549.407	405.38
549.62	403.38
549.833	394.38
550.046	387.38
550.259	423.38
550.473	413.38
550.686	407.38
550.899	388.38
551.112	398.38
551.325	402.38
551.538	400.38
551.751	405.38
551.964	410.38
552.177	394.38
552.39	409.38
552.603	395.38
552.816	411.38
553.029	406.38
553.242	411.38
553.455	392.38
553.667	421.38
553.88	431.38
554.093	425.38
554.306	405.38
554.519	401.38
554.732	413.38
554.944	411.38
555.157	393.38
555.37	386.38
555.583	390.38
555.795	408.38
556.008	385.38
556.221	371.38
556.433	385.38
556.646	360.38
556.859	354.38
557.071	373.38
557.284	385.38
557.496	367.38
557.709	365.38
557.921	375.38
558.134	366.38
558.346	387.38
558.559	366.38
558.771	342.38
558.984	363.38
559.196	357.38
559.409	363.38
559.621	376.38
559.833	356.38
560.046	363.38
560.258	370.38
560.47	364.38
560.683	364.38
560.895	347.38
561.107	362.38
561.32	356.38
561.532	358.38
561.744	356.38
561.956	355.38
562.168	384.38
562.381	373.38
562.593	364.38
562.805	347.38
563.017	366.38
563.229	354.38
563.441	362.38
563.653	371.38
563.865	353.38
564.077	362.38
564.289	386.38
564.501	379.38
564.713	371.38
564.925	395.38
565.137	395.38
565.349	380.38
565.561	362.38
565.773	398.38
565.985	397.38
566.197	397.38
566.408	389.38
566.62	421.38
566.832	414.38
567.044	420.38
567.255	414.38
567.467	410.38
567.679	451.38
567.891	443.38
568.102	414.38
568.314	419.38
568.526	413.38
568.737	423.38
568.949	389.38
569.161	387.38
569.372	401.38
569.584	375.38
569.795	383.38
570.007	382.38
570.218	417.38
570.43	397.38
570.641	371.38
570.853	354.38
571.064	357.38
571.276	347.38
571.487	343.38
571.698	336.38
571.91	333.38
572.121	340.38
572.333	334.38
572.544	346.38
572.755	327.38
572.966	332.38
573.178	311.38
573.389	332.38
573.6	323.38
573.811	314.38
574.023	312.38
574.234	313.38
574.445	309.38
574.656	319.38
574.867	327.38
575.078	318.38
575.289	321.38
575.501	306.38
575.712	311.38
575.923	317.38
576.134	324.38
576.345	315.38
576.556	301.38
576.767	327.38
576.978	315.38
577.188	328.38
577.399	300.38
577.61	285.38
577.821	305.38
578.032	305.38
578.243	335.38
578.454	613.38
578.665	443.38
578.875	327.38
579.086	300.38
579.297	330.38
579.508	293.38
579.718	284.38
579.929	277.38
580.14	277.38
580.35	272.38
580.561	291.38
580.772	294.38
580.982	301.38
581.193	317.38
581.403	277.38
581.614	260.38
581.825	295.38
582.035	287.38
582.246	277.38
582.456	303.38
582.667	302.38
582.877	288.38
583.087	291.38
583.298	282.38
583.508	284.38
583.719	284.38
583.929	298.38
584.139	275.38
584.35	271.38
584.56	266.38
584.77	268.38
584.981	296.38
585.191	283.38
585.401	294.38
585.611	295.38
585.821	272.38
586.032	274.38
586.242	268.38
586.452	271.38
586.662	286.38
586.872	285.38
587.082	257.38
587.292	271.38
587.502	286.38
587.713	270.38
587.923	275.38
588.133	279.38
588.343	279.38
588.553	288.38
588.762	297.38
588.972	267.38
589.182	284.38
589.392	298.38
589.602	276.38
589.812	275.38
590.022	292.38
590.232	277.38
590.441	274.38
590.651	281.38
590.861	267.38
591.071	273.38
591.281	270.38
591.49	266.38
591.7	275.38
591.91	264.38
592.119	270.38
592.329	278.38
592.539	289.38
592.748	277.38
592.958	289.38
593.167	269.38
593.377	297.38
593.587	292.38
593.796	261.38
594.006	291.38
594.215	293.38
594.424	285.38
594.634	266.38
594.843	284.38
595.053	270.38
595.262	278.38
595.472	260.38
595.681	281.38
595.89	262.38
596.1	263.38
596.309	283.38
596.518	280.38
596.727	258.38
596.937	263.38
597.146	237.38
597.355	274.38
597.564	260.38
597.774	266.38
597.983	267.38
598.192	253.38
598.401	245.38
598.61	240.38
598.819	244.38
599.028	261.38
599.237	261.38
599.446	249.38
599.655	250.38
599.864	245.38
600.073	236.38
600.282	227.38
600.491	245.38
600.7	243.38
600.909	266.38
601.118	226.38
601.327	234.38
601.536	232.38
601.745	246.38
601.953	247.38
602.162	237.38
602.371	219.38
602.58	229.38
602.789	251.38
602.997	217.38
603.206	235.38
603.415	238.38
603.623	220.38
603.832	227.38
604.041	238.38
604.249	238.38
604.458	247.38
604.666	239.38
604.875	233.38
605.084	238.38
605.292	232.38
605.501	255.38
605.709	233.38
605.918	230.38
606.126	221.38
606.334	239.38
606.543	237.38
606.751	238.38
606.96	223.38
607.168	230.38
607.376	221.38
607.585	212.38
607.793	240.38
608.001	229.38
608.21	222.38
608.418	232.38
608.626	237.38
608.834	214.38
609.043	230.38
609.251	222.38
609.459	231.38
609.667	238.38
609.875	226.38
610.083	225.38
610.291	226.38
610.499	219.38
610.707	230.38
610.916	229.38
611.124	243.38
611.332	228.38
611.54	226.38
611.748	231.38
611.955	218.38
612.163	241.38
612.371	228.38
612.579	233.38
612.787	218.38
612.995	215.38
613.203	231.38
613.411	229.38
613.618	215.38
613.826	232.38
614.034	235.38
614.242	229.38
614.449	217.38
614.657	216.38
614.865	218.38
615.072	206.38
615.28	241.38
615.488	211.38
615.695	221.38
615.903	223.38
616.111	205.38
616.318	234.38
616.526	227.38
616.733	223.38
616.941	226.38
617.148	236.38
617.356	211.38
617.563	230.38
617.771	229.38
617.978	222.38
618.185	215.38
618.393	228.38
618.6	227.38
618.807	208.38
619.015	215.38
619.222	217.38
619.429	219.38
619.637	213.38
619.844	217.38
620.051	213.38
620.258	198.38
620.466	207.38
620.673	216.38
620.88	211.38
621.087	228.38
621.294	223.38
621.501	204.38
621.708	207.38
621.915	207.38
622.122	216.38
622.329	198.38
622.536	225.38
622.743	223.38
622.95	198.38
623.157	202.38
623.364	208.38
623.571	201.38
623.778	203.38
623.985	192.38
624.192	198.38
624.399	203.38
624.606	189.38
624.812	216.38
625.019	207.38
625.226	208.38
625.433	198.38
625.639	208.38
625.846	196.38
626.053	203.38
626.259	190.38
626.466	203.38
626.673	207.38
626.879	192.38
627.086	201.38
627.293	191.38
627.499	180.38
627.706	193.38
627.912	187.38
628.119	182.38
628.325	193.38
628.532	194.38
628.738	198.38
628.945	199.38
629.151	195.38
629.357	183.38
629.564	188.38
629.77	171.38
629.976	185.38
630.183	190.38
630.389	190.38
630.595	187.38
630.802	199.38
631.008	185.38
631.214	191.38
631.42	182.38
631.627	191.38
631.833	190.38
632.039	195.38
632.245	199.38
632.451	191.38
632.657	177.38
632.863	179.38
633.069	180.38
633.275	174.38
633.481	182.38
633.688	177.38
633.893	189.38
634.099	165.38
634.305	170.38
634.511	190.38
634.717	177.38
634.923	174.38
635.129	171.38
635.335	182.38
635.541	179.38
635.747	181.38
635.952	170.38
636.158	169.38
636.364	170.38
636.57	182.38
636.775	178.38
636.981	177.38
637.187	181.38
637.392	162.38
637.598	159.38
637.804	180.38
638.009	164.38
638.215	172.38
638.421	172.38
638.626	169.38
638.832	167.38
639.037	194.38
639.243	167.38
639.448	173.38
639.654	169.38
639.859	155.38
640.065	160.38
640.27	188.38
640.475	169.38
640.681	156.38
640.886	163.38
641.091	162.38
641.297	162.38
641.502	162.38
641.707	155.38
641.913	159.38
642.118	158.38
642.323	162.38
642.528	170.38
642.733	154.38
642.939	166.38
643.144	160.38
643.349	156.38
643.554	170.38
643.759	167.38
643.964	151.38
644.169	146.38
644.374	161.38
644.579	157.38
644.784	162.38
644.989	172.38
645.194	167.38
645.399	167.38
645.604	150.38
645.809	149.38
646.014	166.38
646.219	169.38
646.423	174.38
646.628	179.38
646.833	181.38
647.038	163.38
647.243	169.38
647.447	165.38
647.652	163.38
647.857	161.38
648.062	171.38
648.266	160.38
648.471	163.38
648.676	170.38
648.88	163.38
649.085	182.38
649.289	181.38
649.494	174.38
649.698	181.38
649.903	184.38
650.107	179.38
650.312	162.38
650.516	150.38
650.721	150.38
650.925	175.38
651.13	157.38
651.334	160.38
651.539	161.38
651.743	143.38
651.947	141.38
652.152	146.38
652.356	153.38
652.56	143.38
652.764	137.38
652.969	146.38
653.173	137.38
653.377	143.38
653.581	124.38
653.785	136.38
653.99	134.38
654.194	144.38
654.398	138.38
654.602	136.38
654.806	134.38
655.01	127.38
655.214	150.38
655.418	136.38
655.622	129.38
655.826	127.38
656.03	133.38
656.234	129.38
656.438	146.38
656.642	145.38
656.846	137.38
657.049	134.38
657.253	121.38
657.457	113.38
657.661	118.38
657.865	119.38
658.068	100.38
658.272	105.38
658.476	102.38
658.68	98.38
658.883	114.38
659.087	106.38
659.291	112.38
659.494	98.38
659.698	96.38
659.901	115.38
660.105	96.38
660.309	94.38
660.512	94.38
660.716	97.38
660.919	99.38
661.123	111.38
661.326	90.38
661.53	89.38
661.733	100.38
661.936	102.38
662.14	74.38
662.343	89.38
662.546	100.38
662.75	98.38
662.953	83.38
663.156	77.38
663.36	83.38
663.563	75.38
663.766	91.38
663.969	93.38
664.173	94.38
664.376	80.38
664.579	75.38
664.782	77.38
664.985	84.38
665.188	86.38
665.391	81.38
665.594	84.38
665.797	92.38
666	90.38
666.203	88.38
666.406	93.38
666.609	84.38
666.812	79.38
667.015	91.38
667.218	99.38
667.421	94.38
667.624	89.38
667.827	90.38
668.03	84.38
668.232	100.38
668.435	88.38
668.638	89.38
668.841	85.38
669.043	79.38
669.246	71.38
669.449	79.38
669.651	87.38
669.854	93.38
670.057	95.38
670.259	77.38
670.462	81.38
670.665	67.38
670.867	90.38
671.07	80.38
671.272	93.38
671.475	78.38
671.677	78.38
671.88	84.38
672.082	75.38
672.284	103.38
672.487	94.38
672.689	77.38
672.892	79.38
