Data from 1989.PennyLincolnUp.Lamp.En5.5.200Scan.071819.P2_HRD10591_17-26-22-973.txt Node
Date: Thu Jul 18 17:26:22 EDT 2019
User: cochatt
Spectrometer: HR+D1059
Trigger mode: 1
Integration Time (sec): 1.000000E-1
Scans to average: 1
Electric dark correction enabled: true
Nonlinearity correction enabled: false
Boxcar width: 0
XAxis mode: Wavelengths
Number of Pixels in Spectrum: 2048
>>>>>Begin Spectral Data<<<<<
223.165	-4.06
223.4	-4.06
223.635	-4.06
223.869	-13.06
224.104	-14.06
224.338	-22.06
224.573	-5.06
224.808	-18.06
225.042	-6.06
225.277	-9.06
225.511	-1.06
225.746	5.94
225.98	6.94
226.215	14.94
226.449	12.94
226.683	17.94
226.918	9.94
227.152	23.94
227.387	27.94
227.621	44.94
227.856	38.94
228.09	49.94
228.324	59.94
228.559	54.94
228.793	72.94
229.027	101.94
229.262	115.94
229.496	121.94
229.73	138.94
229.964	153.94
230.199	129.94
230.433	123.94
230.667	127.94
230.901	111.94
231.136	107.94
231.37	108.94
231.604	108.94
231.838	126.94
232.072	120.94
232.306	128.94
232.541	130.94
232.775	122.94
233.009	125.94
233.243	123.94
233.477	124.94
233.711	118.94
233.945	117.94
234.179	123.94
234.413	120.94
234.647	126.94
234.881	127.94
235.115	119.94
235.349	121.94
235.583	121.94
235.817	125.94
236.051	117.94
236.285	134.94
236.519	128.94
236.753	149.94
236.987	163.94
237.221	199.94
237.455	272.94
237.689	216.94
237.922	145.94
238.156	142.94
238.39	134.94
238.624	146.94
238.858	125.94
239.091	135.94
239.325	133.94
239.559	138.94
239.793	124.94
240.027	142.94
240.26	160.94
240.494	160.94
240.728	170.94
240.961	170.94
241.195	141.94
241.429	150.94
241.662	140.94
241.896	152.94
242.13	130.94
242.363	142.94
242.597	138.94
242.83	153.94
243.064	139.94
243.298	135.94
243.531	141.94
243.765	152.94
243.998	155.94
244.232	151.94
244.465	147.94
244.699	157.94
244.932	147.94
245.166	154.94
245.399	176.94
245.633	153.94
245.866	154.94
246.099	157.94
246.333	168.94
246.566	174.94
246.8	164.94
247.033	158.94
247.266	161.94
247.5	185.94
247.733	157.94
247.966	187.94
248.2	210.94
248.433	189.94
248.666	205.94
248.899	211.94
249.133	210.94
249.366	235.94
249.599	207.94
249.832	216.94
250.066	206.94
250.299	205.94
250.532	221.94
250.765	234.94
250.998	247.94
251.231	266.94
251.465	244.94
251.698	242.94
251.931	202.94
252.164	231.94
252.397	220.94
252.63	226.94
252.863	221.94
253.096	252.94
253.329	254.94
253.562	269.94
253.795	243.94
254.028	241.94
254.261	241.94
254.494	263.94
254.727	296.94
254.96	312.94
255.193	300.94
255.426	279.94
255.659	284.94
255.892	290.94
256.124	308.94
256.357	290.94
256.59	292.94
256.823	276.94
257.056	263.94
257.289	256.94
257.521	234.94
257.754	253.94
257.987	235.94
258.22	240.94
258.452	242.94
258.685	234.94
258.918	228.94
259.151	230.94
259.383	237.94
259.616	246.94
259.849	240.94
260.081	264.94
260.314	268.94
260.547	298.94
260.779	267.94
261.012	281.94
261.244	246.94
261.477	258.94
261.71	242.94
261.942	262.94
262.175	260.94
262.407	268.94
262.64	243.94
262.872	245.94
263.105	225.94
263.337	241.94
263.57	251.94
263.802	254.94
264.035	246.94
264.267	250.94
264.499	241.94
264.732	233.94
264.964	234.94
265.197	209.94
265.429	241.94
265.661	240.94
265.894	228.94
266.126	249.94
266.358	225.94
266.591	244.94
266.823	253.94
267.055	265.94
267.287	262.94
267.52	272.94
267.752	254.94
267.984	252.94
268.216	252.94
268.448	250.94
268.681	261.94
268.913	282.94
269.145	280.94
269.377	309.94
269.609	298.94
269.841	295.94
270.073	318.94
270.306	332.94
270.538	355.94
270.77	346.94
271.002	352.94
271.234	333.94
271.466	332.94
271.698	352.94
271.93	359.94
272.162	358.94
272.394	368.94
272.626	341.94
272.858	314.94
273.09	326.94
273.322	314.94
273.553	312.94
273.785	298.94
274.017	298.94
274.249	298.94
274.481	298.94
274.713	287.94
274.945	294.94
275.176	301.94
275.408	316.94
275.64	312.94
275.872	312.94
276.104	292.94
276.335	288.94
276.567	301.94
276.799	320.94
277.031	357.94
277.262	369.94
277.494	364.94
277.726	349.94
277.957	334.94
278.189	319.94
278.421	305.94
278.652	311.94
278.884	303.94
279.115	296.94
279.347	301.94
279.579	315.94
279.81	299.94
280.042	289.94
280.273	306.94
280.505	325.94
280.736	298.94
280.968	297.94
281.199	295.94
281.431	265.94
281.662	298.94
281.894	301.94
282.125	289.94
282.356	286.94
282.588	355.94
282.819	353.94
283.051	320.94
283.282	294.94
283.513	319.94
283.745	326.94
283.976	304.94
284.207	310.94
284.439	313.94
284.67	319.94
284.901	309.94
285.132	321.94
285.364	309.94
285.595	294.94
285.826	284.94
286.057	317.94
286.288	313.94
286.52	318.94
286.751	299.94
286.982	320.94
287.213	304.94
287.444	316.94
287.675	323.94
287.906	335.94
288.138	339.94
288.369	324.94
288.6	332.94
288.831	330.94
289.062	312.94
289.293	342.94
289.524	327.94
289.755	312.94
289.986	311.94
290.217	330.94
290.448	322.94
290.679	323.94
290.91	325.94
291.141	301.94
291.371	304.94
291.602	327.94
291.833	305.94
292.064	330.94
292.295	312.94
292.526	325.94
292.757	328.94
292.987	306.94
293.218	306.94
293.449	322.94
293.68	323.94
293.91	305.94
294.141	314.94
294.372	337.94
294.603	309.94
294.833	309.94
295.064	332.94
295.295	318.94
295.525	330.94
295.756	333.94
295.987	347.94
296.217	349.94
296.448	366.94
296.679	356.94
296.909	319.94
297.14	316.94
297.37	330.94
297.601	342.94
297.831	322.94
298.062	331.94
298.292	328.94
298.523	352.94
298.753	331.94
298.984	317.94
299.214	335.94
299.445	346.94
299.675	343.94
299.905	344.94
300.136	348.94
300.366	333.94
300.597	338.94
300.827	360.94
301.057	345.94
301.288	354.94
301.518	352.94
301.748	349.94
301.979	364.94
302.209	378.94
302.439	375.94
302.669	355.94
302.9	358.94
303.13	371.94
303.36	352.94
303.59	380.94
303.82	373.94
304.051	360.94
304.281	368.94
304.511	362.94
304.741	345.94
304.971	352.94
305.201	357.94
305.431	354.94
305.661	379.94
305.891	359.94
306.121	352.94
306.352	377.94
306.582	370.94
306.812	369.94
307.042	370.94
307.272	366.94
307.502	376.94
307.731	365.94
307.961	376.94
308.191	364.94
308.421	363.94
308.651	356.94
308.881	370.94
309.111	375.94
309.341	375.94
309.571	374.94
309.8	387.94
310.03	396.94
310.26	416.94
310.49	404.94
310.72	420.94
310.949	429.94
311.179	434.94
311.409	422.94
311.639	412.94
311.868	412.94
312.098	425.94
312.328	456.94
312.557	443.94
312.787	451.94
313.017	453.94
313.246	445.94
313.476	434.94
313.706	442.94
313.935	419.94
314.165	424.94
314.394	463.94
314.624	438.94
314.853	427.94
315.083	430.94
315.312	402.94
315.542	419.94
315.771	399.94
316.001	405.94
316.23	438.94
316.46	414.94
316.689	395.94
316.919	437.94
317.148	433.94
317.377	439.94
317.607	445.94
317.836	430.94
318.065	436.94
318.295	407.94
318.524	422.94
318.753	411.94
318.983	421.94
319.212	408.94
319.441	418.94
319.67	444.94
319.9	418.94
320.129	433.94
320.358	425.94
320.587	398.94
320.816	430.94
321.046	454.94
321.275	469.94
321.504	443.94
321.733	457.94
321.962	462.94
322.191	464.94
322.42	486.94
322.649	509.94
322.878	516.94
323.108	534.94
323.337	541.94
323.566	581.94
323.795	594.94
324.024	692.94
324.253	820.94
324.482	1192.94
324.71	1834.94
324.939	2602.94
325.168	2308.94
325.397	1160.94
325.626	758.94
325.855	638.94
326.084	605.94
326.313	571.94
326.542	587.94
326.77	651.94
326.999	754.94
327.228	1060.94
327.457	1586.94
327.686	1971.94
327.914	1336.94
328.143	893.94
328.372	769.94
328.6	694.94
328.829	666.94
329.058	666.94
329.287	683.94
329.515	645.94
329.744	619.94
329.972	605.94
330.201	647.94
330.43	749.94
330.658	731.94
330.887	755.94
331.115	710.94
331.344	610.94
331.572	580.94
331.801	574.94
332.03	565.94
332.258	546.94
332.486	522.94
332.715	507.94
332.943	548.94
333.172	518.94
333.4	528.94
333.629	510.94
333.857	557.94
334.085	564.94
334.314	609.94
334.542	697.94
334.771	719.94
334.999	633.94
335.227	539.94
335.455	541.94
335.684	516.94
335.912	508.94
336.14	505.94
336.369	492.94
336.597	504.94
336.825	493.94
337.053	512.94
337.281	469.94
337.51	468.94
337.738	464.94
337.966	464.94
338.194	478.94
338.422	479.94
338.65	458.94
338.878	480.94
339.106	450.94
339.334	472.94
339.562	450.94
339.79	453.94
340.018	457.94
340.246	476.94
340.474	477.94
340.702	463.94
340.93	446.94
341.158	459.94
341.386	460.94
341.614	449.94
341.842	455.94
342.07	451.94
342.298	468.94
342.526	451.94
342.754	429.94
342.981	430.94
343.209	424.94
343.437	458.94
343.665	427.94
343.893	444.94
344.12	466.94
344.348	464.94
344.576	443.94
344.804	488.94
345.031	465.94
345.259	472.94
345.487	473.94
345.714	455.94
345.942	449.94
346.17	429.94
346.397	440.94
346.625	448.94
346.853	440.94
347.08	451.94
347.308	453.94
347.535	470.94
347.763	463.94
347.99	452.94
348.218	465.94
348.445	464.94
348.673	477.94
348.9	454.94
349.128	465.94
349.355	436.94
349.583	436.94
349.81	429.94
350.037	422.94
350.265	393.94
350.492	425.94
350.72	430.94
350.947	424.94
351.174	476.94
351.402	450.94
351.629	458.94
351.856	448.94
352.083	467.94
352.311	453.94
352.538	461.94
352.765	457.94
352.992	452.94
353.22	441.94
353.447	456.94
353.674	433.94
353.901	422.94
354.128	409.94
354.355	412.94
354.583	407.94
354.81	414.94
355.037	411.94
355.264	393.94
355.491	416.94
355.718	411.94
355.945	398.94
356.172	415.94
356.399	414.94
356.626	412.94
356.853	407.94
357.08	399.94
357.307	427.94
357.534	410.94
357.761	424.94
357.988	429.94
358.215	427.94
358.441	413.94
358.668	405.94
358.895	425.94
359.122	434.94
359.349	423.94
359.576	432.94
359.802	457.94
360.029	494.94
360.256	515.94
360.483	479.94
360.709	448.94
360.936	449.94
361.163	446.94
361.39	434.94
361.616	438.94
361.843	436.94
362.07	444.94
362.296	450.94
362.523	437.94
362.749	432.94
362.976	436.94
363.203	419.94
363.429	419.94
363.656	416.94
363.882	405.94
364.109	408.94
364.335	405.94
364.562	400.94
364.788	424.94
365.015	414.94
365.241	405.94
365.468	420.94
365.694	408.94
365.92	408.94
366.147	410.94
366.373	413.94
366.599	420.94
366.826	421.94
367.052	401.94
367.278	388.94
367.505	384.94
367.731	402.94
367.957	412.94
368.184	409.94
368.41	427.94
368.636	435.94
368.862	416.94
369.089	428.94
369.315	404.94
369.541	413.94
369.767	405.94
369.993	423.94
370.219	408.94
370.445	400.94
370.672	404.94
370.898	394.94
371.124	408.94
371.35	413.94
371.576	395.94
371.802	377.94
372.028	406.94
372.254	386.94
372.48	370.94
372.706	404.94
372.932	398.94
373.158	399.94
373.384	406.94
373.61	407.94
373.835	435.94
374.061	401.94
374.287	422.94
374.513	413.94
374.739	413.94
374.965	407.94
375.191	409.94
375.416	419.94
375.642	407.94
375.868	412.94
376.094	387.94
376.319	416.94
376.545	410.94
376.771	375.94
376.997	390.94
377.222	404.94
377.448	402.94
377.674	406.94
377.899	402.94
378.125	395.94
378.35	374.94
378.576	405.94
378.802	405.94
379.027	388.94
379.253	396.94
379.478	393.94
379.704	399.94
379.929	386.94
380.155	410.94
380.38	402.94
380.606	414.94
380.831	390.94
381.057	379.94
381.282	397.94
381.507	375.94
381.733	415.94
381.958	398.94
382.184	395.94
382.409	423.94
382.634	388.94
382.86	398.94
383.085	400.94
383.31	410.94
383.535	411.94
383.761	385.94
383.986	396.94
384.211	405.94
384.436	396.94
384.662	424.94
384.887	433.94
385.112	409.94
385.337	404.94
385.562	414.94
385.787	399.94
386.013	416.94
386.238	430.94
386.463	444.94
386.688	418.94
386.913	402.94
387.138	418.94
387.363	413.94
387.588	408.94
387.813	432.94
388.038	424.94
388.263	422.94
388.488	424.94
388.713	437.94
388.938	432.94
389.163	420.94
389.387	453.94
389.612	418.94
389.837	417.94
390.062	405.94
390.287	398.94
390.512	388.94
390.736	429.94
390.961	421.94
391.186	442.94
391.411	416.94
391.636	417.94
391.86	413.94
392.085	433.94
392.31	420.94
392.534	406.94
392.759	423.94
392.984	422.94
393.208	421.94
393.433	406.94
393.658	406.94
393.882	412.94
394.107	412.94
394.331	400.94
394.556	422.94
394.78	424.94
395.005	401.94
395.229	408.94
395.454	440.94
395.678	429.94
395.903	444.94
396.127	452.94
396.352	452.94
396.576	441.94
396.801	411.94
397.025	404.94
397.249	439.94
397.474	441.94
397.698	454.94
397.922	465.94
398.147	474.94
398.371	478.94
398.595	477.94
398.82	470.94
399.044	451.94
399.268	493.94
399.492	484.94
399.717	534.94
399.941	527.94
400.165	575.94
400.389	588.94
400.613	535.94
400.837	496.94
401.062	470.94
401.286	490.94
401.51	485.94
401.734	469.94
401.958	482.94
402.182	496.94
402.406	521.94
402.63	488.94
402.854	489.94
403.078	471.94
403.302	496.94
403.526	499.94
403.75	499.94
403.974	462.94
404.198	491.94
404.422	498.94
404.645	492.94
404.869	502.94
405.093	556.94
405.317	612.94
405.541	635.94
405.765	594.94
405.988	527.94
406.212	546.94
406.436	576.94
406.66	565.94
406.883	548.94
407.107	543.94
407.331	598.94
407.555	656.94
407.778	650.94
408.002	591.94
408.226	556.94
408.449	567.94
408.673	558.94
408.896	571.94
409.12	599.94
409.344	590.94
409.567	519.94
409.791	525.94
410.014	480.94
410.238	483.94
410.461	479.94
410.685	480.94
410.908	526.94
411.132	548.94
411.355	566.94
411.578	570.94
411.802	529.94
412.025	506.94
412.249	512.94
412.472	562.94
412.695	633.94
412.919	603.94
413.142	543.94
413.365	509.94
413.589	484.94
413.812	496.94
414.035	470.94
414.258	491.94
414.482	473.94
414.705	466.94
414.928	455.94
415.151	444.94
415.374	451.94
415.597	472.94
415.821	444.94
416.044	461.94
416.267	483.94
416.49	468.94
416.713	457.94
416.936	485.94
417.159	467.94
417.382	450.94
417.605	468.94
417.828	476.94
418.051	506.94
418.274	479.94
418.497	480.94
418.72	455.94
418.943	459.94
419.166	481.94
419.389	496.94
419.611	491.94
419.834	496.94
420.057	504.94
420.28	511.94
420.503	516.94
420.726	503.94
420.948	524.94
421.171	556.94
421.394	572.94
421.617	523.94
421.839	492.94
422.062	503.94
422.285	497.94
422.507	554.94
422.73	619.94
422.953	616.94
423.175	544.94
423.398	519.94
423.621	512.94
423.843	525.94
424.066	525.94
424.288	515.94
424.511	541.94
424.733	606.94
424.956	686.94
425.178	675.94
425.401	672.94
425.623	670.94
425.846	580.94
426.068	551.94
426.291	525.94
426.513	523.94
426.735	555.94
426.958	573.94
427.18	670.94
427.402	784.94
427.625	886.94
427.847	820.94
428.069	697.94
428.292	612.94
428.514	556.94
428.736	522.94
428.958	505.94
429.181	499.94
429.403	488.94
429.625	502.94
429.847	544.94
430.069	591.94
430.292	611.94
430.514	527.94
430.736	514.94
430.958	493.94
431.18	484.94
431.402	464.94
431.624	457.94
431.846	470.94
432.068	472.94
432.29	451.94
432.512	447.94
432.734	467.94
432.956	447.94
433.178	473.94
433.4	493.94
433.622	466.94
433.844	461.94
434.066	454.94
434.287	461.94
434.509	459.94
434.731	455.94
434.953	483.94
435.175	485.94
435.397	495.94
435.618	530.94
435.84	589.94
436.062	690.94
436.284	731.94
436.505	608.94
436.727	544.94
436.949	501.94
437.17	506.94
437.392	485.94
437.614	482.94
437.835	546.94
438.057	659.94
438.278	736.94
438.5	738.94
438.721	802.94
438.943	770.94
439.165	620.94
439.386	569.94
439.608	558.94
439.829	544.94
440.05	574.94
440.272	625.94
440.493	587.94
440.715	556.94
440.936	517.94
441.158	515.94
441.379	492.94
441.6	503.94
441.822	550.94
442.043	553.94
442.264	644.94
442.486	716.94
442.707	602.94
442.928	550.94
443.149	549.94
443.371	577.94
443.592	606.94
443.813	723.94
444.034	778.94
444.255	622.94
444.476	552.94
444.698	544.94
444.919	529.94
445.14	634.94
445.361	570.94
445.582	594.94
445.803	673.94
446.024	759.94
446.245	761.94
446.466	697.94
446.687	597.94
446.908	534.94
447.129	515.94
447.35	499.94
447.571	494.94
447.792	502.94
448.013	542.94
448.234	529.94
448.455	580.94
448.675	690.94
448.896	770.94
449.117	667.94
449.338	648.94
449.559	717.94
449.779	842.94
450	680.94
450.221	540.94
450.442	513.94
450.662	489.94
450.883	479.94
451.104	523.94
451.324	501.94
451.545	474.94
451.766	467.94
451.986	426.94
452.207	440.94
452.428	447.94
452.648	444.94
452.869	445.94
453.089	441.94
453.31	473.94
453.53	467.94
453.751	453.94
453.971	448.94
454.192	462.94
454.412	458.94
454.633	441.94
454.853	426.94
455.073	436.94
455.294	466.94
455.514	544.94
455.734	535.94
455.955	451.94
456.175	424.94
456.395	400.94
456.616	401.94
456.836	423.94
457.056	399.94
457.276	393.94
457.497	428.94
457.717	416.94
457.937	407.94
458.157	423.94
458.377	450.94
458.598	448.94
458.818	515.94
459.038	621.94
459.258	602.94
459.478	501.94
459.698	466.94
459.918	463.94
460.138	449.94
460.358	461.94
460.578	435.94
460.798	442.94
461.018	459.94
461.238	452.94
461.458	447.94
461.678	427.94
461.898	451.94
462.118	441.94
462.338	455.94
462.558	464.94
462.777	459.94
462.997	472.94
463.217	471.94
463.437	504.94
463.657	497.94
463.876	466.94
464.096	473.94
464.316	499.94
464.536	483.94
464.755	482.94
464.975	493.94
465.195	535.94
465.414	610.94
465.634	562.94
465.854	510.94
466.073	473.94
466.293	459.94
466.512	472.94
466.732	448.94
466.951	447.94
467.171	441.94
467.391	421.94
467.61	436.94
467.829	453.94
468.049	465.94
468.268	466.94
468.488	450.94
468.707	434.94
468.927	442.94
469.146	430.94
469.365	439.94
469.585	437.94
469.804	461.94
470.023	442.94
470.243	439.94
470.462	450.94
470.681	456.94
470.901	462.94
471.12	461.94
471.339	472.94
471.558	460.94
471.777	473.94
471.997	424.94
472.216	478.94
472.435	571.94
472.654	524.94
472.873	481.94
473.092	468.94
473.311	453.94
473.53	452.94
473.749	460.94
473.968	482.94
474.187	628.94
474.406	660.94
474.625	520.94
474.844	490.94
475.063	449.94
475.282	438.94
475.501	461.94
475.72	457.94
475.939	444.94
476.158	455.94
476.377	461.94
476.596	462.94
476.814	456.94
477.033	466.94
477.252	462.94
477.471	471.94
477.69	477.94
477.908	502.94
478.127	498.94
478.346	470.94
478.564	504.94
478.783	501.94
479.002	522.94
479.22	512.94
479.439	521.94
479.658	539.94
479.876	546.94
480.095	558.94
480.313	570.94
480.532	580.94
480.751	573.94
480.969	591.94
481.188	718.94
481.406	788.94
481.624	626.94
481.843	580.94
482.061	534.94
482.28	551.94
482.498	537.94
482.717	541.94
482.935	545.94
483.153	536.94
483.372	535.94
483.59	517.94
483.808	536.94
484.027	560.94
484.245	525.94
484.463	515.94
484.681	548.94
484.9	545.94
485.118	555.94
485.336	549.94
485.554	540.94
485.772	555.94
485.99	544.94
486.209	584.94
486.427	565.94
486.645	577.94
486.863	590.94
487.081	560.94
487.299	569.94
487.517	586.94
487.735	556.94
487.953	580.94
488.171	574.94
488.389	569.94
488.607	555.94
488.825	577.94
489.043	556.94
489.261	594.94
489.479	580.94
489.696	582.94
489.914	592.94
490.132	622.94
490.35	612.94
490.568	611.94
490.786	631.94
491.003	624.94
491.221	635.94
491.439	661.94
491.657	678.94
491.874	668.94
492.092	682.94
492.31	690.94
492.527	685.94
492.745	685.94
492.963	659.94
493.18	698.94
493.398	681.94
493.615	694.94
493.833	688.94
494.05	688.94
494.268	685.94
494.485	695.94
494.703	682.94
494.92	692.94
495.138	667.94
495.355	698.94
495.573	691.94
495.79	696.94
496.008	712.94
496.225	719.94
496.442	676.94
496.66	692.94
496.877	695.94
497.094	693.94
497.312	688.94
497.529	685.94
497.746	713.94
497.963	702.94
498.181	754.94
498.398	723.94
498.615	732.94
498.832	762.94
499.049	764.94
499.267	760.94
499.484	779.94
499.701	793.94
499.918	804.94
500.135	820.94
500.352	882.94
500.569	865.94
500.786	874.94
501.003	880.94
501.22	872.94
501.437	845.94
501.654	850.94
501.871	841.94
502.088	818.94
502.305	807.94
502.522	768.94
502.739	763.94
502.956	713.94
503.172	707.94
503.389	689.94
503.606	695.94
503.823	706.94
504.04	677.94
504.256	680.94
504.473	675.94
504.69	688.94
504.907	680.94
505.123	682.94
505.34	655.94
505.557	653.94
505.773	645.94
505.99	643.94
506.207	638.94
506.423	642.94
506.64	646.94
506.856	640.94
507.073	633.94
507.289	642.94
507.506	651.94
507.722	663.94
507.939	667.94
508.155	671.94
508.372	632.94
508.588	616.94
508.805	629.94
509.021	626.94
509.238	651.94
509.454	649.94
509.67	671.94
509.887	636.94
510.103	616.94
510.319	654.94
510.536	739.94
510.752	1290.94
510.968	1021.94
511.184	638.94
511.401	615.94
511.617	616.94
511.833	612.94
512.049	610.94
512.265	629.94
512.481	608.94
512.698	585.94
512.914	590.94
513.13	621.94
513.346	607.94
513.562	589.94
513.778	603.94
513.994	608.94
514.21	586.94
514.426	631.94
514.642	674.94
514.858	699.94
515.074	777.94
515.29	928.94
515.506	1358.94
515.721	1102.94
515.937	734.94
516.153	682.94
516.369	640.94
516.585	616.94
516.801	612.94
517.016	621.94
517.232	589.94
517.448	581.94
517.664	585.94
517.879	601.94
518.095	608.94
518.311	589.94
518.527	592.94
518.742	602.94
518.958	589.94
519.173	584.94
519.389	580.94
519.605	567.94
519.82	594.94
520.036	605.94
520.251	647.94
520.467	662.94
520.682	642.94
520.898	666.94
521.113	676.94
521.329	711.94
521.544	860.94
521.76	1081.94
521.975	1842.94
522.19	1768.94
522.406	970.94
522.621	718.94
522.836	660.94
523.052	592.94
523.267	567.94
523.482	534.94
523.698	572.94
523.913	548.94
524.128	532.94
524.343	528.94
524.559	495.94
524.774	504.94
524.989	503.94
525.204	517.94
525.419	533.94
525.634	526.94
525.849	504.94
526.064	488.94
526.28	483.94
526.495	481.94
526.71	500.94
526.925	503.94
527.14	481.94
527.355	482.94
527.57	466.94
527.785	458.94
527.999	466.94
528.214	496.94
528.429	453.94
528.644	472.94
528.859	484.94
529.074	461.94
529.289	498.94
529.503	592.94
529.718	570.94
529.933	517.94
530.148	478.94
530.363	498.94
530.577	468.94
530.792	462.94
531.007	471.94
531.221	457.94
531.436	449.94
531.651	466.94
531.865	450.94
532.08	466.94
532.295	451.94
532.509	453.94
532.724	473.94
532.938	441.94
533.153	443.94
533.367	443.94
533.582	441.94
533.796	461.94
534.011	436.94
534.225	429.94
534.44	468.94
534.654	453.94
534.868	430.94
535.083	442.94
535.297	440.94
535.511	459.94
535.726	451.94
535.94	465.94
536.154	456.94
536.369	433.94
536.583	414.94
536.797	428.94
537.011	434.94
537.225	430.94
537.44	436.94
537.654	433.94
537.868	433.94
538.082	440.94
538.296	422.94
538.51	453.94
538.724	456.94
538.938	443.94
539.153	438.94
539.367	445.94
539.581	479.94
539.795	463.94
540.009	444.94
540.222	429.94
540.436	434.94
540.65	433.94
540.864	456.94
541.078	445.94
541.292	450.94
541.506	432.94
541.72	467.94
541.934	423.94
542.147	420.94
542.361	423.94
542.575	443.94
542.789	424.94
543.002	426.94
543.216	441.94
543.43	424.94
543.644	428.94
543.857	441.94
544.071	448.94
544.285	427.94
544.498	422.94
544.712	424.94
544.925	419.94
545.139	406.94
545.352	411.94
545.566	430.94
545.779	399.94
545.993	402.94
546.206	400.94
546.42	411.94
546.633	398.94
546.847	411.94
547.06	426.94
547.274	409.94
547.487	413.94
547.7	412.94
547.914	397.94
548.127	403.94
548.34	404.94
548.554	397.94
548.767	405.94
548.98	421.94
549.193	395.94
549.407	403.94
549.62	393.94
549.833	402.94
550.046	405.94
550.259	418.94
550.473	379.94
550.686	406.94
550.899	404.94
551.112	392.94
551.325	386.94
551.538	387.94
551.751	409.94
551.964	392.94
552.177	394.94
552.39	403.94
552.603	373.94
552.816	397.94
553.029	397.94
553.242	406.94
553.455	397.94
553.667	416.94
553.88	421.94
554.093	423.94
554.306	404.94
554.519	397.94
554.732	388.94
554.944	410.94
555.157	376.94
555.37	379.94
555.583	399.94
555.795	378.94
556.008	377.94
556.221	378.94
556.433	354.94
556.646	375.94
556.859	369.94
557.071	381.94
557.284	379.94
557.496	365.94
557.709	368.94
557.921	369.94
558.134	360.94
558.346	360.94
558.559	368.94
558.771	378.94
558.984	358.94
559.196	365.94
559.409	360.94
559.621	371.94
559.833	360.94
560.046	366.94
560.258	364.94
560.47	366.94
560.683	363.94
560.895	372.94
561.107	370.94
561.32	345.94
561.532	358.94
561.744	363.94
561.956	348.94
562.168	357.94
562.381	362.94
562.593	354.94
562.805	363.94
563.017	368.94
563.229	367.94
563.441	353.94
563.653	356.94
563.865	370.94
564.077	347.94
564.289	359.94
564.501	377.94
564.713	370.94
564.925	384.94
565.137	391.94
565.349	383.94
565.561	395.94
565.773	395.94
565.985	389.94
566.197	389.94
566.408	404.94
566.62	396.94
566.832	394.94
567.044	420.94
567.255	409.94
567.467	408.94
567.679	420.94
567.891	443.94
568.102	422.94
568.314	408.94
568.526	408.94
568.737	403.94
568.949	391.94
569.161	403.94
569.372	383.94
569.584	363.94
569.795	363.94
570.007	368.94
570.218	417.94
570.43	388.94
570.641	365.94
570.853	352.94
571.064	326.94
571.276	347.94
571.487	345.94
571.698	337.94
571.91	346.94
572.121	339.94
572.333	353.94
572.544	316.94
572.755	314.94
572.966	307.94
573.178	323.94
573.389	330.94
573.6	312.94
573.811	336.94
574.023	331.94
574.234	326.94
574.445	325.94
574.656	309.94
574.867	300.94
575.078	315.94
575.289	304.94
575.501	326.94
575.712	284.94
575.923	298.94
576.134	294.94
576.345	312.94
576.556	300.94
576.767	331.94
576.978	291.94
577.188	300.94
577.399	296.94
577.61	297.94
577.821	310.94
578.032	331.94
578.243	353.94
578.454	604.94
578.665	444.94
578.875	326.94
579.086	312.94
579.297	297.94
579.508	300.94
579.718	294.94
579.929	289.94
580.14	284.94
580.35	278.94
580.561	296.94
580.772	285.94
580.982	286.94
581.193	291.94
581.403	295.94
581.614	293.94
581.825	282.94
582.035	270.94
582.246	281.94
582.456	274.94
582.667	275.94
582.877	279.94
583.087	289.94
583.298	273.94
583.508	281.94
583.719	291.94
583.929	290.94
584.139	276.94
584.35	266.94
584.56	284.94
584.77	278.94
584.981	293.94
585.191	273.94
585.401	290.94
585.611	282.94
585.821	280.94
586.032	272.94
586.242	269.94
586.452	256.94
586.662	281.94
586.872	281.94
587.082	277.94
587.292	286.94
587.502	265.94
587.713	278.94
587.923	280.94
588.133	249.94
588.343	267.94
588.553	255.94
588.762	275.94
588.972	258.94
589.182	260.94
589.392	286.94
589.602	287.94
589.812	276.94
590.022	276.94
590.232	259.94
590.441	270.94
590.651	262.94
590.861	260.94
591.071	283.94
591.281	291.94
591.49	286.94
591.7	263.94
591.91	280.94
592.119	284.94
592.329	277.94
592.539	273.94
592.748	293.94
592.958	277.94
593.167	277.94
593.377	285.94
593.587	299.94
593.796	300.94
594.006	273.94
594.215	266.94
594.424	269.94
594.634	280.94
594.843	282.94
595.053	269.94
595.262	265.94
595.472	271.94
595.681	253.94
595.89	271.94
596.1	259.94
596.309	249.94
596.518	250.94
596.727	264.94
596.937	266.94
597.146	256.94
597.355	248.94
597.564	249.94
597.774	254.94
597.983	244.94
598.192	260.94
598.401	238.94
598.61	233.94
598.819	228.94
599.028	237.94
599.237	250.94
599.446	242.94
599.655	247.94
599.864	260.94
600.073	242.94
600.282	258.94
600.491	246.94
600.7	246.94
600.909	234.94
601.118	223.94
601.327	222.94
601.536	233.94
601.745	253.94
601.953	235.94
602.162	228.94
602.371	224.94
602.58	258.94
602.789	234.94
602.997	227.94
603.206	229.94
603.415	237.94
603.623	229.94
603.832	237.94
604.041	234.94
604.249	225.94
604.458	235.94
604.666	228.94
604.875	237.94
605.084	215.94
605.292	214.94
605.501	214.94
605.709	222.94
605.918	221.94
606.126	228.94
606.334	232.94
606.543	228.94
606.751	224.94
606.96	219.94
607.168	198.94
607.376	217.94
607.585	228.94
607.793	214.94
608.001	260.94
608.21	231.94
608.418	228.94
608.626	218.94
608.834	223.94
609.043	224.94
609.251	218.94
609.459	225.94
609.667	237.94
609.875	232.94
610.083	224.94
610.291	222.94
610.499	233.94
610.707	212.94
610.916	228.94
611.124	227.94
611.332	229.94
611.54	227.94
611.748	232.94
611.955	240.94
612.163	213.94
612.371	217.94
612.579	224.94
612.787	226.94
612.995	225.94
613.203	224.94
613.411	223.94
613.618	233.94
613.826	209.94
614.034	197.94
614.242	222.94
614.449	213.94
614.657	217.94
614.865	208.94
615.072	216.94
615.28	233.94
615.488	213.94
615.695	225.94
615.903	203.94
616.111	221.94
616.318	216.94
616.526	216.94
616.733	222.94
616.941	199.94
617.148	206.94
617.356	237.94
617.563	218.94
617.771	209.94
617.978	241.94
618.185	219.94
618.393	216.94
618.6	227.94
618.807	218.94
619.015	224.94
619.222	209.94
619.429	213.94
619.637	220.94
619.844	206.94
620.051	225.94
620.258	220.94
620.466	216.94
620.673	202.94
620.88	209.94
621.087	204.94
621.294	208.94
621.501	208.94
621.708	211.94
621.915	223.94
622.122	198.94
622.329	214.94
622.536	205.94
622.743	214.94
622.95	227.94
623.157	192.94
623.364	201.94
623.571	196.94
623.778	192.94
623.985	224.94
624.192	201.94
624.399	202.94
624.606	210.94
624.812	198.94
625.019	181.94
625.226	186.94
625.433	202.94
625.639	205.94
625.846	196.94
626.053	202.94
626.259	193.94
626.466	197.94
626.673	193.94
626.879	205.94
627.086	199.94
627.293	184.94
627.499	199.94
627.706	211.94
627.912	201.94
628.119	188.94
628.325	198.94
628.532	186.94
628.738	197.94
628.945	200.94
629.151	166.94
629.357	176.94
629.564	205.94
629.77	188.94
629.976	191.94
630.183	199.94
630.389	188.94
630.595	173.94
630.802	197.94
631.008	178.94
631.214	203.94
631.42	179.94
631.627	187.94
631.833	198.94
632.039	181.94
632.245	174.94
632.451	178.94
632.657	192.94
632.863	201.94
633.069	185.94
633.275	169.94
633.481	192.94
633.688	171.94
633.893	177.94
634.099	166.94
634.305	173.94
634.511	193.94
634.717	179.94
634.923	176.94
635.129	184.94
635.335	166.94
635.541	166.94
635.747	173.94
635.952	187.94
636.158	184.94
636.364	182.94
636.57	187.94
636.775	178.94
636.981	178.94
637.187	176.94
637.392	180.94
637.598	165.94
637.804	164.94
638.009	172.94
638.215	182.94
638.421	164.94
638.626	185.94
638.832	167.94
639.037	166.94
639.243	157.94
639.448	159.94
639.654	176.94
639.859	162.94
640.065	156.94
640.27	180.94
640.475	169.94
640.681	173.94
640.886	171.94
641.091	164.94
641.297	184.94
641.502	178.94
641.707	167.94
641.913	178.94
642.118	173.94
642.323	156.94
642.528	166.94
642.733	162.94
642.939	163.94
643.144	170.94
643.349	161.94
643.554	167.94
643.759	150.94
643.964	168.94
644.169	152.94
644.374	163.94
644.579	165.94
644.784	166.94
644.989	153.94
645.194	146.94
645.399	152.94
645.604	164.94
645.809	170.94
646.014	147.94
646.219	143.94
646.423	157.94
646.628	168.94
646.833	164.94
647.038	147.94
647.243	156.94
647.447	156.94
647.652	156.94
647.857	153.94
648.062	143.94
648.266	158.94
648.471	156.94
648.676	163.94
648.88	156.94
649.085	163.94
649.289	166.94
649.494	171.94
649.698	172.94
649.903	173.94
650.107	173.94
650.312	162.94
650.516	166.94
650.721	150.94
650.925	137.94
651.13	153.94
651.334	134.94
651.539	155.94
651.743	145.94
651.947	148.94
652.152	142.94
652.356	144.94
652.56	140.94
652.764	128.94
652.969	146.94
653.173	158.94
653.377	152.94
653.581	120.94
653.785	142.94
653.99	142.94
654.194	142.94
654.398	131.94
654.602	139.94
654.806	150.94
655.01	130.94
655.214	138.94
655.418	152.94
655.622	133.94
655.826	139.94
656.03	135.94
656.234	131.94
656.438	145.94
656.642	145.94
656.846	133.94
657.049	116.94
657.253	120.94
657.457	109.94
657.661	110.94
657.865	124.94
658.068	116.94
658.272	104.94
658.476	107.94
658.68	106.94
658.883	107.94
659.087	124.94
659.291	104.94
659.494	113.94
659.698	100.94
659.901	85.94
660.105	109.94
660.309	91.94
660.512	90.94
660.716	97.94
660.919	104.94
661.123	85.94
661.326	102.94
661.53	86.94
661.733	94.94
661.936	76.94
662.14	104.94
662.343	97.94
662.546	94.94
662.75	93.94
662.953	97.94
663.156	100.94
663.36	82.94
663.563	82.94
663.766	87.94
663.969	77.94
664.173	81.94
664.376	80.94
664.579	91.94
664.782	89.94
664.985	89.94
665.188	84.94
665.391	98.94
665.594	74.94
665.797	97.94
666	86.94
666.203	87.94
666.406	82.94
666.609	83.94
666.812	92.94
667.015	91.94
667.218	93.94
667.421	84.94
667.624	94.94
667.827	70.94
668.03	98.94
668.232	76.94
668.435	82.94
668.638	79.94
668.841	89.94
669.043	83.94
669.246	79.94
669.449	77.94
669.651	89.94
669.854	78.94
670.057	83.94
670.259	90.94
670.462	80.94
670.665	83.94
670.867	76.94
671.07	86.94
671.272	86.94
671.475	77.94
671.677	97.94
671.88	78.94
672.082	77.94
672.284	88.94
672.487	88.94
672.689	66.94
672.892	82.94
