Data from 1989.PennyLincolnUp.Lamp.En5.5.200Scan.071819.P2_HRD10591_17-23-31-973.txt Node
Date: Thu Jul 18 17:23:31 EDT 2019
User: cochatt
Spectrometer: HR+D1059
Trigger mode: 1
Integration Time (sec): 1.000000E-1
Scans to average: 1
Electric dark correction enabled: true
Nonlinearity correction enabled: false
Boxcar width: 0
XAxis mode: Wavelengths
Number of Pixels in Spectrum: 2048
>>>>>Begin Spectral Data<<<<<
223.165	-16.31
223.4	-16.31
223.635	-16.31
223.869	-28.31
224.104	-9.31
224.338	-8.31
224.573	-24.31
224.808	-7.31
225.042	-14.31
225.277	-4.31
225.511	-4.31
225.746	10.69
225.98	-2.31
226.215	2.69
226.449	15.69
226.683	17.69
226.918	29.69
227.152	42.69
227.387	35.69
227.621	42.69
227.856	23.69
228.09	37.69
228.324	36.69
228.559	47.69
228.793	68.69
229.027	90.69
229.262	95.69
229.496	104.69
229.73	123.69
229.964	140.69
230.199	123.69
230.433	103.69
230.667	115.69
230.901	112.69
231.136	111.69
231.37	116.69
231.604	111.69
231.838	109.69
232.072	102.69
232.306	109.69
232.541	100.69
232.775	105.69
233.009	99.69
233.243	100.69
233.477	94.69
233.711	121.69
233.945	109.69
234.179	119.69
234.413	104.69
234.647	109.69
234.881	106.69
235.115	121.69
235.349	115.69
235.583	103.69
235.817	119.69
236.051	117.69
236.285	122.69
236.519	122.69
236.753	121.69
236.987	135.69
237.221	177.69
237.455	228.69
237.689	177.69
237.922	117.69
238.156	127.69
238.39	128.69
238.624	113.69
238.858	119.69
239.091	113.69
239.325	121.69
239.559	118.69
239.793	119.69
240.027	119.69
240.26	133.69
240.494	151.69
240.728	154.69
240.961	131.69
241.195	138.69
241.429	138.69
241.662	144.69
241.896	126.69
242.13	130.69
242.363	132.69
242.597	123.69
242.83	136.69
243.064	130.69
243.298	123.69
243.531	149.69
243.765	134.69
243.998	132.69
244.232	125.69
244.465	129.69
244.699	143.69
244.932	136.69
245.166	133.69
245.399	151.69
245.633	149.69
245.866	132.69
246.099	144.69
246.333	137.69
246.566	136.69
246.8	123.69
247.033	142.69
247.266	160.69
247.5	159.69
247.733	155.69
247.966	171.69
248.2	171.69
248.433	167.69
248.666	201.69
248.899	171.69
249.133	207.69
249.366	207.69
249.599	202.69
249.832	184.69
250.066	169.69
250.299	175.69
250.532	189.69
250.765	186.69
250.998	219.69
251.231	225.69
251.465	197.69
251.698	198.69
251.931	201.69
252.164	190.69
252.397	204.69
252.63	175.69
252.863	219.69
253.096	222.69
253.329	213.69
253.562	216.69
253.795	222.69
254.028	201.69
254.261	197.69
254.494	219.69
254.727	247.69
254.96	270.69
255.193	282.69
255.426	264.69
255.659	237.69
255.892	233.69
256.124	219.69
256.357	212.69
256.59	208.69
256.823	221.69
257.056	212.69
257.289	211.69
257.521	200.69
257.754	209.69
257.987	209.69
258.22	209.69
258.452	209.69
258.685	210.69
258.918	218.69
259.151	214.69
259.383	215.69
259.616	230.69
259.849	223.69
260.081	247.69
260.314	253.69
260.547	260.69
260.779	265.69
261.012	245.69
261.244	228.69
261.477	219.69
261.71	233.69
261.942	233.69
262.175	252.69
262.407	228.69
262.64	228.69
262.872	213.69
263.105	226.69
263.337	220.69
263.57	211.69
263.802	223.69
264.035	227.69
264.267	216.69
264.499	217.69
264.732	219.69
264.964	212.69
265.197	192.69
265.429	208.69
265.661	224.69
265.894	221.69
266.126	225.69
266.358	230.69
266.591	222.69
266.823	232.69
267.055	232.69
267.287	225.69
267.52	206.69
267.752	218.69
267.984	238.69
268.216	253.69
268.448	243.69
268.681	247.69
268.913	255.69
269.145	263.69
269.377	279.69
269.609	275.69
269.841	276.69
270.073	281.69
270.306	290.69
270.538	304.69
270.77	322.69
271.002	305.69
271.234	288.69
271.466	290.69
271.698	297.69
271.93	303.69
272.162	313.69
272.394	307.69
272.626	322.69
272.858	305.69
273.09	275.69
273.322	281.69
273.553	279.69
273.785	242.69
274.017	273.69
274.249	261.69
274.481	275.69
274.713	279.69
274.945	263.69
275.176	263.69
275.408	265.69
275.64	260.69
275.872	263.69
276.104	266.69
276.335	250.69
276.567	274.69
276.799	287.69
277.031	294.69
277.262	307.69
277.494	325.69
277.726	322.69
277.957	271.69
278.189	260.69
278.421	285.69
278.652	274.69
278.884	289.69
279.115	281.69
279.347	263.69
279.579	265.69
279.81	263.69
280.042	266.69
280.273	264.69
280.505	247.69
280.736	284.69
280.968	264.69
281.199	263.69
281.431	278.69
281.662	254.69
281.894	272.69
282.125	280.69
282.356	306.69
282.588	312.69
282.819	309.69
283.051	287.69
283.282	257.69
283.513	259.69
283.745	264.69
283.976	280.69
284.207	276.69
284.439	285.69
284.67	267.69
284.901	293.69
285.132	278.69
285.364	266.69
285.595	266.69
285.826	267.69
286.057	277.69
286.288	273.69
286.52	283.69
286.751	265.69
286.982	271.69
287.213	286.69
287.444	292.69
287.675	266.69
287.906	283.69
288.138	320.69
288.369	291.69
288.6	296.69
288.831	312.69
289.062	302.69
289.293	279.69
289.524	304.69
289.755	296.69
289.986	283.69
290.217	298.69
290.448	281.69
290.679	303.69
290.91	279.69
291.141	298.69
291.371	284.69
291.602	275.69
291.833	283.69
292.064	273.69
292.295	282.69
292.526	297.69
292.757	301.69
292.987	280.69
293.218	286.69
293.449	305.69
293.68	305.69
293.91	302.69
294.141	289.69
294.372	294.69
294.603	279.69
294.833	292.69
295.064	286.69
295.295	306.69
295.525	294.69
295.756	314.69
295.987	287.69
296.217	326.69
296.448	335.69
296.679	312.69
296.909	285.69
297.14	311.69
297.37	305.69
297.601	290.69
297.831	286.69
298.062	303.69
298.292	296.69
298.523	309.69
298.753	301.69
298.984	304.69
299.214	286.69
299.445	299.69
299.675	305.69
299.905	317.69
300.136	310.69
300.366	305.69
300.597	313.69
300.827	304.69
301.057	317.69
301.288	331.69
301.518	316.69
301.748	305.69
301.979	313.69
302.209	315.69
302.439	347.69
302.669	317.69
302.9	317.69
303.13	328.69
303.36	328.69
303.59	330.69
303.82	334.69
304.051	333.69
304.281	341.69
304.511	337.69
304.741	325.69
304.971	324.69
305.201	326.69
305.431	323.69
305.661	332.69
305.891	323.69
306.121	343.69
306.352	325.69
306.582	325.69
306.812	330.69
307.042	345.69
307.272	323.69
307.502	334.69
307.731	342.69
307.961	350.69
308.191	324.69
308.421	324.69
308.651	341.69
308.881	346.69
309.111	347.69
309.341	334.69
309.571	360.69
309.8	355.69
310.03	365.69
310.26	372.69
310.49	380.69
310.72	370.69
310.949	386.69
311.179	384.69
311.409	372.69
311.639	367.69
311.868	382.69
312.098	379.69
312.328	370.69
312.557	401.69
312.787	392.69
313.017	396.69
313.246	383.69
313.476	367.69
313.706	365.69
313.935	376.69
314.165	375.69
314.394	387.69
314.624	394.69
314.853	389.69
315.083	384.69
315.312	374.69
315.542	377.69
315.771	360.69
316.001	367.69
316.23	383.69
316.46	396.69
316.689	358.69
316.919	361.69
317.148	375.69
317.377	373.69
317.607	371.69
317.836	371.69
318.065	374.69
318.295	393.69
318.524	376.69
318.753	368.69
318.983	382.69
319.212	391.69
319.441	401.69
319.67	390.69
319.9	372.69
320.129	389.69
320.358	387.69
320.587	383.69
320.816	392.69
321.046	381.69
321.275	395.69
321.504	391.69
321.733	403.69
321.962	395.69
322.191	392.69
322.42	417.69
322.649	425.69
322.878	439.69
323.108	454.69
323.337	489.69
323.566	506.69
323.795	502.69
324.024	564.69
324.253	691.69
324.482	955.69
324.71	1433.69
324.939	2063.69
325.168	1814.69
325.397	954.69
325.626	632.69
325.855	521.69
326.084	503.69
326.313	510.69
326.542	487.69
326.77	553.69
326.999	610.69
327.228	859.69
327.457	1271.69
327.686	1558.69
327.914	1061.69
328.143	685.69
328.372	590.69
328.6	543.69
328.829	531.69
329.058	552.69
329.287	563.69
329.515	516.69
329.744	476.69
329.972	496.69
330.201	503.69
330.43	503.69
330.658	516.69
330.887	570.69
331.115	561.69
331.344	477.69
331.572	467.69
331.801	495.69
332.03	471.69
332.258	460.69
332.486	418.69
332.715	442.69
332.943	439.69
333.172	438.69
333.4	441.69
333.629	455.69
333.857	457.69
334.085	446.69
334.314	450.69
334.542	441.69
334.771	468.69
334.999	430.69
335.227	451.69
335.455	448.69
335.684	430.69
335.912	429.69
336.14	437.69
336.369	438.69
336.597	435.69
336.825	435.69
337.053	441.69
337.281	442.69
337.51	424.69
337.738	410.69
337.966	426.69
338.194	439.69
338.422	421.69
338.65	420.69
338.878	436.69
339.106	430.69
339.334	404.69
339.562	392.69
339.79	406.69
340.018	416.69
340.246	418.69
340.474	412.69
340.702	405.69
340.93	417.69
341.158	407.69
341.386	430.69
341.614	436.69
341.842	411.69
342.07	404.69
342.298	406.69
342.526	409.69
342.754	404.69
342.981	405.69
343.209	391.69
343.437	416.69
343.665	390.69
343.893	419.69
344.12	423.69
344.348	419.69
344.576	400.69
344.804	411.69
345.031	434.69
345.259	445.69
345.487	419.69
345.714	409.69
345.942	408.69
346.17	408.69
346.397	403.69
346.625	419.69
346.853	424.69
347.08	419.69
347.308	408.69
347.535	413.69
347.763	425.69
347.99	407.69
348.218	402.69
348.445	405.69
348.673	415.69
348.9	395.69
349.128	412.69
349.355	399.69
349.583	407.69
349.81	390.69
350.037	379.69
350.265	383.69
350.492	395.69
350.72	385.69
350.947	379.69
351.174	409.69
351.402	399.69
351.629	419.69
351.856	409.69
352.083	410.69
352.311	414.69
352.538	421.69
352.765	416.69
352.992	435.69
353.22	401.69
353.447	378.69
353.674	400.69
353.901	377.69
354.128	382.69
354.355	387.69
354.583	375.69
354.81	407.69
355.037	370.69
355.264	382.69
355.491	372.69
355.718	370.69
355.945	362.69
356.172	369.69
356.399	375.69
356.626	359.69
356.853	361.69
357.08	357.69
357.307	385.69
357.534	367.69
357.761	371.69
357.988	371.69
358.215	377.69
358.441	377.69
358.668	379.69
358.895	370.69
359.122	375.69
359.349	383.69
359.576	415.69
359.802	409.69
360.029	436.69
360.256	443.69
360.483	423.69
360.709	406.69
360.936	400.69
361.163	388.69
361.39	401.69
361.616	400.69
361.843	402.69
362.07	394.69
362.296	406.69
362.523	381.69
362.749	366.69
362.976	362.69
363.203	394.69
363.429	401.69
363.656	381.69
363.882	402.69
364.109	381.69
364.335	383.69
364.562	385.69
364.788	358.69
365.015	396.69
365.241	385.69
365.468	373.69
365.694	385.69
365.92	387.69
366.147	380.69
366.373	371.69
366.599	367.69
366.826	374.69
367.052	368.69
367.278	377.69
367.505	374.69
367.731	385.69
367.957	383.69
368.184	358.69
368.41	375.69
368.636	400.69
368.862	385.69
369.089	385.69
369.315	385.69
369.541	370.69
369.767	379.69
369.993	380.69
370.219	373.69
370.445	373.69
370.672	383.69
370.898	359.69
371.124	369.69
371.35	373.69
371.576	374.69
371.802	367.69
372.028	350.69
372.254	367.69
372.48	371.69
372.706	368.69
372.932	389.69
373.158	363.69
373.384	358.69
373.61	384.69
373.835	373.69
374.061	393.69
374.287	388.69
374.513	376.69
374.739	380.69
374.965	374.69
375.191	368.69
375.416	390.69
375.642	371.69
375.868	372.69
376.094	385.69
376.319	384.69
376.545	380.69
376.771	377.69
376.997	377.69
377.222	352.69
377.448	368.69
377.674	375.69
377.899	374.69
378.125	343.69
378.35	361.69
378.576	387.69
378.802	355.69
379.027	373.69
379.253	385.69
379.478	341.69
379.704	371.69
379.929	373.69
380.155	356.69
380.38	378.69
380.606	373.69
380.831	372.69
381.057	377.69
381.282	365.69
381.507	379.69
381.733	386.69
381.958	371.69
382.184	377.69
382.409	359.69
382.634	371.69
382.86	381.69
383.085	377.69
383.31	361.69
383.535	395.69
383.761	377.69
383.986	392.69
384.211	385.69
384.436	390.69
384.662	387.69
384.887	389.69
385.112	378.69
385.337	381.69
385.562	377.69
385.787	375.69
386.013	403.69
386.238	405.69
386.463	408.69
386.688	403.69
386.913	382.69
387.138	379.69
387.363	400.69
387.588	385.69
387.813	388.69
388.038	393.69
388.263	378.69
388.488	390.69
388.713	405.69
388.938	413.69
389.163	400.69
389.387	406.69
389.612	400.69
389.837	384.69
390.062	401.69
390.287	389.69
390.512	409.69
390.736	401.69
390.961	416.69
391.186	400.69
391.411	396.69
391.636	394.69
391.86	401.69
392.085	390.69
392.31	387.69
392.534	400.69
392.759	394.69
392.984	422.69
393.208	409.69
393.433	404.69
393.658	408.69
393.882	402.69
394.107	389.69
394.331	407.69
394.556	400.69
394.78	403.69
395.005	379.69
395.229	392.69
395.454	393.69
395.678	432.69
395.903	417.69
396.127	419.69
396.352	430.69
396.576	410.69
396.801	409.69
397.025	422.69
397.249	418.69
397.474	414.69
397.698	407.69
397.922	443.69
398.147	444.69
398.371	432.69
398.595	419.69
398.82	440.69
399.044	439.69
399.268	468.69
399.492	487.69
399.717	504.69
399.941	523.69
400.165	538.69
400.389	535.69
400.613	489.69
400.837	466.69
401.062	442.69
401.286	470.69
401.51	455.69
401.734	440.69
401.958	464.69
402.182	450.69
402.406	455.69
402.63	474.69
402.854	451.69
403.078	452.69
403.302	450.69
403.526	456.69
403.75	464.69
403.974	459.69
404.198	460.69
404.422	449.69
404.645	453.69
404.869	439.69
405.093	478.69
405.317	493.69
405.541	521.69
405.765	506.69
405.988	483.69
406.212	504.69
406.436	499.69
406.66	532.69
406.883	492.69
407.107	522.69
407.331	550.69
407.555	625.69
407.778	602.69
408.002	553.69
408.226	527.69
408.449	517.69
408.673	518.69
408.896	535.69
409.12	574.69
409.344	541.69
409.567	490.69
409.791	454.69
410.014	454.69
410.238	450.69
410.461	453.69
410.685	453.69
410.908	465.69
411.132	505.69
411.355	542.69
411.578	522.69
411.802	449.69
412.025	454.69
412.249	443.69
412.472	458.69
412.695	467.69
412.919	452.69
413.142	443.69
413.365	424.69
413.589	424.69
413.812	421.69
414.035	425.69
414.258	432.69
414.482	423.69
414.705	423.69
414.928	447.69
415.151	422.69
415.374	431.69
415.597	445.69
415.821	422.69
416.044	410.69
416.267	435.69
416.49	437.69
416.713	443.69
416.936	415.69
417.159	411.69
417.382	417.69
417.605	440.69
417.828	450.69
418.051	442.69
418.274	443.69
418.497	436.69
418.72	429.69
418.943	431.69
419.166	427.69
419.389	453.69
419.611	463.69
419.834	480.69
420.057	465.69
420.28	422.69
420.503	421.69
420.726	461.69
420.948	449.69
421.171	497.69
421.394	544.69
421.617	474.69
421.839	429.69
422.062	435.69
422.285	468.69
422.507	513.69
422.73	575.69
422.953	554.69
423.175	500.69
423.398	472.69
423.621	468.69
423.843	486.69
424.066	467.69
424.288	476.69
424.511	490.69
424.733	560.69
424.956	636.69
425.178	616.69
425.401	617.69
425.623	630.69
425.846	543.69
426.068	499.69
426.291	494.69
426.513	506.69
426.735	513.69
426.958	516.69
427.18	628.69
427.402	737.69
427.625	809.69
427.847	696.69
428.069	595.69
428.292	555.69
428.514	503.69
428.736	468.69
428.958	466.69
429.181	453.69
429.403	455.69
429.625	447.69
429.847	477.69
430.069	552.69
430.292	563.69
430.514	474.69
430.736	456.69
430.958	454.69
431.18	451.69
431.402	425.69
431.624	402.69
431.846	439.69
432.068	417.69
432.29	432.69
432.512	424.69
432.734	433.69
432.956	455.69
433.178	440.69
433.4	427.69
433.622	421.69
433.844	409.69
434.066	414.69
434.287	435.69
434.509	434.69
434.731	449.69
434.953	464.69
435.175	478.69
435.397	453.69
435.618	493.69
435.84	542.69
436.062	596.69
436.284	663.69
436.505	572.69
436.727	501.69
436.949	455.69
437.17	468.69
437.392	449.69
437.614	455.69
437.835	485.69
438.057	597.69
438.278	669.69
438.5	685.69
438.721	727.69
438.943	721.69
439.165	571.69
439.386	537.69
439.608	499.69
439.829	503.69
440.05	545.69
440.272	579.69
440.493	531.69
440.715	491.69
440.936	485.69
441.158	455.69
441.379	456.69
441.6	474.69
441.822	476.69
442.043	523.69
442.264	594.69
442.486	650.69
442.707	566.69
442.928	515.69
443.149	515.69
443.371	519.69
443.592	575.69
443.813	666.69
444.034	727.69
444.255	609.69
444.476	498.69
444.698	505.69
444.919	491.69
445.14	584.69
445.361	549.69
445.582	517.69
445.803	592.69
446.024	687.69
446.245	719.69
446.466	633.69
446.687	517.69
446.908	509.69
447.129	486.69
447.35	438.69
447.571	445.69
447.792	459.69
448.013	445.69
448.234	481.69
448.455	510.69
448.675	623.69
448.896	739.69
449.117	645.69
449.338	587.69
449.559	695.69
449.779	776.69
450	612.69
450.221	503.69
450.442	461.69
450.662	445.69
450.883	463.69
451.104	454.69
451.324	415.69
451.545	441.69
451.766	411.69
451.986	396.69
452.207	399.69
452.428	382.69
452.648	407.69
452.869	419.69
453.089	425.69
453.31	431.69
453.53	421.69
453.751	398.69
453.971	424.69
454.192	409.69
454.412	411.69
454.633	412.69
454.853	403.69
455.073	402.69
455.294	424.69
455.514	509.69
455.734	473.69
455.955	403.69
456.175	388.69
456.395	383.69
456.616	388.69
456.836	390.69
457.056	375.69
457.276	388.69
457.497	382.69
457.717	359.69
457.937	393.69
458.157	403.69
458.377	396.69
458.598	431.69
458.818	481.69
459.038	533.69
459.258	557.69
459.478	479.69
459.698	439.69
459.918	419.69
460.138	417.69
460.358	409.69
460.578	441.69
460.798	433.69
461.018	438.69
461.238	421.69
461.458	420.69
461.678	419.69
461.898	422.69
462.118	447.69
462.338	451.69
462.558	441.69
462.777	434.69
462.997	449.69
463.217	456.69
463.437	458.69
463.657	436.69
463.876	464.69
464.096	448.69
464.316	449.69
464.536	457.69
464.755	438.69
464.975	445.69
465.195	512.69
465.414	547.69
465.634	479.69
465.854	449.69
466.073	440.69
466.293	430.69
466.512	412.69
466.732	410.69
466.951	405.69
467.171	401.69
467.391	398.69
467.61	431.69
467.829	405.69
468.049	398.69
468.268	395.69
468.488	397.69
468.707	390.69
468.927	389.69
469.146	406.69
469.365	391.69
469.585	382.69
469.804	409.69
470.023	431.69
470.243	421.69
470.462	425.69
470.681	425.69
470.901	411.69
471.12	410.69
471.339	404.69
471.558	409.69
471.777	427.69
471.997	432.69
472.216	403.69
472.435	415.69
472.654	375.69
472.873	417.69
473.092	429.69
473.311	411.69
473.53	406.69
473.749	422.69
473.968	479.69
474.187	555.69
474.406	596.69
474.625	493.69
474.844	436.69
475.063	414.69
475.282	420.69
475.501	431.69
475.72	429.69
475.939	431.69
476.158	437.69
476.377	436.69
476.596	439.69
476.814	426.69
477.033	429.69
477.252	421.69
477.471	464.69
477.69	442.69
477.908	462.69
478.127	451.69
478.346	448.69
478.564	452.69
478.783	434.69
479.002	482.69
479.22	498.69
479.439	466.69
479.658	508.69
479.876	498.69
480.095	489.69
480.313	531.69
480.532	521.69
480.751	486.69
480.969	507.69
481.188	513.69
481.406	509.69
481.624	488.69
481.843	488.69
482.061	478.69
482.28	465.69
482.498	478.69
482.717	481.69
482.935	469.69
483.153	467.69
483.372	483.69
483.59	485.69
483.808	493.69
484.027	474.69
484.245	482.69
484.463	479.69
484.681	518.69
484.9	480.69
485.118	503.69
485.336	506.69
485.554	509.69
485.772	487.69
485.99	477.69
486.209	476.69
486.427	504.69
486.645	512.69
486.863	519.69
487.081	517.69
487.299	518.69
487.517	501.69
487.735	509.69
487.953	531.69
488.171	554.69
488.389	521.69
488.607	519.69
488.825	534.69
489.043	539.69
489.261	525.69
489.479	538.69
489.696	543.69
489.914	557.69
490.132	524.69
490.35	547.69
490.568	534.69
490.786	552.69
491.003	561.69
491.221	565.69
491.439	560.69
491.657	578.69
491.874	589.69
492.092	588.69
492.31	612.69
492.527	617.69
492.745	599.69
492.963	602.69
493.18	599.69
493.398	583.69
493.615	614.69
493.833	587.69
494.05	627.69
494.268	619.69
494.485	601.69
494.703	613.69
494.92	596.69
495.138	617.69
495.355	601.69
495.573	622.69
495.79	617.69
496.008	602.69
496.225	601.69
496.442	607.69
496.66	614.69
496.877	613.69
497.094	616.69
497.312	649.69
497.529	639.69
497.746	619.69
497.963	656.69
498.181	669.69
498.398	678.69
498.615	657.69
498.832	679.69
499.049	682.69
499.267	719.69
499.484	723.69
499.701	743.69
499.918	790.69
500.135	815.69
500.352	820.69
500.569	831.69
500.786	801.69
501.003	811.69
501.22	808.69
501.437	760.69
501.654	766.69
501.871	760.69
502.088	708.69
502.305	685.69
502.522	687.69
502.739	677.69
502.956	694.69
503.172	649.69
503.389	635.69
503.606	649.69
503.823	645.69
504.04	635.69
504.256	628.69
504.473	643.69
504.69	644.69
504.907	613.69
505.123	615.69
505.34	600.69
505.557	627.69
505.773	597.69
505.99	598.69
506.207	602.69
506.423	605.69
506.64	584.69
506.856	597.69
507.073	575.69
507.289	586.69
507.506	565.69
507.722	594.69
507.939	617.69
508.155	585.69
508.372	562.69
508.588	579.69
508.805	548.69
509.021	555.69
509.238	569.69
509.454	581.69
509.67	574.69
509.887	577.69
510.103	569.69
510.319	587.69
510.536	671.69
510.752	1065.69
510.968	893.69
511.184	581.69
511.401	555.69
511.617	529.69
511.833	517.69
512.049	513.69
512.265	518.69
512.481	493.69
512.698	505.69
512.914	551.69
513.13	518.69
513.346	526.69
513.562	516.69
513.778	547.69
513.994	543.69
514.21	559.69
514.426	554.69
514.642	598.69
514.858	633.69
515.074	657.69
515.29	782.69
515.506	1141.69
515.721	930.69
515.937	637.69
516.153	577.69
516.369	557.69
516.585	577.69
516.801	559.69
517.016	529.69
517.232	554.69
517.448	542.69
517.664	534.69
517.879	566.69
518.095	542.69
518.311	568.69
518.527	539.69
518.742	561.69
518.958	534.69
519.173	545.69
519.389	546.69
519.605	537.69
519.82	543.69
520.036	551.69
520.251	566.69
520.467	607.69
520.682	600.69
520.898	611.69
521.113	594.69
521.329	606.69
521.544	717.69
521.76	887.69
521.975	1443.69
522.19	1396.69
522.406	774.69
522.621	610.69
522.836	549.69
523.052	538.69
523.267	541.69
523.482	511.69
523.698	489.69
523.913	523.69
524.128	485.69
524.343	485.69
524.559	457.69
524.774	479.69
524.989	470.69
525.204	477.69
525.419	462.69
525.634	470.69
525.849	466.69
526.064	456.69
526.28	471.69
526.495	451.69
526.71	447.69
526.925	447.69
527.14	458.69
527.355	425.69
527.57	456.69
527.785	437.69
527.999	450.69
528.214	449.69
528.429	470.69
528.644	437.69
528.859	417.69
529.074	452.69
529.289	454.69
529.503	546.69
529.718	502.69
529.933	479.69
530.148	449.69
530.363	451.69
530.577	427.69
530.792	445.69
531.007	440.69
531.221	421.69
531.436	427.69
531.651	434.69
531.865	423.69
532.08	445.69
532.295	437.69
532.509	411.69
532.724	423.69
532.938	408.69
533.153	433.69
533.367	425.69
533.582	432.69
533.796	422.69
534.011	430.69
534.225	419.69
534.44	425.69
534.654	409.69
534.868	410.69
535.083	407.69
535.297	402.69
535.511	431.69
535.726	430.69
535.94	441.69
536.154	413.69
536.369	413.69
536.583	411.69
536.797	409.69
537.011	407.69
537.225	394.69
537.44	420.69
537.654	401.69
537.868	401.69
538.082	412.69
538.296	413.69
538.51	383.69
538.724	403.69
538.938	417.69
539.153	407.69
539.367	412.69
539.581	419.69
539.795	399.69
540.009	408.69
540.222	403.69
540.436	392.69
540.65	407.69
540.864	393.69
541.078	406.69
541.292	401.69
541.506	390.69
541.72	415.69
541.934	414.69
542.147	413.69
542.361	411.69
542.575	411.69
542.789	413.69
543.002	409.69
543.216	415.69
543.43	421.69
543.644	414.69
543.857	416.69
544.071	401.69
544.285	404.69
544.498	405.69
544.712	394.69
544.925	411.69
545.139	393.69
545.352	393.69
545.566	406.69
545.779	407.69
545.993	378.69
546.206	399.69
546.42	412.69
546.633	411.69
546.847	383.69
547.06	372.69
547.274	396.69
547.487	391.69
547.7	381.69
547.914	381.69
548.127	398.69
548.34	387.69
548.554	388.69
548.767	379.69
548.98	393.69
549.193	376.69
549.407	377.69
549.62	385.69
549.833	375.69
550.046	375.69
550.259	371.69
550.473	406.69
550.686	377.69
550.899	383.69
551.112	379.69
551.325	379.69
551.538	374.69
551.751	366.69
551.964	368.69
552.177	381.69
552.39	369.69
552.603	373.69
552.816	389.69
553.029	387.69
553.242	406.69
553.455	383.69
553.667	389.69
553.88	401.69
554.093	382.69
554.306	398.69
554.519	376.69
554.732	392.69
554.944	375.69
555.157	372.69
555.37	357.69
555.583	370.69
555.795	367.69
556.008	373.69
556.221	358.69
556.433	374.69
556.646	351.69
556.859	350.69
557.071	360.69
557.284	353.69
557.496	352.69
557.709	350.69
557.921	360.69
558.134	335.69
558.346	343.69
558.559	367.69
558.771	333.69
558.984	334.69
559.196	326.69
559.409	342.69
559.621	351.69
559.833	343.69
560.046	320.69
560.258	329.69
560.47	339.69
560.683	354.69
560.895	345.69
561.107	341.69
561.32	363.69
561.532	341.69
561.744	352.69
561.956	341.69
562.168	344.69
562.381	370.69
562.593	355.69
562.805	349.69
563.017	326.69
563.229	343.69
563.441	340.69
563.653	346.69
563.865	358.69
564.077	334.69
564.289	349.69
564.501	345.69
564.713	370.69
564.925	349.69
565.137	369.69
565.349	372.69
565.561	374.69
565.773	381.69
565.985	385.69
566.197	401.69
566.408	368.69
566.62	391.69
566.832	404.69
567.044	411.69
567.255	410.69
567.467	399.69
567.679	394.69
567.891	426.69
568.102	401.69
568.314	378.69
568.526	399.69
568.737	391.69
568.949	367.69
569.161	382.69
569.372	362.69
569.584	362.69
569.795	351.69
570.007	350.69
570.218	379.69
570.43	377.69
570.641	343.69
570.853	333.69
571.064	335.69
571.276	320.69
571.487	331.69
571.698	318.69
571.91	329.69
572.121	341.69
572.333	318.69
572.544	304.69
572.755	331.69
572.966	317.69
573.178	296.69
573.389	329.69
573.6	319.69
573.811	299.69
574.023	288.69
574.234	293.69
574.445	302.69
574.656	275.69
574.867	290.69
575.078	311.69
575.289	306.69
575.501	285.69
575.712	288.69
575.923	299.69
576.134	320.69
576.345	287.69
576.556	295.69
576.767	301.69
576.978	284.69
577.188	292.69
577.399	308.69
577.61	298.69
577.821	298.69
578.032	283.69
578.243	346.69
578.454	513.69
578.665	390.69
578.875	299.69
579.086	283.69
579.297	286.69
579.508	290.69
579.718	278.69
579.929	277.69
580.14	275.69
580.35	279.69
580.561	275.69
580.772	275.69
580.982	288.69
581.193	274.69
581.403	277.69
581.614	271.69
581.825	277.69
582.035	273.69
582.246	261.69
582.456	264.69
582.667	256.69
582.877	260.69
583.087	265.69
583.298	278.69
583.508	290.69
583.719	275.69
583.929	252.69
584.139	267.69
584.35	265.69
584.56	264.69
584.77	278.69
584.981	293.69
585.191	261.69
585.401	280.69
585.611	269.69
585.821	264.69
586.032	263.69
586.242	257.69
586.452	267.69
586.662	278.69
586.872	271.69
587.082	263.69
587.292	262.69
587.502	244.69
587.713	256.69
587.923	258.69
588.133	269.69
588.343	262.69
588.553	263.69
588.762	268.69
588.972	268.69
589.182	278.69
589.392	260.69
589.602	282.69
589.812	287.69
590.022	277.69
590.232	254.69
590.441	258.69
590.651	245.69
590.861	238.69
591.071	265.69
591.281	255.69
591.49	257.69
591.7	270.69
591.91	269.69
592.119	282.69
592.329	261.69
592.539	271.69
592.748	266.69
592.958	262.69
593.167	268.69
593.377	263.69
593.587	278.69
593.796	264.69
594.006	278.69
594.215	255.69
594.424	261.69
594.634	267.69
594.843	251.69
595.053	261.69
595.262	265.69
595.472	271.69
595.681	253.69
595.89	236.69
596.1	249.69
596.309	234.69
596.518	257.69
596.727	270.69
596.937	248.69
597.146	253.69
597.355	250.69
597.564	240.69
597.774	243.69
597.983	261.69
598.192	249.69
598.401	254.69
598.61	250.69
598.819	244.69
599.028	240.69
599.237	234.69
599.446	231.69
599.655	244.69
599.864	229.69
600.073	224.69
600.282	244.69
600.491	227.69
600.7	211.69
600.909	222.69
601.118	221.69
601.327	228.69
601.536	216.69
601.745	220.69
601.953	222.69
602.162	239.69
602.371	230.69
602.58	243.69
602.789	221.69
602.997	217.69
603.206	233.69
603.415	219.69
603.623	234.69
603.832	232.69
604.041	237.69
604.249	228.69
604.458	217.69
604.666	224.69
604.875	224.69
605.084	215.69
605.292	217.69
605.501	212.69
605.709	230.69
605.918	224.69
606.126	226.69
606.334	224.69
606.543	220.69
606.751	228.69
606.96	220.69
607.168	207.69
607.376	217.69
607.585	206.69
607.793	214.69
608.001	241.69
608.21	212.69
608.418	217.69
608.626	217.69
608.834	231.69
609.043	223.69
609.251	231.69
609.459	223.69
609.667	206.69
609.875	218.69
610.083	218.69
610.291	220.69
610.499	213.69
610.707	206.69
610.916	210.69
611.124	222.69
611.332	242.69
611.54	218.69
611.748	225.69
611.955	239.69
612.163	219.69
612.371	201.69
612.579	208.69
612.787	218.69
612.995	230.69
613.203	228.69
613.411	206.69
613.618	223.69
613.826	228.69
614.034	222.69
614.242	202.69
614.449	185.69
614.657	209.69
614.865	208.69
615.072	217.69
615.28	201.69
615.488	196.69
615.695	217.69
615.903	201.69
616.111	206.69
616.318	207.69
616.526	214.69
616.733	226.69
616.941	202.69
617.148	209.69
617.356	208.69
617.563	215.69
617.771	209.69
617.978	198.69
618.185	215.69
618.393	199.69
618.6	210.69
618.807	193.69
619.015	197.69
619.222	223.69
619.429	203.69
619.637	211.69
619.844	214.69
620.051	192.69
620.258	196.69
620.466	209.69
620.673	174.69
620.88	186.69
621.087	201.69
621.294	207.69
621.501	191.69
621.708	203.69
621.915	205.69
622.122	205.69
622.329	198.69
622.536	193.69
622.743	203.69
622.95	195.69
623.157	193.69
623.364	200.69
623.571	207.69
623.778	196.69
623.985	175.69
624.192	194.69
624.399	193.69
624.606	188.69
624.812	191.69
625.019	194.69
625.226	193.69
625.433	183.69
625.639	205.69
625.846	194.69
626.053	209.69
626.259	194.69
626.466	198.69
626.673	190.69
626.879	179.69
627.086	186.69
627.293	190.69
627.499	205.69
627.706	196.69
627.912	177.69
628.119	199.69
628.325	179.69
628.532	182.69
628.738	177.69
628.945	179.69
629.151	191.69
629.357	193.69
629.564	167.69
629.77	186.69
629.976	191.69
630.183	198.69
630.389	194.69
630.595	181.69
630.802	177.69
631.008	189.69
631.214	185.69
631.42	173.69
631.627	183.69
631.833	173.69
632.039	155.69
632.245	162.69
632.451	175.69
632.657	179.69
632.863	170.69
633.069	180.69
633.275	169.69
633.481	196.69
633.688	183.69
633.893	181.69
634.099	175.69
634.305	173.69
634.511	159.69
634.717	174.69
634.923	169.69
635.129	167.69
635.335	159.69
635.541	168.69
635.747	173.69
635.952	179.69
636.158	155.69
636.364	167.69
636.57	165.69
636.775	154.69
636.981	183.69
637.187	169.69
637.392	170.69
637.598	163.69
637.804	152.69
638.009	166.69
638.215	175.69
638.421	173.69
638.626	147.69
638.832	147.69
639.037	153.69
639.243	147.69
639.448	153.69
639.654	159.69
639.859	166.69
640.065	173.69
640.27	162.69
640.475	165.69
640.681	167.69
640.886	163.69
641.091	163.69
641.297	151.69
641.502	150.69
641.707	164.69
641.913	158.69
642.118	157.69
642.323	138.69
642.528	178.69
642.733	149.69
642.939	165.69
643.144	160.69
643.349	145.69
643.554	160.69
643.759	149.69
643.964	159.69
644.169	159.69
644.374	157.69
644.579	146.69
644.784	138.69
644.989	152.69
645.194	162.69
645.399	162.69
645.604	157.69
645.809	155.69
646.014	168.69
646.219	162.69
646.423	159.69
646.628	157.69
646.833	147.69
647.038	157.69
647.243	150.69
647.447	159.69
647.652	169.69
647.857	152.69
648.062	160.69
648.266	161.69
648.471	159.69
648.676	157.69
648.88	152.69
649.085	160.69
649.289	149.69
649.494	157.69
649.698	180.69
649.903	175.69
650.107	147.69
650.312	137.69
650.516	151.69
650.721	141.69
650.925	136.69
651.13	136.69
651.334	130.69
651.539	136.69
651.743	142.69
651.947	150.69
652.152	137.69
652.356	145.69
652.56	139.69
652.764	134.69
652.969	137.69
653.173	125.69
653.377	119.69
653.581	134.69
653.785	125.69
653.99	133.69
654.194	134.69
654.398	119.69
654.602	125.69
654.806	123.69
655.01	135.69
655.214	128.69
655.418	123.69
655.622	127.69
655.826	113.69
656.03	125.69
656.234	129.69
656.438	129.69
656.642	131.69
656.846	126.69
657.049	134.69
657.253	111.69
657.457	98.69
657.661	116.69
657.865	120.69
658.068	114.69
658.272	115.69
658.476	89.69
658.68	94.69
658.883	98.69
659.087	110.69
659.291	103.69
659.494	89.69
659.698	85.69
659.901	98.69
660.105	101.69
660.309	93.69
660.512	84.69
660.716	85.69
660.919	87.69
661.123	92.69
661.326	86.69
661.53	85.69
661.733	88.69
661.936	90.69
662.14	84.69
662.343	88.69
662.546	90.69
662.75	91.69
662.953	93.69
663.156	78.69
663.36	84.69
663.563	75.69
663.766	85.69
663.969	88.69
664.173	97.69
664.376	76.69
664.579	77.69
664.782	91.69
664.985	81.69
665.188	90.69
665.391	83.69
665.594	87.69
665.797	72.69
666	82.69
666.203	81.69
666.406	86.69
666.609	83.69
666.812	75.69
667.015	87.69
667.218	89.69
667.421	84.69
667.624	70.69
667.827	88.69
668.03	77.69
668.232	92.69
668.435	82.69
668.638	86.69
668.841	84.69
669.043	69.69
669.246	64.69
669.449	78.69
669.651	92.69
669.854	78.69
670.057	78.69
670.259	78.69
670.462	75.69
670.665	83.69
670.867	64.69
671.07	90.69
671.272	76.69
671.475	77.69
671.677	74.69
671.88	76.69
672.082	81.69
672.284	84.69
672.487	94.69
672.689	77.69
672.892	72.69
