Data from 1989.PennyLincolnUp.Lamp.En5.5.200Scan.071819.P2_HRD10591_17-26-04-974.txt Node
Date: Thu Jul 18 17:26:04 EDT 2019
User: cochatt
Spectrometer: HR+D1059
Trigger mode: 1
Integration Time (sec): 1.000000E-1
Scans to average: 1
Electric dark correction enabled: true
Nonlinearity correction enabled: false
Boxcar width: 0
XAxis mode: Wavelengths
Number of Pixels in Spectrum: 2048
>>>>>Begin Spectral Data<<<<<
223.165	-16.06
223.4	-16.06
223.635	-16.06
223.869	-9.06
224.104	-29.06
224.338	2.94
224.573	-9.06
224.808	-7.06
225.042	-12.06
225.277	-9.06
225.511	0.94
225.746	-0.06
225.98	-0.06
226.215	3.94
226.449	22.94
226.683	17.94
226.918	24.94
227.152	17.94
227.387	32.94
227.621	41.94
227.856	35.94
228.09	57.94
228.324	62.94
228.559	43.94
228.793	68.94
229.027	94.94
229.262	115.94
229.496	114.94
229.73	142.94
229.964	172.94
230.199	138.94
230.433	107.94
230.667	118.94
230.901	113.94
231.136	129.94
231.37	123.94
231.604	114.94
231.838	117.94
232.072	125.94
232.306	123.94
232.541	104.94
232.775	121.94
233.009	103.94
233.243	114.94
233.477	119.94
233.711	117.94
233.945	112.94
234.179	123.94
234.413	116.94
234.647	123.94
234.881	116.94
235.115	119.94
235.349	126.94
235.583	134.94
235.817	130.94
236.051	152.94
236.285	123.94
236.519	124.94
236.753	130.94
236.987	145.94
237.221	170.94
237.455	256.94
237.689	193.94
237.922	150.94
238.156	148.94
238.39	144.94
238.624	138.94
238.858	151.94
239.091	133.94
239.325	140.94
239.559	118.94
239.793	140.94
240.027	134.94
240.26	151.94
240.494	174.94
240.728	163.94
240.961	146.94
241.195	145.94
241.429	131.94
241.662	152.94
241.896	125.94
242.13	143.94
242.363	129.94
242.597	145.94
242.83	150.94
243.064	154.94
243.298	144.94
243.531	148.94
243.765	154.94
243.998	144.94
244.232	144.94
244.465	138.94
244.699	147.94
244.932	158.94
245.166	155.94
245.399	143.94
245.633	145.94
245.866	151.94
246.099	161.94
246.333	150.94
246.566	153.94
246.8	174.94
247.033	165.94
247.266	154.94
247.5	178.94
247.733	186.94
247.966	187.94
248.2	182.94
248.433	174.94
248.666	180.94
248.899	185.94
249.133	224.94
249.366	235.94
249.599	215.94
249.832	219.94
250.066	203.94
250.299	217.94
250.532	218.94
250.765	246.94
250.998	254.94
251.231	262.94
251.465	248.94
251.698	231.94
251.931	227.94
252.164	212.94
252.397	222.94
252.63	230.94
252.863	235.94
253.096	255.94
253.329	259.94
253.562	247.94
253.795	235.94
254.028	237.94
254.261	243.94
254.494	261.94
254.727	280.94
254.96	300.94
255.193	291.94
255.426	287.94
255.659	271.94
255.892	279.94
256.124	280.94
256.357	302.94
256.59	279.94
256.823	246.94
257.056	234.94
257.289	253.94
257.521	257.94
257.754	231.94
257.987	239.94
258.22	225.94
258.452	238.94
258.685	233.94
258.918	255.94
259.151	236.94
259.383	248.94
259.616	245.94
259.849	263.94
260.081	263.94
260.314	282.94
260.547	308.94
260.779	255.94
261.012	252.94
261.244	262.94
261.477	261.94
261.71	249.94
261.942	260.94
262.175	261.94
262.407	258.94
262.64	256.94
262.872	230.94
263.105	226.94
263.337	221.94
263.57	242.94
263.802	238.94
264.035	232.94
264.267	252.94
264.499	213.94
264.732	216.94
264.964	235.94
265.197	226.94
265.429	228.94
265.661	234.94
265.894	242.94
266.126	258.94
266.358	226.94
266.591	219.94
266.823	231.94
267.055	246.94
267.287	253.94
267.52	246.94
267.752	250.94
267.984	257.94
268.216	246.94
268.448	256.94
268.681	248.94
268.913	272.94
269.145	282.94
269.377	312.94
269.609	308.94
269.841	294.94
270.073	303.94
270.306	332.94
270.538	349.94
270.77	348.94
271.002	327.94
271.234	322.94
271.466	338.94
271.698	364.94
271.93	363.94
272.162	369.94
272.394	366.94
272.626	338.94
272.858	331.94
273.09	316.94
273.322	308.94
273.553	318.94
273.785	295.94
274.017	282.94
274.249	282.94
274.481	287.94
274.713	294.94
274.945	308.94
275.176	310.94
275.408	288.94
275.64	289.94
275.872	282.94
276.104	278.94
276.335	296.94
276.567	314.94
276.799	320.94
277.031	335.94
277.262	359.94
277.494	378.94
277.726	343.94
277.957	315.94
278.189	318.94
278.421	302.94
278.652	297.94
278.884	306.94
279.115	286.94
279.347	299.94
279.579	299.94
279.81	310.94
280.042	296.94
280.273	302.94
280.505	286.94
280.736	290.94
280.968	277.94
281.199	288.94
281.431	289.94
281.662	291.94
281.894	305.94
282.125	303.94
282.356	315.94
282.588	352.94
282.819	339.94
283.051	302.94
283.282	278.94
283.513	295.94
283.745	313.94
283.976	320.94
284.207	297.94
284.439	300.94
284.67	301.94
284.901	310.94
285.132	293.94
285.364	295.94
285.595	278.94
285.826	302.94
286.057	318.94
286.288	289.94
286.52	314.94
286.751	305.94
286.982	306.94
287.213	330.94
287.444	308.94
287.675	316.94
287.906	324.94
288.138	337.94
288.369	325.94
288.6	339.94
288.831	315.94
289.062	328.94
289.293	315.94
289.524	316.94
289.755	323.94
289.986	303.94
290.217	306.94
290.448	311.94
290.679	331.94
290.91	324.94
291.141	313.94
291.371	316.94
291.602	320.94
291.833	313.94
292.064	329.94
292.295	307.94
292.526	298.94
292.757	290.94
292.987	304.94
293.218	295.94
293.449	319.94
293.68	317.94
293.91	303.94
294.141	319.94
294.372	314.94
294.603	318.94
294.833	320.94
295.064	314.94
295.295	316.94
295.525	315.94
295.756	324.94
295.987	343.94
296.217	369.94
296.448	369.94
296.679	317.94
296.909	298.94
297.14	306.94
297.37	328.94
297.601	335.94
297.831	335.94
298.062	342.94
298.292	336.94
298.523	342.94
298.753	328.94
298.984	318.94
299.214	344.94
299.445	339.94
299.675	328.94
299.905	323.94
300.136	325.94
300.366	341.94
300.597	336.94
300.827	351.94
301.057	347.94
301.288	378.94
301.518	370.94
301.748	339.94
301.979	363.94
302.209	331.94
302.439	360.94
302.669	335.94
302.9	348.94
303.13	348.94
303.36	362.94
303.59	320.94
303.82	377.94
304.051	370.94
304.281	346.94
304.511	353.94
304.741	370.94
304.971	362.94
305.201	350.94
305.431	344.94
305.661	359.94
305.891	344.94
306.121	350.94
306.352	375.94
306.582	368.94
306.812	366.94
307.042	369.94
307.272	345.94
307.502	388.94
307.731	350.94
307.961	350.94
308.191	351.94
308.421	327.94
308.651	382.94
308.881	374.94
309.111	377.94
309.341	389.94
309.571	389.94
309.8	375.94
310.03	408.94
310.26	416.94
310.49	412.94
310.72	425.94
310.949	460.94
311.179	456.94
311.409	423.94
311.639	419.94
311.868	415.94
312.098	422.94
312.328	434.94
312.557	425.94
312.787	472.94
313.017	458.94
313.246	434.94
313.476	416.94
313.706	423.94
313.935	429.94
314.165	446.94
314.394	423.94
314.624	418.94
314.853	427.94
315.083	415.94
315.312	416.94
315.542	382.94
315.771	415.94
316.001	396.94
316.23	399.94
316.46	406.94
316.689	412.94
316.919	414.94
317.148	424.94
317.377	438.94
317.607	427.94
317.836	402.94
318.065	420.94
318.295	402.94
318.524	407.94
318.753	424.94
318.983	434.94
319.212	424.94
319.441	442.94
319.67	426.94
319.9	424.94
320.129	435.94
320.358	426.94
320.587	432.94
320.816	444.94
321.046	449.94
321.275	444.94
321.504	442.94
321.733	458.94
321.962	466.94
322.191	452.94
322.42	481.94
322.649	488.94
322.878	494.94
323.108	524.94
323.337	561.94
323.566	574.94
323.795	610.94
324.024	664.94
324.253	800.94
324.482	1170.94
324.71	1812.94
324.939	2688.94
325.168	2290.94
325.397	1158.94
325.626	772.94
325.855	639.94
326.084	592.94
326.313	582.94
326.542	604.94
326.77	637.94
326.999	742.94
327.228	1060.94
327.457	1601.94
327.686	1987.94
327.914	1314.94
328.143	873.94
328.372	754.94
328.6	683.94
328.829	676.94
329.058	668.94
329.287	707.94
329.515	648.94
329.744	611.94
329.972	601.94
330.201	654.94
330.43	720.94
330.658	716.94
330.887	710.94
331.115	715.94
331.344	610.94
331.572	562.94
331.801	539.94
332.03	549.94
332.258	536.94
332.486	519.94
332.715	498.94
332.943	519.94
333.172	506.94
333.4	508.94
333.629	522.94
333.857	547.94
334.085	574.94
334.314	597.94
334.542	660.94
334.771	680.94
334.999	598.94
335.227	558.94
335.455	519.94
335.684	491.94
335.912	476.94
336.14	471.94
336.369	487.94
336.597	505.94
336.825	487.94
337.053	488.94
337.281	471.94
337.51	477.94
337.738	472.94
337.966	484.94
338.194	492.94
338.422	464.94
338.65	472.94
338.878	472.94
339.106	448.94
339.334	458.94
339.562	442.94
339.79	439.94
340.018	445.94
340.246	461.94
340.474	456.94
340.702	457.94
340.93	458.94
341.158	457.94
341.386	457.94
341.614	450.94
341.842	482.94
342.07	444.94
342.298	443.94
342.526	448.94
342.754	432.94
342.981	428.94
343.209	440.94
343.437	436.94
343.665	430.94
343.893	442.94
344.12	441.94
344.348	446.94
344.576	458.94
344.804	456.94
345.031	454.94
345.259	479.94
345.487	464.94
345.714	459.94
345.942	460.94
346.17	450.94
346.397	451.94
346.625	441.94
346.853	430.94
347.08	433.94
347.308	442.94
347.535	454.94
347.763	448.94
347.99	460.94
348.218	455.94
348.445	459.94
348.673	453.94
348.9	443.94
349.128	440.94
349.355	417.94
349.583	420.94
349.81	419.94
350.037	426.94
350.265	407.94
350.492	433.94
350.72	418.94
350.947	443.94
351.174	438.94
351.402	460.94
351.629	454.94
351.856	445.94
352.083	453.94
352.311	451.94
352.538	468.94
352.765	468.94
352.992	446.94
353.22	459.94
353.447	449.94
353.674	435.94
353.901	418.94
354.128	431.94
354.355	416.94
354.583	414.94
354.81	406.94
355.037	395.94
355.264	398.94
355.491	406.94
355.718	390.94
355.945	396.94
356.172	387.94
356.399	393.94
356.626	393.94
356.853	409.94
357.08	412.94
357.307	396.94
357.534	371.94
357.761	394.94
357.988	406.94
358.215	390.94
358.441	378.94
358.668	408.94
358.895	415.94
359.122	420.94
359.349	410.94
359.576	443.94
359.802	487.94
360.029	495.94
360.256	511.94
360.483	474.94
360.709	449.94
360.936	436.94
361.163	464.94
361.39	446.94
361.616	460.94
361.843	421.94
362.07	432.94
362.296	428.94
362.523	428.94
362.749	420.94
362.976	439.94
363.203	415.94
363.429	413.94
363.656	412.94
363.882	407.94
364.109	382.94
364.335	411.94
364.562	404.94
364.788	408.94
365.015	411.94
365.241	406.94
365.468	407.94
365.694	423.94
365.92	412.94
366.147	409.94
366.373	399.94
366.599	403.94
366.826	389.94
367.052	410.94
367.278	405.94
367.505	408.94
367.731	404.94
367.957	396.94
368.184	388.94
368.41	415.94
368.636	423.94
368.862	436.94
369.089	422.94
369.315	416.94
369.541	385.94
369.767	401.94
369.993	398.94
370.219	424.94
370.445	405.94
370.672	406.94
370.898	384.94
371.124	398.94
371.35	404.94
371.576	407.94
371.802	398.94
372.028	396.94
372.254	405.94
372.48	377.94
372.706	378.94
372.932	393.94
373.158	394.94
373.384	398.94
373.61	378.94
373.835	387.94
374.061	387.94
374.287	400.94
374.513	407.94
374.739	404.94
374.965	364.94
375.191	396.94
375.416	402.94
375.642	392.94
375.868	399.94
376.094	377.94
376.319	393.94
376.545	379.94
376.771	383.94
376.997	374.94
377.222	389.94
377.448	375.94
377.674	378.94
377.899	379.94
378.125	382.94
378.35	372.94
378.576	396.94
378.802	401.94
379.027	380.94
379.253	376.94
379.478	387.94
379.704	397.94
379.929	396.94
380.155	378.94
380.38	395.94
380.606	385.94
380.831	386.94
381.057	390.94
381.282	392.94
381.507	399.94
381.733	413.94
381.958	397.94
382.184	397.94
382.409	389.94
382.634	386.94
382.86	386.94
383.085	400.94
383.31	386.94
383.535	379.94
383.761	387.94
383.986	411.94
384.211	396.94
384.436	393.94
384.662	403.94
384.887	423.94
385.112	423.94
385.337	414.94
385.562	390.94
385.787	413.94
386.013	408.94
386.238	435.94
386.463	440.94
386.688	424.94
386.913	393.94
387.138	396.94
387.363	392.94
387.588	417.94
387.813	406.94
388.038	434.94
388.263	403.94
388.488	406.94
388.713	395.94
388.938	403.94
389.163	429.94
389.387	406.94
389.612	418.94
389.837	406.94
390.062	403.94
390.287	400.94
390.512	384.94
390.736	409.94
390.961	409.94
391.186	400.94
391.411	395.94
391.636	424.94
391.86	422.94
392.085	411.94
392.31	412.94
392.534	432.94
392.759	444.94
392.984	423.94
393.208	407.94
393.433	403.94
393.658	410.94
393.882	406.94
394.107	411.94
394.331	403.94
394.556	403.94
394.78	416.94
395.005	427.94
395.229	435.94
395.454	440.94
395.678	423.94
395.903	429.94
396.127	468.94
396.352	452.94
396.576	418.94
396.801	415.94
397.025	414.94
397.249	423.94
397.474	457.94
397.698	450.94
397.922	447.94
398.147	466.94
398.371	436.94
398.595	461.94
398.82	457.94
399.044	433.94
399.268	485.94
399.492	502.94
399.717	512.94
399.941	535.94
400.165	556.94
400.389	579.94
400.613	523.94
400.837	493.94
401.062	477.94
401.286	456.94
401.51	464.94
401.734	441.94
401.958	452.94
402.182	472.94
402.406	479.94
402.63	478.94
402.854	461.94
403.078	486.94
403.302	479.94
403.526	470.94
403.75	489.94
403.974	489.94
404.198	474.94
404.422	519.94
404.645	483.94
404.869	494.94
405.093	535.94
405.317	588.94
405.541	614.94
405.765	576.94
405.988	546.94
406.212	556.94
406.436	541.94
406.66	546.94
406.883	536.94
407.107	560.94
407.331	586.94
407.555	633.94
407.778	634.94
408.002	594.94
408.226	567.94
408.449	512.94
408.673	515.94
408.896	546.94
409.12	603.94
409.344	572.94
409.567	531.94
409.791	514.94
410.014	503.94
410.238	496.94
410.461	484.94
410.685	492.94
410.908	513.94
411.132	535.94
411.355	574.94
411.578	584.94
411.802	510.94
412.025	506.94
412.249	500.94
412.472	526.94
412.695	587.94
412.919	584.94
413.142	521.94
413.365	491.94
413.589	507.94
413.812	462.94
414.035	461.94
414.258	448.94
414.482	443.94
414.705	463.94
414.928	457.94
415.151	436.94
415.374	439.94
415.597	452.94
415.821	449.94
416.044	442.94
416.267	448.94
416.49	456.94
416.713	475.94
416.936	450.94
417.159	434.94
417.382	468.94
417.605	468.94
417.828	467.94
418.051	474.94
418.274	470.94
418.497	466.94
418.72	464.94
418.943	442.94
419.166	473.94
419.389	502.94
419.611	485.94
419.834	484.94
420.057	509.94
420.28	491.94
420.503	520.94
420.726	520.94
420.948	505.94
421.171	566.94
421.394	596.94
421.617	519.94
421.839	503.94
422.062	498.94
422.285	500.94
422.507	546.94
422.73	636.94
422.953	598.94
423.175	526.94
423.398	514.94
423.621	499.94
423.843	509.94
424.066	497.94
424.288	526.94
424.511	521.94
424.733	572.94
424.956	680.94
425.178	629.94
425.401	646.94
425.623	672.94
425.846	596.94
426.068	535.94
426.291	528.94
426.513	513.94
426.735	549.94
426.958	576.94
427.18	649.94
427.402	788.94
427.625	874.94
427.847	803.94
428.069	703.94
428.292	609.94
428.514	551.94
428.736	528.94
428.958	506.94
429.181	471.94
429.403	502.94
429.625	483.94
429.847	520.94
430.069	609.94
430.292	604.94
430.514	508.94
430.736	500.94
430.958	478.94
431.18	451.94
431.402	468.94
431.624	468.94
431.846	443.94
432.068	450.94
432.29	449.94
432.512	436.94
432.734	475.94
432.956	463.94
433.178	453.94
433.4	493.94
433.622	463.94
433.844	449.94
434.066	464.94
434.287	444.94
434.509	452.94
434.731	450.94
434.953	466.94
435.175	485.94
435.397	510.94
435.618	536.94
435.84	563.94
436.062	672.94
436.284	741.94
436.505	626.94
436.727	534.94
436.949	499.94
437.17	515.94
437.392	481.94
437.614	506.94
437.835	532.94
438.057	639.94
438.278	766.94
438.5	759.94
438.721	793.94
438.943	772.94
439.165	594.94
439.386	555.94
439.608	562.94
439.829	548.94
440.05	560.94
440.272	624.94
440.493	598.94
440.715	520.94
440.936	510.94
441.158	491.94
441.379	488.94
441.6	498.94
441.822	506.94
442.043	574.94
442.264	652.94
442.486	702.94
442.707	597.94
442.928	539.94
443.149	562.94
443.371	548.94
443.592	627.94
443.813	700.94
444.034	751.94
444.255	618.94
444.476	531.94
444.698	523.94
444.919	521.94
445.14	649.94
445.361	592.94
445.582	577.94
445.803	627.94
446.024	765.94
446.245	757.94
446.466	712.94
446.687	585.94
446.908	542.94
447.129	518.94
447.35	488.94
447.571	491.94
447.792	498.94
448.013	467.94
448.234	534.94
448.455	591.94
448.675	663.94
448.896	804.94
449.117	653.94
449.338	654.94
449.559	731.94
449.779	830.94
450	678.94
450.221	571.94
450.442	487.94
450.662	489.94
450.883	475.94
451.104	522.94
451.324	489.94
451.545	475.94
451.766	448.94
451.986	440.94
452.207	431.94
452.428	423.94
452.648	436.94
452.869	436.94
453.089	449.94
453.31	448.94
453.53	434.94
453.751	445.94
453.971	420.94
454.192	480.94
454.412	437.94
454.633	442.94
454.853	415.94
455.073	440.94
455.294	467.94
455.514	530.94
455.734	513.94
455.955	430.94
456.175	435.94
456.395	405.94
456.616	420.94
456.836	411.94
457.056	405.94
457.276	392.94
457.497	394.94
457.717	400.94
457.937	416.94
458.157	410.94
458.377	408.94
458.598	436.94
458.818	524.94
459.038	588.94
459.258	634.94
459.478	530.94
459.698	469.94
459.918	454.94
460.138	450.94
460.358	429.94
460.578	427.94
460.798	451.94
461.018	434.94
461.238	434.94
461.458	449.94
461.678	435.94
461.898	451.94
462.118	432.94
462.338	444.94
462.558	442.94
462.777	453.94
462.997	481.94
463.217	461.94
463.437	481.94
463.657	461.94
463.876	474.94
464.096	466.94
464.316	466.94
464.536	460.94
464.755	482.94
464.975	506.94
465.195	522.94
465.414	626.94
465.634	538.94
465.854	469.94
466.073	470.94
466.293	442.94
466.512	456.94
466.732	434.94
466.951	440.94
467.171	417.94
467.391	415.94
467.61	439.94
467.829	435.94
468.049	477.94
468.268	451.94
468.488	466.94
468.707	439.94
468.927	416.94
469.146	418.94
469.365	446.94
469.585	424.94
469.804	447.94
470.023	459.94
470.243	455.94
470.462	449.94
470.681	482.94
470.901	457.94
471.12	448.94
471.339	452.94
471.558	446.94
471.777	435.94
471.997	443.94
472.216	478.94
472.435	540.94
472.654	488.94
472.873	454.94
473.092	457.94
473.311	466.94
473.53	482.94
473.749	457.94
473.968	525.94
474.187	626.94
474.406	649.94
474.625	513.94
474.844	463.94
475.063	452.94
475.282	428.94
475.501	469.94
475.72	469.94
475.939	444.94
476.158	444.94
476.377	465.94
476.596	450.94
476.814	450.94
477.033	451.94
477.252	456.94
477.471	495.94
477.69	478.94
477.908	480.94
478.127	477.94
478.346	471.94
478.564	491.94
478.783	498.94
479.002	493.94
479.22	496.94
479.439	518.94
479.658	537.94
479.876	553.94
480.095	540.94
480.313	576.94
480.532	551.94
480.751	552.94
480.969	594.94
481.188	669.94
481.406	762.94
481.624	656.94
481.843	587.94
482.061	571.94
482.28	555.94
482.498	516.94
482.717	539.94
482.935	540.94
483.153	531.94
483.372	505.94
483.59	534.94
483.808	509.94
484.027	518.94
484.245	510.94
484.463	531.94
484.681	537.94
484.9	528.94
485.118	542.94
485.336	530.94
485.554	556.94
485.772	548.94
485.99	555.94
486.209	536.94
486.427	564.94
486.645	560.94
486.863	578.94
487.081	574.94
487.299	556.94
487.517	566.94
487.735	588.94
487.953	566.94
488.171	574.94
488.389	553.94
488.607	568.94
488.825	594.94
489.043	586.94
489.261	588.94
489.479	577.94
489.696	560.94
489.914	585.94
490.132	612.94
490.35	599.94
490.568	590.94
490.786	607.94
491.003	627.94
491.221	642.94
491.439	615.94
491.657	662.94
491.874	640.94
492.092	669.94
492.31	647.94
492.527	687.94
492.745	654.94
492.963	692.94
493.18	693.94
493.398	659.94
493.615	694.94
493.833	682.94
494.05	678.94
494.268	693.94
494.485	662.94
494.703	675.94
494.92	687.94
495.138	676.94
495.355	664.94
495.573	695.94
495.79	675.94
496.008	670.94
496.225	671.94
496.442	646.94
496.66	664.94
496.877	699.94
497.094	663.94
497.312	656.94
497.529	695.94
497.746	710.94
497.963	712.94
498.181	713.94
498.398	758.94
498.615	760.94
498.832	738.94
499.049	734.94
499.267	737.94
499.484	751.94
499.701	766.94
499.918	822.94
500.135	835.94
500.352	874.94
500.569	857.94
500.786	855.94
501.003	852.94
501.22	836.94
501.437	843.94
501.654	846.94
501.871	850.94
502.088	816.94
502.305	758.94
502.522	744.94
502.739	742.94
502.956	713.94
503.172	690.94
503.389	705.94
503.606	711.94
503.823	697.94
504.04	711.94
504.256	683.94
504.473	687.94
504.69	686.94
504.907	700.94
505.123	626.94
505.34	640.94
505.557	653.94
505.773	647.94
505.99	641.94
506.207	654.94
506.423	662.94
506.64	636.94
506.856	664.94
507.073	644.94
507.289	634.94
507.506	624.94
507.722	634.94
507.939	655.94
508.155	649.94
508.372	634.94
508.588	622.94
508.805	621.94
509.021	604.94
509.238	642.94
509.454	664.94
509.67	611.94
509.887	636.94
510.103	613.94
510.319	642.94
510.536	731.94
510.752	1267.94
510.968	1024.94
511.184	649.94
511.401	608.94
511.617	609.94
511.833	620.94
512.049	618.94
512.265	600.94
512.481	622.94
512.698	584.94
512.914	591.94
513.13	594.94
513.346	585.94
513.562	598.94
513.778	616.94
513.994	608.94
514.21	620.94
514.426	642.94
514.642	685.94
514.858	699.94
515.074	728.94
515.29	894.94
515.506	1356.94
515.721	1102.94
515.937	714.94
516.153	677.94
516.369	614.94
516.585	608.94
516.801	626.94
517.016	615.94
517.232	585.94
517.448	583.94
517.664	577.94
517.879	587.94
518.095	565.94
518.311	618.94
518.527	605.94
518.742	598.94
518.958	568.94
519.173	586.94
519.389	596.94
519.605	565.94
519.82	587.94
520.036	616.94
520.251	629.94
520.467	675.94
520.682	653.94
520.898	649.94
521.113	673.94
521.329	759.94
521.544	822.94
521.76	1088.94
521.975	1821.94
522.19	1827.94
522.406	970.94
522.621	718.94
522.836	640.94
523.052	603.94
523.267	558.94
523.482	548.94
523.698	542.94
523.913	555.94
524.128	514.94
524.343	518.94
524.559	508.94
524.774	513.94
524.989	506.94
525.204	514.94
525.419	528.94
525.634	514.94
525.849	500.94
526.064	477.94
526.28	477.94
526.495	473.94
526.71	476.94
526.925	493.94
527.14	475.94
527.355	484.94
527.57	475.94
527.785	470.94
527.999	461.94
528.214	454.94
528.429	486.94
528.644	463.94
528.859	469.94
529.074	464.94
529.289	514.94
529.503	588.94
529.718	564.94
529.933	515.94
530.148	475.94
530.363	484.94
530.577	482.94
530.792	449.94
531.007	470.94
531.221	455.94
531.436	460.94
531.651	455.94
531.865	463.94
532.08	431.94
532.295	455.94
532.509	425.94
532.724	432.94
532.938	438.94
533.153	442.94
533.367	443.94
533.582	462.94
533.796	450.94
534.011	445.94
534.225	434.94
534.44	426.94
534.654	418.94
534.868	444.94
535.083	435.94
535.297	424.94
535.511	440.94
535.726	471.94
535.94	458.94
536.154	462.94
536.369	430.94
536.583	435.94
536.797	407.94
537.011	396.94
537.225	422.94
537.44	428.94
537.654	447.94
537.868	428.94
538.082	417.94
538.296	416.94
538.51	445.94
538.724	418.94
538.938	438.94
539.153	436.94
539.367	439.94
539.581	447.94
539.795	422.94
540.009	423.94
540.222	427.94
540.436	449.94
540.65	410.94
540.864	451.94
541.078	431.94
541.292	446.94
541.506	436.94
541.72	427.94
541.934	438.94
542.147	427.94
542.361	448.94
542.575	424.94
542.789	423.94
543.002	437.94
543.216	445.94
543.43	434.94
543.644	406.94
543.857	434.94
544.071	434.94
544.285	428.94
544.498	418.94
544.712	411.94
544.925	406.94
545.139	416.94
545.352	418.94
545.566	434.94
545.779	394.94
545.993	415.94
546.206	416.94
546.42	419.94
546.633	394.94
546.847	409.94
547.06	413.94
547.274	412.94
547.487	415.94
547.7	396.94
547.914	408.94
548.127	400.94
548.34	419.94
548.554	414.94
548.767	388.94
548.98	417.94
549.193	415.94
549.407	400.94
549.62	399.94
549.833	421.94
550.046	394.94
550.259	395.94
550.473	405.94
550.686	392.94
550.899	388.94
551.112	406.94
551.325	406.94
551.538	399.94
551.751	384.94
551.964	388.94
552.177	403.94
552.39	394.94
552.603	391.94
552.816	386.94
553.029	401.94
553.242	397.94
553.455	410.94
553.667	410.94
553.88	435.94
554.093	421.94
554.306	410.94
554.519	404.94
554.732	399.94
554.944	382.94
555.157	372.94
555.37	383.94
555.583	386.94
555.795	370.94
556.008	368.94
556.221	389.94
556.433	366.94
556.646	363.94
556.859	372.94
557.071	366.94
557.284	377.94
557.496	377.94
557.709	366.94
557.921	378.94
558.134	343.94
558.346	369.94
558.559	366.94
558.771	363.94
558.984	348.94
559.196	333.94
559.409	352.94
559.621	354.94
559.833	356.94
560.046	359.94
560.258	357.94
560.47	361.94
560.683	344.94
560.895	353.94
561.107	356.94
561.32	362.94
561.532	325.94
561.744	357.94
561.956	362.94
562.168	355.94
562.381	359.94
562.593	361.94
562.805	370.94
563.017	361.94
563.229	360.94
563.441	353.94
563.653	363.94
563.865	367.94
564.077	358.94
564.289	371.94
564.501	373.94
564.713	386.94
564.925	377.94
565.137	377.94
565.349	370.94
565.561	382.94
565.773	388.94
565.985	384.94
566.197	387.94
566.408	374.94
566.62	409.94
566.832	408.94
567.044	402.94
567.255	396.94
567.467	403.94
567.679	414.94
567.891	422.94
568.102	419.94
568.314	419.94
568.526	394.94
568.737	394.94
568.949	366.94
569.161	381.94
569.372	360.94
569.584	368.94
569.795	356.94
570.007	354.94
570.218	411.94
570.43	407.94
570.641	354.94
570.853	340.94
571.064	357.94
571.276	340.94
571.487	342.94
571.698	324.94
571.91	304.94
572.121	328.94
572.333	337.94
572.544	316.94
572.755	314.94
572.966	321.94
573.178	315.94
573.389	295.94
573.6	318.94
573.811	313.94
574.023	314.94
574.234	302.94
574.445	306.94
574.656	312.94
574.867	304.94
575.078	317.94
575.289	293.94
575.501	299.94
575.712	297.94
575.923	307.94
576.134	296.94
576.345	305.94
576.556	292.94
576.767	309.94
576.978	296.94
577.188	312.94
577.399	289.94
577.61	300.94
577.821	292.94
578.032	291.94
578.243	328.94
578.454	606.94
578.665	448.94
578.875	317.94
579.086	314.94
579.297	308.94
579.508	282.94
579.718	281.94
579.929	288.94
580.14	268.94
580.35	273.94
580.561	268.94
580.772	288.94
580.982	290.94
581.193	275.94
581.403	287.94
581.614	279.94
581.825	282.94
582.035	276.94
582.246	286.94
582.456	282.94
582.667	270.94
582.877	297.94
583.087	286.94
583.298	291.94
583.508	277.94
583.719	265.94
583.929	264.94
584.139	269.94
584.35	288.94
584.56	275.94
584.77	274.94
584.981	281.94
585.191	283.94
585.401	303.94
585.611	283.94
585.821	279.94
586.032	283.94
586.242	279.94
586.452	260.94
586.662	273.94
586.872	281.94
587.082	282.94
587.292	264.94
587.502	268.94
587.713	263.94
587.923	267.94
588.133	257.94
588.343	277.94
588.553	259.94
588.762	262.94
588.972	256.94
589.182	251.94
589.392	247.94
589.602	271.94
589.812	284.94
590.022	270.94
590.232	270.94
590.441	268.94
590.651	270.94
590.861	266.94
591.071	260.94
591.281	272.94
591.49	270.94
591.7	263.94
591.91	266.94
592.119	267.94
592.329	272.94
592.539	278.94
592.748	277.94
592.958	260.94
593.167	283.94
593.377	279.94
593.587	282.94
593.796	293.94
594.006	281.94
594.215	282.94
594.424	258.94
594.634	265.94
594.843	288.94
595.053	269.94
595.262	276.94
595.472	273.94
595.681	260.94
595.89	264.94
596.1	271.94
596.309	262.94
596.518	260.94
596.727	260.94
596.937	261.94
597.146	268.94
597.355	254.94
597.564	244.94
597.774	237.94
597.983	263.94
598.192	244.94
598.401	234.94
598.61	261.94
598.819	244.94
599.028	251.94
599.237	247.94
599.446	242.94
599.655	248.94
599.864	232.94
600.073	252.94
600.282	258.94
600.491	228.94
600.7	231.94
600.909	231.94
601.118	250.94
601.327	224.94
601.536	240.94
601.745	229.94
601.953	231.94
602.162	248.94
602.371	240.94
602.58	229.94
602.789	244.94
602.997	226.94
603.206	230.94
603.415	230.94
603.623	251.94
603.832	229.94
604.041	228.94
604.249	228.94
604.458	243.94
604.666	237.94
604.875	230.94
605.084	228.94
605.292	222.94
605.501	230.94
605.709	233.94
605.918	220.94
606.126	225.94
606.334	227.94
606.543	228.94
606.751	222.94
606.96	230.94
607.168	229.94
607.376	229.94
607.585	234.94
607.793	216.94
608.001	210.94
608.21	204.94
608.418	218.94
608.626	209.94
608.834	211.94
609.043	230.94
609.251	234.94
609.459	215.94
609.667	203.94
609.875	228.94
610.083	219.94
610.291	229.94
610.499	219.94
610.707	226.94
610.916	233.94
611.124	224.94
611.332	223.94
611.54	223.94
611.748	234.94
611.955	214.94
612.163	222.94
612.371	213.94
612.579	225.94
612.787	215.94
612.995	223.94
613.203	206.94
613.411	202.94
613.618	220.94
613.826	204.94
614.034	212.94
614.242	219.94
614.449	210.94
614.657	213.94
614.865	227.94
615.072	198.94
615.28	214.94
615.488	199.94
615.695	205.94
615.903	211.94
616.111	207.94
616.318	230.94
616.526	210.94
616.733	217.94
616.941	214.94
617.148	209.94
617.356	231.94
617.563	226.94
617.771	213.94
617.978	214.94
618.185	209.94
618.393	233.94
618.6	211.94
618.807	208.94
619.015	214.94
619.222	212.94
619.429	202.94
619.637	224.94
619.844	212.94
620.051	215.94
620.258	204.94
620.466	201.94
620.673	215.94
620.88	200.94
621.087	198.94
621.294	222.94
621.501	214.94
621.708	207.94
621.915	209.94
622.122	207.94
622.329	194.94
622.536	218.94
622.743	201.94
622.95	209.94
623.157	195.94
623.364	206.94
623.571	192.94
623.778	197.94
623.985	198.94
624.192	186.94
624.399	188.94
624.606	219.94
624.812	196.94
625.019	190.94
625.226	179.94
625.433	204.94
625.639	203.94
625.846	198.94
626.053	184.94
626.259	200.94
626.466	188.94
626.673	185.94
626.879	199.94
627.086	179.94
627.293	189.94
627.499	200.94
627.706	207.94
627.912	193.94
628.119	204.94
628.325	193.94
628.532	177.94
628.738	187.94
628.945	184.94
629.151	182.94
629.357	181.94
629.564	186.94
629.77	179.94
629.976	170.94
630.183	176.94
630.389	179.94
630.595	174.94
630.802	174.94
631.008	169.94
631.214	178.94
631.42	175.94
631.627	172.94
631.833	176.94
632.039	184.94
632.245	189.94
632.451	182.94
632.657	180.94
632.863	176.94
633.069	174.94
633.275	177.94
633.481	157.94
633.688	178.94
633.893	194.94
634.099	160.94
634.305	169.94
634.511	164.94
634.717	170.94
634.923	167.94
635.129	170.94
635.335	178.94
635.541	159.94
635.747	174.94
635.952	188.94
636.158	171.94
636.364	170.94
636.57	178.94
636.775	168.94
636.981	169.94
637.187	176.94
637.392	171.94
637.598	164.94
637.804	167.94
638.009	162.94
638.215	162.94
638.421	179.94
638.626	157.94
638.832	182.94
639.037	141.94
639.243	178.94
639.448	162.94
639.654	163.94
639.859	148.94
640.065	154.94
640.27	168.94
640.475	160.94
640.681	161.94
640.886	157.94
641.091	163.94
641.297	154.94
641.502	176.94
641.707	151.94
641.913	174.94
642.118	164.94
642.323	134.94
642.528	152.94
642.733	143.94
642.939	158.94
643.144	150.94
643.349	153.94
643.554	157.94
643.759	161.94
643.964	160.94
644.169	167.94
644.374	150.94
644.579	154.94
644.784	154.94
644.989	164.94
645.194	139.94
645.399	150.94
645.604	138.94
645.809	155.94
646.014	155.94
646.219	155.94
646.423	141.94
646.628	152.94
646.833	163.94
647.038	158.94
647.243	148.94
647.447	154.94
647.652	152.94
647.857	151.94
648.062	163.94
648.266	166.94
648.471	156.94
648.676	169.94
648.88	153.94
649.085	160.94
649.289	152.94
649.494	170.94
649.698	177.94
649.903	174.94
650.107	159.94
650.312	158.94
650.516	142.94
650.721	175.94
650.925	148.94
651.13	138.94
651.334	148.94
651.539	142.94
651.743	140.94
651.947	145.94
652.152	148.94
652.356	122.94
652.56	134.94
652.764	138.94
652.969	134.94
653.173	126.94
653.377	137.94
653.581	122.94
653.785	131.94
653.99	139.94
654.194	146.94
654.398	132.94
654.602	116.94
654.806	125.94
655.01	135.94
655.214	141.94
655.418	128.94
655.622	122.94
655.826	130.94
656.03	126.94
656.234	133.94
656.438	130.94
656.642	119.94
656.846	133.94
657.049	105.94
657.253	125.94
657.457	104.94
657.661	123.94
657.865	111.94
658.068	103.94
658.272	116.94
658.476	98.94
658.68	104.94
658.883	106.94
659.087	100.94
659.291	84.94
659.494	105.94
659.698	100.94
659.901	104.94
660.105	93.94
660.309	81.94
660.512	101.94
660.716	100.94
660.919	106.94
661.123	90.94
661.326	81.94
661.53	79.94
661.733	84.94
661.936	89.94
662.14	81.94
662.343	88.94
662.546	88.94
662.75	78.94
662.953	90.94
663.156	82.94
663.36	81.94
663.563	87.94
663.766	94.94
663.969	88.94
664.173	81.94
664.376	80.94
664.579	90.94
664.782	72.94
664.985	87.94
665.188	61.94
665.391	81.94
665.594	83.94
665.797	78.94
666	78.94
666.203	90.94
666.406	79.94
666.609	76.94
666.812	83.94
667.015	75.94
667.218	85.94
667.421	78.94
667.624	75.94
667.827	74.94
668.03	61.94
668.232	87.94
668.435	86.94
668.638	77.94
668.841	82.94
669.043	86.94
669.246	83.94
669.449	83.94
669.651	73.94
669.854	68.94
670.057	72.94
670.259	76.94
670.462	86.94
670.665	86.94
670.867	79.94
671.07	90.94
671.272	76.94
671.475	78.94
671.677	67.94
671.88	89.94
672.082	95.94
672.284	93.94
672.487	76.94
672.689	70.94
672.892	86.94
