Data from 1989.PennyLincolnUp.Lamp.En5.5.200Scan.071819.P2_HRD10591_17-23-42-973.txt Node
Date: Thu Jul 18 17:23:42 EDT 2019
User: cochatt
Spectrometer: HR+D1059
Trigger mode: 1
Integration Time (sec): 1.000000E-1
Scans to average: 1
Electric dark correction enabled: true
Nonlinearity correction enabled: false
Boxcar width: 0
XAxis mode: Wavelengths
Number of Pixels in Spectrum: 2048
>>>>>Begin Spectral Data<<<<<
223.165	-5.25
223.4	-5.25
223.635	-5.25
223.869	-25.25
224.104	-14.25
224.338	-18.25
224.573	-8.25
224.808	-0.25
225.042	-11.25
225.277	-4.25
225.511	-13.25
225.746	-5.25
225.98	-3.25
226.215	27.75
226.449	15.75
226.683	6.75
226.918	30.75
227.152	27.75
227.387	43.75
227.621	38.75
227.856	51.75
228.09	31.75
228.324	65.75
228.559	63.75
228.793	59.75
229.027	108.75
229.262	105.75
229.496	115.75
229.73	121.75
229.964	163.75
230.199	121.75
230.433	116.75
230.667	111.75
230.901	105.75
231.136	119.75
231.37	123.75
231.604	104.75
231.838	122.75
232.072	101.75
232.306	109.75
232.541	118.75
232.775	119.75
233.009	114.75
233.243	111.75
233.477	121.75
233.711	130.75
233.945	114.75
234.179	123.75
234.413	114.75
234.647	135.75
234.881	104.75
235.115	115.75
235.349	103.75
235.583	115.75
235.817	138.75
236.051	121.75
236.285	123.75
236.519	108.75
236.753	121.75
236.987	143.75
237.221	171.75
237.455	225.75
237.689	183.75
237.922	155.75
238.156	136.75
238.39	143.75
238.624	130.75
238.858	127.75
239.091	135.75
239.325	133.75
239.559	133.75
239.793	128.75
240.027	129.75
240.26	162.75
240.494	165.75
240.728	141.75
240.961	153.75
241.195	149.75
241.429	160.75
241.662	148.75
241.896	147.75
242.13	151.75
242.363	142.75
242.597	151.75
242.83	156.75
243.064	141.75
243.298	153.75
243.531	134.75
243.765	163.75
243.998	137.75
244.232	145.75
244.465	154.75
244.699	148.75
244.932	137.75
245.166	136.75
245.399	157.75
245.633	149.75
245.866	156.75
246.099	153.75
246.333	161.75
246.566	138.75
246.8	153.75
247.033	151.75
247.266	168.75
247.5	167.75
247.733	163.75
247.966	182.75
248.2	167.75
248.433	162.75
248.666	164.75
248.899	203.75
249.133	191.75
249.366	211.75
249.599	207.75
249.832	199.75
250.066	190.75
250.299	192.75
250.532	195.75
250.765	207.75
250.998	224.75
251.231	224.75
251.465	223.75
251.698	211.75
251.931	183.75
252.164	194.75
252.397	215.75
252.63	202.75
252.863	215.75
253.096	215.75
253.329	229.75
253.562	224.75
253.795	236.75
254.028	224.75
254.261	217.75
254.494	244.75
254.727	253.75
254.96	289.75
255.193	294.75
255.426	256.75
255.659	245.75
255.892	229.75
256.124	239.75
256.357	218.75
256.59	229.75
256.823	223.75
257.056	211.75
257.289	221.75
257.521	187.75
257.754	223.75
257.987	208.75
258.22	210.75
258.452	214.75
258.685	210.75
258.918	227.75
259.151	225.75
259.383	218.75
259.616	244.75
259.849	239.75
260.081	249.75
260.314	272.75
260.547	281.75
260.779	265.75
261.012	248.75
261.244	232.75
261.477	262.75
261.71	245.75
261.942	251.75
262.175	240.75
262.407	245.75
262.64	231.75
262.872	226.75
263.105	241.75
263.337	236.75
263.57	215.75
263.802	218.75
264.035	231.75
264.267	226.75
264.499	212.75
264.732	242.75
264.964	245.75
265.197	233.75
265.429	231.75
265.661	213.75
265.894	229.75
266.126	241.75
266.358	210.75
266.591	232.75
266.823	223.75
267.055	231.75
267.287	250.75
267.52	239.75
267.752	228.75
267.984	243.75
268.216	239.75
268.448	254.75
268.681	243.75
268.913	257.75
269.145	263.75
269.377	289.75
269.609	275.75
269.841	275.75
270.073	283.75
270.306	302.75
270.538	323.75
270.77	335.75
271.002	341.75
271.234	328.75
271.466	303.75
271.698	305.75
271.93	328.75
272.162	348.75
272.394	321.75
272.626	311.75
272.858	305.75
273.09	301.75
273.322	312.75
273.553	273.75
273.785	281.75
274.017	275.75
274.249	282.75
274.481	290.75
274.713	273.75
274.945	286.75
275.176	286.75
275.408	292.75
275.64	282.75
275.872	277.75
276.104	281.75
276.335	282.75
276.567	304.75
276.799	309.75
277.031	313.75
277.262	314.75
277.494	320.75
277.726	299.75
277.957	311.75
278.189	291.75
278.421	281.75
278.652	282.75
278.884	258.75
279.115	266.75
279.347	282.75
279.579	274.75
279.81	288.75
280.042	278.75
280.273	277.75
280.505	279.75
280.736	270.75
280.968	290.75
281.199	288.75
281.431	289.75
281.662	292.75
281.894	281.75
282.125	311.75
282.356	302.75
282.588	321.75
282.819	336.75
283.051	296.75
283.282	286.75
283.513	296.75
283.745	285.75
283.976	298.75
284.207	311.75
284.439	303.75
284.67	291.75
284.901	300.75
285.132	290.75
285.364	293.75
285.595	289.75
285.826	291.75
286.057	284.75
286.288	295.75
286.52	305.75
286.751	285.75
286.982	291.75
287.213	296.75
287.444	303.75
287.675	309.75
287.906	317.75
288.138	296.75
288.369	295.75
288.6	308.75
288.831	313.75
289.062	315.75
289.293	300.75
289.524	291.75
289.755	275.75
289.986	285.75
290.217	303.75
290.448	297.75
290.679	312.75
290.91	293.75
291.141	289.75
291.371	281.75
291.602	298.75
291.833	298.75
292.064	311.75
292.295	291.75
292.526	299.75
292.757	306.75
292.987	284.75
293.218	280.75
293.449	280.75
293.68	301.75
293.91	320.75
294.141	293.75
294.372	292.75
294.603	328.75
294.833	311.75
295.064	304.75
295.295	306.75
295.525	315.75
295.756	303.75
295.987	316.75
296.217	332.75
296.448	337.75
296.679	316.75
296.909	294.75
297.14	303.75
297.37	330.75
297.601	314.75
297.831	316.75
298.062	294.75
298.292	319.75
298.523	331.75
298.753	321.75
298.984	319.75
299.214	326.75
299.445	319.75
299.675	318.75
299.905	332.75
300.136	335.75
300.366	348.75
300.597	334.75
300.827	331.75
301.057	328.75
301.288	317.75
301.518	346.75
301.748	332.75
301.979	329.75
302.209	325.75
302.439	351.75
302.669	348.75
302.9	325.75
303.13	311.75
303.36	340.75
303.59	337.75
303.82	348.75
304.051	336.75
304.281	351.75
304.511	335.75
304.741	348.75
304.971	342.75
305.201	342.75
305.431	340.75
305.661	352.75
305.891	330.75
306.121	324.75
306.352	349.75
306.582	334.75
306.812	345.75
307.042	346.75
307.272	327.75
307.502	330.75
307.731	338.75
307.961	346.75
308.191	332.75
308.421	345.75
308.651	353.75
308.881	337.75
309.111	340.75
309.341	349.75
309.571	360.75
309.8	353.75
310.03	370.75
310.26	395.75
310.49	400.75
310.72	401.75
310.949	395.75
311.179	422.75
311.409	378.75
311.639	384.75
311.868	414.75
312.098	406.75
312.328	408.75
312.557	410.75
312.787	454.75
313.017	427.75
313.246	405.75
313.476	401.75
313.706	387.75
313.935	389.75
314.165	413.75
314.394	434.75
314.624	407.75
314.853	425.75
315.083	384.75
315.312	380.75
315.542	387.75
315.771	400.75
316.001	391.75
316.23	383.75
316.46	386.75
316.689	378.75
316.919	408.75
317.148	415.75
317.377	420.75
317.607	400.75
317.836	397.75
318.065	395.75
318.295	387.75
318.524	384.75
318.753	376.75
318.983	385.75
319.212	395.75
319.441	419.75
319.67	410.75
319.9	403.75
320.129	389.75
320.358	416.75
320.587	402.75
320.816	400.75
321.046	404.75
321.275	405.75
321.504	410.75
321.733	421.75
321.962	437.75
322.191	452.75
322.42	448.75
322.649	484.75
322.878	476.75
323.108	473.75
323.337	498.75
323.566	527.75
323.795	562.75
324.024	599.75
324.253	725.75
324.482	976.75
324.71	1565.75
324.939	2215.75
325.168	1959.75
325.397	1035.75
325.626	690.75
325.855	575.75
326.084	542.75
326.313	519.75
326.542	523.75
326.77	569.75
326.999	661.75
327.228	879.75
327.457	1407.75
327.686	1711.75
327.914	1115.75
328.143	718.75
328.372	645.75
328.6	585.75
328.829	588.75
329.058	588.75
329.287	592.75
329.515	573.75
329.744	508.75
329.972	508.75
330.201	510.75
330.43	512.75
330.658	569.75
330.887	613.75
331.115	590.75
331.344	519.75
331.572	489.75
331.801	484.75
332.03	495.75
332.258	477.75
332.486	475.75
332.715	459.75
332.943	445.75
333.172	437.75
333.4	465.75
333.629	475.75
333.857	455.75
334.085	464.75
334.314	457.75
334.542	458.75
334.771	454.75
334.999	447.75
335.227	483.75
335.455	456.75
335.684	441.75
335.912	442.75
336.14	453.75
336.369	432.75
336.597	476.75
336.825	466.75
337.053	449.75
337.281	433.75
337.51	453.75
337.738	431.75
337.966	456.75
338.194	447.75
338.422	439.75
338.65	441.75
338.878	448.75
339.106	438.75
339.334	428.75
339.562	423.75
339.79	421.75
340.018	413.75
340.246	435.75
340.474	442.75
340.702	440.75
340.93	432.75
341.158	426.75
341.386	435.75
341.614	433.75
341.842	417.75
342.07	456.75
342.298	444.75
342.526	433.75
342.754	444.75
342.981	428.75
343.209	426.75
343.437	421.75
343.665	425.75
343.893	437.75
344.12	443.75
344.348	431.75
344.576	439.75
344.804	456.75
345.031	445.75
345.259	474.75
345.487	449.75
345.714	441.75
345.942	427.75
346.17	434.75
346.397	419.75
346.625	409.75
346.853	407.75
347.08	407.75
347.308	427.75
347.535	439.75
347.763	439.75
347.99	437.75
348.218	440.75
348.445	443.75
348.673	433.75
348.9	434.75
349.128	384.75
349.355	411.75
349.583	423.75
349.81	397.75
350.037	411.75
350.265	415.75
350.492	405.75
350.72	376.75
350.947	424.75
351.174	428.75
351.402	443.75
351.629	419.75
351.856	420.75
352.083	423.75
352.311	455.75
352.538	432.75
352.765	441.75
352.992	433.75
353.22	409.75
353.447	400.75
353.674	407.75
353.901	391.75
354.128	410.75
354.355	391.75
354.583	389.75
354.81	412.75
355.037	401.75
355.264	380.75
355.491	383.75
355.718	382.75
355.945	385.75
356.172	391.75
356.399	377.75
356.626	378.75
356.853	395.75
357.08	367.75
357.307	375.75
357.534	392.75
357.761	390.75
357.988	385.75
358.215	399.75
358.441	380.75
358.668	382.75
358.895	401.75
359.122	379.75
359.349	428.75
359.576	409.75
359.802	427.75
360.029	457.75
360.256	464.75
360.483	461.75
360.709	417.75
360.936	426.75
361.163	397.75
361.39	425.75
361.616	407.75
361.843	409.75
362.07	395.75
362.296	427.75
362.523	423.75
362.749	395.75
362.976	422.75
363.203	418.75
363.429	398.75
363.656	386.75
363.882	399.75
364.109	396.75
364.335	415.75
364.562	376.75
364.788	399.75
365.015	422.75
365.241	413.75
365.468	401.75
365.694	397.75
365.92	408.75
366.147	403.75
366.373	386.75
366.599	393.75
366.826	392.75
367.052	359.75
367.278	385.75
367.505	359.75
367.731	403.75
367.957	389.75
368.184	389.75
368.41	411.75
368.636	413.75
368.862	400.75
369.089	418.75
369.315	406.75
369.541	383.75
369.767	401.75
369.993	408.75
370.219	401.75
370.445	391.75
370.672	391.75
370.898	388.75
371.124	392.75
371.35	395.75
371.576	383.75
371.802	390.75
372.028	379.75
372.254	393.75
372.48	378.75
372.706	402.75
372.932	371.75
373.158	379.75
373.384	405.75
373.61	392.75
373.835	391.75
374.061	396.75
374.287	391.75
374.513	405.75
374.739	392.75
374.965	387.75
375.191	363.75
375.416	395.75
375.642	391.75
375.868	407.75
376.094	376.75
376.319	388.75
376.545	400.75
376.771	390.75
376.997	383.75
377.222	397.75
377.448	377.75
377.674	384.75
377.899	366.75
378.125	375.75
378.35	383.75
378.576	384.75
378.802	384.75
379.027	385.75
379.253	385.75
379.478	374.75
379.704	371.75
379.929	384.75
380.155	390.75
380.38	386.75
380.606	380.75
380.831	360.75
381.057	377.75
381.282	381.75
381.507	392.75
381.733	388.75
381.958	387.75
382.184	386.75
382.409	378.75
382.634	378.75
382.86	416.75
383.085	419.75
383.31	374.75
383.535	397.75
383.761	372.75
383.986	403.75
384.211	409.75
384.436	405.75
384.662	399.75
384.887	404.75
385.112	415.75
385.337	401.75
385.562	383.75
385.787	407.75
386.013	410.75
386.238	410.75
386.463	423.75
386.688	422.75
386.913	407.75
387.138	399.75
387.363	405.75
387.588	407.75
387.813	399.75
388.038	408.75
388.263	413.75
388.488	412.75
388.713	412.75
388.938	413.75
389.163	419.75
389.387	403.75
389.612	411.75
389.837	418.75
390.062	396.75
390.287	417.75
390.512	421.75
390.736	412.75
390.961	389.75
391.186	406.75
391.411	413.75
391.636	409.75
391.86	439.75
392.085	413.75
392.31	413.75
392.534	420.75
392.759	413.75
392.984	424.75
393.208	423.75
393.433	425.75
393.658	410.75
393.882	400.75
394.107	412.75
394.331	395.75
394.556	412.75
394.78	419.75
395.005	407.75
395.229	424.75
395.454	407.75
395.678	429.75
395.903	436.75
396.127	440.75
396.352	456.75
396.576	424.75
396.801	419.75
397.025	433.75
397.249	433.75
397.474	438.75
397.698	427.75
397.922	461.75
398.147	473.75
398.371	479.75
398.595	455.75
398.82	467.75
399.044	485.75
399.268	475.75
399.492	522.75
399.717	497.75
399.941	548.75
400.165	577.75
400.389	578.75
400.613	525.75
400.837	493.75
401.062	466.75
401.286	467.75
401.51	473.75
401.734	471.75
401.958	487.75
402.182	485.75
402.406	486.75
402.63	462.75
402.854	464.75
403.078	460.75
403.302	473.75
403.526	474.75
403.75	475.75
403.974	476.75
404.198	468.75
404.422	474.75
404.645	478.75
404.869	467.75
405.093	485.75
405.317	492.75
405.541	529.75
405.765	489.75
405.988	483.75
406.212	491.75
406.436	524.75
406.66	550.75
406.883	516.75
407.107	543.75
407.331	589.75
407.555	655.75
407.778	635.75
408.002	595.75
408.226	536.75
408.449	553.75
408.673	523.75
408.896	567.75
409.12	597.75
409.344	563.75
409.567	499.75
409.791	495.75
410.014	480.75
410.238	483.75
410.461	478.75
410.685	476.75
410.908	514.75
411.132	515.75
411.355	569.75
411.578	537.75
411.802	503.75
412.025	471.75
412.249	457.75
412.472	467.75
412.695	488.75
412.919	463.75
413.142	486.75
413.365	464.75
413.589	454.75
413.812	444.75
414.035	438.75
414.258	437.75
414.482	433.75
414.705	446.75
414.928	444.75
415.151	443.75
415.374	438.75
415.597	463.75
415.821	435.75
416.044	449.75
416.267	451.75
416.49	444.75
416.713	458.75
416.936	449.75
417.159	420.75
417.382	466.75
417.605	455.75
417.828	447.75
418.051	480.75
418.274	459.75
418.497	450.75
418.72	440.75
418.943	429.75
419.166	434.75
419.389	489.75
419.611	464.75
419.834	473.75
420.057	457.75
420.28	468.75
420.503	467.75
420.726	466.75
420.948	474.75
421.171	524.75
421.394	546.75
421.617	501.75
421.839	472.75
422.062	471.75
422.285	489.75
422.507	552.75
422.73	623.75
422.953	599.75
423.175	508.75
423.398	499.75
423.621	461.75
423.843	511.75
424.066	509.75
424.288	522.75
424.511	523.75
424.733	604.75
424.956	641.75
425.178	660.75
425.401	614.75
425.623	671.75
425.846	559.75
426.068	513.75
426.291	507.75
426.513	503.75
426.735	514.75
426.958	584.75
427.18	647.75
427.402	765.75
427.625	856.75
427.847	742.75
428.069	619.75
428.292	568.75
428.514	518.75
428.736	481.75
428.958	491.75
429.181	464.75
429.403	459.75
429.625	499.75
429.847	520.75
430.069	591.75
430.292	596.75
430.514	499.75
430.736	472.75
430.958	456.75
431.18	462.75
431.402	457.75
431.624	425.75
431.846	428.75
432.068	428.75
432.29	440.75
432.512	445.75
432.734	469.75
432.956	454.75
433.178	467.75
433.4	476.75
433.622	454.75
433.844	448.75
434.066	442.75
434.287	424.75
434.509	445.75
434.731	473.75
434.953	453.75
435.175	460.75
435.397	501.75
435.618	527.75
435.84	543.75
436.062	647.75
436.284	717.75
436.505	606.75
436.727	517.75
436.949	487.75
437.17	480.75
437.392	483.75
437.614	498.75
437.835	541.75
438.057	620.75
438.278	721.75
438.5	721.75
438.721	777.75
438.943	739.75
439.165	605.75
439.386	556.75
439.608	536.75
439.829	507.75
440.05	554.75
440.272	613.75
440.493	563.75
440.715	488.75
440.936	476.75
441.158	476.75
441.379	498.75
441.6	481.75
441.822	509.75
442.043	573.75
442.264	626.75
442.486	657.75
442.707	575.75
442.928	531.75
443.149	516.75
443.371	564.75
443.592	589.75
443.813	708.75
444.034	732.75
444.255	604.75
444.476	531.75
444.698	509.75
444.919	496.75
445.14	631.75
445.361	585.75
445.582	572.75
445.803	645.75
446.024	724.75
446.245	725.75
446.466	654.75
446.687	581.75
446.908	539.75
447.129	501.75
447.35	497.75
447.571	487.75
447.792	459.75
448.013	468.75
448.234	521.75
448.455	549.75
448.675	645.75
448.896	769.75
449.117	648.75
449.338	611.75
449.559	699.75
449.779	834.75
450	667.75
450.221	541.75
450.442	480.75
450.662	495.75
450.883	476.75
451.104	507.75
451.324	496.75
451.545	465.75
451.766	436.75
451.986	417.75
452.207	431.75
452.428	417.75
452.648	432.75
452.869	417.75
453.089	426.75
453.31	445.75
453.53	431.75
453.751	405.75
453.971	428.75
454.192	436.75
454.412	435.75
454.633	411.75
454.853	406.75
455.073	422.75
455.294	442.75
455.514	513.75
455.734	511.75
455.955	420.75
456.175	423.75
456.395	390.75
456.616	400.75
456.836	396.75
457.056	393.75
457.276	388.75
457.497	384.75
457.717	385.75
457.937	393.75
458.157	401.75
458.377	423.75
458.598	407.75
458.818	519.75
459.038	545.75
459.258	595.75
459.478	488.75
459.698	452.75
459.918	414.75
460.138	435.75
460.358	416.75
460.578	447.75
460.798	439.75
461.018	457.75
461.238	454.75
461.458	465.75
461.678	437.75
461.898	426.75
462.118	457.75
462.338	450.75
462.558	455.75
462.777	467.75
462.997	455.75
463.217	467.75
463.437	473.75
463.657	464.75
463.876	481.75
464.096	452.75
464.316	490.75
464.536	464.75
464.755	482.75
464.975	469.75
465.195	529.75
465.414	575.75
465.634	525.75
465.854	477.75
466.073	433.75
466.293	434.75
466.512	437.75
466.732	425.75
466.951	443.75
467.171	421.75
467.391	437.75
467.61	408.75
467.829	457.75
468.049	423.75
468.268	428.75
468.488	415.75
468.707	413.75
468.927	419.75
469.146	409.75
469.365	421.75
469.585	429.75
469.804	426.75
470.023	427.75
470.243	427.75
470.462	438.75
470.681	461.75
470.901	460.75
471.12	431.75
471.339	444.75
471.558	431.75
471.777	445.75
471.997	417.75
472.216	425.75
472.435	426.75
472.654	428.75
472.873	428.75
473.092	427.75
473.311	435.75
473.53	431.75
473.749	437.75
473.968	492.75
474.187	589.75
474.406	611.75
474.625	479.75
474.844	456.75
475.063	425.75
475.282	433.75
475.501	424.75
475.72	444.75
475.939	437.75
476.158	440.75
476.377	433.75
476.596	451.75
476.814	446.75
477.033	444.75
477.252	447.75
477.471	436.75
477.69	470.75
477.908	491.75
478.127	483.75
478.346	462.75
478.564	465.75
478.783	452.75
479.002	476.75
479.22	492.75
479.439	489.75
479.658	509.75
479.876	506.75
480.095	512.75
480.313	538.75
480.532	545.75
480.751	506.75
480.969	513.75
481.188	543.75
481.406	539.75
481.624	525.75
481.843	515.75
482.061	486.75
482.28	511.75
482.498	499.75
482.717	488.75
482.935	511.75
483.153	513.75
483.372	495.75
483.59	509.75
483.808	500.75
484.027	509.75
484.245	513.75
484.463	484.75
484.681	516.75
484.9	522.75
485.118	518.75
485.336	531.75
485.554	519.75
485.772	523.75
485.99	528.75
486.209	525.75
486.427	543.75
486.645	559.75
486.863	546.75
487.081	548.75
487.299	521.75
487.517	554.75
487.735	515.75
487.953	522.75
488.171	553.75
488.389	554.75
488.607	516.75
488.825	539.75
489.043	556.75
489.261	550.75
489.479	577.75
489.696	574.75
489.914	551.75
490.132	562.75
490.35	561.75
490.568	561.75
490.786	572.75
491.003	596.75
491.221	611.75
491.439	594.75
491.657	609.75
491.874	615.75
492.092	619.75
492.31	596.75
492.527	622.75
492.745	609.75
492.963	641.75
493.18	634.75
493.398	621.75
493.615	628.75
493.833	647.75
494.05	630.75
494.268	623.75
494.485	625.75
494.703	642.75
494.92	625.75
495.138	649.75
495.355	653.75
495.573	621.75
495.79	645.75
496.008	643.75
496.225	651.75
496.442	664.75
496.66	641.75
496.877	641.75
497.094	661.75
497.312	660.75
497.529	658.75
497.746	642.75
497.963	693.75
498.181	692.75
498.398	707.75
498.615	711.75
498.832	716.75
499.049	743.75
499.267	739.75
499.484	755.75
499.701	778.75
499.918	785.75
500.135	850.75
500.352	838.75
500.569	885.75
500.786	851.75
501.003	821.75
501.22	832.75
501.437	828.75
501.654	805.75
501.871	804.75
502.088	770.75
502.305	744.75
502.522	751.75
502.739	710.75
502.956	698.75
503.172	712.75
503.389	709.75
503.606	695.75
503.823	665.75
504.04	656.75
504.256	656.75
504.473	656.75
504.69	664.75
504.907	645.75
505.123	625.75
505.34	631.75
505.557	613.75
505.773	632.75
505.99	619.75
506.207	615.75
506.423	629.75
506.64	623.75
506.856	619.75
507.073	609.75
507.289	615.75
507.506	603.75
507.722	619.75
507.939	625.75
508.155	605.75
508.372	614.75
508.588	609.75
508.805	570.75
509.021	584.75
509.238	597.75
509.454	610.75
509.67	621.75
509.887	592.75
510.103	594.75
510.319	605.75
510.536	679.75
510.752	1157.75
510.968	922.75
511.184	620.75
511.401	570.75
511.617	568.75
511.833	576.75
512.049	552.75
512.265	541.75
512.481	552.75
512.698	539.75
512.914	571.75
513.13	556.75
513.346	543.75
513.562	555.75
513.778	548.75
513.994	583.75
514.21	596.75
514.426	603.75
514.642	634.75
514.858	643.75
515.074	699.75
515.29	829.75
515.506	1240.75
515.721	1001.75
515.937	668.75
516.153	616.75
516.369	627.75
516.585	601.75
516.801	587.75
517.016	571.75
517.232	573.75
517.448	592.75
517.664	584.75
517.879	598.75
518.095	593.75
518.311	566.75
518.527	584.75
518.742	552.75
518.958	539.75
519.173	567.75
519.389	541.75
519.605	533.75
519.82	557.75
520.036	571.75
520.251	620.75
520.467	619.75
520.682	623.75
520.898	625.75
521.113	649.75
521.329	678.75
521.544	787.75
521.76	995.75
521.975	1615.75
522.19	1570.75
522.406	853.75
522.621	654.75
522.836	606.75
523.052	566.75
523.267	542.75
523.482	543.75
523.698	516.75
523.913	526.75
524.128	539.75
524.343	497.75
524.559	486.75
524.774	497.75
524.989	501.75
525.204	500.75
525.419	507.75
525.634	490.75
525.849	487.75
526.064	463.75
526.28	489.75
526.495	476.75
526.71	464.75
526.925	459.75
527.14	471.75
527.355	465.75
527.57	462.75
527.785	480.75
527.999	453.75
528.214	468.75
528.429	467.75
528.644	471.75
528.859	454.75
529.074	461.75
529.289	466.75
529.503	567.75
529.718	548.75
529.933	491.75
530.148	460.75
530.363	455.75
530.577	463.75
530.792	465.75
531.007	460.75
531.221	453.75
531.436	455.75
531.651	418.75
531.865	455.75
532.08	451.75
532.295	441.75
532.509	447.75
532.724	425.75
532.938	424.75
533.153	428.75
533.367	419.75
533.582	421.75
533.796	452.75
534.011	425.75
534.225	419.75
534.44	421.75
534.654	439.75
534.868	424.75
535.083	425.75
535.297	419.75
535.511	424.75
535.726	448.75
535.94	432.75
536.154	441.75
536.369	422.75
536.583	419.75
536.797	422.75
537.011	419.75
537.225	432.75
537.44	405.75
537.654	422.75
537.868	428.75
538.082	431.75
538.296	427.75
538.51	413.75
538.724	429.75
538.938	415.75
539.153	416.75
539.367	447.75
539.581	441.75
539.795	427.75
540.009	431.75
540.222	432.75
540.436	425.75
540.65	415.75
540.864	435.75
541.078	446.75
541.292	431.75
541.506	418.75
541.72	425.75
541.934	421.75
542.147	410.75
542.361	427.75
542.575	428.75
542.789	419.75
543.002	422.75
543.216	419.75
543.43	408.75
543.644	421.75
543.857	417.75
544.071	431.75
544.285	429.75
544.498	414.75
544.712	419.75
544.925	431.75
545.139	405.75
545.352	412.75
545.566	403.75
545.779	396.75
545.993	381.75
546.206	416.75
546.42	415.75
546.633	399.75
546.847	406.75
547.06	411.75
547.274	390.75
547.487	400.75
547.7	388.75
547.914	397.75
548.127	389.75
548.34	390.75
548.554	399.75
548.767	377.75
548.98	392.75
549.193	385.75
549.407	394.75
549.62	411.75
549.833	408.75
550.046	413.75
550.259	387.75
550.473	383.75
550.686	404.75
550.899	389.75
551.112	383.75
551.325	377.75
551.538	392.75
551.751	388.75
551.964	405.75
552.177	382.75
552.39	383.75
552.603	390.75
552.816	403.75
553.029	393.75
553.242	382.75
553.455	400.75
553.667	415.75
553.88	431.75
554.093	408.75
554.306	391.75
554.519	406.75
554.732	392.75
554.944	402.75
555.157	384.75
555.37	385.75
555.583	358.75
555.795	381.75
556.008	375.75
556.221	390.75
556.433	356.75
556.646	361.75
556.859	367.75
557.071	352.75
557.284	358.75
557.496	345.75
557.709	359.75
557.921	358.75
558.134	377.75
558.346	361.75
558.559	337.75
558.771	346.75
558.984	378.75
559.196	348.75
559.409	333.75
559.621	357.75
559.833	365.75
560.046	342.75
560.258	367.75
560.47	359.75
560.683	344.75
560.895	351.75
561.107	343.75
561.32	333.75
561.532	373.75
561.744	351.75
561.956	359.75
562.168	349.75
562.381	346.75
562.593	352.75
562.805	363.75
563.017	360.75
563.229	343.75
563.441	364.75
563.653	370.75
563.865	375.75
564.077	356.75
564.289	352.75
564.501	359.75
564.713	356.75
564.925	354.75
565.137	388.75
565.349	389.75
565.561	359.75
565.773	391.75
565.985	371.75
566.197	386.75
566.408	401.75
566.62	397.75
566.832	423.75
567.044	417.75
567.255	410.75
567.467	409.75
567.679	421.75
567.891	437.75
568.102	426.75
568.314	437.75
568.526	401.75
568.737	414.75
568.949	403.75
569.161	373.75
569.372	375.75
569.584	376.75
569.795	362.75
570.007	355.75
570.218	399.75
570.43	401.75
570.641	368.75
570.853	347.75
571.064	340.75
571.276	333.75
571.487	325.75
571.698	336.75
571.91	312.75
572.121	315.75
572.333	314.75
572.544	312.75
572.755	307.75
572.966	325.75
573.178	335.75
573.389	324.75
573.6	317.75
573.811	319.75
574.023	315.75
574.234	301.75
574.445	315.75
574.656	298.75
574.867	298.75
575.078	314.75
575.289	308.75
575.501	296.75
575.712	308.75
575.923	298.75
576.134	303.75
576.345	296.75
576.556	293.75
576.767	284.75
576.978	298.75
577.188	315.75
577.399	295.75
577.61	311.75
577.821	314.75
578.032	301.75
578.243	335.75
578.454	535.75
578.665	384.75
578.875	322.75
579.086	287.75
579.297	306.75
579.508	313.75
579.718	304.75
579.929	296.75
580.14	290.75
580.35	308.75
580.561	302.75
580.772	289.75
580.982	295.75
581.193	252.75
581.403	281.75
581.614	286.75
581.825	283.75
582.035	273.75
582.246	282.75
582.456	279.75
582.667	284.75
582.877	270.75
583.087	278.75
583.298	281.75
583.508	280.75
583.719	302.75
583.929	291.75
584.139	273.75
584.35	275.75
584.56	276.75
584.77	259.75
584.981	277.75
585.191	273.75
585.401	289.75
585.611	308.75
585.821	285.75
586.032	269.75
586.242	280.75
586.452	273.75
586.662	269.75
586.872	278.75
587.082	268.75
587.292	275.75
587.502	261.75
587.713	267.75
587.923	273.75
588.133	260.75
588.343	263.75
588.553	264.75
588.762	260.75
588.972	283.75
589.182	275.75
589.392	270.75
589.602	280.75
589.812	279.75
590.022	294.75
590.232	280.75
590.441	255.75
590.651	267.75
590.861	262.75
591.071	272.75
591.281	272.75
591.49	281.75
591.7	246.75
591.91	269.75
592.119	258.75
592.329	293.75
592.539	275.75
592.748	288.75
592.958	297.75
593.167	283.75
593.377	274.75
593.587	286.75
593.796	289.75
594.006	275.75
594.215	275.75
594.424	282.75
594.634	259.75
594.843	269.75
595.053	271.75
595.262	270.75
595.472	267.75
595.681	251.75
595.89	243.75
596.1	263.75
596.309	264.75
596.518	265.75
596.727	248.75
596.937	246.75
597.146	261.75
597.355	275.75
597.564	245.75
597.774	255.75
597.983	241.75
598.192	251.75
598.401	242.75
598.61	239.75
598.819	259.75
599.028	259.75
599.237	234.75
599.446	262.75
599.655	255.75
599.864	250.75
600.073	259.75
600.282	241.75
600.491	227.75
600.7	253.75
600.909	236.75
601.118	234.75
601.327	246.75
601.536	235.75
601.745	227.75
601.953	242.75
602.162	232.75
602.371	228.75
602.58	256.75
602.789	248.75
602.997	221.75
603.206	239.75
603.415	227.75
603.623	236.75
603.832	236.75
604.041	217.75
604.249	231.75
604.458	228.75
604.666	223.75
604.875	218.75
605.084	216.75
605.292	210.75
605.501	225.75
605.709	211.75
605.918	213.75
606.126	233.75
606.334	213.75
606.543	233.75
606.751	224.75
606.96	226.75
607.168	223.75
607.376	205.75
607.585	213.75
607.793	226.75
608.001	223.75
608.21	232.75
608.418	210.75
608.626	232.75
608.834	224.75
609.043	229.75
609.251	236.75
609.459	239.75
609.667	228.75
609.875	202.75
610.083	215.75
610.291	208.75
610.499	207.75
610.707	229.75
610.916	226.75
611.124	222.75
611.332	218.75
611.54	213.75
611.748	229.75
611.955	224.75
612.163	220.75
612.371	228.75
612.579	226.75
612.787	219.75
612.995	216.75
613.203	220.75
613.411	213.75
613.618	213.75
613.826	218.75
614.034	230.75
614.242	209.75
614.449	203.75
614.657	223.75
614.865	211.75
615.072	232.75
615.28	219.75
615.488	192.75
615.695	228.75
615.903	224.75
616.111	216.75
616.318	211.75
616.526	228.75
616.733	215.75
616.941	224.75
617.148	223.75
617.356	204.75
617.563	214.75
617.771	202.75
617.978	225.75
618.185	210.75
618.393	210.75
618.6	209.75
618.807	202.75
619.015	223.75
619.222	205.75
619.429	219.75
619.637	209.75
619.844	205.75
620.051	198.75
620.258	191.75
620.466	202.75
620.673	189.75
620.88	189.75
621.087	194.75
621.294	214.75
621.501	195.75
621.708	220.75
621.915	229.75
622.122	196.75
622.329	205.75
622.536	215.75
622.743	194.75
622.95	202.75
623.157	217.75
623.364	203.75
623.571	212.75
623.778	205.75
623.985	200.75
624.192	200.75
624.399	196.75
624.606	202.75
624.812	205.75
625.019	200.75
625.226	196.75
625.433	200.75
625.639	184.75
625.846	189.75
626.053	199.75
626.259	207.75
626.466	184.75
626.673	185.75
626.879	174.75
627.086	192.75
627.293	198.75
627.499	185.75
627.706	174.75
627.912	186.75
628.119	186.75
628.325	183.75
628.532	203.75
628.738	195.75
628.945	211.75
629.151	191.75
629.357	191.75
629.564	191.75
629.77	185.75
629.976	178.75
630.183	177.75
630.389	184.75
630.595	188.75
630.802	180.75
631.008	193.75
631.214	185.75
631.42	172.75
631.627	201.75
631.833	164.75
632.039	170.75
632.245	180.75
632.451	170.75
632.657	167.75
632.863	168.75
633.069	171.75
633.275	186.75
633.481	171.75
633.688	163.75
633.893	156.75
634.099	191.75
634.305	161.75
634.511	153.75
634.717	178.75
634.923	164.75
635.129	191.75
635.335	159.75
635.541	167.75
635.747	145.75
635.952	177.75
636.158	152.75
636.364	171.75
636.57	169.75
636.775	166.75
636.981	175.75
637.187	179.75
637.392	181.75
637.598	177.75
637.804	173.75
638.009	169.75
638.215	156.75
638.421	157.75
638.626	162.75
638.832	165.75
639.037	166.75
639.243	168.75
639.448	172.75
639.654	161.75
639.859	161.75
640.065	168.75
640.27	155.75
640.475	167.75
640.681	167.75
640.886	157.75
641.091	149.75
641.297	155.75
641.502	171.75
641.707	177.75
641.913	158.75
642.118	162.75
642.323	160.75
642.528	159.75
642.733	148.75
642.939	154.75
643.144	165.75
643.349	167.75
643.554	150.75
643.759	150.75
643.964	165.75
644.169	181.75
644.374	159.75
644.579	143.75
644.784	162.75
644.989	159.75
645.194	163.75
645.399	150.75
645.604	151.75
645.809	135.75
646.014	170.75
646.219	175.75
646.423	168.75
646.628	155.75
646.833	168.75
647.038	171.75
647.243	144.75
647.447	154.75
647.652	164.75
647.857	160.75
648.062	167.75
648.266	164.75
648.471	163.75
648.676	161.75
648.88	165.75
649.085	154.75
649.289	161.75
649.494	164.75
649.698	181.75
649.903	187.75
650.107	192.75
650.312	166.75
650.516	153.75
650.721	153.75
650.925	152.75
651.13	148.75
651.334	147.75
651.539	147.75
651.743	145.75
651.947	139.75
652.152	132.75
652.356	147.75
652.56	142.75
652.764	145.75
652.969	130.75
653.173	121.75
653.377	130.75
653.581	129.75
653.785	132.75
653.99	126.75
654.194	145.75
654.398	132.75
654.602	125.75
654.806	129.75
655.01	150.75
655.214	139.75
655.418	127.75
655.622	135.75
655.826	135.75
656.03	142.75
656.234	122.75
656.438	127.75
656.642	127.75
656.846	127.75
657.049	134.75
657.253	121.75
657.457	123.75
657.661	112.75
657.865	109.75
658.068	108.75
658.272	113.75
658.476	115.75
658.68	107.75
658.883	89.75
659.087	94.75
659.291	100.75
659.494	102.75
659.698	105.75
659.901	114.75
660.105	100.75
660.309	106.75
660.512	90.75
660.716	87.75
660.919	89.75
661.123	86.75
661.326	89.75
661.53	89.75
661.733	83.75
661.936	95.75
662.14	89.75
662.343	93.75
662.546	84.75
662.75	98.75
662.953	79.75
663.156	73.75
663.36	79.75
663.563	75.75
663.766	73.75
663.969	73.75
664.173	78.75
664.376	75.75
664.579	76.75
664.782	85.75
664.985	77.75
665.188	94.75
665.391	85.75
665.594	75.75
665.797	75.75
666	97.75
666.203	85.75
666.406	79.75
666.609	76.75
666.812	78.75
667.015	85.75
667.218	72.75
667.421	73.75
667.624	88.75
667.827	83.75
668.03	76.75
668.232	93.75
668.435	76.75
668.638	85.75
668.841	81.75
669.043	72.75
669.246	90.75
669.449	86.75
669.651	88.75
669.854	81.75
670.057	72.75
670.259	80.75
670.462	91.75
670.665	86.75
670.867	81.75
671.07	72.75
671.272	83.75
671.475	90.75
671.677	68.75
671.88	77.75
672.082	83.75
672.284	91.75
672.487	86.75
672.689	80.75
672.892	74.75
