Data from 1989.PennyLincolnUp.Lamp.En5.5.200Scan.071819.P2_HRD10591_17-25-36-975.txt Node
Date: Thu Jul 18 17:25:36 EDT 2019
User: cochatt
Spectrometer: HR+D1059
Trigger mode: 1
Integration Time (sec): 1.000000E-1
Scans to average: 1
Electric dark correction enabled: true
Nonlinearity correction enabled: false
Boxcar width: 0
XAxis mode: Wavelengths
Number of Pixels in Spectrum: 2048
>>>>>Begin Spectral Data<<<<<
223.165	-25.12
223.4	-25.12
223.635	-25.12
223.869	-19.12
224.104	-20.12
224.338	-15.12
224.573	-12.12
224.808	-24.12
225.042	-15.12
225.277	-3.12
225.511	8.88
225.746	10.88
225.98	2.88
226.215	10.88
226.449	19.88
226.683	13.88
226.918	28.88
227.152	37.88
227.387	32.88
227.621	54.88
227.856	40.88
228.09	41.88
228.324	32.88
228.559	61.88
228.793	70.88
229.027	103.88
229.262	112.88
229.496	123.88
229.73	139.88
229.964	165.88
230.199	146.88
230.433	126.88
230.667	124.88
230.901	136.88
231.136	108.88
231.37	112.88
231.604	120.88
231.838	119.88
232.072	111.88
232.306	116.88
232.541	119.88
232.775	108.88
233.009	98.88
233.243	102.88
233.477	104.88
233.711	103.88
233.945	114.88
234.179	113.88
234.413	118.88
234.647	107.88
234.881	130.88
235.115	112.88
235.349	121.88
235.583	140.88
235.817	122.88
236.051	121.88
236.285	135.88
236.519	120.88
236.753	132.88
236.987	153.88
237.221	188.88
237.455	251.88
237.689	210.88
237.922	160.88
238.156	146.88
238.39	143.88
238.624	126.88
238.858	124.88
239.091	128.88
239.325	126.88
239.559	137.88
239.793	145.88
240.027	147.88
240.26	161.88
240.494	170.88
240.728	165.88
240.961	156.88
241.195	154.88
241.429	167.88
241.662	141.88
241.896	153.88
242.13	142.88
242.363	143.88
242.597	159.88
242.83	154.88
243.064	149.88
243.298	149.88
243.531	157.88
243.765	132.88
243.998	162.88
244.232	154.88
244.465	146.88
244.699	149.88
244.932	145.88
245.166	146.88
245.399	158.88
245.633	154.88
245.866	154.88
246.099	164.88
246.333	163.88
246.566	172.88
246.8	178.88
247.033	172.88
247.266	173.88
247.5	180.88
247.733	170.88
247.966	166.88
248.2	164.88
248.433	199.88
248.666	189.88
248.899	209.88
249.133	227.88
249.366	227.88
249.599	232.88
249.832	197.88
250.066	192.88
250.299	197.88
250.532	209.88
250.765	234.88
250.998	254.88
251.231	261.88
251.465	247.88
251.698	223.88
251.931	234.88
252.164	226.88
252.397	212.88
252.63	214.88
252.863	223.88
253.096	230.88
253.329	240.88
253.562	252.88
253.795	267.88
254.028	240.88
254.261	241.88
254.494	248.88
254.727	300.88
254.96	327.88
255.193	318.88
255.426	277.88
255.659	259.88
255.892	270.88
256.124	276.88
256.357	276.88
256.59	261.88
256.823	249.88
257.056	245.88
257.289	251.88
257.521	232.88
257.754	254.88
257.987	240.88
258.22	250.88
258.452	235.88
258.685	233.88
258.918	226.88
259.151	207.88
259.383	241.88
259.616	270.88
259.849	249.88
260.081	262.88
260.314	282.88
260.547	306.88
260.779	289.88
261.012	285.88
261.244	267.88
261.477	256.88
261.71	245.88
261.942	260.88
262.175	260.88
262.407	259.88
262.64	251.88
262.872	241.88
263.105	253.88
263.337	225.88
263.57	235.88
263.802	244.88
264.035	248.88
264.267	255.88
264.499	245.88
264.732	230.88
264.964	226.88
265.197	234.88
265.429	236.88
265.661	230.88
265.894	238.88
266.126	240.88
266.358	248.88
266.591	252.88
266.823	270.88
267.055	258.88
267.287	268.88
267.52	258.88
267.752	269.88
267.984	238.88
268.216	258.88
268.448	258.88
268.681	273.88
268.913	273.88
269.145	305.88
269.377	316.88
269.609	305.88
269.841	330.88
270.073	316.88
270.306	331.88
270.538	339.88
270.77	362.88
271.002	353.88
271.234	327.88
271.466	362.88
271.698	358.88
271.93	373.88
272.162	373.88
272.394	364.88
272.626	343.88
272.858	323.88
273.09	330.88
273.322	316.88
273.553	300.88
273.785	295.88
274.017	316.88
274.249	312.88
274.481	294.88
274.713	296.88
274.945	308.88
275.176	301.88
275.408	316.88
275.64	304.88
275.872	292.88
276.104	310.88
276.335	313.88
276.567	293.88
276.799	316.88
277.031	364.88
277.262	364.88
277.494	362.88
277.726	351.88
277.957	332.88
278.189	319.88
278.421	295.88
278.652	316.88
278.884	312.88
279.115	300.88
279.347	320.88
279.579	300.88
279.81	294.88
280.042	304.88
280.273	292.88
280.505	309.88
280.736	280.88
280.968	306.88
281.199	297.88
281.431	318.88
281.662	308.88
281.894	305.88
282.125	304.88
282.356	333.88
282.588	335.88
282.819	348.88
283.051	333.88
283.282	304.88
283.513	284.88
283.745	319.88
283.976	297.88
284.207	314.88
284.439	307.88
284.67	301.88
284.901	305.88
285.132	309.88
285.364	319.88
285.595	319.88
285.826	317.88
286.057	298.88
286.288	315.88
286.52	326.88
286.751	314.88
286.982	327.88
287.213	304.88
287.444	311.88
287.675	313.88
287.906	313.88
288.138	327.88
288.369	323.88
288.6	331.88
288.831	329.88
289.062	315.88
289.293	326.88
289.524	324.88
289.755	323.88
289.986	327.88
290.217	322.88
290.448	296.88
290.679	332.88
290.91	325.88
291.141	296.88
291.371	314.88
291.602	323.88
291.833	353.88
292.064	322.88
292.295	318.88
292.526	323.88
292.757	326.88
292.987	326.88
293.218	304.88
293.449	333.88
293.68	317.88
293.91	324.88
294.141	310.88
294.372	335.88
294.603	323.88
294.833	328.88
295.064	313.88
295.295	338.88
295.525	316.88
295.756	338.88
295.987	330.88
296.217	364.88
296.448	376.88
296.679	356.88
296.909	322.88
297.14	312.88
297.37	342.88
297.601	327.88
297.831	335.88
298.062	334.88
298.292	330.88
298.523	340.88
298.753	356.88
298.984	344.88
299.214	342.88
299.445	333.88
299.675	347.88
299.905	337.88
300.136	346.88
300.366	335.88
300.597	357.88
300.827	343.88
301.057	340.88
301.288	377.88
301.518	363.88
301.748	373.88
301.979	354.88
302.209	370.88
302.439	362.88
302.669	344.88
302.9	348.88
303.13	329.88
303.36	372.88
303.59	376.88
303.82	393.88
304.051	365.88
304.281	367.88
304.511	363.88
304.741	368.88
304.971	356.88
305.201	372.88
305.431	365.88
305.661	368.88
305.891	352.88
306.121	355.88
306.352	372.88
306.582	396.88
306.812	368.88
307.042	376.88
307.272	376.88
307.502	379.88
307.731	356.88
307.961	374.88
308.191	356.88
308.421	368.88
308.651	370.88
308.881	364.88
309.111	337.88
309.341	368.88
309.571	401.88
309.8	405.88
310.03	393.88
310.26	416.88
310.49	416.88
310.72	421.88
310.949	447.88
311.179	439.88
311.409	441.88
311.639	413.88
311.868	422.88
312.098	426.88
312.328	426.88
312.557	453.88
312.787	470.88
313.017	446.88
313.246	422.88
313.476	415.88
313.706	399.88
313.935	437.88
314.165	436.88
314.394	455.88
314.624	436.88
314.853	435.88
315.083	429.88
315.312	420.88
315.542	402.88
315.771	413.88
316.001	423.88
316.23	434.88
316.46	405.88
316.689	421.88
316.919	409.88
317.148	437.88
317.377	447.88
317.607	416.88
317.836	419.88
318.065	418.88
318.295	417.88
318.524	428.88
318.753	420.88
318.983	405.88
319.212	425.88
319.441	429.88
319.67	456.88
319.9	416.88
320.129	408.88
320.358	408.88
320.587	427.88
320.816	445.88
321.046	445.88
321.275	450.88
321.504	444.88
321.733	455.88
321.962	462.88
322.191	472.88
322.42	497.88
322.649	524.88
322.878	502.88
323.108	532.88
323.337	576.88
323.566	580.88
323.795	621.88
324.024	697.88
324.253	850.88
324.482	1190.88
324.71	1852.88
324.939	2669.88
325.168	2311.88
325.397	1170.88
325.626	783.88
325.855	654.88
326.084	601.88
326.313	589.88
326.542	580.88
326.77	627.88
326.999	781.88
327.228	1077.88
327.457	1615.88
327.686	1964.88
327.914	1311.88
328.143	874.88
328.372	745.88
328.6	687.88
328.829	632.88
329.058	676.88
329.287	690.88
329.515	624.88
329.744	593.88
329.972	578.88
330.201	600.88
330.43	656.88
330.658	684.88
330.887	725.88
331.115	658.88
331.344	578.88
331.572	550.88
331.801	564.88
332.03	562.88
332.258	514.88
332.486	506.88
332.715	499.88
332.943	499.88
333.172	510.88
333.4	506.88
333.629	517.88
333.857	536.88
334.085	537.88
334.314	586.88
334.542	616.88
334.771	633.88
334.999	580.88
335.227	540.88
335.455	507.88
335.684	514.88
335.912	508.88
336.14	482.88
336.369	470.88
336.597	503.88
336.825	488.88
337.053	472.88
337.281	468.88
337.51	471.88
337.738	472.88
337.966	448.88
338.194	477.88
338.422	479.88
338.65	468.88
338.878	475.88
339.106	457.88
339.334	469.88
339.562	476.88
339.79	459.88
340.018	476.88
340.246	476.88
340.474	472.88
340.702	498.88
340.93	456.88
341.158	458.88
341.386	483.88
341.614	457.88
341.842	470.88
342.07	459.88
342.298	469.88
342.526	456.88
342.754	441.88
342.981	448.88
343.209	445.88
343.437	461.88
343.665	445.88
343.893	449.88
344.12	478.88
344.348	475.88
344.576	464.88
344.804	475.88
345.031	486.88
345.259	494.88
345.487	473.88
345.714	481.88
345.942	460.88
346.17	464.88
346.397	464.88
346.625	435.88
346.853	450.88
347.08	455.88
347.308	466.88
347.535	475.88
347.763	467.88
347.99	482.88
348.218	462.88
348.445	485.88
348.673	476.88
348.9	434.88
349.128	441.88
349.355	448.88
349.583	429.88
349.81	414.88
350.037	417.88
350.265	438.88
350.492	461.88
350.72	444.88
350.947	465.88
351.174	448.88
351.402	449.88
351.629	452.88
351.856	464.88
352.083	468.88
352.311	482.88
352.538	453.88
352.765	468.88
352.992	462.88
353.22	468.88
353.447	442.88
353.674	433.88
353.901	428.88
354.128	426.88
354.355	420.88
354.583	424.88
354.81	418.88
355.037	414.88
355.264	408.88
355.491	405.88
355.718	402.88
355.945	392.88
356.172	384.88
356.399	416.88
356.626	394.88
356.853	404.88
357.08	409.88
357.307	401.88
357.534	403.88
357.761	393.88
357.988	427.88
358.215	414.88
358.441	424.88
358.668	399.88
358.895	424.88
359.122	426.88
359.349	433.88
359.576	434.88
359.802	459.88
360.029	486.88
360.256	532.88
360.483	493.88
360.709	465.88
360.936	458.88
361.163	422.88
361.39	438.88
361.616	429.88
361.843	437.88
362.07	429.88
362.296	448.88
362.523	437.88
362.749	430.88
362.976	432.88
363.203	416.88
363.429	421.88
363.656	417.88
363.882	421.88
364.109	416.88
364.335	420.88
364.562	401.88
364.788	408.88
365.015	423.88
365.241	419.88
365.468	429.88
365.694	426.88
365.92	411.88
366.147	420.88
366.373	428.88
366.599	414.88
366.826	412.88
367.052	436.88
367.278	394.88
367.505	400.88
367.731	404.88
367.957	422.88
368.184	422.88
368.41	405.88
368.636	433.88
368.862	423.88
369.089	427.88
369.315	412.88
369.541	403.88
369.767	430.88
369.993	412.88
370.219	406.88
370.445	416.88
370.672	406.88
370.898	408.88
371.124	417.88
371.35	424.88
371.576	419.88
371.802	398.88
372.028	409.88
372.254	408.88
372.48	399.88
372.706	423.88
372.932	432.88
373.158	407.88
373.384	413.88
373.61	410.88
373.835	429.88
374.061	408.88
374.287	411.88
374.513	400.88
374.739	408.88
374.965	396.88
375.191	409.88
375.416	416.88
375.642	403.88
375.868	420.88
376.094	400.88
376.319	405.88
376.545	399.88
376.771	408.88
376.997	375.88
377.222	379.88
377.448	398.88
377.674	388.88
377.899	418.88
378.125	395.88
378.35	386.88
378.576	386.88
378.802	399.88
379.027	384.88
379.253	373.88
379.478	394.88
379.704	396.88
379.929	399.88
380.155	384.88
380.38	384.88
380.606	393.88
380.831	378.88
381.057	386.88
381.282	395.88
381.507	406.88
381.733	406.88
381.958	402.88
382.184	407.88
382.409	406.88
382.634	408.88
382.86	392.88
383.085	406.88
383.31	423.88
383.535	398.88
383.761	393.88
383.986	422.88
384.211	426.88
384.436	425.88
384.662	417.88
384.887	396.88
385.112	404.88
385.337	419.88
385.562	427.88
385.787	441.88
386.013	442.88
386.238	438.88
386.463	440.88
386.688	421.88
386.913	428.88
387.138	421.88
387.363	433.88
387.588	399.88
387.813	415.88
388.038	419.88
388.263	430.88
388.488	440.88
388.713	427.88
388.938	442.88
389.163	442.88
389.387	425.88
389.612	421.88
389.837	414.88
390.062	405.88
390.287	408.88
390.512	413.88
390.736	445.88
390.961	428.88
391.186	428.88
391.411	411.88
391.636	421.88
391.86	426.88
392.085	422.88
392.31	428.88
392.534	426.88
392.759	441.88
392.984	444.88
393.208	422.88
393.433	411.88
393.658	400.88
393.882	421.88
394.107	429.88
394.331	426.88
394.556	413.88
394.78	424.88
395.005	433.88
395.229	428.88
395.454	436.88
395.678	446.88
395.903	455.88
396.127	478.88
396.352	473.88
396.576	444.88
396.801	432.88
397.025	454.88
397.249	458.88
397.474	440.88
397.698	452.88
397.922	453.88
398.147	460.88
398.371	476.88
398.595	486.88
398.82	458.88
399.044	477.88
399.268	496.88
399.492	520.88
399.717	532.88
399.941	564.88
400.165	579.88
400.389	612.88
400.613	538.88
400.837	505.88
401.062	477.88
401.286	507.88
401.51	468.88
401.734	464.88
401.958	478.88
402.182	493.88
402.406	508.88
402.63	476.88
402.854	482.88
403.078	485.88
403.302	500.88
403.526	518.88
403.75	495.88
403.974	491.88
404.198	522.88
404.422	524.88
404.645	500.88
404.869	514.88
405.093	549.88
405.317	582.88
405.541	603.88
405.765	566.88
405.988	533.88
406.212	540.88
406.436	566.88
406.66	577.88
406.883	554.88
407.107	567.88
407.331	604.88
407.555	677.88
407.778	688.88
408.002	594.88
408.226	569.88
408.449	551.88
408.673	566.88
408.896	594.88
409.12	618.88
409.344	582.88
409.567	541.88
409.791	498.88
410.014	493.88
410.238	510.88
410.461	501.88
410.685	538.88
410.908	530.88
411.132	561.88
411.355	582.88
411.578	558.88
411.802	503.88
412.025	493.88
412.249	509.88
412.472	546.88
412.695	598.88
412.919	577.88
413.142	538.88
413.365	489.88
413.589	502.88
413.812	482.88
414.035	483.88
414.258	473.88
414.482	459.88
414.705	460.88
414.928	476.88
415.151	479.88
415.374	458.88
415.597	456.88
415.821	468.88
416.044	464.88
416.267	468.88
416.49	455.88
416.713	457.88
416.936	475.88
417.159	468.88
417.382	476.88
417.605	473.88
417.828	468.88
418.051	514.88
418.274	493.88
418.497	476.88
418.72	461.88
418.943	472.88
419.166	471.88
419.389	503.88
419.611	485.88
419.834	518.88
420.057	491.88
420.28	500.88
420.503	520.88
420.726	491.88
420.948	520.88
421.171	542.88
421.394	600.88
421.617	531.88
421.839	516.88
422.062	506.88
422.285	535.88
422.507	591.88
422.73	634.88
422.953	615.88
423.175	534.88
423.398	520.88
423.621	522.88
423.843	530.88
424.066	541.88
424.288	537.88
424.511	549.88
424.733	601.88
424.956	709.88
425.178	692.88
425.401	682.88
425.623	686.88
425.846	616.88
426.068	553.88
426.291	535.88
426.513	519.88
426.735	541.88
426.958	589.88
427.18	674.88
427.402	816.88
427.625	904.88
427.847	808.88
428.069	686.88
428.292	616.88
428.514	548.88
428.736	552.88
428.958	511.88
429.181	498.88
429.403	516.88
429.625	512.88
429.847	556.88
430.069	603.88
430.292	594.88
430.514	516.88
430.736	497.88
430.958	458.88
431.18	473.88
431.402	444.88
431.624	462.88
431.846	458.88
432.068	456.88
432.29	442.88
432.512	471.88
432.734	461.88
432.956	480.88
433.178	460.88
433.4	470.88
433.622	475.88
433.844	463.88
434.066	450.88
434.287	457.88
434.509	458.88
434.731	466.88
434.953	475.88
435.175	510.88
435.397	521.88
435.618	540.88
435.84	596.88
436.062	672.88
436.284	760.88
436.505	627.88
436.727	538.88
436.949	532.88
437.17	507.88
437.392	482.88
437.614	512.88
437.835	562.88
438.057	665.88
438.278	770.88
438.5	772.88
438.721	842.88
438.943	760.88
439.165	635.88
439.386	546.88
439.608	560.88
439.829	552.88
440.05	581.88
440.272	638.88
440.493	596.88
440.715	525.88
440.936	512.88
441.158	517.88
441.379	509.88
441.6	496.88
441.822	533.88
442.043	567.88
442.264	656.88
442.486	715.88
442.707	611.88
442.928	548.88
443.149	570.88
443.371	594.88
443.592	639.88
443.813	726.88
444.034	790.88
444.255	628.88
444.476	552.88
444.698	566.88
444.919	541.88
445.14	653.88
445.361	612.88
445.582	588.88
445.803	650.88
446.024	736.88
446.245	753.88
446.466	696.88
446.687	594.88
446.908	558.88
447.129	506.88
447.35	520.88
447.571	497.88
447.792	488.88
448.013	515.88
448.234	518.88
448.455	597.88
448.675	674.88
448.896	789.88
449.117	688.88
449.338	658.88
449.559	754.88
449.779	852.88
450	704.88
450.221	557.88
450.442	524.88
450.662	505.88
450.883	516.88
451.104	513.88
451.324	500.88
451.545	474.88
451.766	467.88
451.986	442.88
452.207	436.88
452.428	430.88
452.648	452.88
452.869	451.88
453.089	442.88
453.31	475.88
453.53	460.88
453.751	450.88
453.971	449.88
454.192	481.88
454.412	449.88
454.633	462.88
454.853	460.88
455.073	457.88
455.294	470.88
455.514	523.88
455.734	536.88
455.955	426.88
456.175	420.88
456.395	422.88
456.616	396.88
456.836	406.88
457.056	419.88
457.276	413.88
457.497	411.88
457.717	407.88
457.937	424.88
458.157	409.88
458.377	435.88
458.598	476.88
458.818	520.88
459.038	639.88
459.258	644.88
459.478	510.88
459.698	475.88
459.918	457.88
460.138	475.88
460.358	460.88
460.578	444.88
460.798	443.88
461.018	465.88
461.238	478.88
461.458	463.88
461.678	440.88
461.898	473.88
462.118	466.88
462.338	464.88
462.558	467.88
462.777	465.88
462.997	491.88
463.217	463.88
463.437	508.88
463.657	481.88
463.876	482.88
464.096	490.88
464.316	481.88
464.536	468.88
464.755	488.88
464.975	506.88
465.195	555.88
465.414	627.88
465.634	555.88
465.854	534.88
466.073	490.88
466.293	485.88
466.512	451.88
466.732	422.88
466.951	432.88
467.171	458.88
467.391	461.88
467.61	469.88
467.829	468.88
468.049	491.88
468.268	465.88
468.488	445.88
468.707	453.88
468.927	445.88
469.146	440.88
469.365	438.88
469.585	428.88
469.804	442.88
470.023	468.88
470.243	453.88
470.462	470.88
470.681	480.88
470.901	492.88
471.12	466.88
471.339	454.88
471.558	434.88
471.777	449.88
471.997	439.88
472.216	473.88
472.435	490.88
472.654	475.88
472.873	462.88
473.092	453.88
473.311	442.88
473.53	461.88
473.749	452.88
473.968	497.88
474.187	616.88
474.406	675.88
474.625	532.88
474.844	471.88
475.063	458.88
475.282	458.88
475.501	443.88
475.72	477.88
475.939	458.88
476.158	466.88
476.377	473.88
476.596	479.88
476.814	463.88
477.033	478.88
477.252	496.88
477.471	468.88
477.69	459.88
477.908	482.88
478.127	479.88
478.346	478.88
478.564	501.88
478.783	489.88
479.002	510.88
479.22	514.88
479.439	528.88
479.658	529.88
479.876	566.88
480.095	560.88
480.313	576.88
480.532	562.88
480.751	557.88
480.969	582.88
481.188	644.88
481.406	702.88
481.624	610.88
481.843	564.88
482.061	542.88
482.28	553.88
482.498	533.88
482.717	516.88
482.935	551.88
483.153	534.88
483.372	545.88
483.59	525.88
483.808	546.88
484.027	542.88
484.245	536.88
484.463	521.88
484.681	531.88
484.9	534.88
485.118	544.88
485.336	543.88
485.554	523.88
485.772	566.88
485.99	555.88
486.209	549.88
486.427	577.88
486.645	556.88
486.863	584.88
487.081	615.88
487.299	585.88
487.517	578.88
487.735	567.88
487.953	570.88
488.171	578.88
488.389	561.88
488.607	609.88
488.825	588.88
489.043	556.88
489.261	587.88
489.479	609.88
489.696	596.88
489.914	569.88
490.132	599.88
490.35	618.88
490.568	598.88
490.786	616.88
491.003	609.88
491.221	620.88
491.439	653.88
491.657	645.88
491.874	670.88
492.092	677.88
492.31	691.88
492.527	658.88
492.745	683.88
492.963	703.88
493.18	689.88
493.398	669.88
493.615	701.88
493.833	697.88
494.05	703.88
494.268	690.88
494.485	681.88
494.703	692.88
494.92	690.88
495.138	688.88
495.355	693.88
495.573	701.88
495.79	692.88
496.008	687.88
496.225	703.88
496.442	670.88
496.66	710.88
496.877	679.88
497.094	711.88
497.312	696.88
497.529	702.88
497.746	708.88
497.963	706.88
498.181	739.88
498.398	756.88
498.615	729.88
498.832	728.88
499.049	765.88
499.267	772.88
499.484	792.88
499.701	830.88
499.918	844.88
500.135	865.88
500.352	888.88
500.569	875.88
500.786	904.88
501.003	892.88
501.22	870.88
501.437	856.88
501.654	832.88
501.871	822.88
502.088	820.88
502.305	797.88
502.522	761.88
502.739	748.88
502.956	714.88
503.172	705.88
503.389	712.88
503.606	699.88
503.823	727.88
504.04	710.88
504.256	697.88
504.473	680.88
504.69	672.88
504.907	707.88
505.123	662.88
505.34	644.88
505.557	652.88
505.773	670.88
505.99	646.88
506.207	664.88
506.423	685.88
506.64	641.88
506.856	654.88
507.073	642.88
507.289	645.88
507.506	653.88
507.722	658.88
507.939	693.88
508.155	661.88
508.372	649.88
508.588	634.88
508.805	604.88
509.021	649.88
509.238	644.88
509.454	650.88
509.67	657.88
509.887	648.88
510.103	622.88
510.319	645.88
510.536	754.88
510.752	1314.88
510.968	1051.88
511.184	672.88
511.401	617.88
511.617	614.88
511.833	626.88
512.049	608.88
512.265	610.88
512.481	625.88
512.698	616.88
512.914	606.88
513.13	622.88
513.346	601.88
513.562	612.88
513.778	611.88
513.994	611.88
514.21	627.88
514.426	658.88
514.642	705.88
514.858	750.88
515.074	772.88
515.29	944.88
515.506	1428.88
515.721	1154.88
515.937	754.88
516.153	680.88
516.369	648.88
516.585	619.88
516.801	617.88
517.016	604.88
517.232	612.88
517.448	606.88
517.664	605.88
517.879	597.88
518.095	615.88
518.311	602.88
518.527	595.88
518.742	613.88
518.958	597.88
519.173	600.88
519.389	585.88
519.605	585.88
519.82	607.88
520.036	616.88
520.251	633.88
520.467	674.88
520.682	678.88
520.898	687.88
521.113	725.88
521.329	744.88
521.544	874.88
521.76	1104.88
521.975	1884.88
522.19	1830.88
522.406	994.88
522.621	737.88
522.836	642.88
523.052	582.88
523.267	584.88
523.482	566.88
523.698	560.88
523.913	571.88
524.128	551.88
524.343	556.88
524.559	512.88
524.774	518.88
524.989	526.88
525.204	505.88
525.419	533.88
525.634	532.88
525.849	521.88
526.064	520.88
526.28	506.88
526.495	513.88
526.71	520.88
526.925	484.88
527.14	475.88
527.355	482.88
527.57	488.88
527.785	488.88
527.999	469.88
528.214	497.88
528.429	492.88
528.644	484.88
528.859	484.88
529.074	487.88
529.289	528.88
529.503	598.88
529.718	607.88
529.933	506.88
530.148	510.88
530.363	488.88
530.577	485.88
530.792	459.88
531.007	474.88
531.221	478.88
531.436	466.88
531.651	470.88
531.865	450.88
532.08	467.88
532.295	455.88
532.509	466.88
532.724	480.88
532.938	462.88
533.153	453.88
533.367	466.88
533.582	457.88
533.796	450.88
534.011	476.88
534.225	456.88
534.44	434.88
534.654	460.88
534.868	439.88
535.083	448.88
535.297	467.88
535.511	459.88
535.726	469.88
535.94	452.88
536.154	446.88
536.369	442.88
536.583	452.88
536.797	458.88
537.011	461.88
537.225	443.88
537.44	420.88
537.654	459.88
537.868	432.88
538.082	441.88
538.296	436.88
538.51	442.88
538.724	449.88
538.938	450.88
539.153	445.88
539.367	468.88
539.581	448.88
539.795	438.88
540.009	425.88
540.222	430.88
540.436	423.88
540.65	441.88
540.864	439.88
541.078	456.88
541.292	450.88
541.506	435.88
541.72	441.88
541.934	433.88
542.147	425.88
542.361	434.88
542.575	440.88
542.789	446.88
543.002	424.88
543.216	426.88
543.43	422.88
543.644	432.88
543.857	432.88
544.071	424.88
544.285	444.88
544.498	453.88
544.712	429.88
544.925	422.88
545.139	421.88
545.352	431.88
545.566	427.88
545.779	429.88
545.993	422.88
546.206	419.88
546.42	415.88
546.633	428.88
546.847	421.88
547.06	425.88
547.274	402.88
547.487	419.88
547.7	434.88
547.914	406.88
548.127	425.88
548.34	425.88
548.554	403.88
548.767	416.88
548.98	404.88
549.193	413.88
549.407	404.88
549.62	408.88
549.833	428.88
550.046	428.88
550.259	402.88
550.473	394.88
550.686	406.88
550.899	405.88
551.112	394.88
551.325	418.88
551.538	417.88
551.751	390.88
551.964	404.88
552.177	398.88
552.39	398.88
552.603	393.88
552.816	398.88
553.029	396.88
553.242	410.88
553.455	390.88
553.667	418.88
553.88	433.88
554.093	421.88
554.306	419.88
554.519	424.88
554.732	397.88
554.944	417.88
555.157	395.88
555.37	399.88
555.583	402.88
555.795	399.88
556.008	399.88
556.221	372.88
556.433	373.88
556.646	399.88
556.859	384.88
557.071	372.88
557.284	359.88
557.496	364.88
557.709	378.88
557.921	383.88
558.134	366.88
558.346	377.88
558.559	389.88
558.771	355.88
558.984	378.88
559.196	360.88
559.409	365.88
559.621	376.88
559.833	368.88
560.046	377.88
560.258	368.88
560.47	363.88
560.683	363.88
560.895	364.88
561.107	366.88
561.32	347.88
561.532	361.88
561.744	380.88
561.956	364.88
562.168	347.88
562.381	365.88
562.593	357.88
562.805	361.88
563.017	368.88
563.229	347.88
563.441	369.88
563.653	376.88
563.865	370.88
564.077	375.88
564.289	377.88
564.501	376.88
564.713	377.88
564.925	379.88
565.137	392.88
565.349	379.88
565.561	390.88
565.773	375.88
565.985	394.88
566.197	407.88
566.408	403.88
566.62	421.88
566.832	409.88
567.044	439.88
567.255	424.88
567.467	437.88
567.679	442.88
567.891	436.88
568.102	419.88
568.314	412.88
568.526	417.88
568.737	410.88
568.949	414.88
569.161	387.88
569.372	369.88
569.584	403.88
569.795	377.88
570.007	372.88
570.218	407.88
570.43	429.88
570.641	379.88
570.853	371.88
571.064	346.88
571.276	373.88
571.487	330.88
571.698	322.88
571.91	331.88
572.121	341.88
572.333	342.88
572.544	327.88
572.755	309.88
572.966	320.88
573.178	305.88
573.389	317.88
573.6	321.88
573.811	330.88
574.023	301.88
574.234	320.88
574.445	329.88
574.656	310.88
574.867	305.88
575.078	317.88
575.289	328.88
575.501	295.88
575.712	321.88
575.923	325.88
576.134	317.88
576.345	318.88
576.556	325.88
576.767	309.88
576.978	310.88
577.188	308.88
577.399	291.88
577.61	298.88
577.821	288.88
578.032	320.88
578.243	333.88
578.454	588.88
578.665	426.88
578.875	316.88
579.086	297.88
579.297	321.88
579.508	297.88
579.718	307.88
579.929	299.88
580.14	300.88
580.35	307.88
580.561	282.88
580.772	301.88
580.982	292.88
581.193	297.88
581.403	282.88
581.614	284.88
581.825	309.88
582.035	290.88
582.246	289.88
582.456	268.88
582.667	300.88
582.877	293.88
583.087	276.88
583.298	286.88
583.508	269.88
583.719	284.88
583.929	275.88
584.139	278.88
584.35	274.88
584.56	271.88
584.77	288.88
584.981	276.88
585.191	282.88
585.401	293.88
585.611	274.88
585.821	280.88
586.032	290.88
586.242	282.88
586.452	283.88
586.662	274.88
586.872	294.88
587.082	267.88
587.292	298.88
587.502	271.88
587.713	272.88
587.923	281.88
588.133	273.88
588.343	287.88
588.553	268.88
588.762	284.88
588.972	277.88
589.182	270.88
589.392	276.88
589.602	251.88
589.812	281.88
590.022	281.88
590.232	289.88
590.441	286.88
590.651	285.88
590.861	259.88
591.071	277.88
591.281	260.88
591.49	276.88
591.7	283.88
591.91	289.88
592.119	271.88
592.329	282.88
592.539	294.88
592.748	292.88
592.958	293.88
593.167	296.88
593.377	270.88
593.587	284.88
593.796	287.88
594.006	282.88
594.215	289.88
594.424	286.88
594.634	268.88
594.843	283.88
595.053	275.88
595.262	279.88
595.472	274.88
595.681	293.88
595.89	270.88
596.1	305.88
596.309	274.88
596.518	276.88
596.727	267.88
596.937	260.88
597.146	267.88
597.355	260.88
597.564	249.88
597.774	240.88
597.983	259.88
598.192	251.88
598.401	254.88
598.61	250.88
598.819	247.88
599.028	253.88
599.237	246.88
599.446	235.88
599.655	262.88
599.864	253.88
600.073	248.88
600.282	237.88
600.491	254.88
600.7	261.88
600.909	238.88
601.118	237.88
601.327	236.88
601.536	256.88
601.745	241.88
601.953	262.88
602.162	244.88
602.371	241.88
602.58	234.88
602.789	259.88
602.997	224.88
603.206	233.88
603.415	243.88
603.623	244.88
603.832	245.88
604.041	233.88
604.249	233.88
604.458	229.88
604.666	230.88
604.875	229.88
605.084	242.88
605.292	229.88
605.501	242.88
605.709	243.88
605.918	241.88
606.126	248.88
606.334	237.88
606.543	228.88
606.751	229.88
606.96	221.88
607.168	233.88
607.376	236.88
607.585	258.88
607.793	223.88
608.001	243.88
608.21	254.88
608.418	251.88
608.626	230.88
608.834	228.88
609.043	218.88
609.251	231.88
609.459	220.88
609.667	231.88
609.875	212.88
610.083	213.88
610.291	240.88
610.499	235.88
610.707	236.88
610.916	205.88
611.124	220.88
611.332	220.88
611.54	233.88
611.748	224.88
611.955	234.88
612.163	245.88
612.371	232.88
612.579	229.88
612.787	208.88
612.995	213.88
613.203	244.88
613.411	232.88
613.618	227.88
613.826	220.88
614.034	216.88
614.242	225.88
614.449	209.88
614.657	226.88
614.865	222.88
615.072	223.88
615.28	233.88
615.488	215.88
615.695	207.88
615.903	217.88
616.111	213.88
616.318	237.88
616.526	224.88
616.733	219.88
616.941	228.88
617.148	228.88
617.356	231.88
617.563	225.88
617.771	221.88
617.978	222.88
618.185	218.88
618.393	204.88
618.6	216.88
618.807	218.88
619.015	209.88
619.222	207.88
619.429	228.88
619.637	228.88
619.844	222.88
620.051	216.88
620.258	218.88
620.466	205.88
620.673	206.88
620.88	182.88
621.087	208.88
621.294	210.88
621.501	219.88
621.708	222.88
621.915	225.88
622.122	212.88
622.329	211.88
622.536	213.88
622.743	217.88
622.95	219.88
623.157	218.88
623.364	204.88
623.571	206.88
623.778	206.88
623.985	200.88
624.192	209.88
624.399	209.88
624.606	201.88
624.812	204.88
625.019	193.88
625.226	200.88
625.433	197.88
625.639	213.88
625.846	222.88
626.053	213.88
626.259	197.88
626.466	212.88
626.673	195.88
626.879	187.88
627.086	187.88
627.293	200.88
627.499	193.88
627.706	188.88
627.912	209.88
628.119	207.88
628.325	184.88
628.532	190.88
628.738	196.88
628.945	197.88
629.151	207.88
629.357	181.88
629.564	183.88
629.77	182.88
629.976	180.88
630.183	189.88
630.389	187.88
630.595	190.88
630.802	189.88
631.008	188.88
631.214	197.88
631.42	194.88
631.627	177.88
631.833	181.88
632.039	185.88
632.245	162.88
632.451	175.88
632.657	192.88
632.863	178.88
633.069	180.88
633.275	157.88
633.481	167.88
633.688	181.88
633.893	181.88
634.099	172.88
634.305	180.88
634.511	184.88
634.717	178.88
634.923	174.88
635.129	177.88
635.335	180.88
635.541	173.88
635.747	173.88
635.952	174.88
636.158	178.88
636.364	173.88
636.57	196.88
636.775	189.88
636.981	178.88
637.187	177.88
637.392	168.88
637.598	172.88
637.804	177.88
638.009	178.88
638.215	178.88
638.421	181.88
638.626	154.88
638.832	169.88
639.037	163.88
639.243	170.88
639.448	170.88
639.654	179.88
639.859	164.88
640.065	167.88
640.27	190.88
640.475	168.88
640.681	154.88
640.886	168.88
641.091	158.88
641.297	184.88
641.502	164.88
641.707	172.88
641.913	163.88
642.118	182.88
642.323	157.88
642.528	164.88
642.733	168.88
642.939	164.88
643.144	151.88
643.349	150.88
643.554	152.88
643.759	150.88
643.964	159.88
644.169	163.88
644.374	164.88
644.579	164.88
644.784	150.88
644.989	174.88
645.194	162.88
645.399	163.88
645.604	173.88
645.809	167.88
646.014	163.88
646.219	158.88
646.423	152.88
646.628	159.88
646.833	169.88
647.038	162.88
647.243	167.88
647.447	160.88
647.652	150.88
647.857	158.88
648.062	161.88
648.266	171.88
648.471	155.88
648.676	159.88
648.88	154.88
649.085	162.88
649.289	151.88
649.494	169.88
649.698	196.88
649.903	190.88
650.107	171.88
650.312	160.88
650.516	170.88
650.721	152.88
650.925	158.88
651.13	139.88
651.334	160.88
651.539	160.88
651.743	138.88
651.947	133.88
652.152	139.88
652.356	142.88
652.56	141.88
652.764	137.88
652.969	120.88
653.173	146.88
653.377	132.88
653.581	145.88
653.785	137.88
653.99	138.88
654.194	135.88
654.398	152.88
654.602	138.88
654.806	148.88
655.01	131.88
655.214	132.88
655.418	139.88
655.622	141.88
655.826	140.88
656.03	141.88
656.234	140.88
656.438	137.88
656.642	132.88
656.846	124.88
657.049	139.88
657.253	138.88
657.457	117.88
657.661	124.88
657.865	107.88
658.068	113.88
658.272	119.88
658.476	104.88
658.68	92.88
658.883	98.88
659.087	103.88
659.291	93.88
659.494	93.88
659.698	97.88
659.901	85.88
660.105	110.88
660.309	96.88
660.512	102.88
660.716	100.88
660.919	83.88
661.123	94.88
661.326	92.88
661.53	96.88
661.733	90.88
661.936	81.88
662.14	89.88
662.343	90.88
662.546	83.88
662.75	93.88
662.953	93.88
663.156	78.88
663.36	85.88
663.563	79.88
663.766	75.88
663.969	80.88
664.173	71.88
664.376	78.88
664.579	90.88
664.782	77.88
664.985	81.88
665.188	90.88
665.391	104.88
665.594	92.88
665.797	82.88
666	96.88
666.203	77.88
666.406	83.88
666.609	84.88
666.812	74.88
667.015	82.88
667.218	84.88
667.421	72.88
667.624	90.88
667.827	92.88
668.03	74.88
668.232	80.88
668.435	73.88
668.638	87.88
668.841	96.88
669.043	78.88
669.246	79.88
669.449	71.88
669.651	89.88
669.854	83.88
670.057	90.88
670.259	74.88
670.462	86.88
670.665	76.88
670.867	88.88
671.07	78.88
671.272	83.88
671.475	94.88
671.677	67.88
671.88	85.88
672.082	85.88
672.284	82.88
672.487	100.88
672.689	88.88
672.892	81.88
