Data from 1989.PennyLincolnUp.Lamp.En5.5.200Scan.071819.P2_HRD10591_17-25-37-973.txt Node
Date: Thu Jul 18 17:25:37 EDT 2019
User: cochatt
Spectrometer: HR+D1059
Trigger mode: 1
Integration Time (sec): 1.000000E-1
Scans to average: 1
Electric dark correction enabled: true
Nonlinearity correction enabled: false
Boxcar width: 0
XAxis mode: Wavelengths
Number of Pixels in Spectrum: 2048
>>>>>Begin Spectral Data<<<<<
223.165	-21.94
223.4	-21.94
223.635	-21.94
223.869	-17.94
224.104	-18.94
224.338	-12.94
224.573	-16.94
224.808	-19.94
225.042	1.06
225.277	1.06
225.511	5.06
225.746	-3.94
225.98	-3.94
226.215	18.06
226.449	27.06
226.683	6.06
226.918	20.06
227.152	38.06
227.387	34.06
227.621	41.06
227.856	49.06
228.09	45.06
228.324	65.06
228.559	59.06
228.793	54.06
229.027	92.06
229.262	104.06
229.496	127.06
229.73	160.06
229.964	153.06
230.199	145.06
230.433	130.06
230.667	122.06
230.901	117.06
231.136	117.06
231.37	103.06
231.604	110.06
231.838	114.06
232.072	131.06
232.306	126.06
232.541	116.06
232.775	121.06
233.009	119.06
233.243	113.06
233.477	109.06
233.711	125.06
233.945	120.06
234.179	120.06
234.413	126.06
234.647	137.06
234.881	117.06
235.115	119.06
235.349	125.06
235.583	122.06
235.817	113.06
236.051	139.06
236.285	132.06
236.519	117.06
236.753	139.06
236.987	144.06
237.221	183.06
237.455	255.06
237.689	213.06
237.922	153.06
238.156	146.06
238.39	132.06
238.624	135.06
238.858	123.06
239.091	134.06
239.325	127.06
239.559	128.06
239.793	127.06
240.027	143.06
240.26	145.06
240.494	161.06
240.728	166.06
240.961	150.06
241.195	149.06
241.429	156.06
241.662	143.06
241.896	142.06
242.13	148.06
242.363	146.06
242.597	146.06
242.83	155.06
243.064	133.06
243.298	144.06
243.531	147.06
243.765	154.06
243.998	155.06
244.232	141.06
244.465	174.06
244.699	134.06
244.932	150.06
245.166	152.06
245.399	142.06
245.633	150.06
245.866	144.06
246.099	148.06
246.333	162.06
246.566	165.06
246.8	167.06
247.033	169.06
247.266	179.06
247.5	180.06
247.733	187.06
247.966	194.06
248.2	190.06
248.433	186.06
248.666	182.06
248.899	199.06
249.133	227.06
249.366	226.06
249.599	231.06
249.832	203.06
250.066	196.06
250.299	220.06
250.532	235.06
250.765	232.06
250.998	242.06
251.231	263.06
251.465	264.06
251.698	223.06
251.931	209.06
252.164	221.06
252.397	222.06
252.63	222.06
252.863	222.06
253.096	242.06
253.329	270.06
253.562	248.06
253.795	241.06
254.028	242.06
254.261	235.06
254.494	240.06
254.727	289.06
254.96	318.06
255.193	301.06
255.426	283.06
255.659	266.06
255.892	263.06
256.124	269.06
256.357	277.06
256.59	251.06
256.823	245.06
257.056	250.06
257.289	227.06
257.521	249.06
257.754	227.06
257.987	255.06
258.22	235.06
258.452	240.06
258.685	229.06
258.918	225.06
259.151	246.06
259.383	227.06
259.616	234.06
259.849	246.06
260.081	293.06
260.314	285.06
260.547	309.06
260.779	297.06
261.012	260.06
261.244	245.06
261.477	260.06
261.71	256.06
261.942	262.06
262.175	263.06
262.407	278.06
262.64	234.06
262.872	231.06
263.105	246.06
263.337	233.06
263.57	241.06
263.802	227.06
264.035	237.06
264.267	230.06
264.499	241.06
264.732	239.06
264.964	236.06
265.197	246.06
265.429	219.06
265.661	236.06
265.894	249.06
266.126	251.06
266.358	242.06
266.591	238.06
266.823	244.06
267.055	266.06
267.287	257.06
267.52	239.06
267.752	263.06
267.984	253.06
268.216	254.06
268.448	252.06
268.681	264.06
268.913	282.06
269.145	314.06
269.377	290.06
269.609	307.06
269.841	309.06
270.073	300.06
270.306	345.06
270.538	365.06
270.77	364.06
271.002	358.06
271.234	316.06
271.466	326.06
271.698	355.06
271.93	356.06
272.162	353.06
272.394	347.06
272.626	342.06
272.858	326.06
273.09	330.06
273.322	307.06
273.553	297.06
273.785	313.06
274.017	295.06
274.249	301.06
274.481	293.06
274.713	298.06
274.945	313.06
275.176	294.06
275.408	308.06
275.64	295.06
275.872	298.06
276.104	288.06
276.335	283.06
276.567	291.06
276.799	312.06
277.031	356.06
277.262	369.06
277.494	367.06
277.726	345.06
277.957	328.06
278.189	327.06
278.421	291.06
278.652	289.06
278.884	303.06
279.115	302.06
279.347	302.06
279.579	305.06
279.81	301.06
280.042	289.06
280.273	300.06
280.505	288.06
280.736	294.06
280.968	305.06
281.199	283.06
281.431	323.06
281.662	285.06
281.894	302.06
282.125	297.06
282.356	316.06
282.588	338.06
282.819	359.06
283.051	320.06
283.282	303.06
283.513	315.06
283.745	283.06
283.976	311.06
284.207	310.06
284.439	308.06
284.67	323.06
284.901	312.06
285.132	311.06
285.364	302.06
285.595	302.06
285.826	293.06
286.057	319.06
286.288	314.06
286.52	311.06
286.751	291.06
286.982	326.06
287.213	307.06
287.444	309.06
287.675	324.06
287.906	314.06
288.138	346.06
288.369	327.06
288.6	311.06
288.831	309.06
289.062	322.06
289.293	321.06
289.524	313.06
289.755	321.06
289.986	320.06
290.217	306.06
290.448	311.06
290.679	332.06
290.91	300.06
291.141	322.06
291.371	312.06
291.602	314.06
291.833	310.06
292.064	311.06
292.295	312.06
292.526	331.06
292.757	303.06
292.987	297.06
293.218	309.06
293.449	301.06
293.68	318.06
293.91	302.06
294.141	308.06
294.372	307.06
294.603	332.06
294.833	307.06
295.064	308.06
295.295	329.06
295.525	315.06
295.756	340.06
295.987	343.06
296.217	330.06
296.448	335.06
296.679	338.06
296.909	327.06
297.14	324.06
297.37	326.06
297.601	312.06
297.831	331.06
298.062	324.06
298.292	329.06
298.523	325.06
298.753	311.06
298.984	334.06
299.214	329.06
299.445	311.06
299.675	333.06
299.905	318.06
300.136	338.06
300.366	346.06
300.597	337.06
300.827	354.06
301.057	366.06
301.288	346.06
301.518	361.06
301.748	351.06
301.979	356.06
302.209	351.06
302.439	357.06
302.669	356.06
302.9	363.06
303.13	346.06
303.36	343.06
303.59	353.06
303.82	363.06
304.051	386.06
304.281	367.06
304.511	360.06
304.741	340.06
304.971	369.06
305.201	366.06
305.431	370.06
305.661	359.06
305.891	359.06
306.121	370.06
306.352	347.06
306.582	371.06
306.812	369.06
307.042	354.06
307.272	346.06
307.502	355.06
307.731	365.06
307.961	374.06
308.191	377.06
308.421	345.06
308.651	357.06
308.881	353.06
309.111	385.06
309.341	355.06
309.571	384.06
309.8	389.06
310.03	379.06
310.26	395.06
310.49	419.06
310.72	421.06
310.949	448.06
311.179	437.06
311.409	422.06
311.639	402.06
311.868	429.06
312.098	414.06
312.328	421.06
312.557	443.06
312.787	442.06
313.017	476.06
313.246	420.06
313.476	428.06
313.706	413.06
313.935	423.06
314.165	411.06
314.394	431.06
314.624	437.06
314.853	430.06
315.083	425.06
315.312	415.06
315.542	417.06
315.771	414.06
316.001	393.06
316.23	385.06
316.46	400.06
316.689	440.06
316.919	424.06
317.148	438.06
317.377	428.06
317.607	424.06
317.836	427.06
318.065	425.06
318.295	435.06
318.524	391.06
318.753	406.06
318.983	405.06
319.212	414.06
319.441	426.06
319.67	428.06
319.9	422.06
320.129	411.06
320.358	435.06
320.587	444.06
320.816	421.06
321.046	457.06
321.275	439.06
321.504	452.06
321.733	447.06
321.962	453.06
322.191	483.06
322.42	461.06
322.649	480.06
322.878	487.06
323.108	510.06
323.337	544.06
323.566	573.06
323.795	607.06
324.024	663.06
324.253	821.06
324.482	1189.06
324.71	1861.06
324.939	2617.06
325.168	2253.06
325.397	1166.06
325.626	769.06
325.855	651.06
326.084	596.06
326.313	557.06
326.542	591.06
326.77	635.06
326.999	748.06
327.228	1058.06
327.457	1609.06
327.686	1970.06
327.914	1293.06
328.143	857.06
328.372	744.06
328.6	690.06
328.829	627.06
329.058	642.06
329.287	674.06
329.515	630.06
329.744	571.06
329.972	579.06
330.201	618.06
330.43	660.06
330.658	690.06
330.887	696.06
331.115	697.06
331.344	606.06
331.572	567.06
331.801	556.06
332.03	558.06
332.258	514.06
332.486	514.06
332.715	479.06
332.943	487.06
333.172	477.06
333.4	487.06
333.629	506.06
333.857	531.06
334.085	545.06
334.314	559.06
334.542	600.06
334.771	641.06
334.999	569.06
335.227	523.06
335.455	494.06
335.684	485.06
335.912	481.06
336.14	483.06
336.369	479.06
336.597	478.06
336.825	474.06
337.053	481.06
337.281	473.06
337.51	470.06
337.738	453.06
337.966	477.06
338.194	445.06
338.422	452.06
338.65	467.06
338.878	447.06
339.106	462.06
339.334	466.06
339.562	463.06
339.79	467.06
340.018	460.06
340.246	465.06
340.474	478.06
340.702	462.06
340.93	459.06
341.158	463.06
341.386	465.06
341.614	475.06
341.842	475.06
342.07	459.06
342.298	451.06
342.526	443.06
342.754	437.06
342.981	436.06
343.209	426.06
343.437	423.06
343.665	445.06
343.893	441.06
344.12	460.06
344.348	457.06
344.576	466.06
344.804	469.06
345.031	475.06
345.259	491.06
345.487	470.06
345.714	460.06
345.942	438.06
346.17	451.06
346.397	441.06
346.625	446.06
346.853	437.06
347.08	422.06
347.308	445.06
347.535	463.06
347.763	466.06
347.99	461.06
348.218	447.06
348.445	469.06
348.673	452.06
348.9	449.06
349.128	448.06
349.355	425.06
349.583	420.06
349.81	399.06
350.037	420.06
350.265	413.06
350.492	426.06
350.72	434.06
350.947	422.06
351.174	446.06
351.402	465.06
351.629	462.06
351.856	457.06
352.083	453.06
352.311	448.06
352.538	449.06
352.765	483.06
352.992	473.06
353.22	469.06
353.447	434.06
353.674	419.06
353.901	414.06
354.128	406.06
354.355	398.06
354.583	396.06
354.81	394.06
355.037	396.06
355.264	393.06
355.491	405.06
355.718	393.06
355.945	381.06
356.172	389.06
356.399	387.06
356.626	385.06
356.853	389.06
357.08	394.06
357.307	396.06
357.534	389.06
357.761	378.06
357.988	409.06
358.215	414.06
358.441	398.06
358.668	423.06
358.895	389.06
359.122	403.06
359.349	418.06
359.576	431.06
359.802	460.06
360.029	508.06
360.256	499.06
360.483	488.06
360.709	451.06
360.936	447.06
361.163	409.06
361.39	453.06
361.616	451.06
361.843	415.06
362.07	425.06
362.296	437.06
362.523	441.06
362.749	439.06
362.976	448.06
363.203	409.06
363.429	415.06
363.656	418.06
363.882	442.06
364.109	418.06
364.335	407.06
364.562	410.06
364.788	391.06
365.015	397.06
365.241	402.06
365.468	423.06
365.694	410.06
365.92	410.06
366.147	419.06
366.373	405.06
366.599	409.06
366.826	387.06
367.052	396.06
367.278	413.06
367.505	390.06
367.731	407.06
367.957	411.06
368.184	402.06
368.41	400.06
368.636	433.06
368.862	451.06
369.089	414.06
369.315	398.06
369.541	397.06
369.767	388.06
369.993	417.06
370.219	407.06
370.445	410.06
370.672	390.06
370.898	404.06
371.124	399.06
371.35	399.06
371.576	419.06
371.802	408.06
372.028	382.06
372.254	389.06
372.48	403.06
372.706	394.06
372.932	395.06
373.158	382.06
373.384	403.06
373.61	385.06
373.835	414.06
374.061	407.06
374.287	396.06
374.513	411.06
374.739	405.06
374.965	409.06
375.191	409.06
375.416	390.06
375.642	382.06
375.868	398.06
376.094	414.06
376.319	386.06
376.545	395.06
376.771	396.06
376.997	405.06
377.222	387.06
377.448	405.06
377.674	398.06
377.899	382.06
378.125	387.06
378.35	371.06
378.576	377.06
378.802	404.06
379.027	395.06
379.253	378.06
379.478	396.06
379.704	411.06
379.929	379.06
380.155	406.06
380.38	384.06
380.606	383.06
380.831	383.06
381.057	398.06
381.282	412.06
381.507	388.06
381.733	392.06
381.958	407.06
382.184	387.06
382.409	404.06
382.634	407.06
382.86	391.06
383.085	400.06
383.31	412.06
383.535	397.06
383.761	408.06
383.986	419.06
384.211	408.06
384.436	396.06
384.662	394.06
384.887	390.06
385.112	396.06
385.337	412.06
385.562	400.06
385.787	412.06
386.013	420.06
386.238	418.06
386.463	424.06
386.688	411.06
386.913	410.06
387.138	412.06
387.363	418.06
387.588	411.06
387.813	433.06
388.038	431.06
388.263	425.06
388.488	432.06
388.713	436.06
388.938	417.06
389.163	440.06
389.387	417.06
389.612	406.06
389.837	406.06
390.062	425.06
390.287	403.06
390.512	403.06
390.736	404.06
390.961	420.06
391.186	417.06
391.411	410.06
391.636	398.06
391.86	437.06
392.085	428.06
392.31	439.06
392.534	421.06
392.759	436.06
392.984	422.06
393.208	429.06
393.433	402.06
393.658	407.06
393.882	409.06
394.107	407.06
394.331	395.06
394.556	405.06
394.78	403.06
395.005	419.06
395.229	421.06
395.454	428.06
395.678	442.06
395.903	463.06
396.127	460.06
396.352	479.06
396.576	445.06
396.801	438.06
397.025	417.06
397.249	420.06
397.474	439.06
397.698	430.06
397.922	439.06
398.147	461.06
398.371	487.06
398.595	462.06
398.82	454.06
399.044	453.06
399.268	462.06
399.492	499.06
399.717	525.06
399.941	533.06
400.165	572.06
400.389	579.06
400.613	518.06
400.837	514.06
401.062	477.06
401.286	469.06
401.51	455.06
401.734	467.06
401.958	469.06
402.182	472.06
402.406	484.06
402.63	488.06
402.854	477.06
403.078	470.06
403.302	459.06
403.526	491.06
403.75	486.06
403.974	494.06
404.198	477.06
404.422	468.06
404.645	488.06
404.869	495.06
405.093	520.06
405.317	587.06
405.541	608.06
405.765	565.06
405.988	498.06
406.212	531.06
406.436	560.06
406.66	564.06
406.883	540.06
407.107	554.06
407.331	616.06
407.555	661.06
407.778	641.06
408.002	593.06
408.226	549.06
408.449	550.06
408.673	542.06
408.896	571.06
409.12	604.06
409.344	577.06
409.567	526.06
409.791	487.06
410.014	476.06
410.238	503.06
410.461	494.06
410.685	486.06
410.908	539.06
411.132	523.06
411.355	567.06
411.578	544.06
411.802	526.06
412.025	499.06
412.249	494.06
412.472	520.06
412.695	556.06
412.919	561.06
413.142	525.06
413.365	512.06
413.589	463.06
413.812	455.06
414.035	474.06
414.258	467.06
414.482	445.06
414.705	441.06
414.928	467.06
415.151	439.06
415.374	439.06
415.597	435.06
415.821	455.06
416.044	465.06
416.267	467.06
416.49	455.06
416.713	452.06
416.936	459.06
417.159	442.06
417.382	448.06
417.605	462.06
417.828	475.06
418.051	484.06
418.274	493.06
418.497	489.06
418.72	462.06
418.943	453.06
419.166	474.06
419.389	502.06
419.611	470.06
419.834	491.06
420.057	506.06
420.28	482.06
420.503	480.06
420.726	503.06
420.948	519.06
421.171	556.06
421.394	544.06
421.617	523.06
421.839	471.06
422.062	486.06
422.285	495.06
422.507	550.06
422.73	637.06
422.953	607.06
423.175	529.06
423.398	519.06
423.621	474.06
423.843	533.06
424.066	535.06
424.288	533.06
424.511	547.06
424.733	611.06
424.956	691.06
425.178	645.06
425.401	651.06
425.623	699.06
425.846	579.06
426.068	537.06
426.291	533.06
426.513	539.06
426.735	522.06
426.958	562.06
427.18	676.06
427.402	781.06
427.625	883.06
427.847	805.06
428.069	709.06
428.292	614.06
428.514	554.06
428.736	524.06
428.958	501.06
429.181	495.06
429.403	494.06
429.625	518.06
429.847	528.06
430.069	594.06
430.292	591.06
430.514	516.06
430.736	488.06
430.958	486.06
431.18	484.06
431.402	450.06
431.624	443.06
431.846	442.06
432.068	450.06
432.29	446.06
432.512	462.06
432.734	499.06
432.956	452.06
433.178	455.06
433.4	487.06
433.622	462.06
433.844	439.06
434.066	451.06
434.287	469.06
434.509	470.06
434.731	457.06
434.953	469.06
435.175	491.06
435.397	518.06
435.618	529.06
435.84	601.06
436.062	671.06
436.284	733.06
436.505	590.06
436.727	559.06
436.949	482.06
437.17	480.06
437.392	471.06
437.614	489.06
437.835	545.06
438.057	642.06
438.278	732.06
438.5	735.06
438.721	811.06
438.943	747.06
439.165	621.06
439.386	551.06
439.608	559.06
439.829	548.06
440.05	582.06
440.272	637.06
440.493	574.06
440.715	507.06
440.936	480.06
441.158	511.06
441.379	484.06
441.6	505.06
441.822	530.06
442.043	552.06
442.264	670.06
442.486	691.06
442.707	574.06
442.928	550.06
443.149	559.06
443.371	559.06
443.592	659.06
443.813	720.06
444.034	763.06
444.255	636.06
444.476	539.06
444.698	528.06
444.919	525.06
445.14	655.06
445.361	616.06
445.582	601.06
445.803	644.06
446.024	757.06
446.245	771.06
446.466	690.06
446.687	588.06
446.908	536.06
447.129	538.06
447.35	514.06
447.571	517.06
447.792	489.06
448.013	505.06
448.234	516.06
448.455	595.06
448.675	689.06
448.896	813.06
449.117	659.06
449.338	637.06
449.559	751.06
449.779	849.06
450	681.06
450.221	574.06
450.442	515.06
450.662	499.06
450.883	486.06
451.104	519.06
451.324	484.06
451.545	479.06
451.766	467.06
451.986	434.06
452.207	435.06
452.428	445.06
452.648	417.06
452.869	409.06
453.089	456.06
453.31	452.06
453.53	466.06
453.751	425.06
453.971	418.06
454.192	458.06
454.412	460.06
454.633	430.06
454.853	436.06
455.073	436.06
455.294	466.06
455.514	501.06
455.734	511.06
455.955	462.06
456.175	424.06
456.395	398.06
456.616	401.06
456.836	405.06
457.056	413.06
457.276	384.06
457.497	389.06
457.717	411.06
457.937	409.06
458.157	425.06
458.377	416.06
458.598	444.06
458.818	502.06
459.038	589.06
459.258	592.06
459.478	522.06
459.698	475.06
459.918	471.06
460.138	451.06
460.358	425.06
460.578	454.06
460.798	455.06
461.018	460.06
461.238	449.06
461.458	449.06
461.678	455.06
461.898	449.06
462.118	462.06
462.338	471.06
462.558	454.06
462.777	463.06
462.997	469.06
463.217	474.06
463.437	475.06
463.657	481.06
463.876	501.06
464.096	476.06
464.316	475.06
464.536	488.06
464.755	469.06
464.975	481.06
465.195	534.06
465.414	596.06
465.634	555.06
465.854	498.06
466.073	477.06
466.293	435.06
466.512	450.06
466.732	452.06
466.951	428.06
467.171	446.06
467.391	460.06
467.61	470.06
467.829	470.06
468.049	452.06
468.268	464.06
468.488	443.06
468.707	443.06
468.927	427.06
469.146	402.06
469.365	417.06
469.585	430.06
469.804	436.06
470.023	437.06
470.243	436.06
470.462	446.06
470.681	452.06
470.901	466.06
471.12	452.06
471.339	437.06
471.558	419.06
471.777	431.06
471.997	442.06
472.216	452.06
472.435	497.06
472.654	496.06
472.873	468.06
473.092	437.06
473.311	461.06
473.53	467.06
473.749	486.06
473.968	520.06
474.187	629.06
474.406	635.06
474.625	516.06
474.844	487.06
475.063	455.06
475.282	445.06
475.501	466.06
475.72	439.06
475.939	472.06
476.158	463.06
476.377	453.06
476.596	435.06
476.814	468.06
477.033	459.06
477.252	482.06
477.471	473.06
477.69	482.06
477.908	496.06
478.127	473.06
478.346	465.06
478.564	476.06
478.783	493.06
479.002	489.06
479.22	517.06
479.439	487.06
479.658	536.06
479.876	541.06
480.095	548.06
480.313	571.06
480.532	552.06
480.751	535.06
480.969	567.06
481.188	640.06
481.406	697.06
481.624	610.06
481.843	559.06
482.061	542.06
482.28	517.06
482.498	525.06
482.717	532.06
482.935	513.06
483.153	529.06
483.372	527.06
483.59	540.06
483.808	532.06
484.027	531.06
484.245	526.06
484.463	532.06
484.681	539.06
484.9	517.06
485.118	565.06
485.336	550.06
485.554	543.06
485.772	526.06
485.99	551.06
486.209	556.06
486.427	573.06
486.645	558.06
486.863	590.06
487.081	587.06
487.299	595.06
487.517	577.06
487.735	551.06
487.953	564.06
488.171	558.06
488.389	572.06
488.607	567.06
488.825	578.06
489.043	597.06
489.261	580.06
489.479	580.06
489.696	590.06
489.914	580.06
490.132	602.06
490.35	602.06
490.568	594.06
490.786	626.06
491.003	626.06
491.221	644.06
491.439	643.06
491.657	636.06
491.874	666.06
492.092	653.06
492.31	661.06
492.527	673.06
492.745	664.06
492.963	653.06
493.18	638.06
493.398	685.06
493.615	671.06
493.833	665.06
494.05	679.06
494.268	692.06
494.485	686.06
494.703	694.06
494.92	668.06
495.138	685.06
495.355	689.06
495.573	675.06
495.79	673.06
496.008	684.06
496.225	680.06
496.442	686.06
496.66	693.06
496.877	674.06
497.094	677.06
497.312	673.06
497.529	686.06
497.746	712.06
497.963	685.06
498.181	692.06
498.398	745.06
498.615	731.06
498.832	748.06
499.049	741.06
499.267	747.06
499.484	751.06
499.701	778.06
499.918	810.06
500.135	834.06
500.352	849.06
500.569	877.06
500.786	879.06
501.003	857.06
501.22	863.06
501.437	838.06
501.654	793.06
501.871	830.06
502.088	809.06
502.305	779.06
502.522	735.06
502.739	703.06
502.956	724.06
503.172	692.06
503.389	699.06
503.606	705.06
503.823	676.06
504.04	698.06
504.256	657.06
504.473	651.06
504.69	673.06
504.907	659.06
505.123	654.06
505.34	660.06
505.557	647.06
505.773	651.06
505.99	656.06
506.207	620.06
506.423	656.06
506.64	650.06
506.856	621.06
507.073	634.06
507.289	645.06
507.506	645.06
507.722	628.06
507.939	652.06
508.155	620.06
508.372	639.06
508.588	612.06
508.805	608.06
509.021	648.06
509.238	639.06
509.454	620.06
509.67	651.06
509.887	629.06
510.103	618.06
510.319	652.06
510.536	727.06
510.752	1289.06
510.968	1043.06
511.184	669.06
511.401	631.06
511.617	596.06
511.833	619.06
512.049	595.06
512.265	621.06
512.481	603.06
512.698	586.06
512.914	582.06
513.13	579.06
513.346	595.06
513.562	585.06
513.778	613.06
513.994	598.06
514.21	598.06
514.426	642.06
514.642	702.06
514.858	739.06
515.074	787.06
515.29	923.06
515.506	1407.06
515.721	1159.06
515.937	739.06
516.153	665.06
516.369	639.06
516.585	633.06
516.801	593.06
517.016	615.06
517.232	594.06
517.448	599.06
517.664	587.06
517.879	596.06
518.095	576.06
518.311	587.06
518.527	597.06
518.742	594.06
518.958	582.06
519.173	583.06
519.389	585.06
519.605	596.06
519.82	576.06
520.036	600.06
520.251	644.06
520.467	646.06
520.682	643.06
520.898	652.06
521.113	685.06
521.329	728.06
521.544	842.06
521.76	1105.06
521.975	1827.06
522.19	1819.06
522.406	958.06
522.621	702.06
522.836	643.06
523.052	594.06
523.267	563.06
523.482	566.06
523.698	558.06
523.913	538.06
524.128	536.06
524.343	541.06
524.559	524.06
524.774	527.06
524.989	516.06
525.204	530.06
525.419	523.06
525.634	508.06
525.849	498.06
526.064	490.06
526.28	490.06
526.495	502.06
526.71	490.06
526.925	473.06
527.14	483.06
527.355	475.06
527.57	466.06
527.785	461.06
527.999	458.06
528.214	454.06
528.429	453.06
528.644	457.06
528.859	477.06
529.074	488.06
529.289	470.06
529.503	594.06
529.718	594.06
529.933	538.06
530.148	498.06
530.363	469.06
530.577	490.06
530.792	458.06
531.007	473.06
531.221	451.06
531.436	469.06
531.651	440.06
531.865	457.06
532.08	436.06
532.295	445.06
532.509	456.06
532.724	451.06
532.938	457.06
533.153	447.06
533.367	446.06
533.582	452.06
533.796	471.06
534.011	434.06
534.225	433.06
534.44	444.06
534.654	439.06
534.868	446.06
535.083	474.06
535.297	463.06
535.511	444.06
535.726	457.06
535.94	446.06
536.154	459.06
536.369	441.06
536.583	428.06
536.797	439.06
537.011	423.06
537.225	456.06
537.44	436.06
537.654	433.06
537.868	428.06
538.082	448.06
538.296	442.06
538.51	439.06
538.724	428.06
538.938	436.06
539.153	428.06
539.367	444.06
539.581	458.06
539.795	428.06
540.009	431.06
540.222	446.06
540.436	438.06
540.65	447.06
540.864	436.06
541.078	444.06
541.292	435.06
541.506	430.06
541.72	446.06
541.934	432.06
542.147	440.06
542.361	423.06
542.575	411.06
542.789	416.06
543.002	418.06
543.216	432.06
543.43	426.06
543.644	411.06
543.857	449.06
544.071	446.06
544.285	443.06
544.498	411.06
544.712	436.06
544.925	410.06
545.139	424.06
545.352	420.06
545.566	424.06
545.779	412.06
545.993	411.06
546.206	420.06
546.42	406.06
546.633	425.06
546.847	415.06
547.06	423.06
547.274	410.06
547.487	405.06
547.7	396.06
547.914	420.06
548.127	404.06
548.34	402.06
548.554	415.06
548.767	411.06
548.98	420.06
549.193	411.06
549.407	391.06
549.62	397.06
549.833	395.06
550.046	415.06
550.259	380.06
550.473	401.06
550.686	394.06
550.899	394.06
551.112	393.06
551.325	393.06
551.538	400.06
551.751	386.06
551.964	390.06
552.177	385.06
552.39	378.06
552.603	392.06
552.816	408.06
553.029	401.06
553.242	407.06
553.455	404.06
553.667	416.06
553.88	434.06
554.093	423.06
554.306	418.06
554.519	410.06
554.732	420.06
554.944	401.06
555.157	394.06
555.37	393.06
555.583	390.06
555.795	389.06
556.008	379.06
556.221	373.06
556.433	378.06
556.646	363.06
556.859	365.06
557.071	379.06
557.284	375.06
557.496	381.06
557.709	366.06
557.921	391.06
558.134	364.06
558.346	354.06
558.559	345.06
558.771	353.06
558.984	376.06
559.196	349.06
559.409	374.06
559.621	343.06
559.833	363.06
560.046	343.06
560.258	358.06
560.47	347.06
560.683	333.06
560.895	364.06
561.107	350.06
561.32	346.06
561.532	359.06
561.744	364.06
561.956	355.06
562.168	358.06
562.381	365.06
562.593	350.06
562.805	377.06
563.017	370.06
563.229	361.06
563.441	369.06
563.653	345.06
563.865	360.06
564.077	356.06
564.289	381.06
564.501	356.06
564.713	361.06
564.925	369.06
565.137	391.06
565.349	393.06
565.561	390.06
565.773	413.06
565.985	385.06
566.197	375.06
566.408	404.06
566.62	380.06
566.832	407.06
567.044	394.06
567.255	426.06
567.467	421.06
567.679	409.06
567.891	396.06
568.102	435.06
568.314	422.06
568.526	405.06
568.737	405.06
568.949	380.06
569.161	383.06
569.372	375.06
569.584	378.06
569.795	356.06
570.007	353.06
570.218	417.06
570.43	410.06
570.641	357.06
570.853	370.06
571.064	343.06
571.276	339.06
571.487	358.06
571.698	338.06
571.91	338.06
572.121	329.06
572.333	335.06
572.544	316.06
572.755	330.06
572.966	319.06
573.178	314.06
573.389	329.06
573.6	344.06
573.811	299.06
574.023	327.06
574.234	320.06
574.445	301.06
574.656	317.06
574.867	331.06
575.078	317.06
575.289	299.06
575.501	318.06
575.712	308.06
575.923	307.06
576.134	294.06
576.345	312.06
576.556	311.06
576.767	311.06
576.978	308.06
577.188	303.06
577.399	311.06
577.61	298.06
577.821	315.06
578.032	309.06
578.243	349.06
578.454	597.06
578.665	433.06
578.875	319.06
579.086	302.06
579.297	284.06
579.508	301.06
579.718	294.06
579.929	303.06
580.14	286.06
580.35	275.06
580.561	289.06
580.772	307.06
580.982	295.06
581.193	294.06
581.403	293.06
581.614	297.06
581.825	290.06
582.035	285.06
582.246	284.06
582.456	279.06
582.667	285.06
582.877	290.06
583.087	273.06
583.298	283.06
583.508	285.06
583.719	271.06
583.929	298.06
584.139	275.06
584.35	279.06
584.56	294.06
584.77	277.06
584.981	260.06
585.191	299.06
585.401	286.06
585.611	285.06
585.821	287.06
586.032	270.06
586.242	283.06
586.452	284.06
586.662	291.06
586.872	258.06
587.082	276.06
587.292	289.06
587.502	281.06
587.713	276.06
587.923	290.06
588.133	269.06
588.343	282.06
588.553	281.06
588.762	288.06
588.972	275.06
589.182	267.06
589.392	278.06
589.602	270.06
589.812	277.06
590.022	252.06
590.232	268.06
590.441	263.06
590.651	284.06
590.861	264.06
591.071	273.06
591.281	259.06
591.49	270.06
591.7	272.06
591.91	271.06
592.119	275.06
592.329	271.06
592.539	276.06
592.748	277.06
592.958	275.06
593.167	270.06
593.377	275.06
593.587	292.06
593.796	284.06
594.006	269.06
594.215	272.06
594.424	282.06
594.634	277.06
594.843	286.06
595.053	269.06
595.262	265.06
595.472	275.06
595.681	279.06
595.89	263.06
596.1	252.06
596.309	237.06
596.518	263.06
596.727	247.06
596.937	256.06
597.146	284.06
597.355	258.06
597.564	254.06
597.774	255.06
597.983	274.06
598.192	245.06
598.401	246.06
598.61	225.06
598.819	252.06
599.028	247.06
599.237	242.06
599.446	260.06
599.655	263.06
599.864	232.06
600.073	231.06
600.282	235.06
600.491	236.06
600.7	237.06
600.909	243.06
601.118	230.06
601.327	264.06
601.536	250.06
601.745	233.06
601.953	233.06
602.162	226.06
602.371	222.06
602.58	238.06
602.789	226.06
602.997	237.06
603.206	225.06
603.415	242.06
603.623	223.06
603.832	238.06
604.041	238.06
604.249	232.06
604.458	232.06
604.666	222.06
604.875	226.06
605.084	223.06
605.292	229.06
605.501	236.06
605.709	230.06
605.918	226.06
606.126	226.06
606.334	233.06
606.543	226.06
606.751	234.06
606.96	239.06
607.168	214.06
607.376	213.06
607.585	250.06
607.793	226.06
608.001	228.06
608.21	225.06
608.418	226.06
608.626	219.06
608.834	231.06
609.043	229.06
609.251	242.06
609.459	228.06
609.667	232.06
609.875	232.06
610.083	229.06
610.291	232.06
610.499	231.06
610.707	219.06
610.916	238.06
611.124	232.06
611.332	245.06
611.54	232.06
611.748	227.06
611.955	222.06
612.163	243.06
612.371	234.06
612.579	234.06
612.787	223.06
612.995	207.06
613.203	219.06
613.411	221.06
613.618	220.06
613.826	224.06
614.034	218.06
614.242	217.06
614.449	225.06
614.657	220.06
614.865	221.06
615.072	217.06
615.28	204.06
615.488	225.06
615.695	225.06
615.903	200.06
616.111	204.06
616.318	225.06
616.526	221.06
616.733	207.06
616.941	211.06
617.148	220.06
617.356	234.06
617.563	222.06
617.771	214.06
617.978	215.06
618.185	216.06
618.393	213.06
618.6	232.06
618.807	227.06
619.015	216.06
619.222	213.06
619.429	216.06
619.637	218.06
619.844	217.06
620.051	195.06
620.258	224.06
620.466	208.06
620.673	206.06
620.88	207.06
621.087	191.06
621.294	198.06
621.501	213.06
621.708	215.06
621.915	216.06
622.122	201.06
622.329	205.06
622.536	201.06
622.743	213.06
622.95	208.06
623.157	196.06
623.364	204.06
623.571	194.06
623.778	190.06
623.985	220.06
624.192	201.06
624.399	216.06
624.606	207.06
624.812	193.06
625.019	205.06
625.226	194.06
625.433	208.06
625.639	209.06
625.846	202.06
626.053	189.06
626.259	170.06
626.466	207.06
626.673	199.06
626.879	191.06
627.086	208.06
627.293	196.06
627.499	196.06
627.706	178.06
627.912	179.06
628.119	179.06
628.325	187.06
628.532	207.06
628.738	188.06
628.945	197.06
629.151	196.06
629.357	184.06
629.564	191.06
629.77	188.06
629.976	186.06
630.183	188.06
630.389	180.06
630.595	187.06
630.802	170.06
631.008	182.06
631.214	190.06
631.42	179.06
631.627	194.06
631.833	174.06
632.039	189.06
632.245	187.06
632.451	187.06
632.657	186.06
632.863	175.06
633.069	188.06
633.275	174.06
633.481	199.06
633.688	170.06
633.893	189.06
634.099	167.06
634.305	181.06
634.511	178.06
634.717	167.06
634.923	167.06
635.129	172.06
635.335	174.06
635.541	169.06
635.747	161.06
635.952	157.06
636.158	169.06
636.364	172.06
636.57	185.06
636.775	183.06
636.981	174.06
637.187	187.06
637.392	177.06
637.598	178.06
637.804	173.06
638.009	169.06
638.215	186.06
638.421	164.06
638.626	163.06
638.832	175.06
639.037	170.06
639.243	171.06
639.448	167.06
639.654	158.06
639.859	154.06
640.065	164.06
640.27	175.06
640.475	164.06
640.681	172.06
640.886	164.06
641.091	165.06
641.297	165.06
641.502	156.06
641.707	177.06
641.913	145.06
642.118	151.06
642.323	161.06
642.528	163.06
642.733	159.06
642.939	155.06
643.144	169.06
643.349	149.06
643.554	155.06
643.759	158.06
643.964	157.06
644.169	168.06
644.374	163.06
644.579	163.06
644.784	162.06
644.989	162.06
645.194	153.06
645.399	162.06
645.604	162.06
645.809	156.06
646.014	162.06
646.219	162.06
646.423	180.06
646.628	157.06
646.833	140.06
647.038	158.06
647.243	157.06
647.447	152.06
647.652	156.06
647.857	165.06
648.062	147.06
648.266	164.06
648.471	181.06
648.676	181.06
648.88	169.06
649.085	166.06
649.289	161.06
649.494	173.06
649.698	179.06
649.903	181.06
650.107	171.06
650.312	168.06
650.516	165.06
650.721	159.06
650.925	158.06
651.13	152.06
651.334	142.06
651.539	149.06
651.743	143.06
651.947	150.06
652.152	137.06
652.356	125.06
652.56	132.06
652.764	134.06
652.969	147.06
653.173	124.06
653.377	130.06
653.581	127.06
653.785	126.06
653.99	130.06
654.194	141.06
654.398	142.06
654.602	122.06
654.806	137.06
655.01	141.06
655.214	136.06
655.418	131.06
655.622	126.06
655.826	126.06
656.03	124.06
656.234	139.06
656.438	141.06
656.642	141.06
656.846	138.06
657.049	133.06
657.253	118.06
657.457	124.06
657.661	116.06
657.865	117.06
658.068	110.06
658.272	103.06
658.476	125.06
658.68	100.06
658.883	101.06
659.087	92.06
659.291	87.06
659.494	101.06
659.698	103.06
659.901	98.06
660.105	104.06
660.309	108.06
660.512	105.06
660.716	105.06
660.919	109.06
661.123	100.06
661.326	89.06
661.53	95.06
661.733	98.06
661.936	83.06
662.14	86.06
662.343	86.06
662.546	83.06
662.75	86.06
662.953	75.06
663.156	76.06
663.36	79.06
663.563	81.06
663.766	65.06
663.969	80.06
664.173	84.06
664.376	91.06
664.579	86.06
664.782	88.06
664.985	67.06
665.188	83.06
665.391	88.06
665.594	83.06
665.797	83.06
666	79.06
666.203	88.06
666.406	82.06
666.609	90.06
666.812	85.06
667.015	82.06
667.218	86.06
667.421	93.06
667.624	85.06
667.827	79.06
668.03	92.06
668.232	87.06
668.435	81.06
668.638	87.06
668.841	89.06
669.043	82.06
669.246	84.06
669.449	85.06
669.651	86.06
669.854	82.06
670.057	90.06
670.259	91.06
670.462	103.06
670.665	83.06
670.867	77.06
671.07	101.06
671.272	86.06
671.475	86.06
671.677	89.06
671.88	91.06
672.082	93.06
672.284	90.06
672.487	85.06
672.689	91.06
672.892	97.06
