Data from 1989.PennyLincolnUp.Lamp.En5.5.200Scan.071819.P2_HRD10591_17-26-23-975.txt Node
Date: Thu Jul 18 17:26:23 EDT 2019
User: cochatt
Spectrometer: HR+D1059
Trigger mode: 1
Integration Time (sec): 1.000000E-1
Scans to average: 1
Electric dark correction enabled: true
Nonlinearity correction enabled: false
Boxcar width: 0
XAxis mode: Wavelengths
Number of Pixels in Spectrum: 2048
>>>>>Begin Spectral Data<<<<<
223.165	-21.94
223.4	-21.94
223.635	-21.94
223.869	-2.94
224.104	-19.94
224.338	-14.94
224.573	-14.94
224.808	-13.94
225.042	-14.94
225.277	-9.94
225.511	5.06
225.746	1.06
225.98	10.06
226.215	15.06
226.449	8.06
226.683	25.06
226.918	24.06
227.152	25.06
227.387	51.06
227.621	32.06
227.856	41.06
228.09	49.06
228.324	45.06
228.559	58.06
228.793	82.06
229.027	98.06
229.262	99.06
229.496	115.06
229.73	156.06
229.964	180.06
230.199	135.06
230.433	121.06
230.667	114.06
230.901	122.06
231.136	113.06
231.37	119.06
231.604	114.06
231.838	121.06
232.072	108.06
232.306	133.06
232.541	133.06
232.775	118.06
233.009	113.06
233.243	113.06
233.477	119.06
233.711	116.06
233.945	124.06
234.179	117.06
234.413	123.06
234.647	112.06
234.881	115.06
235.115	124.06
235.349	113.06
235.583	115.06
235.817	125.06
236.051	120.06
236.285	133.06
236.519	129.06
236.753	140.06
236.987	151.06
237.221	188.06
237.455	263.06
237.689	207.06
237.922	147.06
238.156	142.06
238.39	142.06
238.624	132.06
238.858	136.06
239.091	131.06
239.325	148.06
239.559	133.06
239.793	137.06
240.027	132.06
240.26	151.06
240.494	181.06
240.728	152.06
240.961	166.06
241.195	148.06
241.429	155.06
241.662	154.06
241.896	149.06
242.13	141.06
242.363	141.06
242.597	130.06
242.83	141.06
243.064	149.06
243.298	145.06
243.531	148.06
243.765	141.06
243.998	163.06
244.232	143.06
244.465	141.06
244.699	155.06
244.932	157.06
245.166	157.06
245.399	164.06
245.633	166.06
245.866	171.06
246.099	158.06
246.333	165.06
246.566	161.06
246.8	158.06
247.033	157.06
247.266	182.06
247.5	187.06
247.733	185.06
247.966	165.06
248.2	187.06
248.433	179.06
248.666	214.06
248.899	209.06
249.133	195.06
249.366	230.06
249.599	243.06
249.832	215.06
250.066	207.06
250.299	210.06
250.532	225.06
250.765	246.06
250.998	279.06
251.231	260.06
251.465	238.06
251.698	239.06
251.931	245.06
252.164	233.06
252.397	241.06
252.63	236.06
252.863	227.06
253.096	235.06
253.329	259.06
253.562	264.06
253.795	249.06
254.028	252.06
254.261	263.06
254.494	233.06
254.727	292.06
254.96	332.06
255.193	321.06
255.426	273.06
255.659	267.06
255.892	281.06
256.124	269.06
256.357	304.06
256.59	293.06
256.823	285.06
257.056	260.06
257.289	245.06
257.521	268.06
257.754	261.06
257.987	247.06
258.22	255.06
258.452	235.06
258.685	241.06
258.918	232.06
259.151	228.06
259.383	243.06
259.616	250.06
259.849	251.06
260.081	278.06
260.314	283.06
260.547	291.06
260.779	269.06
261.012	255.06
261.244	243.06
261.477	258.06
261.71	245.06
261.942	264.06
262.175	273.06
262.407	267.06
262.64	241.06
262.872	220.06
263.105	232.06
263.337	227.06
263.57	233.06
263.802	221.06
264.035	233.06
264.267	249.06
264.499	244.06
264.732	236.06
264.964	235.06
265.197	221.06
265.429	242.06
265.661	241.06
265.894	244.06
266.126	236.06
266.358	239.06
266.591	240.06
266.823	236.06
267.055	244.06
267.287	265.06
267.52	260.06
267.752	250.06
267.984	279.06
268.216	233.06
268.448	280.06
268.681	287.06
268.913	276.06
269.145	296.06
269.377	311.06
269.609	325.06
269.841	295.06
270.073	307.06
270.306	328.06
270.538	345.06
270.77	364.06
271.002	331.06
271.234	327.06
271.466	337.06
271.698	350.06
271.93	359.06
272.162	355.06
272.394	367.06
272.626	359.06
272.858	357.06
273.09	332.06
273.322	308.06
273.553	297.06
273.785	294.06
274.017	300.06
274.249	314.06
274.481	295.06
274.713	311.06
274.945	309.06
275.176	297.06
275.408	281.06
275.64	310.06
275.872	299.06
276.104	305.06
276.335	315.06
276.567	305.06
276.799	330.06
277.031	348.06
277.262	342.06
277.494	360.06
277.726	353.06
277.957	323.06
278.189	325.06
278.421	316.06
278.652	316.06
278.884	316.06
279.115	308.06
279.347	303.06
279.579	303.06
279.81	310.06
280.042	299.06
280.273	315.06
280.505	312.06
280.736	301.06
280.968	285.06
281.199	291.06
281.431	305.06
281.662	305.06
281.894	295.06
282.125	321.06
282.356	327.06
282.588	325.06
282.819	370.06
283.051	319.06
283.282	299.06
283.513	308.06
283.745	311.06
283.976	315.06
284.207	328.06
284.439	325.06
284.67	324.06
284.901	303.06
285.132	309.06
285.364	312.06
285.595	315.06
285.826	307.06
286.057	324.06
286.288	295.06
286.52	319.06
286.751	324.06
286.982	317.06
287.213	308.06
287.444	322.06
287.675	327.06
287.906	346.06
288.138	340.06
288.369	333.06
288.6	344.06
288.831	330.06
289.062	334.06
289.293	326.06
289.524	334.06
289.755	328.06
289.986	323.06
290.217	338.06
290.448	324.06
290.679	335.06
290.91	325.06
291.141	341.06
291.371	354.06
291.602	332.06
291.833	306.06
292.064	340.06
292.295	339.06
292.526	338.06
292.757	337.06
292.987	327.06
293.218	321.06
293.449	316.06
293.68	342.06
293.91	336.06
294.141	331.06
294.372	312.06
294.603	316.06
294.833	325.06
295.064	338.06
295.295	330.06
295.525	332.06
295.756	335.06
295.987	327.06
296.217	352.06
296.448	377.06
296.679	328.06
296.909	347.06
297.14	328.06
297.37	339.06
297.601	323.06
297.831	343.06
298.062	314.06
298.292	324.06
298.523	350.06
298.753	346.06
298.984	340.06
299.214	338.06
299.445	354.06
299.675	339.06
299.905	348.06
300.136	330.06
300.366	346.06
300.597	354.06
300.827	356.06
301.057	353.06
301.288	375.06
301.518	369.06
301.748	356.06
301.979	375.06
302.209	373.06
302.439	357.06
302.669	385.06
302.9	372.06
303.13	364.06
303.36	364.06
303.59	374.06
303.82	385.06
304.051	382.06
304.281	371.06
304.511	373.06
304.741	356.06
304.971	348.06
305.201	383.06
305.431	379.06
305.661	370.06
305.891	362.06
306.121	378.06
306.352	369.06
306.582	380.06
306.812	381.06
307.042	381.06
307.272	375.06
307.502	353.06
307.731	375.06
307.961	360.06
308.191	375.06
308.421	397.06
308.651	378.06
308.881	388.06
309.111	388.06
309.341	382.06
309.571	396.06
309.8	400.06
310.03	405.06
310.26	417.06
310.49	420.06
310.72	447.06
310.949	447.06
311.179	442.06
311.409	425.06
311.639	407.06
311.868	427.06
312.098	442.06
312.328	445.06
312.557	455.06
312.787	465.06
313.017	443.06
313.246	442.06
313.476	426.06
313.706	418.06
313.935	445.06
314.165	455.06
314.394	448.06
314.624	454.06
314.853	431.06
315.083	431.06
315.312	424.06
315.542	415.06
315.771	399.06
316.001	415.06
316.23	420.06
316.46	409.06
316.689	422.06
316.919	439.06
317.148	435.06
317.377	447.06
317.607	438.06
317.836	424.06
318.065	408.06
318.295	426.06
318.524	424.06
318.753	416.06
318.983	425.06
319.212	424.06
319.441	439.06
319.67	438.06
319.9	452.06
320.129	437.06
320.358	425.06
320.587	443.06
320.816	441.06
321.046	449.06
321.275	446.06
321.504	444.06
321.733	444.06
321.962	444.06
322.191	454.06
322.42	489.06
322.649	512.06
322.878	523.06
323.108	539.06
323.337	556.06
323.566	592.06
323.795	637.06
324.024	687.06
324.253	823.06
324.482	1196.06
324.71	1811.06
324.939	2672.06
325.168	2296.06
325.397	1209.06
325.626	797.06
325.855	652.06
326.084	608.06
326.313	587.06
326.542	601.06
326.77	626.06
326.999	778.06
327.228	1080.06
327.457	1657.06
327.686	2042.06
327.914	1340.06
328.143	886.06
328.372	767.06
328.6	680.06
328.829	656.06
329.058	685.06
329.287	731.06
329.515	668.06
329.744	629.06
329.972	608.06
330.201	685.06
330.43	732.06
330.658	742.06
330.887	741.06
331.115	724.06
331.344	590.06
331.572	595.06
331.801	579.06
332.03	579.06
332.258	540.06
332.486	520.06
332.715	513.06
332.943	525.06
333.172	519.06
333.4	544.06
333.629	550.06
333.857	563.06
334.085	612.06
334.314	645.06
334.542	711.06
334.771	738.06
334.999	641.06
335.227	581.06
335.455	553.06
335.684	529.06
335.912	513.06
336.14	499.06
336.369	502.06
336.597	498.06
336.825	501.06
337.053	490.06
337.281	466.06
337.51	492.06
337.738	475.06
337.966	497.06
338.194	490.06
338.422	509.06
338.65	482.06
338.878	469.06
339.106	478.06
339.334	453.06
339.562	472.06
339.79	455.06
340.018	480.06
340.246	453.06
340.474	508.06
340.702	475.06
340.93	483.06
341.158	467.06
341.386	477.06
341.614	482.06
341.842	465.06
342.07	449.06
342.298	479.06
342.526	469.06
342.754	455.06
342.981	457.06
343.209	463.06
343.437	461.06
343.665	447.06
343.893	461.06
344.12	488.06
344.348	474.06
344.576	481.06
344.804	470.06
345.031	502.06
345.259	485.06
345.487	472.06
345.714	449.06
345.942	459.06
346.17	470.06
346.397	458.06
346.625	467.06
346.853	468.06
347.08	429.06
347.308	439.06
347.535	468.06
347.763	471.06
347.99	486.06
348.218	457.06
348.445	503.06
348.673	484.06
348.9	471.06
349.128	438.06
349.355	443.06
349.583	444.06
349.81	423.06
350.037	424.06
350.265	411.06
350.492	443.06
350.72	417.06
350.947	443.06
351.174	469.06
351.402	473.06
351.629	452.06
351.856	461.06
352.083	465.06
352.311	460.06
352.538	467.06
352.765	456.06
352.992	455.06
353.22	457.06
353.447	438.06
353.674	458.06
353.901	436.06
354.128	406.06
354.355	415.06
354.583	424.06
354.81	411.06
355.037	421.06
355.264	414.06
355.491	401.06
355.718	426.06
355.945	415.06
356.172	417.06
356.399	416.06
356.626	424.06
356.853	425.06
357.08	401.06
357.307	412.06
357.534	396.06
357.761	422.06
357.988	429.06
358.215	416.06
358.441	421.06
358.668	435.06
358.895	410.06
359.122	433.06
359.349	451.06
359.576	456.06
359.802	465.06
360.029	492.06
360.256	521.06
360.483	497.06
360.709	450.06
360.936	467.06
361.163	425.06
361.39	446.06
361.616	445.06
361.843	444.06
362.07	444.06
362.296	451.06
362.523	465.06
362.749	448.06
362.976	419.06
363.203	448.06
363.429	428.06
363.656	423.06
363.882	429.06
364.109	420.06
364.335	415.06
364.562	421.06
364.788	441.06
365.015	436.06
365.241	396.06
365.468	421.06
365.694	414.06
365.92	428.06
366.147	424.06
366.373	419.06
366.599	423.06
366.826	416.06
367.052	390.06
367.278	423.06
367.505	417.06
367.731	407.06
367.957	431.06
368.184	422.06
368.41	421.06
368.636	428.06
368.862	450.06
369.089	419.06
369.315	415.06
369.541	409.06
369.767	429.06
369.993	406.06
370.219	417.06
370.445	394.06
370.672	417.06
370.898	408.06
371.124	401.06
371.35	415.06
371.576	401.06
371.802	408.06
372.028	391.06
372.254	417.06
372.48	391.06
372.706	403.06
372.932	389.06
373.158	410.06
373.384	402.06
373.61	405.06
373.835	411.06
374.061	409.06
374.287	405.06
374.513	431.06
374.739	432.06
374.965	419.06
375.191	407.06
375.416	416.06
375.642	426.06
375.868	433.06
376.094	395.06
376.319	401.06
376.545	398.06
376.771	398.06
376.997	405.06
377.222	406.06
377.448	397.06
377.674	417.06
377.899	407.06
378.125	380.06
378.35	388.06
378.576	388.06
378.802	394.06
379.027	409.06
379.253	390.06
379.478	392.06
379.704	396.06
379.929	413.06
380.155	406.06
380.38	397.06
380.606	404.06
380.831	421.06
381.057	416.06
381.282	381.06
381.507	394.06
381.733	404.06
381.958	397.06
382.184	411.06
382.409	400.06
382.634	406.06
382.86	426.06
383.085	428.06
383.31	385.06
383.535	401.06
383.761	408.06
383.986	410.06
384.211	427.06
384.436	416.06
384.662	418.06
384.887	424.06
385.112	411.06
385.337	412.06
385.562	422.06
385.787	425.06
386.013	428.06
386.238	444.06
386.463	444.06
386.688	417.06
386.913	423.06
387.138	416.06
387.363	413.06
387.588	417.06
387.813	416.06
388.038	425.06
388.263	449.06
388.488	422.06
388.713	420.06
388.938	456.06
389.163	440.06
389.387	433.06
389.612	420.06
389.837	435.06
390.062	427.06
390.287	435.06
390.512	428.06
390.736	429.06
390.961	425.06
391.186	422.06
391.411	404.06
391.636	401.06
391.86	421.06
392.085	442.06
392.31	442.06
392.534	438.06
392.759	449.06
392.984	417.06
393.208	412.06
393.433	428.06
393.658	435.06
393.882	416.06
394.107	429.06
394.331	430.06
394.556	417.06
394.78	433.06
395.005	441.06
395.229	450.06
395.454	426.06
395.678	449.06
395.903	431.06
396.127	468.06
396.352	475.06
396.576	443.06
396.801	436.06
397.025	449.06
397.249	447.06
397.474	458.06
397.698	468.06
397.922	477.06
398.147	438.06
398.371	468.06
398.595	487.06
398.82	469.06
399.044	488.06
399.268	513.06
399.492	505.06
399.717	534.06
399.941	570.06
400.165	576.06
400.389	589.06
400.613	519.06
400.837	501.06
401.062	475.06
401.286	490.06
401.51	473.06
401.734	474.06
401.958	479.06
402.182	474.06
402.406	509.06
402.63	511.06
402.854	450.06
403.078	485.06
403.302	515.06
403.526	513.06
403.75	507.06
403.974	503.06
404.198	493.06
404.422	503.06
404.645	527.06
404.869	523.06
405.093	565.06
405.317	617.06
405.541	657.06
405.765	605.06
405.988	577.06
406.212	567.06
406.436	580.06
406.66	559.06
406.883	570.06
407.107	575.06
407.331	600.06
407.555	642.06
407.778	677.06
408.002	600.06
408.226	581.06
408.449	539.06
408.673	559.06
408.896	597.06
409.12	615.06
409.344	575.06
409.567	524.06
409.791	508.06
410.014	543.06
410.238	495.06
410.461	481.06
410.685	501.06
410.908	513.06
411.132	579.06
411.355	589.06
411.578	563.06
411.802	501.06
412.025	511.06
412.249	517.06
412.472	547.06
412.695	628.06
412.919	627.06
413.142	552.06
413.365	493.06
413.589	499.06
413.812	482.06
414.035	498.06
414.258	463.06
414.482	468.06
414.705	471.06
414.928	480.06
415.151	485.06
415.374	454.06
415.597	467.06
415.821	466.06
416.044	482.06
416.267	476.06
416.49	475.06
416.713	479.06
416.936	480.06
417.159	467.06
417.382	492.06
417.605	492.06
417.828	505.06
418.051	517.06
418.274	489.06
418.497	465.06
418.72	484.06
418.943	452.06
419.166	490.06
419.389	522.06
419.611	505.06
419.834	504.06
420.057	522.06
420.28	530.06
420.503	541.06
420.726	531.06
420.948	548.06
421.171	586.06
421.394	595.06
421.617	532.06
421.839	508.06
422.062	482.06
422.285	504.06
422.507	567.06
422.73	644.06
422.953	654.06
423.175	543.06
423.398	521.06
423.621	520.06
423.843	531.06
424.066	552.06
424.288	538.06
424.511	552.06
424.733	607.06
424.956	673.06
425.178	679.06
425.401	651.06
425.623	677.06
425.846	591.06
426.068	549.06
426.291	522.06
426.513	531.06
426.735	551.06
426.958	599.06
427.18	651.06
427.402	767.06
427.625	911.06
427.847	810.06
428.069	737.06
428.292	631.06
428.514	542.06
428.736	535.06
428.958	519.06
429.181	539.06
429.403	529.06
429.625	492.06
429.847	551.06
430.069	623.06
430.292	621.06
430.514	531.06
430.736	521.06
430.958	507.06
431.18	469.06
431.402	482.06
431.624	466.06
431.846	463.06
432.068	444.06
432.29	479.06
432.512	465.06
432.734	470.06
432.956	476.06
433.178	501.06
433.4	499.06
433.622	460.06
433.844	478.06
434.066	465.06
434.287	451.06
434.509	475.06
434.731	476.06
434.953	499.06
435.175	499.06
435.397	528.06
435.618	548.06
435.84	599.06
436.062	676.06
436.284	753.06
436.505	647.06
436.727	561.06
436.949	528.06
437.17	512.06
437.392	507.06
437.614	497.06
437.835	547.06
438.057	657.06
438.278	753.06
438.5	730.06
438.721	797.06
438.943	795.06
439.165	625.06
439.386	593.06
439.608	567.06
439.829	549.06
440.05	586.06
440.272	640.06
440.493	593.06
440.715	545.06
440.936	530.06
441.158	479.06
441.379	509.06
441.6	517.06
441.822	531.06
442.043	585.06
442.264	677.06
442.486	722.06
442.707	609.06
442.928	553.06
443.149	568.06
443.371	599.06
443.592	621.06
443.813	723.06
444.034	791.06
444.255	660.06
444.476	566.06
444.698	541.06
444.919	513.06
445.14	656.06
445.361	613.06
445.582	579.06
445.803	623.06
446.024	777.06
446.245	789.06
446.466	699.06
446.687	576.06
446.908	552.06
447.129	515.06
447.35	502.06
447.571	501.06
447.792	482.06
448.013	490.06
448.234	520.06
448.455	577.06
448.675	703.06
448.896	813.06
449.117	694.06
449.338	645.06
449.559	747.06
449.779	875.06
450	673.06
450.221	584.06
450.442	533.06
450.662	505.06
450.883	485.06
451.104	523.06
451.324	511.06
451.545	476.06
451.766	458.06
451.986	448.06
452.207	431.06
452.428	431.06
452.648	448.06
452.869	460.06
453.089	453.06
453.31	468.06
453.53	457.06
453.751	468.06
453.971	447.06
454.192	463.06
454.412	461.06
454.633	439.06
454.853	443.06
455.073	456.06
455.294	457.06
455.514	535.06
455.734	533.06
455.955	466.06
456.175	417.06
456.395	413.06
456.616	407.06
456.836	394.06
457.056	417.06
457.276	399.06
457.497	423.06
457.717	427.06
457.937	401.06
458.157	428.06
458.377	431.06
458.598	440.06
458.818	514.06
459.038	607.06
459.258	622.06
459.478	551.06
459.698	474.06
459.918	461.06
460.138	459.06
460.358	448.06
460.578	465.06
460.798	463.06
461.018	451.06
461.238	458.06
461.458	452.06
461.678	449.06
461.898	465.06
462.118	448.06
462.338	449.06
462.558	468.06
462.777	476.06
462.997	492.06
463.217	472.06
463.437	491.06
463.657	482.06
463.876	474.06
464.096	492.06
464.316	494.06
464.536	513.06
464.755	513.06
464.975	522.06
465.195	530.06
465.414	605.06
465.634	578.06
465.854	512.06
466.073	463.06
466.293	469.06
466.512	446.06
466.732	441.06
466.951	461.06
467.171	453.06
467.391	437.06
467.61	478.06
467.829	469.06
468.049	445.06
468.268	474.06
468.488	454.06
468.707	434.06
468.927	439.06
469.146	427.06
469.365	454.06
469.585	413.06
469.804	424.06
470.023	452.06
470.243	460.06
470.462	455.06
470.681	472.06
470.901	468.06
471.12	488.06
471.339	455.06
471.558	464.06
471.777	449.06
471.997	461.06
472.216	472.06
472.435	550.06
472.654	535.06
472.873	492.06
473.092	477.06
473.311	461.06
473.53	468.06
473.749	489.06
473.968	529.06
474.187	639.06
474.406	667.06
474.625	523.06
474.844	498.06
475.063	478.06
475.282	463.06
475.501	465.06
475.72	463.06
475.939	473.06
476.158	464.06
476.377	466.06
476.596	461.06
476.814	471.06
477.033	481.06
477.252	475.06
477.471	474.06
477.69	505.06
477.908	497.06
478.127	489.06
478.346	485.06
478.564	517.06
478.783	503.06
479.002	515.06
479.22	515.06
479.439	539.06
479.658	543.06
479.876	556.06
480.095	572.06
480.313	583.06
480.532	573.06
480.751	575.06
480.969	585.06
481.188	722.06
481.406	767.06
481.624	659.06
481.843	621.06
482.061	582.06
482.28	576.06
482.498	562.06
482.717	531.06
482.935	560.06
483.153	545.06
483.372	540.06
483.59	547.06
483.808	554.06
484.027	543.06
484.245	532.06
484.463	547.06
484.681	590.06
484.9	545.06
485.118	577.06
485.336	580.06
485.554	538.06
485.772	555.06
485.99	548.06
486.209	548.06
486.427	549.06
486.645	573.06
486.863	604.06
487.081	571.06
487.299	578.06
487.517	575.06
487.735	559.06
487.953	573.06
488.171	595.06
488.389	578.06
488.607	573.06
488.825	599.06
489.043	561.06
489.261	589.06
489.479	595.06
489.696	607.06
489.914	593.06
490.132	621.06
490.35	598.06
490.568	607.06
490.786	612.06
491.003	639.06
491.221	653.06
491.439	667.06
491.657	654.06
491.874	672.06
492.092	660.06
492.31	678.06
492.527	720.06
492.745	710.06
492.963	721.06
493.18	696.06
493.398	730.06
493.615	692.06
493.833	699.06
494.05	719.06
494.268	692.06
494.485	705.06
494.703	712.06
494.92	725.06
495.138	693.06
495.355	699.06
495.573	709.06
495.79	701.06
496.008	695.06
496.225	687.06
496.442	707.06
496.66	668.06
496.877	691.06
497.094	724.06
497.312	678.06
497.529	734.06
497.746	723.06
497.963	694.06
498.181	745.06
498.398	751.06
498.615	771.06
498.832	753.06
499.049	742.06
499.267	757.06
499.484	782.06
499.701	817.06
499.918	850.06
500.135	851.06
500.352	895.06
500.569	911.06
500.786	922.06
501.003	892.06
501.22	887.06
501.437	885.06
501.654	863.06
501.871	844.06
502.088	838.06
502.305	767.06
502.522	787.06
502.739	763.06
502.956	722.06
503.172	744.06
503.389	688.06
503.606	731.06
503.823	723.06
504.04	704.06
504.256	675.06
504.473	681.06
504.69	672.06
504.907	658.06
505.123	684.06
505.34	649.06
505.557	665.06
505.773	678.06
505.99	657.06
506.207	653.06
506.423	659.06
506.64	655.06
506.856	654.06
507.073	644.06
507.289	659.06
507.506	657.06
507.722	675.06
507.939	684.06
508.155	647.06
508.372	631.06
508.588	632.06
508.805	635.06
509.021	653.06
509.238	657.06
509.454	661.06
509.67	646.06
509.887	612.06
510.103	634.06
510.319	651.06
510.536	760.06
510.752	1299.06
510.968	1063.06
511.184	677.06
511.401	653.06
511.617	624.06
511.833	619.06
512.049	631.06
512.265	624.06
512.481	610.06
512.698	610.06
512.914	596.06
513.13	601.06
513.346	611.06
513.562	603.06
513.778	614.06
513.994	611.06
514.21	620.06
514.426	631.06
514.642	702.06
514.858	700.06
515.074	773.06
515.29	933.06
515.506	1378.06
515.721	1152.06
515.937	764.06
516.153	680.06
516.369	652.06
516.585	631.06
516.801	600.06
517.016	600.06
517.232	583.06
517.448	641.06
517.664	607.06
517.879	586.06
518.095	607.06
518.311	617.06
518.527	599.06
518.742	585.06
518.958	587.06
519.173	584.06
519.389	594.06
519.605	605.06
519.82	609.06
520.036	607.06
520.251	659.06
520.467	672.06
520.682	678.06
520.898	667.06
521.113	704.06
521.329	749.06
521.544	851.06
521.76	1087.06
521.975	1845.06
522.19	1815.06
522.406	988.06
522.621	722.06
522.836	628.06
523.052	603.06
523.267	591.06
523.482	562.06
523.698	568.06
523.913	555.06
524.128	565.06
524.343	554.06
524.559	524.06
524.774	527.06
524.989	529.06
525.204	540.06
525.419	535.06
525.634	507.06
525.849	517.06
526.064	490.06
526.28	491.06
526.495	482.06
526.71	465.06
526.925	492.06
527.14	472.06
527.355	471.06
527.57	479.06
527.785	499.06
527.999	487.06
528.214	464.06
528.429	479.06
528.644	490.06
528.859	491.06
529.074	492.06
529.289	529.06
529.503	628.06
529.718	593.06
529.933	517.06
530.148	485.06
530.363	484.06
530.577	479.06
530.792	461.06
531.007	471.06
531.221	469.06
531.436	464.06
531.651	474.06
531.865	454.06
532.08	468.06
532.295	464.06
532.509	443.06
532.724	451.06
532.938	459.06
533.153	459.06
533.367	451.06
533.582	461.06
533.796	467.06
534.011	460.06
534.225	453.06
534.44	456.06
534.654	447.06
534.868	454.06
535.083	462.06
535.297	444.06
535.511	447.06
535.726	473.06
535.94	467.06
536.154	460.06
536.369	459.06
536.583	440.06
536.797	423.06
537.011	441.06
537.225	423.06
537.44	437.06
537.654	463.06
537.868	457.06
538.082	447.06
538.296	461.06
538.51	427.06
538.724	449.06
538.938	427.06
539.153	439.06
539.367	449.06
539.581	445.06
539.795	450.06
540.009	450.06
540.222	423.06
540.436	454.06
540.65	460.06
540.864	452.06
541.078	456.06
541.292	462.06
541.506	433.06
541.72	436.06
541.934	439.06
542.147	427.06
542.361	453.06
542.575	428.06
542.789	449.06
543.002	427.06
543.216	441.06
543.43	437.06
543.644	438.06
543.857	440.06
544.071	453.06
544.285	442.06
544.498	455.06
544.712	440.06
544.925	436.06
545.139	398.06
545.352	413.06
545.566	433.06
545.779	437.06
545.993	420.06
546.206	421.06
546.42	426.06
546.633	424.06
546.847	416.06
547.06	414.06
547.274	436.06
547.487	399.06
547.7	423.06
547.914	416.06
548.127	411.06
548.34	401.06
548.554	405.06
548.767	428.06
548.98	404.06
549.193	410.06
549.407	419.06
549.62	418.06
549.833	416.06
550.046	405.06
550.259	390.06
550.473	417.06
550.686	423.06
550.899	414.06
551.112	404.06
551.325	391.06
551.538	413.06
551.751	402.06
551.964	405.06
552.177	397.06
552.39	403.06
552.603	399.06
552.816	406.06
553.029	420.06
553.242	420.06
553.455	408.06
553.667	440.06
553.88	433.06
554.093	421.06
554.306	428.06
554.519	407.06
554.732	411.06
554.944	407.06
555.157	403.06
555.37	391.06
555.583	398.06
555.795	419.06
556.008	385.06
556.221	373.06
556.433	371.06
556.646	385.06
556.859	375.06
557.071	370.06
557.284	369.06
557.496	374.06
557.709	362.06
557.921	367.06
558.134	371.06
558.346	370.06
558.559	381.06
558.771	375.06
558.984	361.06
559.196	359.06
559.409	383.06
559.621	360.06
559.833	371.06
560.046	375.06
560.258	336.06
560.47	371.06
560.683	359.06
560.895	345.06
561.107	353.06
561.32	349.06
561.532	361.06
561.744	372.06
561.956	347.06
562.168	355.06
562.381	372.06
562.593	363.06
562.805	385.06
563.017	365.06
563.229	358.06
563.441	381.06
563.653	370.06
563.865	380.06
564.077	373.06
564.289	393.06
564.501	363.06
564.713	371.06
564.925	385.06
565.137	379.06
565.349	398.06
565.561	379.06
565.773	361.06
565.985	403.06
566.197	405.06
566.408	402.06
566.62	394.06
566.832	417.06
567.044	414.06
567.255	436.06
567.467	433.06
567.679	428.06
567.891	431.06
568.102	441.06
568.314	436.06
568.526	449.06
568.737	409.06
568.949	393.06
569.161	397.06
569.372	378.06
569.584	380.06
569.795	365.06
570.007	396.06
570.218	423.06
570.43	413.06
570.641	369.06
570.853	355.06
571.064	355.06
571.276	356.06
571.487	356.06
571.698	345.06
571.91	351.06
572.121	335.06
572.333	336.06
572.544	325.06
572.755	340.06
572.966	324.06
573.178	333.06
573.389	340.06
573.6	309.06
573.811	325.06
574.023	325.06
574.234	320.06
574.445	317.06
574.656	311.06
574.867	309.06
575.078	309.06
575.289	322.06
575.501	315.06
575.712	310.06
575.923	323.06
576.134	321.06
576.345	328.06
576.556	297.06
576.767	311.06
576.978	309.06
577.188	320.06
577.399	315.06
577.61	297.06
577.821	290.06
578.032	283.06
578.243	359.06
578.454	605.06
578.665	451.06
578.875	331.06
579.086	288.06
579.297	295.06
579.508	300.06
579.718	297.06
579.929	293.06
580.14	281.06
580.35	283.06
580.561	290.06
580.772	321.06
580.982	298.06
581.193	275.06
581.403	284.06
581.614	276.06
581.825	285.06
582.035	300.06
582.246	289.06
582.456	307.06
582.667	272.06
582.877	279.06
583.087	298.06
583.298	278.06
583.508	289.06
583.719	280.06
583.929	288.06
584.139	291.06
584.35	297.06
584.56	297.06
584.77	282.06
584.981	270.06
585.191	281.06
585.401	307.06
585.611	284.06
585.821	294.06
586.032	292.06
586.242	274.06
586.452	261.06
586.662	278.06
586.872	277.06
587.082	282.06
587.292	283.06
587.502	259.06
587.713	247.06
587.923	285.06
588.133	278.06
588.343	280.06
588.553	256.06
588.762	279.06
588.972	261.06
589.182	281.06
589.392	304.06
589.602	293.06
589.812	303.06
590.022	302.06
590.232	278.06
590.441	277.06
590.651	283.06
590.861	269.06
591.071	279.06
591.281	279.06
591.49	268.06
591.7	269.06
591.91	278.06
592.119	269.06
592.329	289.06
592.539	288.06
592.748	276.06
592.958	283.06
593.167	299.06
593.377	284.06
593.587	284.06
593.796	268.06
594.006	284.06
594.215	269.06
594.424	279.06
594.634	292.06
594.843	283.06
595.053	301.06
595.262	275.06
595.472	266.06
595.681	265.06
595.89	262.06
596.1	279.06
596.309	264.06
596.518	265.06
596.727	271.06
596.937	273.06
597.146	269.06
597.355	268.06
597.564	260.06
597.774	269.06
597.983	269.06
598.192	268.06
598.401	249.06
598.61	233.06
598.819	251.06
599.028	261.06
599.237	255.06
599.446	243.06
599.655	264.06
599.864	244.06
600.073	241.06
600.282	243.06
600.491	253.06
600.7	227.06
600.909	234.06
601.118	234.06
601.327	248.06
601.536	236.06
601.745	247.06
601.953	246.06
602.162	240.06
602.371	236.06
602.58	252.06
602.789	236.06
602.997	227.06
603.206	244.06
603.415	240.06
603.623	241.06
603.832	239.06
604.041	255.06
604.249	253.06
604.458	228.06
604.666	241.06
604.875	223.06
605.084	239.06
605.292	241.06
605.501	226.06
605.709	232.06
605.918	217.06
606.126	233.06
606.334	243.06
606.543	216.06
606.751	228.06
606.96	230.06
607.168	239.06
607.376	229.06
607.585	248.06
607.793	238.06
608.001	240.06
608.21	229.06
608.418	231.06
608.626	239.06
608.834	246.06
609.043	220.06
609.251	231.06
609.459	240.06
609.667	231.06
609.875	236.06
610.083	224.06
610.291	233.06
610.499	233.06
610.707	227.06
610.916	239.06
611.124	231.06
611.332	228.06
611.54	232.06
611.748	246.06
611.955	243.06
612.163	255.06
612.371	221.06
612.579	242.06
612.787	224.06
612.995	220.06
613.203	254.06
613.411	220.06
613.618	224.06
613.826	225.06
614.034	217.06
614.242	209.06
614.449	225.06
614.657	212.06
614.865	231.06
615.072	224.06
615.28	217.06
615.488	211.06
615.695	222.06
615.903	230.06
616.111	241.06
616.318	232.06
616.526	232.06
616.733	219.06
616.941	236.06
617.148	222.06
617.356	215.06
617.563	223.06
617.771	229.06
617.978	212.06
618.185	238.06
618.393	209.06
618.6	222.06
618.807	217.06
619.015	229.06
619.222	213.06
619.429	214.06
619.637	208.06
619.844	202.06
620.051	204.06
620.258	226.06
620.466	207.06
620.673	218.06
620.88	211.06
621.087	223.06
621.294	198.06
621.501	225.06
621.708	214.06
621.915	210.06
622.122	216.06
622.329	200.06
622.536	205.06
622.743	215.06
622.95	213.06
623.157	203.06
623.364	215.06
623.571	207.06
623.778	213.06
623.985	196.06
624.192	199.06
624.399	198.06
624.606	205.06
624.812	207.06
625.019	198.06
625.226	199.06
625.433	208.06
625.639	189.06
625.846	203.06
626.053	184.06
626.259	201.06
626.466	194.06
626.673	199.06
626.879	191.06
627.086	199.06
627.293	210.06
627.499	190.06
627.706	180.06
627.912	201.06
628.119	195.06
628.325	187.06
628.532	189.06
628.738	191.06
628.945	191.06
629.151	195.06
629.357	192.06
629.564	204.06
629.77	199.06
629.976	189.06
630.183	197.06
630.389	187.06
630.595	184.06
630.802	182.06
631.008	196.06
631.214	183.06
631.42	170.06
631.627	202.06
631.833	190.06
632.039	180.06
632.245	176.06
632.451	190.06
632.657	191.06
632.863	180.06
633.069	179.06
633.275	168.06
633.481	170.06
633.688	170.06
633.893	186.06
634.099	172.06
634.305	171.06
634.511	174.06
634.717	173.06
634.923	184.06
635.129	166.06
635.335	171.06
635.541	183.06
635.747	171.06
635.952	167.06
636.158	178.06
636.364	198.06
636.57	187.06
636.775	197.06
636.981	185.06
637.187	174.06
637.392	172.06
637.598	167.06
637.804	179.06
638.009	181.06
638.215	175.06
638.421	177.06
638.626	168.06
638.832	176.06
639.037	168.06
639.243	171.06
639.448	167.06
639.654	168.06
639.859	157.06
640.065	171.06
640.27	164.06
640.475	164.06
640.681	158.06
640.886	166.06
641.091	171.06
641.297	175.06
641.502	171.06
641.707	163.06
641.913	156.06
642.118	175.06
642.323	153.06
642.528	154.06
642.733	181.06
642.939	177.06
643.144	183.06
643.349	180.06
643.554	160.06
643.759	157.06
643.964	155.06
644.169	167.06
644.374	151.06
644.579	150.06
644.784	154.06
644.989	173.06
645.194	165.06
645.399	162.06
645.604	163.06
645.809	154.06
646.014	159.06
646.219	168.06
646.423	174.06
646.628	145.06
646.833	150.06
647.038	166.06
647.243	154.06
647.447	161.06
647.652	166.06
647.857	168.06
648.062	152.06
648.266	155.06
648.471	162.06
648.676	167.06
648.88	161.06
649.085	164.06
649.289	171.06
649.494	151.06
649.698	174.06
649.903	185.06
650.107	171.06
650.312	179.06
650.516	143.06
650.721	163.06
650.925	145.06
651.13	144.06
651.334	141.06
651.539	134.06
651.743	141.06
651.947	135.06
652.152	147.06
652.356	133.06
652.56	142.06
652.764	153.06
652.969	128.06
653.173	121.06
653.377	124.06
653.581	139.06
653.785	137.06
653.99	151.06
654.194	128.06
654.398	133.06
654.602	130.06
654.806	128.06
655.01	130.06
655.214	132.06
655.418	132.06
655.622	135.06
655.826	144.06
656.03	127.06
656.234	125.06
656.438	122.06
656.642	125.06
656.846	128.06
657.049	122.06
657.253	122.06
657.457	124.06
657.661	116.06
657.865	120.06
658.068	109.06
658.272	105.06
658.476	106.06
658.68	99.06
658.883	99.06
659.087	92.06
659.291	91.06
659.494	96.06
659.698	86.06
659.901	104.06
660.105	104.06
660.309	107.06
660.512	104.06
660.716	103.06
660.919	97.06
661.123	88.06
661.326	90.06
661.53	98.06
661.733	88.06
661.936	80.06
662.14	84.06
662.343	79.06
662.546	95.06
662.75	87.06
662.953	88.06
663.156	83.06
663.36	83.06
663.563	84.06
663.766	83.06
663.969	91.06
664.173	84.06
664.376	78.06
664.579	77.06
664.782	90.06
664.985	82.06
665.188	75.06
665.391	95.06
665.594	80.06
665.797	73.06
666	68.06
666.203	89.06
666.406	100.06
666.609	87.06
666.812	81.06
667.015	75.06
667.218	77.06
667.421	87.06
667.624	81.06
667.827	71.06
668.03	78.06
668.232	62.06
668.435	83.06
668.638	72.06
668.841	79.06
669.043	80.06
669.246	82.06
669.449	87.06
669.651	82.06
669.854	85.06
670.057	81.06
670.259	76.06
670.462	82.06
670.665	87.06
670.867	88.06
671.07	102.06
671.272	86.06
671.475	85.06
671.677	78.06
671.88	75.06
672.082	96.06
672.284	88.06
672.487	80.06
672.689	71.06
672.892	81.06
