Data from 1989.PennyLincolnUp.Lamp.En5.5.200Scan.071819.P2_HRD10591_17-23-59-973.txt Node
Date: Thu Jul 18 17:23:59 EDT 2019
User: cochatt
Spectrometer: HR+D1059
Trigger mode: 1
Integration Time (sec): 1.000000E-1
Scans to average: 1
Electric dark correction enabled: true
Nonlinearity correction enabled: false
Boxcar width: 0
XAxis mode: Wavelengths
Number of Pixels in Spectrum: 2048
>>>>>Begin Spectral Data<<<<<
223.165	-10.31
223.4	-10.31
223.635	-10.31
223.869	-18.31
224.104	-33.31
224.338	-10.31
224.573	0.69
224.808	-13.31
225.042	-0.31
225.277	-4.31
225.511	-5.31
225.746	5.69
225.98	0.69
226.215	-1.31
226.449	20.69
226.683	18.69
226.918	33.69
227.152	16.69
227.387	27.69
227.621	53.69
227.856	43.69
228.09	38.69
228.324	51.69
228.559	54.69
228.793	73.69
229.027	105.69
229.262	113.69
229.496	130.69
229.73	137.69
229.964	147.69
230.199	125.69
230.433	130.69
230.667	122.69
230.901	108.69
231.136	100.69
231.37	120.69
231.604	91.69
231.838	105.69
232.072	121.69
232.306	114.69
232.541	123.69
232.775	122.69
233.009	122.69
233.243	132.69
233.477	125.69
233.711	115.69
233.945	116.69
234.179	117.69
234.413	115.69
234.647	124.69
234.881	114.69
235.115	107.69
235.349	123.69
235.583	118.69
235.817	133.69
236.051	130.69
236.285	139.69
236.519	140.69
236.753	141.69
236.987	150.69
237.221	195.69
237.455	239.69
237.689	188.69
237.922	149.69
238.156	141.69
238.39	137.69
238.624	133.69
238.858	137.69
239.091	113.69
239.325	104.69
239.559	138.69
239.793	142.69
240.027	141.69
240.26	140.69
240.494	167.69
240.728	158.69
240.961	143.69
241.195	147.69
241.429	150.69
241.662	149.69
241.896	144.69
242.13	138.69
242.363	149.69
242.597	141.69
242.83	146.69
243.064	137.69
243.298	139.69
243.531	143.69
243.765	146.69
243.998	164.69
244.232	153.69
244.465	149.69
244.699	140.69
244.932	148.69
245.166	166.69
245.399	158.69
245.633	158.69
245.866	144.69
246.099	144.69
246.333	157.69
246.566	150.69
246.8	158.69
247.033	165.69
247.266	160.69
247.5	157.69
247.733	172.69
247.966	181.69
248.2	180.69
248.433	185.69
248.666	183.69
248.899	208.69
249.133	205.69
249.366	221.69
249.599	195.69
249.832	187.69
250.066	196.69
250.299	205.69
250.532	203.69
250.765	193.69
250.998	230.69
251.231	241.69
251.465	222.69
251.698	218.69
251.931	227.69
252.164	205.69
252.397	213.69
252.63	218.69
252.863	219.69
253.096	235.69
253.329	247.69
253.562	230.69
253.795	236.69
254.028	211.69
254.261	228.69
254.494	241.69
254.727	279.69
254.96	293.69
255.193	286.69
255.426	270.69
255.659	250.69
255.892	225.69
256.124	249.69
256.357	233.69
256.59	223.69
256.823	218.69
257.056	229.69
257.289	229.69
257.521	225.69
257.754	226.69
257.987	224.69
258.22	211.69
258.452	223.69
258.685	235.69
258.918	209.69
259.151	219.69
259.383	229.69
259.616	242.69
259.849	252.69
260.081	244.69
260.314	276.69
260.547	270.69
260.779	272.69
261.012	259.69
261.244	261.69
261.477	247.69
261.71	246.69
261.942	252.69
262.175	279.69
262.407	250.69
262.64	237.69
262.872	226.69
263.105	210.69
263.337	225.69
263.57	243.69
263.802	214.69
264.035	230.69
264.267	222.69
264.499	226.69
264.732	239.69
264.964	219.69
265.197	222.69
265.429	218.69
265.661	225.69
265.894	232.69
266.126	225.69
266.358	242.69
266.591	226.69
266.823	227.69
267.055	233.69
267.287	238.69
267.52	250.69
267.752	245.69
267.984	233.69
268.216	255.69
268.448	259.69
268.681	239.69
268.913	260.69
269.145	279.69
269.377	313.69
269.609	291.69
269.841	298.69
270.073	294.69
270.306	319.69
270.538	331.69
270.77	342.69
271.002	330.69
271.234	335.69
271.466	331.69
271.698	324.69
271.93	332.69
272.162	333.69
272.394	343.69
272.626	335.69
272.858	322.69
273.09	303.69
273.322	278.69
273.553	292.69
273.785	275.69
274.017	276.69
274.249	268.69
274.481	282.69
274.713	285.69
274.945	278.69
275.176	289.69
275.408	292.69
275.64	267.69
275.872	279.69
276.104	294.69
276.335	276.69
276.567	298.69
276.799	317.69
277.031	333.69
277.262	312.69
277.494	315.69
277.726	323.69
277.957	309.69
278.189	306.69
278.421	287.69
278.652	291.69
278.884	279.69
279.115	283.69
279.347	292.69
279.579	287.69
279.81	273.69
280.042	275.69
280.273	281.69
280.505	278.69
280.736	285.69
280.968	276.69
281.199	289.69
281.431	283.69
281.662	278.69
281.894	284.69
282.125	286.69
282.356	310.69
282.588	325.69
282.819	311.69
283.051	296.69
283.282	284.69
283.513	282.69
283.745	282.69
283.976	297.69
284.207	294.69
284.439	296.69
284.67	290.69
284.901	301.69
285.132	287.69
285.364	291.69
285.595	302.69
285.826	300.69
286.057	292.69
286.288	293.69
286.52	310.69
286.751	304.69
286.982	305.69
287.213	317.69
287.444	291.69
287.675	300.69
287.906	298.69
288.138	305.69
288.369	313.69
288.6	305.69
288.831	306.69
289.062	292.69
289.293	310.69
289.524	290.69
289.755	307.69
289.986	319.69
290.217	291.69
290.448	316.69
290.679	297.69
290.91	309.69
291.141	295.69
291.371	304.69
291.602	294.69
291.833	315.69
292.064	293.69
292.295	304.69
292.526	319.69
292.757	289.69
292.987	315.69
293.218	309.69
293.449	320.69
293.68	315.69
293.91	306.69
294.141	307.69
294.372	292.69
294.603	315.69
294.833	321.69
295.064	311.69
295.295	316.69
295.525	310.69
295.756	303.69
295.987	321.69
296.217	357.69
296.448	339.69
296.679	312.69
296.909	301.69
297.14	299.69
297.37	318.69
297.601	325.69
297.831	311.69
298.062	338.69
298.292	335.69
298.523	328.69
298.753	323.69
298.984	330.69
299.214	324.69
299.445	321.69
299.675	334.69
299.905	335.69
300.136	327.69
300.366	331.69
300.597	324.69
300.827	352.69
301.057	337.69
301.288	339.69
301.518	347.69
301.748	335.69
301.979	334.69
302.209	345.69
302.439	351.69
302.669	327.69
302.9	344.69
303.13	331.69
303.36	362.69
303.59	353.69
303.82	364.69
304.051	338.69
304.281	347.69
304.511	347.69
304.741	346.69
304.971	339.69
305.201	327.69
305.431	330.69
305.661	329.69
305.891	340.69
306.121	337.69
306.352	369.69
306.582	350.69
306.812	343.69
307.042	343.69
307.272	339.69
307.502	340.69
307.731	340.69
307.961	349.69
308.191	359.69
308.421	344.69
308.651	338.69
308.881	348.69
309.111	356.69
309.341	347.69
309.571	360.69
309.8	364.69
310.03	383.69
310.26	380.69
310.49	379.69
310.72	382.69
310.949	425.69
311.179	441.69
311.409	407.69
311.639	409.69
311.868	403.69
312.098	402.69
312.328	390.69
312.557	408.69
312.787	422.69
313.017	424.69
313.246	412.69
313.476	374.69
313.706	404.69
313.935	395.69
314.165	413.69
314.394	427.69
314.624	413.69
314.853	400.69
315.083	384.69
315.312	387.69
315.542	396.69
315.771	380.69
316.001	381.69
316.23	399.69
316.46	384.69
316.689	411.69
316.919	402.69
317.148	424.69
317.377	406.69
317.607	405.69
317.836	407.69
318.065	402.69
318.295	381.69
318.524	405.69
318.753	397.69
318.983	400.69
319.212	425.69
319.441	409.69
319.67	403.69
319.9	413.69
320.129	379.69
320.358	409.69
320.587	413.69
320.816	403.69
321.046	431.69
321.275	416.69
321.504	429.69
321.733	412.69
321.962	452.69
322.191	440.69
322.42	461.69
322.649	458.69
322.878	462.69
323.108	476.69
323.337	530.69
323.566	549.69
323.795	554.69
324.024	620.69
324.253	760.69
324.482	1069.69
324.71	1634.69
324.939	2321.69
325.168	2094.69
325.397	1047.69
325.626	708.69
325.855	589.69
326.084	564.69
326.313	554.69
326.542	534.69
326.77	573.69
326.999	729.69
327.228	987.69
327.457	1456.69
327.686	1747.69
327.914	1194.69
328.143	783.69
328.372	677.69
328.6	612.69
328.829	591.69
329.058	609.69
329.287	625.69
329.515	584.69
329.744	510.69
329.972	531.69
330.201	517.69
330.43	563.69
330.658	557.69
330.887	618.69
331.115	607.69
331.344	557.69
331.572	528.69
331.801	500.69
332.03	502.69
332.258	486.69
332.486	475.69
332.715	470.69
332.943	451.69
333.172	470.69
333.4	462.69
333.629	470.69
333.857	472.69
334.085	474.69
334.314	463.69
334.542	469.69
334.771	492.69
334.999	473.69
335.227	455.69
335.455	460.69
335.684	468.69
335.912	444.69
336.14	462.69
336.369	458.69
336.597	470.69
336.825	490.69
337.053	463.69
337.281	433.69
337.51	440.69
337.738	421.69
337.966	469.69
338.194	447.69
338.422	444.69
338.65	438.69
338.878	440.69
339.106	447.69
339.334	431.69
339.562	452.69
339.79	437.69
340.018	436.69
340.246	439.69
340.474	437.69
340.702	447.69
340.93	426.69
341.158	440.69
341.386	435.69
341.614	463.69
341.842	447.69
342.07	426.69
342.298	397.69
342.526	414.69
342.754	416.69
342.981	431.69
343.209	402.69
343.437	443.69
343.665	441.69
343.893	417.69
344.12	429.69
344.348	439.69
344.576	465.69
344.804	441.69
345.031	461.69
345.259	471.69
345.487	451.69
345.714	461.69
345.942	426.69
346.17	441.69
346.397	419.69
346.625	416.69
346.853	417.69
347.08	439.69
347.308	411.69
347.535	420.69
347.763	436.69
347.99	448.69
348.218	420.69
348.445	449.69
348.673	428.69
348.9	446.69
349.128	413.69
349.355	407.69
349.583	401.69
349.81	415.69
350.037	428.69
350.265	402.69
350.492	417.69
350.72	413.69
350.947	414.69
351.174	435.69
351.402	436.69
351.629	415.69
351.856	433.69
352.083	447.69
352.311	412.69
352.538	413.69
352.765	438.69
352.992	439.69
353.22	436.69
353.447	433.69
353.674	418.69
353.901	419.69
354.128	405.69
354.355	392.69
354.583	393.69
354.81	396.69
355.037	380.69
355.264	363.69
355.491	369.69
355.718	387.69
355.945	383.69
356.172	395.69
356.399	395.69
356.626	399.69
356.853	377.69
357.08	398.69
357.307	373.69
357.534	400.69
357.761	385.69
357.988	386.69
358.215	400.69
358.441	380.69
358.668	387.69
358.895	379.69
359.122	395.69
359.349	390.69
359.576	423.69
359.802	430.69
360.029	467.69
360.256	489.69
360.483	466.69
360.709	433.69
360.936	399.69
361.163	420.69
361.39	418.69
361.616	424.69
361.843	395.69
362.07	427.69
362.296	425.69
362.523	405.69
362.749	417.69
362.976	426.69
363.203	398.69
363.429	379.69
363.656	402.69
363.882	416.69
364.109	405.69
364.335	413.69
364.562	392.69
364.788	403.69
365.015	402.69
365.241	410.69
365.468	421.69
365.694	411.69
365.92	426.69
366.147	389.69
366.373	403.69
366.599	381.69
366.826	393.69
367.052	392.69
367.278	373.69
367.505	396.69
367.731	404.69
367.957	412.69
368.184	402.69
368.41	419.69
368.636	411.69
368.862	408.69
369.089	403.69
369.315	410.69
369.541	401.69
369.767	385.69
369.993	415.69
370.219	390.69
370.445	379.69
370.672	393.69
370.898	390.69
371.124	404.69
371.35	400.69
371.576	379.69
371.802	392.69
372.028	381.69
372.254	399.69
372.48	398.69
372.706	379.69
372.932	381.69
373.158	392.69
373.384	396.69
373.61	379.69
373.835	381.69
374.061	391.69
374.287	391.69
374.513	411.69
374.739	379.69
374.965	371.69
375.191	381.69
375.416	396.69
375.642	382.69
375.868	381.69
376.094	389.69
376.319	397.69
376.545	393.69
376.771	375.69
376.997	393.69
377.222	381.69
377.448	377.69
377.674	377.69
377.899	371.69
378.125	386.69
378.35	368.69
378.576	378.69
378.802	372.69
379.027	379.69
379.253	369.69
379.478	348.69
379.704	366.69
379.929	381.69
380.155	369.69
380.38	374.69
380.606	371.69
380.831	371.69
381.057	377.69
381.282	375.69
381.507	366.69
381.733	386.69
381.958	377.69
382.184	387.69
382.409	409.69
382.634	377.69
382.86	381.69
383.085	405.69
383.31	379.69
383.535	382.69
383.761	374.69
383.986	393.69
384.211	394.69
384.436	407.69
384.662	390.69
384.887	407.69
385.112	397.69
385.337	396.69
385.562	397.69
385.787	407.69
386.013	425.69
386.238	419.69
386.463	425.69
386.688	409.69
386.913	413.69
387.138	413.69
387.363	399.69
387.588	405.69
387.813	387.69
388.038	416.69
388.263	425.69
388.488	418.69
388.713	407.69
388.938	422.69
389.163	413.69
389.387	411.69
389.612	395.69
389.837	414.69
390.062	401.69
390.287	403.69
390.512	413.69
390.736	413.69
390.961	392.69
391.186	397.69
391.411	407.69
391.636	429.69
391.86	404.69
392.085	415.69
392.31	425.69
392.534	400.69
392.759	402.69
392.984	428.69
393.208	416.69
393.433	417.69
393.658	431.69
393.882	406.69
394.107	405.69
394.331	397.69
394.556	400.69
394.78	397.69
395.005	419.69
395.229	403.69
395.454	420.69
395.678	413.69
395.903	446.69
396.127	432.69
396.352	434.69
396.576	426.69
396.801	421.69
397.025	414.69
397.249	418.69
397.474	437.69
397.698	430.69
397.922	425.69
398.147	460.69
398.371	458.69
398.595	449.69
398.82	468.69
399.044	467.69
399.268	469.69
399.492	458.69
399.717	494.69
399.941	518.69
400.165	543.69
400.389	577.69
400.613	534.69
400.837	469.69
401.062	452.69
401.286	463.69
401.51	467.69
401.734	469.69
401.958	450.69
402.182	451.69
402.406	472.69
402.63	477.69
402.854	475.69
403.078	476.69
403.302	487.69
403.526	465.69
403.75	462.69
403.974	463.69
404.198	471.69
404.422	454.69
404.645	465.69
404.869	449.69
405.093	499.69
405.317	508.69
405.541	548.69
405.765	500.69
405.988	467.69
406.212	509.69
406.436	524.69
406.66	556.69
406.883	532.69
407.107	542.69
407.331	557.69
407.555	630.69
407.778	629.69
408.002	575.69
408.226	537.69
408.449	527.69
408.673	541.69
408.896	587.69
409.12	588.69
409.344	570.69
409.567	511.69
409.791	492.69
410.014	487.69
410.238	486.69
410.461	471.69
410.685	475.69
410.908	500.69
411.132	513.69
411.355	565.69
411.578	526.69
411.802	469.69
412.025	473.69
412.249	474.69
412.472	472.69
412.695	475.69
412.919	468.69
413.142	478.69
413.365	446.69
413.589	437.69
413.812	438.69
414.035	442.69
414.258	442.69
414.482	442.69
414.705	441.69
414.928	427.69
415.151	427.69
415.374	455.69
415.597	419.69
415.821	430.69
416.044	441.69
416.267	445.69
416.49	441.69
416.713	439.69
416.936	461.69
417.159	457.69
417.382	438.69
417.605	438.69
417.828	456.69
418.051	468.69
418.274	476.69
418.497	458.69
418.72	437.69
418.943	421.69
419.166	458.69
419.389	478.69
419.611	488.69
419.834	481.69
420.057	462.69
420.28	477.69
420.503	464.69
420.726	449.69
420.948	495.69
421.171	523.69
421.394	540.69
421.617	486.69
421.839	462.69
422.062	463.69
422.285	500.69
422.507	561.69
422.73	630.69
422.953	600.69
423.175	506.69
423.398	503.69
423.621	500.69
423.843	512.69
424.066	499.69
424.288	510.69
424.511	529.69
424.733	585.69
424.956	655.69
425.178	634.69
425.401	634.69
425.623	623.69
425.846	569.69
426.068	527.69
426.291	503.69
426.513	486.69
426.735	543.69
426.958	557.69
427.18	620.69
427.402	766.69
427.625	858.69
427.847	749.69
428.069	619.69
428.292	544.69
428.514	511.69
428.736	507.69
428.958	480.69
429.181	458.69
429.403	455.69
429.625	485.69
429.847	519.69
430.069	584.69
430.292	573.69
430.514	505.69
430.736	485.69
430.958	472.69
431.18	464.69
431.402	450.69
431.624	425.69
431.846	445.69
432.068	445.69
432.29	448.69
432.512	443.69
432.734	456.69
432.956	441.69
433.178	461.69
433.4	460.69
433.622	437.69
433.844	443.69
434.066	456.69
434.287	436.69
434.509	429.69
434.731	458.69
434.953	474.69
435.175	478.69
435.397	492.69
435.618	515.69
435.84	560.69
436.062	646.69
436.284	726.69
436.505	586.69
436.727	561.69
436.949	493.69
437.17	471.69
437.392	475.69
437.614	500.69
437.835	537.69
438.057	641.69
438.278	723.69
438.5	725.69
438.721	804.69
438.943	765.69
439.165	589.69
439.386	537.69
439.608	535.69
439.829	519.69
440.05	552.69
440.272	611.69
440.493	568.69
440.715	511.69
440.936	502.69
441.158	494.69
441.379	491.69
441.6	489.69
441.822	515.69
442.043	555.69
442.264	617.69
442.486	654.69
442.707	569.69
442.928	551.69
443.149	560.69
443.371	558.69
443.592	592.69
443.813	675.69
444.034	747.69
444.255	599.69
444.476	526.69
444.698	501.69
444.919	515.69
445.14	612.69
445.361	572.69
445.582	575.69
445.803	637.69
446.024	725.69
446.245	709.69
446.466	663.69
446.687	581.69
446.908	533.69
447.129	485.69
447.35	462.69
447.571	485.69
447.792	464.69
448.013	488.69
448.234	502.69
448.455	533.69
448.675	675.69
448.896	752.69
449.117	659.69
449.338	605.69
449.559	698.69
449.779	816.69
450	665.69
450.221	519.69
450.442	515.69
450.662	462.69
450.883	465.69
451.104	525.69
451.324	461.69
451.545	440.69
451.766	430.69
451.986	425.69
452.207	421.69
452.428	399.69
452.648	424.69
452.869	429.69
453.089	424.69
453.31	452.69
453.53	440.69
453.751	428.69
453.971	417.69
454.192	470.69
454.412	428.69
454.633	434.69
454.853	417.69
455.073	401.69
455.294	470.69
455.514	490.69
455.734	497.69
455.955	413.69
456.175	408.69
456.395	395.69
456.616	395.69
456.836	410.69
457.056	376.69
457.276	382.69
457.497	399.69
457.717	407.69
457.937	393.69
458.157	396.69
458.377	399.69
458.598	442.69
458.818	478.69
459.038	572.69
459.258	596.69
459.478	499.69
459.698	455.69
459.918	414.69
460.138	430.69
460.358	414.69
460.578	454.69
460.798	441.69
461.018	452.69
461.238	453.69
461.458	421.69
461.678	437.69
461.898	444.69
462.118	410.69
462.338	432.69
462.558	441.69
462.777	441.69
462.997	469.69
463.217	478.69
463.437	463.69
463.657	449.69
463.876	461.69
464.096	459.69
464.316	463.69
464.536	487.69
464.755	461.69
464.975	474.69
465.195	499.69
465.414	588.69
465.634	516.69
465.854	464.69
466.073	458.69
466.293	443.69
466.512	449.69
466.732	424.69
466.951	416.69
467.171	442.69
467.391	434.69
467.61	445.69
467.829	427.69
468.049	424.69
468.268	415.69
468.488	415.69
468.707	408.69
468.927	420.69
469.146	409.69
469.365	423.69
469.585	414.69
469.804	411.69
470.023	437.69
470.243	434.69
470.462	451.69
470.681	441.69
470.901	471.69
471.12	440.69
471.339	441.69
471.558	440.69
471.777	440.69
471.997	431.69
472.216	422.69
472.435	420.69
472.654	421.69
472.873	395.69
473.092	422.69
473.311	414.69
473.53	418.69
473.749	418.69
473.968	490.69
474.187	603.69
474.406	610.69
474.625	498.69
474.844	463.69
475.063	453.69
475.282	441.69
475.501	439.69
475.72	429.69
475.939	434.69
476.158	459.69
476.377	445.69
476.596	447.69
476.814	451.69
477.033	465.69
477.252	451.69
477.471	471.69
477.69	462.69
477.908	457.69
478.127	476.69
478.346	471.69
478.564	480.69
478.783	498.69
479.002	486.69
479.22	476.69
479.439	491.69
479.658	529.69
479.876	523.69
480.095	530.69
480.313	556.69
480.532	536.69
480.751	522.69
480.969	491.69
481.188	515.69
481.406	549.69
481.624	537.69
481.843	522.69
482.061	505.69
482.28	491.69
482.498	500.69
482.717	494.69
482.935	525.69
483.153	536.69
483.372	516.69
483.59	510.69
483.808	499.69
484.027	490.69
484.245	515.69
484.463	526.69
484.681	523.69
484.9	514.69
485.118	531.69
485.336	513.69
485.554	531.69
485.772	513.69
485.99	523.69
486.209	510.69
486.427	551.69
486.645	550.69
486.863	591.69
487.081	578.69
487.299	553.69
487.517	565.69
487.735	542.69
487.953	543.69
488.171	555.69
488.389	534.69
488.607	542.69
488.825	533.69
489.043	547.69
489.261	548.69
489.479	553.69
489.696	572.69
489.914	576.69
490.132	542.69
490.35	553.69
490.568	563.69
490.786	593.69
491.003	564.69
491.221	563.69
491.439	614.69
491.657	612.69
491.874	627.69
492.092	629.69
492.31	620.69
492.527	607.69
492.745	638.69
492.963	628.69
493.18	636.69
493.398	649.69
493.615	655.69
493.833	641.69
494.05	643.69
494.268	650.69
494.485	654.69
494.703	641.69
494.92	661.69
495.138	656.69
495.355	642.69
495.573	667.69
495.79	648.69
496.008	612.69
496.225	631.69
496.442	639.69
496.66	652.69
496.877	644.69
497.094	659.69
497.312	675.69
497.529	668.69
497.746	654.69
497.963	666.69
498.181	710.69
498.398	702.69
498.615	693.69
498.832	710.69
499.049	718.69
499.267	732.69
499.484	722.69
499.701	742.69
499.918	776.69
500.135	811.69
500.352	834.69
500.569	833.69
500.786	872.69
501.003	845.69
501.22	833.69
501.437	808.69
501.654	815.69
501.871	836.69
502.088	771.69
502.305	732.69
502.522	717.69
502.739	713.69
502.956	699.69
503.172	678.69
503.389	685.69
503.606	686.69
503.823	698.69
504.04	654.69
504.256	647.69
504.473	656.69
504.69	631.69
504.907	625.69
505.123	634.69
505.34	624.69
505.557	644.69
505.773	628.69
505.99	636.69
506.207	625.69
506.423	631.69
506.64	623.69
506.856	609.69
507.073	620.69
507.289	630.69
507.506	633.69
507.722	631.69
507.939	654.69
508.155	626.69
508.372	617.69
508.588	590.69
508.805	601.69
509.021	588.69
509.238	613.69
509.454	633.69
509.67	608.69
509.887	580.69
510.103	585.69
510.319	617.69
510.536	744.69
510.752	1197.69
510.968	995.69
511.184	647.69
511.401	606.69
511.617	602.69
511.833	551.69
512.049	571.69
512.265	550.69
512.481	559.69
512.698	545.69
512.914	533.69
513.13	574.69
513.346	565.69
513.562	563.69
513.778	575.69
513.994	591.69
514.21	587.69
514.426	608.69
514.642	650.69
514.858	674.69
515.074	726.69
515.29	873.69
515.506	1315.69
515.721	1085.69
515.937	699.69
516.153	642.69
516.369	642.69
516.585	603.69
516.801	561.69
517.016	566.69
517.232	578.69
517.448	579.69
517.664	575.69
517.879	555.69
518.095	569.69
518.311	568.69
518.527	591.69
518.742	573.69
518.958	574.69
519.173	556.69
519.389	546.69
519.605	554.69
519.82	571.69
520.036	589.69
520.251	614.69
520.467	643.69
520.682	634.69
520.898	659.69
521.113	652.69
521.329	718.69
521.544	805.69
521.76	1039.69
521.975	1747.69
522.19	1692.69
522.406	923.69
522.621	662.69
522.836	615.69
523.052	565.69
523.267	554.69
523.482	552.69
523.698	539.69
523.913	527.69
524.128	530.69
524.343	529.69
524.559	513.69
524.774	522.69
524.989	505.69
525.204	518.69
525.419	515.69
525.634	486.69
525.849	458.69
526.064	484.69
526.28	475.69
526.495	465.69
526.71	476.69
526.925	464.69
527.14	467.69
527.355	477.69
527.57	474.69
527.785	454.69
527.999	445.69
528.214	466.69
528.429	453.69
528.644	469.69
528.859	473.69
529.074	486.69
529.289	482.69
529.503	555.69
529.718	565.69
529.933	477.69
530.148	471.69
530.363	482.69
530.577	454.69
530.792	434.69
531.007	458.69
531.221	448.69
531.436	444.69
531.651	451.69
531.865	460.69
532.08	451.69
532.295	433.69
532.509	441.69
532.724	461.69
532.938	426.69
533.153	426.69
533.367	457.69
533.582	448.69
533.796	428.69
534.011	447.69
534.225	425.69
534.44	449.69
534.654	435.69
534.868	429.69
535.083	445.69
535.297	438.69
535.511	441.69
535.726	436.69
535.94	418.69
536.154	435.69
536.369	443.69
536.583	442.69
536.797	428.69
537.011	416.69
537.225	418.69
537.44	437.69
537.654	415.69
537.868	420.69
538.082	409.69
538.296	433.69
538.51	397.69
538.724	433.69
538.938	431.69
539.153	421.69
539.367	440.69
539.581	443.69
539.795	422.69
540.009	429.69
540.222	425.69
540.436	419.69
540.65	411.69
540.864	420.69
541.078	451.69
541.292	419.69
541.506	431.69
541.72	433.69
541.934	407.69
542.147	440.69
542.361	417.69
542.575	397.69
542.789	406.69
543.002	430.69
543.216	435.69
543.43	421.69
543.644	405.69
543.857	415.69
544.071	421.69
544.285	399.69
544.498	421.69
544.712	415.69
544.925	411.69
545.139	404.69
545.352	409.69
545.566	422.69
545.779	417.69
545.993	398.69
546.206	399.69
546.42	420.69
546.633	411.69
546.847	405.69
547.06	404.69
547.274	398.69
547.487	408.69
547.7	415.69
547.914	383.69
548.127	395.69
548.34	400.69
548.554	424.69
548.767	378.69
548.98	396.69
549.193	364.69
549.407	390.69
549.62	403.69
549.833	411.69
550.046	390.69
550.259	379.69
550.473	382.69
550.686	388.69
550.899	400.69
551.112	389.69
551.325	379.69
551.538	384.69
551.751	380.69
551.964	375.69
552.177	398.69
552.39	395.69
552.603	401.69
552.816	382.69
553.029	383.69
553.242	387.69
553.455	398.69
553.667	404.69
553.88	394.69
554.093	414.69
554.306	410.69
554.519	407.69
554.732	398.69
554.944	379.69
555.157	364.69
555.37	371.69
555.583	376.69
555.795	369.69
556.008	380.69
556.221	358.69
556.433	379.69
556.646	369.69
556.859	376.69
557.071	373.69
557.284	372.69
557.496	373.69
557.709	339.69
557.921	347.69
558.134	361.69
558.346	362.69
558.559	360.69
558.771	336.69
558.984	338.69
559.196	373.69
559.409	349.69
559.621	357.69
559.833	348.69
560.046	346.69
560.258	347.69
560.47	349.69
560.683	358.69
560.895	361.69
561.107	353.69
561.32	341.69
561.532	357.69
561.744	342.69
561.956	358.69
562.168	365.69
562.381	353.69
562.593	351.69
562.805	364.69
563.017	361.69
563.229	355.69
563.441	329.69
563.653	342.69
563.865	347.69
564.077	352.69
564.289	353.69
564.501	354.69
564.713	370.69
564.925	365.69
565.137	386.69
565.349	382.69
565.561	369.69
565.773	363.69
565.985	363.69
566.197	391.69
566.408	390.69
566.62	399.69
566.832	394.69
567.044	402.69
567.255	420.69
567.467	412.69
567.679	435.69
567.891	425.69
568.102	410.69
568.314	395.69
568.526	411.69
568.737	406.69
568.949	381.69
569.161	393.69
569.372	377.69
569.584	366.69
569.795	350.69
570.007	360.69
570.218	426.69
570.43	403.69
570.641	355.69
570.853	349.69
571.064	355.69
571.276	334.69
571.487	336.69
571.698	330.69
571.91	331.69
572.121	332.69
572.333	293.69
572.544	291.69
572.755	308.69
572.966	299.69
573.178	316.69
573.389	319.69
573.6	304.69
573.811	301.69
574.023	309.69
574.234	324.69
574.445	297.69
574.656	302.69
574.867	308.69
575.078	306.69
575.289	300.69
575.501	285.69
575.712	311.69
575.923	293.69
576.134	301.69
576.345	286.69
576.556	310.69
576.767	302.69
576.978	304.69
577.188	287.69
577.399	301.69
577.61	289.69
577.821	309.69
578.032	317.69
578.243	353.69
578.454	582.69
578.665	428.69
578.875	321.69
579.086	303.69
579.297	288.69
579.508	274.69
579.718	282.69
579.929	288.69
580.14	289.69
580.35	272.69
580.561	292.69
580.772	273.69
580.982	276.69
581.193	275.69
581.403	281.69
581.614	271.69
581.825	282.69
582.035	282.69
582.246	302.69
582.456	269.69
582.667	292.69
582.877	293.69
583.087	305.69
583.298	289.69
583.508	285.69
583.719	276.69
583.929	269.69
584.139	270.69
584.35	250.69
584.56	291.69
584.77	270.69
584.981	264.69
585.191	288.69
585.401	278.69
585.611	278.69
585.821	268.69
586.032	272.69
586.242	282.69
586.452	268.69
586.662	264.69
586.872	244.69
587.082	267.69
587.292	262.69
587.502	274.69
587.713	253.69
587.923	270.69
588.133	271.69
588.343	278.69
588.553	261.69
588.762	259.69
588.972	251.69
589.182	271.69
589.392	269.69
589.602	267.69
589.812	274.69
590.022	279.69
590.232	271.69
590.441	268.69
590.651	263.69
590.861	260.69
591.071	268.69
591.281	275.69
591.49	272.69
591.7	272.69
591.91	277.69
592.119	258.69
592.329	291.69
592.539	286.69
592.748	294.69
592.958	285.69
593.167	278.69
593.377	279.69
593.587	280.69
593.796	276.69
594.006	267.69
594.215	276.69
594.424	269.69
594.634	268.69
594.843	297.69
595.053	278.69
595.262	271.69
595.472	269.69
595.681	274.69
595.89	273.69
596.1	264.69
596.309	252.69
596.518	261.69
596.727	259.69
596.937	247.69
597.146	228.69
597.355	249.69
597.564	252.69
597.774	237.69
597.983	253.69
598.192	262.69
598.401	229.69
598.61	266.69
598.819	251.69
599.028	242.69
599.237	240.69
599.446	242.69
599.655	238.69
599.864	261.69
600.073	235.69
600.282	241.69
600.491	245.69
600.7	233.69
600.909	234.69
601.118	236.69
601.327	222.69
601.536	250.69
601.745	234.69
601.953	247.69
602.162	219.69
602.371	249.69
602.58	243.69
602.789	238.69
602.997	246.69
603.206	241.69
603.415	252.69
603.623	223.69
603.832	222.69
604.041	234.69
604.249	228.69
604.458	243.69
604.666	231.69
604.875	239.69
605.084	234.69
605.292	228.69
605.501	226.69
605.709	230.69
605.918	228.69
606.126	227.69
606.334	238.69
606.543	243.69
606.751	219.69
606.96	222.69
607.168	235.69
607.376	225.69
607.585	219.69
607.793	226.69
608.001	207.69
608.21	227.69
608.418	227.69
608.626	218.69
608.834	243.69
609.043	226.69
609.251	208.69
609.459	223.69
609.667	226.69
609.875	207.69
610.083	222.69
610.291	218.69
610.499	229.69
610.707	213.69
610.916	219.69
611.124	236.69
611.332	223.69
611.54	211.69
611.748	227.69
611.955	220.69
612.163	227.69
612.371	222.69
612.579	222.69
612.787	230.69
612.995	208.69
613.203	234.69
613.411	201.69
613.618	214.69
613.826	229.69
614.034	214.69
614.242	227.69
614.449	219.69
614.657	225.69
614.865	221.69
615.072	217.69
615.28	211.69
615.488	203.69
615.695	206.69
615.903	222.69
616.111	218.69
616.318	211.69
616.526	220.69
616.733	215.69
616.941	210.69
617.148	225.69
617.356	210.69
617.563	219.69
617.771	225.69
617.978	212.69
618.185	230.69
618.393	205.69
618.6	198.69
618.807	216.69
619.015	219.69
619.222	208.69
619.429	208.69
619.637	207.69
619.844	199.69
620.051	205.69
620.258	204.69
620.466	223.69
620.673	205.69
620.88	211.69
621.087	217.69
621.294	224.69
621.501	209.69
621.708	208.69
621.915	199.69
622.122	207.69
622.329	213.69
622.536	203.69
622.743	203.69
622.95	202.69
623.157	201.69
623.364	191.69
623.571	198.69
623.778	207.69
623.985	190.69
624.192	182.69
624.399	215.69
624.606	205.69
624.812	197.69
625.019	203.69
625.226	209.69
625.433	196.69
625.639	203.69
625.846	186.69
626.053	191.69
626.259	195.69
626.466	195.69
626.673	198.69
626.879	192.69
627.086	186.69
627.293	198.69
627.499	193.69
627.706	187.69
627.912	203.69
628.119	174.69
628.325	193.69
628.532	179.69
628.738	178.69
628.945	190.69
629.151	193.69
629.357	179.69
629.564	174.69
629.77	183.69
629.976	184.69
630.183	194.69
630.389	174.69
630.595	182.69
630.802	190.69
631.008	164.69
631.214	181.69
631.42	201.69
631.627	208.69
631.833	187.69
632.039	182.69
632.245	175.69
632.451	166.69
632.657	171.69
632.863	166.69
633.069	177.69
633.275	182.69
633.481	181.69
633.688	182.69
633.893	187.69
634.099	172.69
634.305	169.69
634.511	171.69
634.717	170.69
634.923	189.69
635.129	178.69
635.335	149.69
635.541	167.69
635.747	181.69
635.952	173.69
636.158	171.69
636.364	163.69
636.57	178.69
636.775	163.69
636.981	164.69
637.187	179.69
637.392	165.69
637.598	153.69
637.804	168.69
638.009	172.69
638.215	177.69
638.421	158.69
638.626	161.69
638.832	169.69
639.037	166.69
639.243	158.69
639.448	162.69
639.654	173.69
639.859	169.69
640.065	164.69
640.27	159.69
640.475	173.69
640.681	157.69
640.886	160.69
641.091	171.69
641.297	154.69
641.502	169.69
641.707	153.69
641.913	161.69
642.118	164.69
642.323	169.69
642.528	170.69
642.733	172.69
642.939	154.69
643.144	162.69
643.349	180.69
643.554	141.69
643.759	162.69
643.964	162.69
644.169	161.69
644.374	133.69
644.579	157.69
644.784	162.69
644.989	167.69
645.194	154.69
645.399	171.69
645.604	155.69
645.809	155.69
646.014	158.69
646.219	143.69
646.423	141.69
646.628	157.69
646.833	161.69
647.038	154.69
647.243	163.69
647.447	158.69
647.652	162.69
647.857	158.69
648.062	168.69
648.266	177.69
648.471	160.69
648.676	139.69
648.88	137.69
649.085	157.69
649.289	157.69
649.494	172.69
649.698	181.69
649.903	178.69
650.107	168.69
650.312	158.69
650.516	162.69
650.721	149.69
650.925	151.69
651.13	145.69
651.334	141.69
651.539	139.69
651.743	155.69
651.947	148.69
652.152	140.69
652.356	126.69
652.56	128.69
652.764	132.69
652.969	126.69
653.173	142.69
653.377	128.69
653.581	119.69
653.785	140.69
653.99	149.69
654.194	139.69
654.398	145.69
654.602	124.69
654.806	121.69
655.01	144.69
655.214	142.69
655.418	137.69
655.622	144.69
655.826	140.69
656.03	135.69
656.234	136.69
656.438	143.69
656.642	139.69
656.846	116.69
657.049	129.69
657.253	120.69
657.457	109.69
657.661	110.69
657.865	132.69
658.068	117.69
658.272	110.69
658.476	111.69
658.68	111.69
658.883	106.69
659.087	93.69
659.291	110.69
659.494	93.69
659.698	102.69
659.901	93.69
660.105	92.69
660.309	102.69
660.512	82.69
660.716	97.69
660.919	90.69
661.123	103.69
661.326	103.69
661.53	94.69
661.733	85.69
661.936	80.69
662.14	99.69
662.343	92.69
662.546	78.69
662.75	69.69
662.953	82.69
663.156	93.69
663.36	78.69
663.563	86.69
663.766	84.69
663.969	106.69
664.173	74.69
664.376	74.69
664.579	92.69
664.782	85.69
664.985	78.69
665.188	79.69
665.391	84.69
665.594	78.69
665.797	84.69
666	80.69
666.203	87.69
666.406	83.69
666.609	73.69
666.812	92.69
667.015	80.69
667.218	88.69
667.421	89.69
667.624	86.69
667.827	84.69
668.03	89.69
668.232	86.69
668.435	81.69
668.638	81.69
668.841	80.69
669.043	90.69
669.246	88.69
669.449	90.69
669.651	91.69
669.854	77.69
670.057	77.69
670.259	92.69
670.462	86.69
670.665	82.69
670.867	75.69
671.07	71.69
671.272	86.69
671.475	87.69
671.677	85.69
671.88	90.69
672.082	90.69
672.284	76.69
672.487	73.69
672.689	84.69
672.892	80.69
