Data from 1989.PennyLincolnUp.Lamp.En5.5.200Scan.071819.P2_HRD10591_17-23-51-973.txt Node
Date: Thu Jul 18 17:23:51 EDT 2019
User: cochatt
Spectrometer: HR+D1059
Trigger mode: 1
Integration Time (sec): 1.000000E-1
Scans to average: 1
Electric dark correction enabled: true
Nonlinearity correction enabled: false
Boxcar width: 0
XAxis mode: Wavelengths
Number of Pixels in Spectrum: 2048
>>>>>Begin Spectral Data<<<<<
223.165	-14.62
223.4	-14.62
223.635	-14.62
223.869	-11.62
224.104	-11.62
224.338	-4.62
224.573	-11.62
224.808	-9.62
225.042	-6.62
225.277	-13.62
225.511	-6.62
225.746	1.38
225.98	4.38
226.215	9.38
226.449	4.38
226.683	2.38
226.918	32.38
227.152	36.38
227.387	37.38
227.621	41.38
227.856	43.38
228.09	41.38
228.324	49.38
228.559	48.38
228.793	66.38
229.027	113.38
229.262	112.38
229.496	119.38
229.73	131.38
229.964	142.38
230.199	109.38
230.433	117.38
230.667	119.38
230.901	122.38
231.136	105.38
231.37	115.38
231.604	102.38
231.838	114.38
232.072	118.38
232.306	113.38
232.541	118.38
232.775	108.38
233.009	125.38
233.243	108.38
233.477	120.38
233.711	113.38
233.945	115.38
234.179	121.38
234.413	121.38
234.647	119.38
234.881	126.38
235.115	122.38
235.349	115.38
235.583	121.38
235.817	109.38
236.051	123.38
236.285	117.38
236.519	125.38
236.753	138.38
236.987	160.38
237.221	169.38
237.455	232.38
237.689	178.38
237.922	140.38
238.156	122.38
238.39	129.38
238.624	126.38
238.858	121.38
239.091	123.38
239.325	138.38
239.559	133.38
239.793	128.38
240.027	139.38
240.26	152.38
240.494	171.38
240.728	154.38
240.961	143.38
241.195	140.38
241.429	134.38
241.662	129.38
241.896	129.38
242.13	116.38
242.363	124.38
242.597	132.38
242.83	144.38
243.064	151.38
243.298	147.38
243.531	154.38
243.765	132.38
243.998	142.38
244.232	151.38
244.465	140.38
244.699	154.38
244.932	144.38
245.166	153.38
245.399	149.38
245.633	144.38
245.866	154.38
246.099	151.38
246.333	146.38
246.566	152.38
246.8	151.38
247.033	158.38
247.266	171.38
247.5	172.38
247.733	183.38
247.966	174.38
248.2	182.38
248.433	178.38
248.666	194.38
248.899	185.38
249.133	192.38
249.366	225.38
249.599	214.38
249.832	185.38
250.066	182.38
250.299	200.38
250.532	199.38
250.765	204.38
250.998	225.38
251.231	237.38
251.465	217.38
251.698	190.38
251.931	197.38
252.164	221.38
252.397	212.38
252.63	209.38
252.863	226.38
253.096	220.38
253.329	240.38
253.562	241.38
253.795	232.38
254.028	233.38
254.261	216.38
254.494	242.38
254.727	278.38
254.96	277.38
255.193	286.38
255.426	267.38
255.659	260.38
255.892	240.38
256.124	230.38
256.357	230.38
256.59	241.38
256.823	211.38
257.056	224.38
257.289	231.38
257.521	230.38
257.754	221.38
257.987	221.38
258.22	213.38
258.452	211.38
258.685	225.38
258.918	219.38
259.151	205.38
259.383	237.38
259.616	229.38
259.849	238.38
260.081	247.38
260.314	266.38
260.547	282.38
260.779	251.38
261.012	251.38
261.244	255.38
261.477	231.38
261.71	243.38
261.942	232.38
262.175	234.38
262.407	230.38
262.64	236.38
262.872	235.38
263.105	231.38
263.337	234.38
263.57	219.38
263.802	216.38
264.035	219.38
264.267	212.38
264.499	223.38
264.732	208.38
264.964	212.38
265.197	234.38
265.429	223.38
265.661	206.38
265.894	215.38
266.126	219.38
266.358	206.38
266.591	245.38
266.823	230.38
267.055	246.38
267.287	242.38
267.52	260.38
267.752	242.38
267.984	242.38
268.216	252.38
268.448	257.38
268.681	243.38
268.913	262.38
269.145	274.38
269.377	308.38
269.609	281.38
269.841	280.38
270.073	293.38
270.306	287.38
270.538	347.38
270.77	329.38
271.002	319.38
271.234	319.38
271.466	318.38
271.698	334.38
271.93	337.38
272.162	336.38
272.394	310.38
272.626	316.38
272.858	289.38
273.09	292.38
273.322	287.38
273.553	287.38
273.785	275.38
274.017	296.38
274.249	278.38
274.481	291.38
274.713	280.38
274.945	275.38
275.176	280.38
275.408	296.38
275.64	279.38
275.872	271.38
276.104	286.38
276.335	282.38
276.567	275.38
276.799	298.38
277.031	310.38
277.262	332.38
277.494	348.38
277.726	328.38
277.957	309.38
278.189	293.38
278.421	295.38
278.652	289.38
278.884	272.38
279.115	282.38
279.347	284.38
279.579	273.38
279.81	269.38
280.042	283.38
280.273	274.38
280.505	282.38
280.736	280.38
280.968	284.38
281.199	283.38
281.431	289.38
281.662	279.38
281.894	267.38
282.125	293.38
282.356	305.38
282.588	306.38
282.819	338.38
283.051	319.38
283.282	270.38
283.513	276.38
283.745	287.38
283.976	286.38
284.207	299.38
284.439	307.38
284.67	310.38
284.901	280.38
285.132	292.38
285.364	290.38
285.595	295.38
285.826	300.38
286.057	293.38
286.288	301.38
286.52	298.38
286.751	292.38
286.982	279.38
287.213	286.38
287.444	294.38
287.675	319.38
287.906	308.38
288.138	307.38
288.369	331.38
288.6	321.38
288.831	301.38
289.062	320.38
289.293	296.38
289.524	306.38
289.755	304.38
289.986	279.38
290.217	316.38
290.448	284.38
290.679	298.38
290.91	296.38
291.141	278.38
291.371	302.38
291.602	293.38
291.833	295.38
292.064	288.38
292.295	308.38
292.526	304.38
292.757	301.38
292.987	297.38
293.218	297.38
293.449	306.38
293.68	303.38
293.91	298.38
294.141	309.38
294.372	290.38
294.603	299.38
294.833	311.38
295.064	318.38
295.295	312.38
295.525	294.38
295.756	324.38
295.987	328.38
296.217	328.38
296.448	349.38
296.679	333.38
296.909	315.38
297.14	320.38
297.37	298.38
297.601	280.38
297.831	308.38
298.062	305.38
298.292	308.38
298.523	332.38
298.753	326.38
298.984	310.38
299.214	324.38
299.445	318.38
299.675	326.38
299.905	325.38
300.136	334.38
300.366	312.38
300.597	311.38
300.827	323.38
301.057	349.38
301.288	324.38
301.518	338.38
301.748	329.38
301.979	367.38
302.209	340.38
302.439	333.38
302.669	354.38
302.9	322.38
303.13	334.38
303.36	352.38
303.59	327.38
303.82	336.38
304.051	339.38
304.281	357.38
304.511	356.38
304.741	338.38
304.971	338.38
305.201	328.38
305.431	332.38
305.661	345.38
305.891	320.38
306.121	338.38
306.352	331.38
306.582	348.38
306.812	348.38
307.042	349.38
307.272	358.38
307.502	342.38
307.731	346.38
307.961	336.38
308.191	353.38
308.421	342.38
308.651	349.38
308.881	341.38
309.111	353.38
309.341	367.38
309.571	360.38
309.8	378.38
310.03	387.38
310.26	384.38
310.49	395.38
310.72	409.38
310.949	414.38
311.179	420.38
311.409	389.38
311.639	382.38
311.868	394.38
312.098	394.38
312.328	410.38
312.557	398.38
312.787	435.38
313.017	410.38
313.246	416.38
313.476	390.38
313.706	401.38
313.935	393.38
314.165	389.38
314.394	406.38
314.624	401.38
314.853	388.38
315.083	393.38
315.312	399.38
315.542	391.38
315.771	406.38
316.001	384.38
316.23	380.38
316.46	385.38
316.689	398.38
316.919	403.38
317.148	383.38
317.377	412.38
317.607	382.38
317.836	379.38
318.065	384.38
318.295	404.38
318.524	398.38
318.753	402.38
318.983	387.38
319.212	392.38
319.441	399.38
319.67	414.38
319.9	397.38
320.129	392.38
320.358	380.38
320.587	392.38
320.816	397.38
321.046	419.38
321.275	416.38
321.504	419.38
321.733	423.38
321.962	426.38
322.191	437.38
322.42	422.38
322.649	448.38
322.878	460.38
323.108	491.38
323.337	515.38
323.566	514.38
323.795	535.38
324.024	609.38
324.253	739.38
324.482	1040.38
324.71	1575.38
324.939	2307.38
325.168	1954.38
325.397	1040.38
325.626	692.38
325.855	573.38
326.084	546.38
326.313	548.38
326.542	531.38
326.77	571.38
326.999	677.38
327.228	924.38
327.457	1420.38
327.686	1745.38
327.914	1154.38
328.143	756.38
328.372	656.38
328.6	597.38
328.829	597.38
329.058	586.38
329.287	574.38
329.515	560.38
329.744	509.38
329.972	499.38
330.201	517.38
330.43	530.38
330.658	572.38
330.887	618.38
331.115	625.38
331.344	524.38
331.572	496.38
331.801	492.38
332.03	498.38
332.258	488.38
332.486	462.38
332.715	447.38
332.943	454.38
333.172	468.38
333.4	452.38
333.629	451.38
333.857	469.38
334.085	477.38
334.314	446.38
334.542	454.38
334.771	489.38
334.999	457.38
335.227	460.38
335.455	453.38
335.684	446.38
335.912	448.38
336.14	459.38
336.369	440.38
336.597	456.38
336.825	459.38
337.053	455.38
337.281	451.38
337.51	435.38
337.738	428.38
337.966	452.38
338.194	448.38
338.422	437.38
338.65	438.38
338.878	434.38
339.106	437.38
339.334	440.38
339.562	456.38
339.79	416.38
340.018	428.38
340.246	438.38
340.474	424.38
340.702	429.38
340.93	446.38
341.158	440.38
341.386	429.38
341.614	437.38
341.842	457.38
342.07	429.38
342.298	428.38
342.526	450.38
342.754	426.38
342.981	418.38
343.209	419.38
343.437	413.38
343.665	425.38
343.893	436.38
344.12	427.38
344.348	432.38
344.576	436.38
344.804	422.38
345.031	455.38
345.259	471.38
345.487	448.38
345.714	441.38
345.942	426.38
346.17	456.38
346.397	425.38
346.625	430.38
346.853	410.38
347.08	416.38
347.308	406.38
347.535	420.38
347.763	436.38
347.99	449.38
348.218	432.38
348.445	426.38
348.673	421.38
348.9	426.38
349.128	421.38
349.355	412.38
349.583	423.38
349.81	410.38
350.037	429.38
350.265	400.38
350.492	410.38
350.72	410.38
350.947	428.38
351.174	419.38
351.402	433.38
351.629	436.38
351.856	426.38
352.083	419.38
352.311	428.38
352.538	427.38
352.765	437.38
352.992	420.38
353.22	414.38
353.447	420.38
353.674	412.38
353.901	414.38
354.128	391.38
354.355	380.38
354.583	392.38
354.81	372.38
355.037	381.38
355.264	392.38
355.491	395.38
355.718	375.38
355.945	388.38
356.172	381.38
356.399	392.38
356.626	372.38
356.853	394.38
357.08	382.38
357.307	364.38
357.534	398.38
357.761	394.38
357.988	386.38
358.215	387.38
358.441	377.38
358.668	371.38
358.895	388.38
359.122	411.38
359.349	391.38
359.576	402.38
359.802	438.38
360.029	469.38
360.256	481.38
360.483	464.38
360.709	425.38
360.936	412.38
361.163	425.38
361.39	399.38
361.616	419.38
361.843	406.38
362.07	398.38
362.296	419.38
362.523	413.38
362.749	407.38
362.976	417.38
363.203	405.38
363.429	382.38
363.656	393.38
363.882	386.38
364.109	406.38
364.335	406.38
364.562	403.38
364.788	393.38
365.015	362.38
365.241	408.38
365.468	397.38
365.694	398.38
365.92	409.38
366.147	412.38
366.373	384.38
366.599	382.38
366.826	374.38
367.052	379.38
367.278	399.38
367.505	403.38
367.731	414.38
367.957	395.38
368.184	397.38
368.41	399.38
368.636	414.38
368.862	423.38
369.089	384.38
369.315	402.38
369.541	390.38
369.767	393.38
369.993	397.38
370.219	385.38
370.445	395.38
370.672	391.38
370.898	374.38
371.124	390.38
371.35	388.38
371.576	381.38
371.802	362.38
372.028	380.38
372.254	394.38
372.48	382.38
372.706	399.38
372.932	378.38
373.158	394.38
373.384	397.38
373.61	392.38
373.835	399.38
374.061	389.38
374.287	391.38
374.513	387.38
374.739	398.38
374.965	392.38
375.191	381.38
375.416	379.38
375.642	382.38
375.868	386.38
376.094	389.38
376.319	380.38
376.545	397.38
376.771	392.38
376.997	376.38
377.222	386.38
377.448	389.38
377.674	382.38
377.899	401.38
378.125	384.38
378.35	376.38
378.576	363.38
378.802	373.38
379.027	366.38
379.253	374.38
379.478	372.38
379.704	369.38
379.929	382.38
380.155	379.38
380.38	380.38
380.606	361.38
380.831	399.38
381.057	383.38
381.282	365.38
381.507	376.38
381.733	388.38
381.958	392.38
382.184	397.38
382.409	389.38
382.634	394.38
382.86	404.38
383.085	400.38
383.31	379.38
383.535	421.38
383.761	389.38
383.986	397.38
384.211	405.38
384.436	397.38
384.662	409.38
384.887	400.38
385.112	412.38
385.337	408.38
385.562	395.38
385.787	409.38
386.013	423.38
386.238	416.38
386.463	428.38
386.688	410.38
386.913	391.38
387.138	393.38
387.363	380.38
387.588	414.38
387.813	409.38
388.038	397.38
388.263	410.38
388.488	413.38
388.713	405.38
388.938	412.38
389.163	403.38
389.387	411.38
389.612	412.38
389.837	422.38
390.062	402.38
390.287	396.38
390.512	421.38
390.736	399.38
390.961	404.38
391.186	415.38
391.411	406.38
391.636	404.38
391.86	409.38
392.085	410.38
392.31	426.38
392.534	405.38
392.759	416.38
392.984	410.38
393.208	402.38
393.433	419.38
393.658	404.38
393.882	403.38
394.107	401.38
394.331	389.38
394.556	402.38
394.78	411.38
395.005	402.38
395.229	408.38
395.454	402.38
395.678	405.38
395.903	424.38
396.127	434.38
396.352	445.38
396.576	428.38
396.801	456.38
397.025	410.38
397.249	428.38
397.474	427.38
397.698	435.38
397.922	432.38
398.147	444.38
398.371	439.38
398.595	442.38
398.82	444.38
399.044	452.38
399.268	486.38
399.492	497.38
399.717	524.38
399.941	548.38
400.165	557.38
400.389	573.38
400.613	502.38
400.837	506.38
401.062	468.38
401.286	461.38
401.51	466.38
401.734	454.38
401.958	445.38
402.182	464.38
402.406	466.38
402.63	472.38
402.854	455.38
403.078	458.38
403.302	476.38
403.526	478.38
403.75	483.38
403.974	477.38
404.198	471.38
404.422	480.38
404.645	475.38
404.869	467.38
405.093	499.38
405.317	513.38
405.541	530.38
405.765	499.38
405.988	500.38
406.212	499.38
406.436	524.38
406.66	541.38
406.883	499.38
407.107	534.38
407.331	571.38
407.555	617.38
407.778	624.38
408.002	586.38
408.226	543.38
408.449	503.38
408.673	525.38
408.896	540.38
409.12	597.38
409.344	566.38
409.567	501.38
409.791	492.38
410.014	457.38
410.238	459.38
410.461	462.38
410.685	489.38
410.908	514.38
411.132	526.38
411.355	549.38
411.578	543.38
411.802	494.38
412.025	462.38
412.249	471.38
412.472	470.38
412.695	482.38
412.919	476.38
413.142	476.38
413.365	450.38
413.589	451.38
413.812	453.38
414.035	446.38
414.258	439.38
414.482	428.38
414.705	439.38
414.928	440.38
415.151	422.38
415.374	420.38
415.597	433.38
415.821	436.38
416.044	451.38
416.267	425.38
416.49	433.38
416.713	442.38
416.936	453.38
417.159	451.38
417.382	465.38
417.605	457.38
417.828	451.38
418.051	459.38
418.274	460.38
418.497	440.38
418.72	453.38
418.943	434.38
419.166	445.38
419.389	476.38
419.611	457.38
419.834	457.38
420.057	466.38
420.28	458.38
420.503	464.38
420.726	474.38
420.948	461.38
421.171	507.38
421.394	556.38
421.617	483.38
421.839	470.38
422.062	499.38
422.285	472.38
422.507	517.38
422.73	597.38
422.953	605.38
423.175	532.38
423.398	502.38
423.621	485.38
423.843	503.38
424.066	518.38
424.288	524.38
424.511	543.38
424.733	574.38
424.956	660.38
425.178	617.38
425.401	646.38
425.623	647.38
425.846	559.38
426.068	522.38
426.291	494.38
426.513	505.38
426.735	515.38
426.958	557.38
427.18	635.38
427.402	767.38
427.625	859.38
427.847	776.38
428.069	620.38
428.292	553.38
428.514	519.38
428.736	492.38
428.958	480.38
429.181	470.38
429.403	461.38
429.625	471.38
429.847	505.38
430.069	579.38
430.292	587.38
430.514	506.38
430.736	468.38
430.958	466.38
431.18	485.38
431.402	443.38
431.624	440.38
431.846	437.38
432.068	436.38
432.29	458.38
432.512	449.38
432.734	442.38
432.956	453.38
433.178	466.38
433.4	452.38
433.622	458.38
433.844	472.38
434.066	440.38
434.287	441.38
434.509	459.38
434.731	458.38
434.953	461.38
435.175	498.38
435.397	498.38
435.618	504.38
435.84	546.38
436.062	631.38
436.284	705.38
436.505	619.38
436.727	530.38
436.949	485.38
437.17	471.38
437.392	474.38
437.614	496.38
437.835	518.38
438.057	627.38
438.278	717.38
438.5	698.38
438.721	798.38
438.943	742.38
439.165	574.38
439.386	532.38
439.608	541.38
439.829	531.38
440.05	537.38
440.272	587.38
440.493	569.38
440.715	503.38
440.936	474.38
441.158	465.38
441.379	464.38
441.6	483.38
441.822	503.38
442.043	563.38
442.264	626.38
442.486	688.38
442.707	562.38
442.928	543.38
443.149	545.38
443.371	560.38
443.592	594.38
443.813	698.38
444.034	744.38
444.255	593.38
444.476	543.38
444.698	498.38
444.919	493.38
445.14	614.38
445.361	576.38
445.582	564.38
445.803	614.38
446.024	730.38
446.245	732.38
446.466	640.38
446.687	584.38
446.908	513.38
447.129	481.38
447.35	471.38
447.571	488.38
447.792	467.38
448.013	480.38
448.234	502.38
448.455	548.38
448.675	660.38
448.896	729.38
449.117	642.38
449.338	621.38
449.559	724.38
449.779	790.38
450	648.38
450.221	531.38
450.442	484.38
450.662	458.38
450.883	468.38
451.104	496.38
451.324	463.38
451.545	456.38
451.766	439.38
451.986	429.38
452.207	395.38
452.428	399.38
452.648	419.38
452.869	432.38
453.089	442.38
453.31	442.38
453.53	425.38
453.751	397.38
453.971	441.38
454.192	450.38
454.412	445.38
454.633	412.38
454.853	413.38
455.073	412.38
455.294	442.38
455.514	510.38
455.734	488.38
455.955	416.38
456.175	407.38
456.395	402.38
456.616	389.38
456.836	394.38
457.056	397.38
457.276	392.38
457.497	383.38
457.717	374.38
457.937	390.38
458.157	392.38
458.377	404.38
458.598	434.38
458.818	459.38
459.038	541.38
459.258	572.38
459.478	471.38
459.698	429.38
459.918	412.38
460.138	436.38
460.358	460.38
460.578	434.38
460.798	452.38
461.018	457.38
461.238	442.38
461.458	426.38
461.678	434.38
461.898	424.38
462.118	437.38
462.338	437.38
462.558	438.38
462.777	448.38
462.997	454.38
463.217	466.38
463.437	473.38
463.657	452.38
463.876	451.38
464.096	472.38
464.316	483.38
464.536	476.38
464.755	466.38
464.975	469.38
465.195	541.38
465.414	581.38
465.634	525.38
465.854	498.38
466.073	456.38
466.293	433.38
466.512	434.38
466.732	412.38
466.951	434.38
467.171	426.38
467.391	405.38
467.61	420.38
467.829	452.38
468.049	423.38
468.268	424.38
468.488	416.38
468.707	416.38
468.927	427.38
469.146	414.38
469.365	424.38
469.585	426.38
469.804	400.38
470.023	432.38
470.243	437.38
470.462	433.38
470.681	462.38
470.901	448.38
471.12	432.38
471.339	429.38
471.558	427.38
471.777	435.38
471.997	421.38
472.216	408.38
472.435	424.38
472.654	433.38
472.873	416.38
473.092	428.38
473.311	425.38
473.53	439.38
473.749	440.38
473.968	482.38
474.187	578.38
474.406	601.38
474.625	507.38
474.844	462.38
475.063	408.38
475.282	421.38
475.501	432.38
475.72	439.38
475.939	440.38
476.158	435.38
476.377	446.38
476.596	436.38
476.814	457.38
477.033	468.38
477.252	452.38
477.471	449.38
477.69	454.38
477.908	460.38
478.127	457.38
478.346	464.38
478.564	472.38
478.783	469.38
479.002	472.38
479.22	478.38
479.439	503.38
479.658	519.38
479.876	537.38
480.095	533.38
480.313	548.38
480.532	528.38
480.751	531.38
480.969	530.38
481.188	513.38
481.406	533.38
481.624	527.38
481.843	506.38
482.061	494.38
482.28	489.38
482.498	489.38
482.717	481.38
482.935	476.38
483.153	508.38
483.372	489.38
483.59	515.38
483.808	494.38
484.027	489.38
484.245	474.38
484.463	508.38
484.681	511.38
484.9	496.38
485.118	500.38
485.336	489.38
485.554	511.38
485.772	529.38
485.99	529.38
486.209	521.38
486.427	526.38
486.645	521.38
486.863	552.38
487.081	542.38
487.299	546.38
487.517	531.38
487.735	549.38
487.953	522.38
488.171	538.38
488.389	561.38
488.607	535.38
488.825	528.38
489.043	549.38
489.261	538.38
489.479	554.38
489.696	537.38
489.914	541.38
490.132	564.38
490.35	562.38
490.568	550.38
490.786	571.38
491.003	568.38
491.221	589.38
491.439	614.38
491.657	593.38
491.874	574.38
492.092	618.38
492.31	615.38
492.527	611.38
492.745	603.38
492.963	597.38
493.18	611.38
493.398	619.38
493.615	643.38
493.833	633.38
494.05	654.38
494.268	634.38
494.485	629.38
494.703	644.38
494.92	662.38
495.138	651.38
495.355	638.38
495.573	617.38
495.79	656.38
496.008	662.38
496.225	629.38
496.442	635.38
496.66	643.38
496.877	638.38
497.094	651.38
497.312	638.38
497.529	649.38
497.746	665.38
497.963	678.38
498.181	712.38
498.398	698.38
498.615	681.38
498.832	698.38
499.049	701.38
499.267	721.38
499.484	730.38
499.701	750.38
499.918	760.38
500.135	798.38
500.352	833.38
500.569	832.38
500.786	827.38
501.003	841.38
501.22	836.38
501.437	800.38
501.654	792.38
501.871	810.38
502.088	756.38
502.305	739.38
502.522	716.38
502.739	685.38
502.956	688.38
503.172	690.38
503.389	663.38
503.606	662.38
503.823	661.38
504.04	676.38
504.256	645.38
504.473	637.38
504.69	632.38
504.907	642.38
505.123	628.38
505.34	648.38
505.557	633.38
505.773	640.38
505.99	637.38
506.207	635.38
506.423	615.38
506.64	613.38
506.856	628.38
507.073	620.38
507.289	613.38
507.506	563.38
507.722	614.38
507.939	636.38
508.155	602.38
508.372	609.38
508.588	589.38
508.805	598.38
509.021	583.38
509.238	606.38
509.454	611.38
509.67	588.38
509.887	598.38
510.103	586.38
510.319	622.38
510.536	697.38
510.752	1178.38
510.968	950.38
511.184	635.38
511.401	580.38
511.617	571.38
511.833	537.38
512.049	538.38
512.265	565.38
512.481	569.38
512.698	550.38
512.914	549.38
513.13	544.38
513.346	556.38
513.562	577.38
513.778	561.38
513.994	570.38
514.21	564.38
514.426	594.38
514.642	660.38
514.858	674.38
515.074	691.38
515.29	872.38
515.506	1252.38
515.721	1043.38
515.937	694.38
516.153	619.38
516.369	599.38
516.585	590.38
516.801	562.38
517.016	569.38
517.232	580.38
517.448	553.38
517.664	572.38
517.879	580.38
518.095	575.38
518.311	572.38
518.527	572.38
518.742	556.38
518.958	560.38
519.173	582.38
519.389	541.38
519.605	540.38
519.82	563.38
520.036	598.38
520.251	614.38
520.467	627.38
520.682	640.38
520.898	660.38
521.113	657.38
521.329	692.38
521.544	767.38
521.76	1027.38
521.975	1699.38
522.19	1641.38
522.406	875.38
522.621	662.38
522.836	588.38
523.052	558.38
523.267	550.38
523.482	552.38
523.698	549.38
523.913	519.38
524.128	522.38
524.343	511.38
524.559	509.38
524.774	491.38
524.989	499.38
525.204	483.38
525.419	494.38
525.634	486.38
525.849	487.38
526.064	471.38
526.28	456.38
526.495	471.38
526.71	460.38
526.925	475.38
527.14	448.38
527.355	444.38
527.57	461.38
527.785	455.38
527.999	456.38
528.214	446.38
528.429	466.38
528.644	490.38
528.859	453.38
529.074	451.38
529.289	482.38
529.503	580.38
529.718	552.38
529.933	502.38
530.148	480.38
530.363	469.38
530.577	475.38
530.792	452.38
531.007	472.38
531.221	462.38
531.436	458.38
531.651	445.38
531.865	434.38
532.08	450.38
532.295	434.38
532.509	446.38
532.724	449.38
532.938	434.38
533.153	442.38
533.367	428.38
533.582	439.38
533.796	444.38
534.011	422.38
534.225	424.38
534.44	428.38
534.654	418.38
534.868	433.38
535.083	438.38
535.297	430.38
535.511	421.38
535.726	430.38
535.94	445.38
536.154	433.38
536.369	417.38
536.583	429.38
536.797	416.38
537.011	412.38
537.225	426.38
537.44	418.38
537.654	425.38
537.868	449.38
538.082	436.38
538.296	448.38
538.51	433.38
538.724	413.38
538.938	422.38
539.153	426.38
539.367	433.38
539.581	424.38
539.795	412.38
540.009	440.38
540.222	410.38
540.436	408.38
540.65	417.38
540.864	421.38
541.078	423.38
541.292	421.38
541.506	411.38
541.72	420.38
541.934	420.38
542.147	398.38
542.361	414.38
542.575	438.38
542.789	411.38
543.002	426.38
543.216	402.38
543.43	447.38
543.644	435.38
543.857	435.38
544.071	409.38
544.285	420.38
544.498	407.38
544.712	421.38
544.925	420.38
545.139	407.38
545.352	414.38
545.566	413.38
545.779	394.38
545.993	402.38
546.206	412.38
546.42	418.38
546.633	410.38
546.847	390.38
547.06	404.38
547.274	411.38
547.487	407.38
547.7	398.38
547.914	389.38
548.127	403.38
548.34	389.38
548.554	378.38
548.767	377.38
548.98	374.38
549.193	408.38
549.407	403.38
549.62	393.38
549.833	395.38
550.046	398.38
550.259	401.38
550.473	403.38
550.686	397.38
550.899	385.38
551.112	408.38
551.325	386.38
551.538	385.38
551.751	389.38
551.964	385.38
552.177	383.38
552.39	381.38
552.603	375.38
552.816	403.38
553.029	387.38
553.242	381.38
553.455	385.38
553.667	404.38
553.88	418.38
554.093	400.38
554.306	386.38
554.519	388.38
554.732	398.38
554.944	382.38
555.157	375.38
555.37	387.38
555.583	368.38
555.795	380.38
556.008	368.38
556.221	377.38
556.433	360.38
556.646	364.38
556.859	351.38
557.071	353.38
557.284	350.38
557.496	354.38
557.709	366.38
557.921	342.38
558.134	371.38
558.346	352.38
558.559	352.38
558.771	346.38
558.984	352.38
559.196	350.38
559.409	332.38
559.621	344.38
559.833	352.38
560.046	346.38
560.258	341.38
560.47	339.38
560.683	361.38
560.895	364.38
561.107	347.38
561.32	349.38
561.532	325.38
561.744	346.38
561.956	361.38
562.168	361.38
562.381	340.38
562.593	350.38
562.805	352.38
563.017	372.38
563.229	346.38
563.441	356.38
563.653	373.38
563.865	321.38
564.077	353.38
564.289	353.38
564.501	367.38
564.713	360.38
564.925	368.38
565.137	384.38
565.349	367.38
565.561	377.38
565.773	381.38
565.985	400.38
566.197	399.38
566.408	390.38
566.62	398.38
566.832	436.38
567.044	400.38
567.255	425.38
567.467	415.38
567.679	405.38
567.891	429.38
568.102	421.38
568.314	398.38
568.526	404.38
568.737	386.38
568.949	351.38
569.161	374.38
569.372	375.38
569.584	361.38
569.795	370.38
570.007	354.38
570.218	401.38
570.43	396.38
570.641	343.38
570.853	340.38
571.064	335.38
571.276	334.38
571.487	338.38
571.698	337.38
571.91	330.38
572.121	307.38
572.333	354.38
572.544	324.38
572.755	329.38
572.966	332.38
573.178	307.38
573.389	326.38
573.6	320.38
573.811	312.38
574.023	316.38
574.234	323.38
574.445	298.38
574.656	318.38
574.867	304.38
575.078	314.38
575.289	307.38
575.501	296.38
575.712	324.38
575.923	299.38
576.134	277.38
576.345	309.38
576.556	306.38
576.767	312.38
576.978	290.38
577.188	314.38
577.399	276.38
577.61	294.38
577.821	292.38
578.032	303.38
578.243	333.38
578.454	560.38
578.665	402.38
578.875	313.38
579.086	304.38
579.297	296.38
579.508	292.38
579.718	274.38
579.929	280.38
580.14	278.38
580.35	281.38
580.561	282.38
580.772	289.38
580.982	270.38
581.193	258.38
581.403	291.38
581.614	264.38
581.825	272.38
582.035	261.38
582.246	264.38
582.456	276.38
582.667	262.38
582.877	292.38
583.087	281.38
583.298	270.38
583.508	277.38
583.719	262.38
583.929	272.38
584.139	270.38
584.35	272.38
584.56	289.38
584.77	274.38
584.981	292.38
585.191	284.38
585.401	262.38
585.611	268.38
585.821	276.38
586.032	284.38
586.242	280.38
586.452	271.38
586.662	274.38
586.872	293.38
587.082	258.38
587.292	269.38
587.502	285.38
587.713	249.38
587.923	273.38
588.133	275.38
588.343	277.38
588.553	273.38
588.762	282.38
588.972	279.38
589.182	283.38
589.392	274.38
589.602	243.38
589.812	269.38
590.022	274.38
590.232	280.38
590.441	268.38
590.651	268.38
590.861	276.38
591.071	256.38
591.281	246.38
591.49	273.38
591.7	260.38
591.91	273.38
592.119	288.38
592.329	248.38
592.539	276.38
592.748	282.38
592.958	271.38
593.167	276.38
593.377	280.38
593.587	280.38
593.796	273.38
594.006	272.38
594.215	288.38
594.424	292.38
594.634	266.38
594.843	260.38
595.053	297.38
595.262	271.38
595.472	269.38
595.681	250.38
595.89	261.38
596.1	252.38
596.309	250.38
596.518	259.38
596.727	260.38
596.937	242.38
597.146	268.38
597.355	240.38
597.564	245.38
597.774	242.38
597.983	244.38
598.192	264.38
598.401	251.38
598.61	244.38
598.819	237.38
599.028	232.38
599.237	259.38
599.446	256.38
599.655	249.38
599.864	250.38
600.073	227.38
600.282	238.38
600.491	252.38
600.7	244.38
600.909	246.38
601.118	237.38
601.327	234.38
601.536	237.38
601.745	229.38
601.953	248.38
602.162	234.38
602.371	244.38
602.58	241.38
602.789	246.38
602.997	242.38
603.206	237.38
603.415	233.38
603.623	240.38
603.832	227.38
604.041	212.38
604.249	222.38
604.458	241.38
604.666	220.38
604.875	237.38
605.084	219.38
605.292	227.38
605.501	243.38
605.709	234.38
605.918	210.38
606.126	237.38
606.334	239.38
606.543	220.38
606.751	223.38
606.96	224.38
607.168	219.38
607.376	234.38
607.585	218.38
607.793	229.38
608.001	224.38
608.21	239.38
608.418	243.38
608.626	211.38
608.834	212.38
609.043	221.38
609.251	228.38
609.459	224.38
609.667	228.38
609.875	228.38
610.083	227.38
610.291	214.38
610.499	215.38
610.707	236.38
610.916	232.38
611.124	242.38
611.332	226.38
611.54	221.38
611.748	231.38
611.955	225.38
612.163	206.38
612.371	218.38
612.579	210.38
612.787	220.38
612.995	224.38
613.203	229.38
613.411	207.38
613.618	204.38
613.826	199.38
614.034	216.38
614.242	222.38
614.449	221.38
614.657	208.38
614.865	202.38
615.072	214.38
615.28	212.38
615.488	201.38
615.695	212.38
615.903	218.38
616.111	217.38
616.318	210.38
616.526	224.38
616.733	231.38
616.941	216.38
617.148	221.38
617.356	236.38
617.563	219.38
617.771	212.38
617.978	212.38
618.185	202.38
618.393	222.38
618.6	210.38
618.807	228.38
619.015	224.38
619.222	216.38
619.429	203.38
619.637	210.38
619.844	203.38
620.051	212.38
620.258	211.38
620.466	205.38
620.673	205.38
620.88	203.38
621.087	189.38
621.294	212.38
621.501	206.38
621.708	218.38
621.915	200.38
622.122	193.38
622.329	199.38
622.536	206.38
622.743	201.38
622.95	181.38
623.157	206.38
623.364	194.38
623.571	187.38
623.778	206.38
623.985	205.38
624.192	215.38
624.399	200.38
624.606	198.38
624.812	180.38
625.019	202.38
625.226	206.38
625.433	181.38
625.639	192.38
625.846	189.38
626.053	199.38
626.259	210.38
626.466	212.38
626.673	200.38
626.879	193.38
627.086	179.38
627.293	188.38
627.499	190.38
627.706	187.38
627.912	184.38
628.119	184.38
628.325	184.38
628.532	195.38
628.738	192.38
628.945	168.38
629.151	192.38
629.357	183.38
629.564	198.38
629.77	197.38
629.976	184.38
630.183	176.38
630.389	195.38
630.595	187.38
630.802	186.38
631.008	181.38
631.214	182.38
631.42	184.38
631.627	194.38
631.833	182.38
632.039	192.38
632.245	168.38
632.451	177.38
632.657	190.38
632.863	185.38
633.069	190.38
633.275	173.38
633.481	171.38
633.688	177.38
633.893	198.38
634.099	177.38
634.305	153.38
634.511	172.38
634.717	171.38
634.923	171.38
635.129	176.38
635.335	156.38
635.541	163.38
635.747	160.38
635.952	161.38
636.158	161.38
636.364	165.38
636.57	161.38
636.775	152.38
636.981	189.38
637.187	137.38
637.392	169.38
637.598	162.38
637.804	154.38
638.009	177.38
638.215	176.38
638.421	170.38
638.626	184.38
638.832	156.38
639.037	165.38
639.243	180.38
639.448	156.38
639.654	160.38
639.859	166.38
640.065	154.38
640.27	175.38
640.475	175.38
640.681	145.38
640.886	148.38
641.091	185.38
641.297	162.38
641.502	166.38
641.707	156.38
641.913	167.38
642.118	151.38
642.323	166.38
642.528	153.38
642.733	151.38
642.939	164.38
643.144	160.38
643.349	168.38
643.554	142.38
643.759	156.38
643.964	156.38
644.169	152.38
644.374	142.38
644.579	150.38
644.784	154.38
644.989	154.38
645.194	145.38
645.399	164.38
645.604	168.38
645.809	145.38
646.014	165.38
646.219	158.38
646.423	152.38
646.628	158.38
646.833	152.38
647.038	150.38
647.243	142.38
647.447	158.38
647.652	143.38
647.857	156.38
648.062	162.38
648.266	161.38
648.471	158.38
648.676	155.38
648.88	158.38
649.085	166.38
649.289	155.38
649.494	166.38
649.698	180.38
649.903	161.38
650.107	164.38
650.312	166.38
650.516	159.38
650.721	150.38
650.925	151.38
651.13	142.38
651.334	153.38
651.539	145.38
651.743	141.38
651.947	159.38
652.152	141.38
652.356	138.38
652.56	139.38
652.764	136.38
652.969	132.38
653.173	141.38
653.377	129.38
653.581	143.38
653.785	131.38
653.99	132.38
654.194	141.38
654.398	138.38
654.602	119.38
654.806	124.38
655.01	156.38
655.214	128.38
655.418	130.38
655.622	123.38
655.826	126.38
656.03	119.38
656.234	130.38
656.438	142.38
656.642	132.38
656.846	138.38
657.049	124.38
657.253	109.38
657.457	116.38
657.661	118.38
657.865	106.38
658.068	106.38
658.272	133.38
658.476	119.38
658.68	106.38
658.883	113.38
659.087	110.38
659.291	102.38
659.494	85.38
659.698	87.38
659.901	94.38
660.105	109.38
660.309	92.38
660.512	93.38
660.716	105.38
660.919	92.38
661.123	91.38
661.326	88.38
661.53	91.38
661.733	98.38
661.936	90.38
662.14	88.38
662.343	90.38
662.546	91.38
662.75	89.38
662.953	84.38
663.156	79.38
663.36	81.38
663.563	87.38
663.766	72.38
663.969	83.38
664.173	86.38
664.376	96.38
664.579	78.38
664.782	82.38
664.985	72.38
665.188	62.38
665.391	78.38
665.594	76.38
665.797	68.38
666	79.38
666.203	97.38
666.406	71.38
666.609	69.38
666.812	78.38
667.015	81.38
667.218	90.38
667.421	84.38
667.624	83.38
667.827	92.38
668.03	88.38
668.232	75.38
668.435	77.38
668.638	78.38
668.841	94.38
669.043	90.38
669.246	74.38
669.449	93.38
669.651	88.38
669.854	86.38
670.057	70.38
670.259	85.38
670.462	85.38
670.665	89.38
670.867	92.38
671.07	90.38
671.272	78.38
671.475	92.38
671.677	76.38
671.88	87.38
672.082	88.38
672.284	74.38
672.487	92.38
672.689	75.38
672.892	90.38
