Data from 1989.PennyLincolnUp.Lamp.En5.5.200Scan.071819.P2_HRD10591_17-25-59-974.txt Node
Date: Thu Jul 18 17:25:59 EDT 2019
User: cochatt
Spectrometer: HR+D1059
Trigger mode: 1
Integration Time (sec): 1.000000E-1
Scans to average: 1
Electric dark correction enabled: true
Nonlinearity correction enabled: false
Boxcar width: 0
XAxis mode: Wavelengths
Number of Pixels in Spectrum: 2048
>>>>>Begin Spectral Data<<<<<
223.165	-26.19
223.4	-26.19
223.635	-26.19
223.869	-13.19
224.104	-12.19
224.338	-13.19
224.573	-17.19
224.808	-18.19
225.042	-11.19
225.277	15.81
225.511	-1.19
225.746	11.81
225.98	7.81
226.215	4.81
226.449	16.81
226.683	23.81
226.918	11.81
227.152	19.81
227.387	33.81
227.621	47.81
227.856	47.81
228.09	39.81
228.324	40.81
228.559	47.81
228.793	71.81
229.027	103.81
229.262	103.81
229.496	124.81
229.73	161.81
229.964	169.81
230.199	132.81
230.433	132.81
230.667	131.81
230.901	132.81
231.136	111.81
231.37	116.81
231.604	102.81
231.838	125.81
232.072	129.81
232.306	115.81
232.541	120.81
232.775	106.81
233.009	129.81
233.243	125.81
233.477	128.81
233.711	116.81
233.945	119.81
234.179	101.81
234.413	113.81
234.647	131.81
234.881	123.81
235.115	117.81
235.349	119.81
235.583	137.81
235.817	124.81
236.051	129.81
236.285	135.81
236.519	127.81
236.753	130.81
236.987	159.81
237.221	205.81
237.455	264.81
237.689	209.81
237.922	167.81
238.156	149.81
238.39	128.81
238.624	139.81
238.858	135.81
239.091	127.81
239.325	134.81
239.559	130.81
239.793	136.81
240.027	130.81
240.26	156.81
240.494	175.81
240.728	170.81
240.961	168.81
241.195	139.81
241.429	160.81
241.662	147.81
241.896	144.81
242.13	145.81
242.363	145.81
242.597	151.81
242.83	163.81
243.064	156.81
243.298	146.81
243.531	142.81
243.765	153.81
243.998	143.81
244.232	146.81
244.465	159.81
244.699	153.81
244.932	147.81
245.166	164.81
245.399	136.81
245.633	156.81
245.866	149.81
246.099	162.81
246.333	165.81
246.566	160.81
246.8	176.81
247.033	181.81
247.266	163.81
247.5	175.81
247.733	184.81
247.966	180.81
248.2	183.81
248.433	187.81
248.666	182.81
248.899	187.81
249.133	212.81
249.366	213.81
249.599	224.81
249.832	220.81
250.066	209.81
250.299	231.81
250.532	220.81
250.765	236.81
250.998	262.81
251.231	270.81
251.465	251.81
251.698	221.81
251.931	232.81
252.164	223.81
252.397	217.81
252.63	225.81
252.863	228.81
253.096	241.81
253.329	277.81
253.562	271.81
253.795	252.81
254.028	258.81
254.261	241.81
254.494	262.81
254.727	299.81
254.96	320.81
255.193	323.81
255.426	298.81
255.659	271.81
255.892	280.81
256.124	291.81
256.357	287.81
256.59	270.81
256.823	265.81
257.056	267.81
257.289	258.81
257.521	245.81
257.754	239.81
257.987	240.81
258.22	236.81
258.452	241.81
258.685	234.81
258.918	220.81
259.151	253.81
259.383	250.81
259.616	243.81
259.849	228.81
260.081	273.81
260.314	276.81
260.547	319.81
260.779	274.81
261.012	281.81
261.244	253.81
261.477	254.81
261.71	263.81
261.942	267.81
262.175	278.81
262.407	281.81
262.64	242.81
262.872	259.81
263.105	236.81
263.337	259.81
263.57	247.81
263.802	248.81
264.035	228.81
264.267	235.81
264.499	240.81
264.732	245.81
264.964	240.81
265.197	227.81
265.429	261.81
265.661	236.81
265.894	254.81
266.126	246.81
266.358	228.81
266.591	232.81
266.823	271.81
267.055	249.81
267.287	255.81
267.52	255.81
267.752	245.81
267.984	276.81
268.216	275.81
268.448	262.81
268.681	264.81
268.913	291.81
269.145	307.81
269.377	314.81
269.609	322.81
269.841	308.81
270.073	324.81
270.306	312.81
270.538	355.81
270.77	375.81
271.002	369.81
271.234	354.81
271.466	344.81
271.698	361.81
271.93	373.81
272.162	359.81
272.394	364.81
272.626	354.81
272.858	324.81
273.09	324.81
273.322	311.81
273.553	288.81
273.785	313.81
274.017	304.81
274.249	295.81
274.481	311.81
274.713	307.81
274.945	315.81
275.176	321.81
275.408	312.81
275.64	298.81
275.872	306.81
276.104	292.81
276.335	309.81
276.567	329.81
276.799	321.81
277.031	340.81
277.262	342.81
277.494	373.81
277.726	319.81
277.957	332.81
278.189	313.81
278.421	300.81
278.652	321.81
278.884	312.81
279.115	321.81
279.347	297.81
279.579	288.81
279.81	299.81
280.042	312.81
280.273	308.81
280.505	311.81
280.736	295.81
280.968	291.81
281.199	292.81
281.431	311.81
281.662	307.81
281.894	302.81
282.125	311.81
282.356	340.81
282.588	360.81
282.819	366.81
283.051	325.81
283.282	299.81
283.513	308.81
283.745	291.81
283.976	299.81
284.207	316.81
284.439	304.81
284.67	328.81
284.901	310.81
285.132	311.81
285.364	317.81
285.595	304.81
285.826	309.81
286.057	303.81
286.288	305.81
286.52	328.81
286.751	319.81
286.982	333.81
287.213	315.81
287.444	331.81
287.675	332.81
287.906	327.81
288.138	323.81
288.369	330.81
288.6	331.81
288.831	319.81
289.062	329.81
289.293	326.81
289.524	347.81
289.755	330.81
289.986	327.81
290.217	306.81
290.448	319.81
290.679	329.81
290.91	319.81
291.141	318.81
291.371	311.81
291.602	320.81
291.833	333.81
292.064	323.81
292.295	333.81
292.526	331.81
292.757	336.81
292.987	326.81
293.218	320.81
293.449	329.81
293.68	298.81
293.91	315.81
294.141	321.81
294.372	337.81
294.603	326.81
294.833	332.81
295.064	315.81
295.295	340.81
295.525	346.81
295.756	332.81
295.987	322.81
296.217	374.81
296.448	375.81
296.679	342.81
296.909	308.81
297.14	321.81
297.37	330.81
297.601	319.81
297.831	332.81
298.062	319.81
298.292	325.81
298.523	331.81
298.753	311.81
298.984	337.81
299.214	323.81
299.445	345.81
299.675	351.81
299.905	347.81
300.136	320.81
300.366	353.81
300.597	349.81
300.827	332.81
301.057	342.81
301.288	361.81
301.518	360.81
301.748	356.81
301.979	363.81
302.209	352.81
302.439	357.81
302.669	354.81
302.9	354.81
303.13	338.81
303.36	361.81
303.59	364.81
303.82	361.81
304.051	376.81
304.281	367.81
304.511	357.81
304.741	362.81
304.971	338.81
305.201	366.81
305.431	359.81
305.661	346.81
305.891	355.81
306.121	361.81
306.352	375.81
306.582	369.81
306.812	378.81
307.042	356.81
307.272	369.81
307.502	364.81
307.731	383.81
307.961	371.81
308.191	351.81
308.421	371.81
308.651	383.81
308.881	362.81
309.111	383.81
309.341	394.81
309.571	392.81
309.8	402.81
310.03	415.81
310.26	414.81
310.49	433.81
310.72	428.81
310.949	461.81
311.179	445.81
311.409	435.81
311.639	438.81
311.868	411.81
312.098	439.81
312.328	424.81
312.557	465.81
312.787	452.81
313.017	467.81
313.246	419.81
313.476	424.81
313.706	423.81
313.935	425.81
314.165	449.81
314.394	433.81
314.624	438.81
314.853	428.81
315.083	428.81
315.312	439.81
315.542	435.81
315.771	419.81
316.001	437.81
316.23	431.81
316.46	407.81
316.689	418.81
316.919	421.81
317.148	461.81
317.377	433.81
317.607	435.81
317.836	444.81
318.065	429.81
318.295	422.81
318.524	414.81
318.753	422.81
318.983	436.81
319.212	420.81
319.441	419.81
319.67	435.81
319.9	441.81
320.129	424.81
320.358	433.81
320.587	421.81
320.816	454.81
321.046	461.81
321.275	460.81
321.504	423.81
321.733	463.81
321.962	473.81
322.191	477.81
322.42	503.81
322.649	489.81
322.878	508.81
323.108	520.81
323.337	543.81
323.566	601.81
323.795	643.81
324.024	697.81
324.253	826.81
324.482	1175.81
324.71	1855.81
324.939	2667.81
325.168	2331.81
325.397	1181.81
325.626	806.81
325.855	623.81
326.084	626.81
326.313	595.81
326.542	604.81
326.77	641.81
326.999	781.81
327.228	1086.81
327.457	1660.81
327.686	2022.81
327.914	1358.81
328.143	883.81
328.372	763.81
328.6	736.81
328.829	667.81
329.058	671.81
329.287	702.81
329.515	666.81
329.744	635.81
329.972	610.81
330.201	641.81
330.43	726.81
330.658	738.81
330.887	733.81
331.115	727.81
331.344	623.81
331.572	582.81
331.801	583.81
332.03	553.81
332.258	519.81
332.486	504.81
332.715	525.81
332.943	529.81
333.172	511.81
333.4	511.81
333.629	525.81
333.857	553.81
334.085	593.81
334.314	604.81
334.542	636.81
334.771	701.81
334.999	609.81
335.227	547.81
335.455	519.81
335.684	515.81
335.912	522.81
336.14	482.81
336.369	499.81
336.597	504.81
336.825	498.81
337.053	488.81
337.281	473.81
337.51	481.81
337.738	484.81
337.966	487.81
338.194	495.81
338.422	485.81
338.65	485.81
338.878	474.81
339.106	453.81
339.334	467.81
339.562	473.81
339.79	481.81
340.018	476.81
340.246	455.81
340.474	443.81
340.702	474.81
340.93	461.81
341.158	475.81
341.386	464.81
341.614	465.81
341.842	460.81
342.07	460.81
342.298	449.81
342.526	457.81
342.754	444.81
342.981	447.81
343.209	449.81
343.437	444.81
343.665	445.81
343.893	465.81
344.12	476.81
344.348	469.81
344.576	456.81
344.804	500.81
345.031	478.81
345.259	484.81
345.487	477.81
345.714	472.81
345.942	470.81
346.17	444.81
346.397	452.81
346.625	454.81
346.853	453.81
347.08	472.81
347.308	451.81
347.535	474.81
347.763	484.81
347.99	474.81
348.218	467.81
348.445	480.81
348.673	476.81
348.9	456.81
349.128	443.81
349.355	423.81
349.583	446.81
349.81	438.81
350.037	451.81
350.265	438.81
350.492	422.81
350.72	449.81
350.947	445.81
351.174	447.81
351.402	473.81
351.629	458.81
351.856	462.81
352.083	466.81
352.311	453.81
352.538	453.81
352.765	469.81
352.992	457.81
353.22	464.81
353.447	445.81
353.674	447.81
353.901	441.81
354.128	443.81
354.355	438.81
354.583	426.81
354.81	410.81
355.037	424.81
355.264	415.81
355.491	416.81
355.718	409.81
355.945	393.81
356.172	409.81
356.399	397.81
356.626	423.81
356.853	392.81
357.08	399.81
357.307	407.81
357.534	401.81
357.761	412.81
357.988	429.81
358.215	436.81
358.441	400.81
358.668	409.81
358.895	411.81
359.122	420.81
359.349	430.81
359.576	453.81
359.802	460.81
360.029	476.81
360.256	498.81
360.483	499.81
360.709	478.81
360.936	472.81
361.163	437.81
361.39	445.81
361.616	421.81
361.843	432.81
362.07	450.81
362.296	444.81
362.523	464.81
362.749	443.81
362.976	430.81
363.203	432.81
363.429	439.81
363.656	403.81
363.882	424.81
364.109	415.81
364.335	392.81
364.562	411.81
364.788	409.81
365.015	417.81
365.241	436.81
365.468	421.81
365.694	418.81
365.92	426.81
366.147	419.81
366.373	425.81
366.599	416.81
366.826	410.81
367.052	423.81
367.278	419.81
367.505	402.81
367.731	400.81
367.957	409.81
368.184	411.81
368.41	430.81
368.636	451.81
368.862	417.81
369.089	416.81
369.315	405.81
369.541	410.81
369.767	404.81
369.993	403.81
370.219	407.81
370.445	388.81
370.672	414.81
370.898	405.81
371.124	405.81
371.35	392.81
371.576	415.81
371.802	411.81
372.028	393.81
372.254	389.81
372.48	403.81
372.706	398.81
372.932	396.81
373.158	375.81
373.384	407.81
373.61	415.81
373.835	415.81
374.061	393.81
374.287	402.81
374.513	405.81
374.739	402.81
374.965	420.81
375.191	408.81
375.416	403.81
375.642	403.81
375.868	419.81
376.094	402.81
376.319	403.81
376.545	398.81
376.771	386.81
376.997	405.81
377.222	402.81
377.448	420.81
377.674	397.81
377.899	409.81
378.125	367.81
378.35	395.81
378.576	388.81
378.802	380.81
379.027	385.81
379.253	389.81
379.478	396.81
379.704	406.81
379.929	401.81
380.155	409.81
380.38	392.81
380.606	388.81
380.831	389.81
381.057	407.81
381.282	388.81
381.507	386.81
381.733	395.81
381.958	403.81
382.184	378.81
382.409	394.81
382.634	401.81
382.86	420.81
383.085	406.81
383.31	392.81
383.535	425.81
383.761	407.81
383.986	422.81
384.211	411.81
384.436	411.81
384.662	415.81
384.887	411.81
385.112	421.81
385.337	412.81
385.562	417.81
385.787	412.81
386.013	427.81
386.238	425.81
386.463	432.81
386.688	405.81
386.913	417.81
387.138	416.81
387.363	420.81
387.588	418.81
387.813	408.81
388.038	414.81
388.263	415.81
388.488	424.81
388.713	413.81
388.938	427.81
389.163	432.81
389.387	433.81
389.612	416.81
389.837	411.81
390.062	445.81
390.287	429.81
390.512	424.81
390.736	417.81
390.961	412.81
391.186	407.81
391.411	425.81
391.636	432.81
391.86	424.81
392.085	421.81
392.31	416.81
392.534	436.81
392.759	428.81
392.984	432.81
393.208	438.81
393.433	428.81
393.658	438.81
393.882	428.81
394.107	422.81
394.331	432.81
394.556	378.81
394.78	422.81
395.005	431.81
395.229	419.81
395.454	430.81
395.678	461.81
395.903	447.81
396.127	462.81
396.352	477.81
396.576	472.81
396.801	439.81
397.025	427.81
397.249	428.81
397.474	425.81
397.698	435.81
397.922	457.81
398.147	469.81
398.371	463.81
398.595	465.81
398.82	455.81
399.044	462.81
399.268	513.81
399.492	502.81
399.717	542.81
399.941	550.81
400.165	583.81
400.389	597.81
400.613	533.81
400.837	476.81
401.062	482.81
401.286	493.81
401.51	479.81
401.734	467.81
401.958	487.81
402.182	483.81
402.406	481.81
402.63	485.81
402.854	487.81
403.078	483.81
403.302	505.81
403.526	495.81
403.75	506.81
403.974	492.81
404.198	508.81
404.422	504.81
404.645	528.81
404.869	515.81
405.093	547.81
405.317	596.81
405.541	618.81
405.765	584.81
405.988	539.81
406.212	544.81
406.436	556.81
406.66	576.81
406.883	554.81
407.107	575.81
407.331	612.81
407.555	679.81
407.778	678.81
408.002	599.81
408.226	566.81
408.449	579.81
408.673	548.81
408.896	569.81
409.12	605.81
409.344	582.81
409.567	535.81
409.791	517.81
410.014	517.81
410.238	484.81
410.461	500.81
410.685	510.81
410.908	525.81
411.132	532.81
411.355	560.81
411.578	584.81
411.802	519.81
412.025	499.81
412.249	529.81
412.472	533.81
412.695	593.81
412.919	586.81
413.142	559.81
413.365	484.81
413.589	481.81
413.812	474.81
414.035	466.81
414.258	475.81
414.482	484.81
414.705	460.81
414.928	466.81
415.151	472.81
415.374	466.81
415.597	477.81
415.821	457.81
416.044	468.81
416.267	492.81
416.49	472.81
416.713	449.81
416.936	442.81
417.159	455.81
417.382	485.81
417.605	482.81
417.828	484.81
418.051	511.81
418.274	481.81
418.497	468.81
418.72	473.81
418.943	465.81
419.166	500.81
419.389	488.81
419.611	513.81
419.834	495.81
420.057	503.81
420.28	532.81
420.503	529.81
420.726	487.81
420.948	526.81
421.171	575.81
421.394	593.81
421.617	528.81
421.839	492.81
422.062	501.81
422.285	515.81
422.507	556.81
422.73	650.81
422.953	639.81
423.175	550.81
423.398	527.81
423.621	521.81
423.843	541.81
424.066	545.81
424.288	522.81
424.511	549.81
424.733	622.81
424.956	711.81
425.178	679.81
425.401	677.81
425.623	676.81
425.846	579.81
426.068	540.81
426.291	526.81
426.513	543.81
426.735	557.81
426.958	595.81
427.18	686.81
427.402	808.81
427.625	913.81
427.847	806.81
428.069	714.81
428.292	637.81
428.514	561.81
428.736	514.81
428.958	495.81
429.181	516.81
429.403	486.81
429.625	491.81
429.847	525.81
430.069	607.81
430.292	595.81
430.514	545.81
430.736	515.81
430.958	496.81
431.18	480.81
431.402	455.81
431.624	453.81
431.846	455.81
432.068	465.81
432.29	454.81
432.512	480.81
432.734	480.81
432.956	455.81
433.178	453.81
433.4	494.81
433.622	485.81
433.844	455.81
434.066	473.81
434.287	500.81
434.509	462.81
434.731	484.81
434.953	483.81
435.175	486.81
435.397	530.81
435.618	538.81
435.84	595.81
436.062	683.81
436.284	775.81
436.505	643.81
436.727	564.81
436.949	531.81
437.17	483.81
437.392	505.81
437.614	519.81
437.835	564.81
438.057	656.81
438.278	776.81
438.5	746.81
438.721	842.81
438.943	804.81
439.165	625.81
439.386	587.81
439.608	551.81
439.829	563.81
440.05	576.81
440.272	660.81
440.493	596.81
440.715	530.81
440.936	505.81
441.158	513.81
441.379	504.81
441.6	505.81
441.822	526.81
442.043	563.81
442.264	645.81
442.486	691.81
442.707	608.81
442.928	566.81
443.149	569.81
443.371	608.81
443.592	610.81
443.813	702.81
444.034	778.81
444.255	626.81
444.476	548.81
444.698	553.81
444.919	533.81
445.14	652.81
445.361	625.81
445.582	578.81
445.803	637.81
446.024	737.81
446.245	793.81
446.466	703.81
446.687	601.81
446.908	553.81
447.129	503.81
447.35	503.81
447.571	498.81
447.792	497.81
448.013	492.81
448.234	525.81
448.455	588.81
448.675	680.81
448.896	819.81
449.117	679.81
449.338	667.81
449.559	772.81
449.779	861.81
450	693.81
450.221	578.81
450.442	505.81
450.662	519.81
450.883	491.81
451.104	490.81
451.324	531.81
451.545	479.81
451.766	455.81
451.986	437.81
452.207	452.81
452.428	437.81
452.648	451.81
452.869	456.81
453.089	461.81
453.31	480.81
453.53	451.81
453.751	449.81
453.971	435.81
454.192	470.81
454.412	458.81
454.633	429.81
454.853	420.81
455.073	414.81
455.294	467.81
455.514	533.81
455.734	543.81
455.955	448.81
456.175	399.81
456.395	407.81
456.616	418.81
456.836	421.81
457.056	407.81
457.276	413.81
457.497	407.81
457.717	419.81
457.937	415.81
458.157	432.81
458.377	426.81
458.598	455.81
458.818	513.81
459.038	605.81
459.258	653.81
459.478	531.81
459.698	465.81
459.918	462.81
460.138	453.81
460.358	458.81
460.578	445.81
460.798	470.81
461.018	455.81
461.238	451.81
461.458	468.81
461.678	442.81
461.898	466.81
462.118	453.81
462.338	474.81
462.558	474.81
462.777	477.81
462.997	510.81
463.217	465.81
463.437	473.81
463.657	467.81
463.876	453.81
464.096	495.81
464.316	473.81
464.536	492.81
464.755	511.81
464.975	515.81
465.195	548.81
465.414	632.81
465.634	540.81
465.854	499.81
466.073	463.81
466.293	447.81
466.512	459.81
466.732	439.81
466.951	421.81
467.171	435.81
467.391	435.81
467.61	470.81
467.829	443.81
468.049	452.81
468.268	458.81
468.488	465.81
468.707	426.81
468.927	409.81
469.146	429.81
469.365	435.81
469.585	442.81
469.804	448.81
470.023	471.81
470.243	455.81
470.462	457.81
470.681	500.81
470.901	483.81
471.12	467.81
471.339	452.81
471.558	463.81
471.777	455.81
471.997	447.81
472.216	484.81
472.435	549.81
472.654	516.81
472.873	474.81
473.092	465.81
473.311	456.81
473.53	476.81
473.749	475.81
473.968	507.81
474.187	646.81
474.406	647.81
474.625	523.81
474.844	472.81
475.063	464.81
475.282	455.81
475.501	468.81
475.72	464.81
475.939	480.81
476.158	486.81
476.377	449.81
476.596	446.81
476.814	474.81
477.033	470.81
477.252	487.81
477.471	475.81
477.69	483.81
477.908	492.81
478.127	499.81
478.346	490.81
478.564	491.81
478.783	501.81
479.002	505.81
479.22	512.81
479.439	538.81
479.658	522.81
479.876	545.81
480.095	545.81
480.313	589.81
480.532	570.81
480.751	563.81
480.969	589.81
481.188	672.81
481.406	765.81
481.624	636.81
481.843	570.81
482.061	576.81
482.28	551.81
482.498	543.81
482.717	511.81
482.935	528.81
483.153	538.81
483.372	532.81
483.59	521.81
483.808	527.81
484.027	527.81
484.245	556.81
484.463	550.81
484.681	553.81
484.9	547.81
485.118	538.81
485.336	543.81
485.554	572.81
485.772	547.81
485.99	559.81
486.209	565.81
486.427	580.81
486.645	587.81
486.863	594.81
487.081	593.81
487.299	566.81
487.517	586.81
487.735	580.81
487.953	583.81
488.171	573.81
488.389	565.81
488.607	606.81
488.825	588.81
489.043	552.81
489.261	579.81
489.479	585.81
489.696	598.81
489.914	610.81
490.132	586.81
490.35	595.81
490.568	623.81
490.786	629.81
491.003	634.81
491.221	648.81
491.439	663.81
491.657	651.81
491.874	691.81
492.092	664.81
492.31	677.81
492.527	683.81
492.745	684.81
492.963	689.81
493.18	697.81
493.398	707.81
493.615	677.81
493.833	692.81
494.05	695.81
494.268	701.81
494.485	674.81
494.703	694.81
494.92	700.81
495.138	696.81
495.355	691.81
495.573	697.81
495.79	682.81
496.008	686.81
496.225	689.81
496.442	684.81
496.66	692.81
496.877	683.81
497.094	722.81
497.312	704.81
497.529	697.81
497.746	693.81
497.963	711.81
498.181	727.81
498.398	736.81
498.615	742.81
498.832	768.81
499.049	736.81
499.267	759.81
499.484	783.81
499.701	808.81
499.918	821.81
500.135	866.81
500.352	872.81
500.569	916.81
500.786	896.81
501.003	876.81
501.22	838.81
501.437	851.81
501.654	861.81
501.871	851.81
502.088	807.81
502.305	785.81
502.522	766.81
502.739	722.81
502.956	730.81
503.172	723.81
503.389	701.81
503.606	713.81
503.823	677.81
504.04	715.81
504.256	684.81
504.473	688.81
504.69	679.81
504.907	687.81
505.123	659.81
505.34	653.81
505.557	652.81
505.773	669.81
505.99	663.81
506.207	674.81
506.423	649.81
506.64	654.81
506.856	646.81
507.073	644.81
507.289	671.81
507.506	645.81
507.722	655.81
507.939	679.81
508.155	642.81
508.372	625.81
508.588	624.81
508.805	624.81
509.021	642.81
509.238	647.81
509.454	667.81
509.67	664.81
509.887	616.81
510.103	619.81
510.319	642.81
510.536	743.81
510.752	1305.81
510.968	1077.81
511.184	648.81
511.401	637.81
511.617	607.81
511.833	592.81
512.049	604.81
512.265	621.81
512.481	631.81
512.698	595.81
512.914	617.81
513.13	610.81
513.346	611.81
513.562	603.81
513.778	608.81
513.994	603.81
514.21	605.81
514.426	664.81
514.642	694.81
514.858	753.81
515.074	767.81
515.29	917.81
515.506	1410.81
515.721	1132.81
515.937	767.81
516.153	685.81
516.369	659.81
516.585	630.81
516.801	601.81
517.016	621.81
517.232	618.81
517.448	617.81
517.664	617.81
517.879	594.81
518.095	578.81
518.311	596.81
518.527	583.81
518.742	574.81
518.958	583.81
519.173	603.81
519.389	598.81
519.605	595.81
519.82	603.81
520.036	625.81
520.251	650.81
520.467	661.81
520.682	654.81
520.898	711.81
521.113	687.81
521.329	777.81
521.544	880.81
521.76	1149.81
521.975	1841.81
522.19	1856.81
522.406	959.81
522.621	727.81
522.836	647.81
523.052	601.81
523.267	579.81
523.482	561.81
523.698	559.81
523.913	560.81
524.128	567.81
524.343	543.81
524.559	519.81
524.774	527.81
524.989	530.81
525.204	545.81
525.419	545.81
525.634	534.81
525.849	500.81
526.064	496.81
526.28	491.81
526.495	499.81
526.71	498.81
526.925	485.81
527.14	465.81
527.355	459.81
527.57	481.81
527.785	485.81
527.999	467.81
528.214	488.81
528.429	479.81
528.644	486.81
528.859	466.81
529.074	477.81
529.289	507.81
529.503	616.81
529.718	573.81
529.933	520.81
530.148	487.81
530.363	491.81
530.577	481.81
530.792	484.81
531.007	442.81
531.221	482.81
531.436	467.81
531.651	447.81
531.865	459.81
532.08	471.81
532.295	451.81
532.509	472.81
532.724	458.81
532.938	460.81
533.153	461.81
533.367	449.81
533.582	443.81
533.796	453.81
534.011	432.81
534.225	465.81
534.44	442.81
534.654	445.81
534.868	441.81
535.083	459.81
535.297	456.81
535.511	460.81
535.726	455.81
535.94	447.81
536.154	460.81
536.369	459.81
536.583	431.81
536.797	437.81
537.011	433.81
537.225	432.81
537.44	437.81
537.654	439.81
537.868	414.81
538.082	425.81
538.296	447.81
538.51	429.81
538.724	447.81
538.938	438.81
539.153	431.81
539.367	452.81
539.581	443.81
539.795	440.81
540.009	452.81
540.222	429.81
540.436	459.81
540.65	455.81
540.864	437.81
541.078	451.81
541.292	456.81
541.506	438.81
541.72	420.81
541.934	431.81
542.147	433.81
542.361	437.81
542.575	432.81
542.789	425.81
543.002	434.81
543.216	437.81
543.43	459.81
543.644	450.81
543.857	453.81
544.071	436.81
544.285	440.81
544.498	434.81
544.712	437.81
544.925	432.81
545.139	418.81
545.352	428.81
545.566	425.81
545.779	407.81
545.993	413.81
546.206	416.81
546.42	418.81
546.633	444.81
546.847	432.81
547.06	410.81
547.274	405.81
547.487	410.81
547.7	407.81
547.914	410.81
548.127	412.81
548.34	416.81
548.554	420.81
548.767	423.81
548.98	420.81
549.193	424.81
549.407	424.81
549.62	414.81
549.833	417.81
550.046	388.81
550.259	405.81
550.473	426.81
550.686	395.81
550.899	411.81
551.112	397.81
551.325	401.81
551.538	399.81
551.751	411.81
551.964	397.81
552.177	400.81
552.39	394.81
552.603	399.81
552.816	405.81
553.029	409.81
553.242	388.81
553.455	426.81
553.667	416.81
553.88	428.81
554.093	424.81
554.306	402.81
554.519	420.81
554.732	393.81
554.944	398.81
555.157	387.81
555.37	402.81
555.583	401.81
555.795	397.81
556.008	388.81
556.221	400.81
556.433	393.81
556.646	387.81
556.859	371.81
557.071	377.81
557.284	373.81
557.496	377.81
557.709	359.81
557.921	370.81
558.134	359.81
558.346	374.81
558.559	362.81
558.771	371.81
558.984	379.81
559.196	343.81
559.409	353.81
559.621	357.81
559.833	375.81
560.046	362.81
560.258	383.81
560.47	355.81
560.683	363.81
560.895	369.81
561.107	347.81
561.32	368.81
561.532	361.81
561.744	349.81
561.956	375.81
562.168	373.81
562.381	344.81
562.593	375.81
562.805	369.81
563.017	372.81
563.229	358.81
563.441	365.81
563.653	361.81
563.865	362.81
564.077	353.81
564.289	393.81
564.501	371.81
564.713	373.81
564.925	390.81
565.137	401.81
565.349	395.81
565.561	374.81
565.773	397.81
565.985	388.81
566.197	395.81
566.408	406.81
566.62	416.81
566.832	425.81
567.044	423.81
567.255	410.81
567.467	411.81
567.679	420.81
567.891	419.81
568.102	419.81
568.314	402.81
568.526	415.81
568.737	409.81
568.949	398.81
569.161	387.81
569.372	373.81
569.584	378.81
569.795	375.81
570.007	379.81
570.218	418.81
570.43	410.81
570.641	370.81
570.853	358.81
571.064	337.81
571.276	340.81
571.487	356.81
571.698	349.81
571.91	342.81
572.121	333.81
572.333	330.81
572.544	319.81
572.755	316.81
572.966	339.81
573.178	330.81
573.389	310.81
573.6	312.81
573.811	300.81
574.023	295.81
574.234	305.81
574.445	334.81
574.656	321.81
574.867	319.81
575.078	308.81
575.289	304.81
575.501	292.81
575.712	310.81
575.923	295.81
576.134	321.81
576.345	328.81
576.556	311.81
576.767	299.81
576.978	312.81
577.188	318.81
577.399	308.81
577.61	299.81
577.821	328.81
578.032	303.81
578.243	359.81
578.454	609.81
578.665	422.81
578.875	322.81
579.086	299.81
579.297	300.81
579.508	304.81
579.718	321.81
579.929	290.81
580.14	305.81
580.35	287.81
580.561	312.81
580.772	312.81
580.982	282.81
581.193	300.81
581.403	297.81
581.614	308.81
581.825	288.81
582.035	283.81
582.246	292.81
582.456	276.81
582.667	283.81
582.877	267.81
583.087	288.81
583.298	275.81
583.508	300.81
583.719	262.81
583.929	291.81
584.139	289.81
584.35	289.81
584.56	298.81
584.77	284.81
584.981	281.81
585.191	294.81
585.401	300.81
585.611	284.81
585.821	274.81
586.032	275.81
586.242	291.81
586.452	268.81
586.662	268.81
586.872	276.81
587.082	269.81
587.292	264.81
587.502	293.81
587.713	267.81
587.923	251.81
588.133	276.81
588.343	269.81
588.553	255.81
588.762	279.81
588.972	282.81
589.182	289.81
589.392	274.81
589.602	264.81
589.812	284.81
590.022	288.81
590.232	263.81
590.441	271.81
590.651	259.81
590.861	255.81
591.071	275.81
591.281	281.81
591.49	264.81
591.7	276.81
591.91	280.81
592.119	256.81
592.329	284.81
592.539	295.81
592.748	291.81
592.958	294.81
593.167	277.81
593.377	275.81
593.587	308.81
593.796	272.81
594.006	292.81
594.215	278.81
594.424	275.81
594.634	273.81
594.843	268.81
595.053	281.81
595.262	275.81
595.472	267.81
595.681	276.81
595.89	273.81
596.1	273.81
596.309	259.81
596.518	272.81
596.727	250.81
596.937	273.81
597.146	251.81
597.355	255.81
597.564	255.81
597.774	258.81
597.983	269.81
598.192	246.81
598.401	229.81
598.61	260.81
598.819	243.81
599.028	254.81
599.237	245.81
599.446	245.81
599.655	246.81
599.864	252.81
600.073	249.81
600.282	259.81
600.491	249.81
600.7	249.81
600.909	235.81
601.118	237.81
601.327	256.81
601.536	241.81
601.745	244.81
601.953	240.81
602.162	246.81
602.371	233.81
602.58	234.81
602.789	225.81
602.997	245.81
603.206	254.81
603.415	245.81
603.623	231.81
603.832	238.81
604.041	237.81
604.249	236.81
604.458	244.81
604.666	245.81
604.875	229.81
605.084	215.81
605.292	232.81
605.501	226.81
605.709	235.81
605.918	223.81
606.126	233.81
606.334	227.81
606.543	230.81
606.751	227.81
606.96	228.81
607.168	240.81
607.376	242.81
607.585	224.81
607.793	229.81
608.001	228.81
608.21	234.81
608.418	227.81
608.626	228.81
608.834	223.81
609.043	235.81
609.251	217.81
609.459	214.81
609.667	227.81
609.875	227.81
610.083	213.81
610.291	238.81
610.499	205.81
610.707	220.81
610.916	221.81
611.124	226.81
611.332	241.81
611.54	236.81
611.748	224.81
611.955	234.81
612.163	230.81
612.371	234.81
612.579	228.81
612.787	227.81
612.995	226.81
613.203	226.81
613.411	215.81
613.618	221.81
613.826	223.81
614.034	216.81
614.242	230.81
614.449	211.81
614.657	223.81
614.865	228.81
615.072	210.81
615.28	225.81
615.488	229.81
615.695	231.81
615.903	219.81
616.111	214.81
616.318	218.81
616.526	221.81
616.733	220.81
616.941	208.81
617.148	220.81
617.356	216.81
617.563	213.81
617.771	207.81
617.978	215.81
618.185	239.81
618.393	230.81
618.6	217.81
618.807	211.81
619.015	216.81
619.222	212.81
619.429	212.81
619.637	220.81
619.844	212.81
620.051	207.81
620.258	217.81
620.466	216.81
620.673	215.81
620.88	198.81
621.087	212.81
621.294	208.81
621.501	203.81
621.708	209.81
621.915	202.81
622.122	223.81
622.329	198.81
622.536	217.81
622.743	215.81
622.95	207.81
623.157	201.81
623.364	201.81
623.571	203.81
623.778	215.81
623.985	206.81
624.192	200.81
624.399	217.81
624.606	199.81
624.812	205.81
625.019	198.81
625.226	215.81
625.433	197.81
625.639	203.81
625.846	205.81
626.053	195.81
626.259	196.81
626.466	199.81
626.673	201.81
626.879	188.81
627.086	211.81
627.293	192.81
627.499	190.81
627.706	209.81
627.912	184.81
628.119	201.81
628.325	183.81
628.532	190.81
628.738	191.81
628.945	208.81
629.151	187.81
629.357	168.81
629.564	193.81
629.77	194.81
629.976	190.81
630.183	173.81
630.389	193.81
630.595	190.81
630.802	169.81
631.008	180.81
631.214	185.81
631.42	166.81
631.627	197.81
631.833	197.81
632.039	178.81
632.245	172.81
632.451	188.81
632.657	178.81
632.863	164.81
633.069	185.81
633.275	179.81
633.481	179.81
633.688	162.81
633.893	175.81
634.099	177.81
634.305	172.81
634.511	184.81
634.717	155.81
634.923	169.81
635.129	184.81
635.335	173.81
635.541	179.81
635.747	156.81
635.952	164.81
636.158	169.81
636.364	167.81
636.57	185.81
636.775	186.81
636.981	188.81
637.187	159.81
637.392	161.81
637.598	184.81
637.804	167.81
638.009	177.81
638.215	165.81
638.421	164.81
638.626	191.81
638.832	181.81
639.037	169.81
639.243	166.81
639.448	163.81
639.654	173.81
639.859	165.81
640.065	159.81
640.27	159.81
640.475	162.81
640.681	156.81
640.886	179.81
641.091	181.81
641.297	168.81
641.502	172.81
641.707	161.81
641.913	171.81
642.118	163.81
642.323	176.81
642.528	159.81
642.733	149.81
642.939	169.81
643.144	148.81
643.349	162.81
643.554	169.81
643.759	151.81
643.964	177.81
644.169	176.81
644.374	160.81
644.579	168.81
644.784	158.81
644.989	159.81
645.194	176.81
645.399	167.81
645.604	149.81
645.809	154.81
646.014	158.81
646.219	156.81
646.423	155.81
646.628	162.81
646.833	161.81
647.038	157.81
647.243	156.81
647.447	147.81
647.652	168.81
647.857	166.81
648.062	170.81
648.266	163.81
648.471	163.81
648.676	155.81
648.88	171.81
649.085	159.81
649.289	169.81
649.494	172.81
649.698	189.81
649.903	187.81
650.107	176.81
650.312	155.81
650.516	160.81
650.721	164.81
650.925	155.81
651.13	155.81
651.334	159.81
651.539	146.81
651.743	140.81
651.947	154.81
652.152	135.81
652.356	134.81
652.56	122.81
652.764	141.81
652.969	136.81
653.173	148.81
653.377	133.81
653.581	126.81
653.785	151.81
653.99	131.81
654.194	144.81
654.398	127.81
654.602	137.81
654.806	135.81
655.01	142.81
655.214	138.81
655.418	127.81
655.622	122.81
655.826	123.81
656.03	132.81
656.234	130.81
656.438	129.81
656.642	137.81
656.846	124.81
657.049	137.81
657.253	104.81
657.457	133.81
657.661	121.81
657.865	120.81
658.068	122.81
658.272	120.81
658.476	111.81
658.68	103.81
658.883	87.81
659.087	102.81
659.291	103.81
659.494	102.81
659.698	97.81
659.901	104.81
660.105	89.81
660.309	88.81
660.512	98.81
660.716	104.81
660.919	105.81
661.123	84.81
661.326	86.81
661.53	81.81
661.733	75.81
661.936	81.81
662.14	86.81
662.343	97.81
662.546	78.81
662.75	95.81
662.953	90.81
663.156	71.81
663.36	86.81
663.563	86.81
663.766	86.81
663.969	92.81
664.173	87.81
664.376	82.81
664.579	91.81
664.782	85.81
664.985	76.81
665.188	87.81
665.391	94.81
665.594	71.81
665.797	88.81
666	87.81
666.203	95.81
666.406	85.81
666.609	71.81
666.812	82.81
667.015	88.81
667.218	79.81
667.421	77.81
667.624	80.81
667.827	76.81
668.03	77.81
668.232	98.81
668.435	76.81
668.638	72.81
668.841	83.81
669.043	87.81
669.246	87.81
669.449	88.81
669.651	85.81
669.854	95.81
670.057	80.81
670.259	68.81
670.462	90.81
670.665	84.81
670.867	85.81
671.07	93.81
671.272	70.81
671.475	88.81
671.677	96.81
671.88	94.81
672.082	84.81
672.284	69.81
672.487	81.81
672.689	82.81
672.892	85.81
