Data from 1989.PennyLincolnUp.Lamp.En5.5.200Scan.071819.P2_HRD10591_17-26-03-975.txt Node
Date: Thu Jul 18 17:26:03 EDT 2019
User: cochatt
Spectrometer: HR+D1059
Trigger mode: 1
Integration Time (sec): 1.000000E-1
Scans to average: 1
Electric dark correction enabled: true
Nonlinearity correction enabled: false
Boxcar width: 0
XAxis mode: Wavelengths
Number of Pixels in Spectrum: 2048
>>>>>Begin Spectral Data<<<<<
223.165	-21.06
223.4	-21.06
223.635	-21.06
223.869	-11.06
224.104	-13.06
224.338	-11.06
224.573	-9.06
224.808	-14.06
225.042	-14.06
225.277	-2.06
225.511	1.94
225.746	9.94
225.98	-1.06
226.215	5.94
226.449	5.94
226.683	20.94
226.918	5.94
227.152	45.94
227.387	44.94
227.621	31.94
227.856	39.94
228.09	35.94
228.324	54.94
228.559	60.94
228.793	77.94
229.027	97.94
229.262	105.94
229.496	109.94
229.73	135.94
229.964	178.94
230.199	128.94
230.433	105.94
230.667	119.94
230.901	121.94
231.136	103.94
231.37	98.94
231.604	103.94
231.838	103.94
232.072	105.94
232.306	112.94
232.541	113.94
232.775	114.94
233.009	123.94
233.243	112.94
233.477	121.94
233.711	102.94
233.945	121.94
234.179	113.94
234.413	116.94
234.647	125.94
234.881	135.94
235.115	118.94
235.349	130.94
235.583	125.94
235.817	134.94
236.051	125.94
236.285	122.94
236.519	129.94
236.753	132.94
236.987	155.94
237.221	200.94
237.455	259.94
237.689	211.94
237.922	143.94
238.156	139.94
238.39	133.94
238.624	127.94
238.858	128.94
239.091	114.94
239.325	118.94
239.559	132.94
239.793	126.94
240.027	139.94
240.26	157.94
240.494	170.94
240.728	166.94
240.961	164.94
241.195	153.94
241.429	152.94
241.662	138.94
241.896	134.94
242.13	145.94
242.363	136.94
242.597	162.94
242.83	138.94
243.064	152.94
243.298	153.94
243.531	145.94
243.765	147.94
243.998	146.94
244.232	159.94
244.465	144.94
244.699	162.94
244.932	151.94
245.166	150.94
245.399	145.94
245.633	147.94
245.866	153.94
246.099	146.94
246.333	158.94
246.566	160.94
246.8	152.94
247.033	171.94
247.266	164.94
247.5	169.94
247.733	188.94
247.966	197.94
248.2	200.94
248.433	177.94
248.666	193.94
248.899	202.94
249.133	234.94
249.366	225.94
249.599	213.94
249.832	193.94
250.066	184.94
250.299	202.94
250.532	221.94
250.765	233.94
250.998	255.94
251.231	256.94
251.465	239.94
251.698	238.94
251.931	211.94
252.164	202.94
252.397	215.94
252.63	210.94
252.863	234.94
253.096	234.94
253.329	236.94
253.562	253.94
253.795	251.94
254.028	247.94
254.261	246.94
254.494	258.94
254.727	272.94
254.96	308.94
255.193	311.94
255.426	288.94
255.659	266.94
255.892	261.94
256.124	278.94
256.357	285.94
256.59	271.94
256.823	251.94
257.056	233.94
257.289	242.94
257.521	230.94
257.754	242.94
257.987	245.94
258.22	249.94
258.452	243.94
258.685	222.94
258.918	219.94
259.151	227.94
259.383	227.94
259.616	255.94
259.849	245.94
260.081	261.94
260.314	282.94
260.547	277.94
260.779	285.94
261.012	266.94
261.244	264.94
261.477	241.94
261.71	241.94
261.942	252.94
262.175	265.94
262.407	273.94
262.64	239.94
262.872	248.94
263.105	225.94
263.337	230.94
263.57	223.94
263.802	222.94
264.035	231.94
264.267	205.94
264.499	246.94
264.732	229.94
264.964	254.94
265.197	213.94
265.429	221.94
265.661	223.94
265.894	237.94
266.126	235.94
266.358	252.94
266.591	246.94
266.823	244.94
267.055	240.94
267.287	255.94
267.52	250.94
267.752	249.94
267.984	243.94
268.216	247.94
268.448	254.94
268.681	265.94
268.913	275.94
269.145	273.94
269.377	304.94
269.609	295.94
269.841	307.94
270.073	309.94
270.306	326.94
270.538	335.94
270.77	343.94
271.002	333.94
271.234	323.94
271.466	326.94
271.698	330.94
271.93	359.94
272.162	351.94
272.394	361.94
272.626	348.94
272.858	319.94
273.09	303.94
273.322	302.94
273.553	304.94
273.785	286.94
274.017	291.94
274.249	299.94
274.481	295.94
274.713	292.94
274.945	313.94
275.176	301.94
275.408	293.94
275.64	299.94
275.872	288.94
276.104	298.94
276.335	292.94
276.567	292.94
276.799	344.94
277.031	352.94
277.262	354.94
277.494	339.94
277.726	354.94
277.957	334.94
278.189	296.94
278.421	310.94
278.652	317.94
278.884	309.94
279.115	297.94
279.347	303.94
279.579	281.94
279.81	292.94
280.042	286.94
280.273	290.94
280.505	310.94
280.736	302.94
280.968	284.94
281.199	303.94
281.431	291.94
281.662	301.94
281.894	300.94
282.125	287.94
282.356	321.94
282.588	326.94
282.819	331.94
283.051	297.94
283.282	297.94
283.513	288.94
283.745	301.94
283.976	309.94
284.207	290.94
284.439	315.94
284.67	303.94
284.901	306.94
285.132	296.94
285.364	291.94
285.595	297.94
285.826	295.94
286.057	314.94
286.288	300.94
286.52	298.94
286.751	313.94
286.982	292.94
287.213	314.94
287.444	315.94
287.675	309.94
287.906	333.94
288.138	316.94
288.369	339.94
288.6	335.94
288.831	342.94
289.062	287.94
289.293	322.94
289.524	297.94
289.755	318.94
289.986	309.94
290.217	313.94
290.448	322.94
290.679	320.94
290.91	312.94
291.141	314.94
291.371	312.94
291.602	311.94
291.833	307.94
292.064	305.94
292.295	315.94
292.526	321.94
292.757	301.94
292.987	297.94
293.218	301.94
293.449	304.94
293.68	304.94
293.91	305.94
294.141	298.94
294.372	317.94
294.603	314.94
294.833	295.94
295.064	336.94
295.295	337.94
295.525	315.94
295.756	303.94
295.987	323.94
296.217	340.94
296.448	364.94
296.679	321.94
296.909	321.94
297.14	314.94
297.37	315.94
297.601	317.94
297.831	328.94
298.062	327.94
298.292	316.94
298.523	328.94
298.753	335.94
298.984	328.94
299.214	333.94
299.445	339.94
299.675	344.94
299.905	327.94
300.136	345.94
300.366	333.94
300.597	327.94
300.827	334.94
301.057	351.94
301.288	350.94
301.518	354.94
301.748	353.94
301.979	336.94
302.209	356.94
302.439	335.94
302.669	349.94
302.9	356.94
303.13	351.94
303.36	353.94
303.59	362.94
303.82	355.94
304.051	359.94
304.281	360.94
304.511	345.94
304.741	339.94
304.971	335.94
305.201	343.94
305.431	340.94
305.661	342.94
305.891	369.94
306.121	373.94
306.352	363.94
306.582	379.94
306.812	358.94
307.042	350.94
307.272	337.94
307.502	350.94
307.731	372.94
307.961	375.94
308.191	362.94
308.421	352.94
308.651	354.94
308.881	369.94
309.111	350.94
309.341	376.94
309.571	390.94
309.8	413.94
310.03	383.94
310.26	414.94
310.49	409.94
310.72	394.94
310.949	431.94
311.179	438.94
311.409	416.94
311.639	387.94
311.868	415.94
312.098	419.94
312.328	416.94
312.557	455.94
312.787	442.94
313.017	453.94
313.246	421.94
313.476	407.94
313.706	414.94
313.935	433.94
314.165	419.94
314.394	445.94
314.624	444.94
314.853	414.94
315.083	425.94
315.312	418.94
315.542	403.94
315.771	410.94
316.001	418.94
316.23	395.94
316.46	410.94
316.689	410.94
316.919	399.94
317.148	432.94
317.377	445.94
317.607	422.94
317.836	427.94
318.065	417.94
318.295	425.94
318.524	402.94
318.753	427.94
318.983	408.94
319.212	429.94
319.441	417.94
319.67	418.94
319.9	419.94
320.129	430.94
320.358	447.94
320.587	423.94
320.816	416.94
321.046	451.94
321.275	434.94
321.504	458.94
321.733	433.94
321.962	454.94
322.191	444.94
322.42	469.94
322.649	513.94
322.878	517.94
323.108	493.94
323.337	553.94
323.566	578.94
323.795	608.94
324.024	673.94
324.253	806.94
324.482	1152.94
324.71	1836.94
324.939	2597.94
325.168	2262.94
325.397	1140.94
325.626	769.94
325.855	634.94
326.084	584.94
326.313	584.94
326.542	568.94
326.77	643.94
326.999	757.94
327.228	1053.94
327.457	1578.94
327.686	1921.94
327.914	1293.94
328.143	864.94
328.372	745.94
328.6	703.94
328.829	670.94
329.058	650.94
329.287	669.94
329.515	607.94
329.744	576.94
329.972	609.94
330.201	630.94
330.43	686.94
330.658	705.94
330.887	722.94
331.115	689.94
331.344	594.94
331.572	565.94
331.801	558.94
332.03	545.94
332.258	524.94
332.486	507.94
332.715	513.94
332.943	514.94
333.172	474.94
333.4	511.94
333.629	521.94
333.857	547.94
334.085	569.94
334.314	581.94
334.542	658.94
334.771	665.94
334.999	580.94
335.227	548.94
335.455	512.94
335.684	511.94
335.912	477.94
336.14	470.94
336.369	498.94
336.597	493.94
336.825	485.94
337.053	485.94
337.281	473.94
337.51	451.94
337.738	469.94
337.966	472.94
338.194	467.94
338.422	481.94
338.65	475.94
338.878	456.94
339.106	449.94
339.334	451.94
339.562	433.94
339.79	459.94
340.018	453.94
340.246	454.94
340.474	480.94
340.702	451.94
340.93	468.94
341.158	457.94
341.386	452.94
341.614	462.94
341.842	461.94
342.07	449.94
342.298	444.94
342.526	427.94
342.754	441.94
342.981	421.94
343.209	424.94
343.437	455.94
343.665	457.94
343.893	451.94
344.12	439.94
344.348	456.94
344.576	455.94
344.804	473.94
345.031	468.94
345.259	480.94
345.487	471.94
345.714	450.94
345.942	469.94
346.17	443.94
346.397	445.94
346.625	446.94
346.853	448.94
347.08	442.94
347.308	431.94
347.535	431.94
347.763	450.94
347.99	449.94
348.218	444.94
348.445	470.94
348.673	452.94
348.9	445.94
349.128	431.94
349.355	423.94
349.583	440.94
349.81	422.94
350.037	400.94
350.265	435.94
350.492	419.94
350.72	407.94
350.947	426.94
351.174	445.94
351.402	455.94
351.629	435.94
351.856	454.94
352.083	456.94
352.311	446.94
352.538	463.94
352.765	467.94
352.992	457.94
353.22	446.94
353.447	440.94
353.674	423.94
353.901	407.94
354.128	394.94
354.355	417.94
354.583	383.94
354.81	395.94
355.037	398.94
355.264	402.94
355.491	391.94
355.718	394.94
355.945	399.94
356.172	393.94
356.399	391.94
356.626	387.94
356.853	397.94
357.08	413.94
357.307	387.94
357.534	401.94
357.761	395.94
357.988	412.94
358.215	408.94
358.441	390.94
358.668	402.94
358.895	412.94
359.122	415.94
359.349	419.94
359.576	433.94
359.802	460.94
360.029	481.94
360.256	509.94
360.483	484.94
360.709	453.94
360.936	443.94
361.163	435.94
361.39	414.94
361.616	427.94
361.843	432.94
362.07	419.94
362.296	441.94
362.523	428.94
362.749	425.94
362.976	401.94
363.203	422.94
363.429	421.94
363.656	399.94
363.882	399.94
364.109	399.94
364.335	412.94
364.562	410.94
364.788	405.94
365.015	419.94
365.241	399.94
365.468	405.94
365.694	420.94
365.92	417.94
366.147	395.94
366.373	400.94
366.599	385.94
366.826	409.94
367.052	381.94
367.278	415.94
367.505	404.94
367.731	411.94
367.957	400.94
368.184	391.94
368.41	397.94
368.636	417.94
368.862	415.94
369.089	422.94
369.315	396.94
369.541	393.94
369.767	406.94
369.993	382.94
370.219	383.94
370.445	385.94
370.672	390.94
370.898	409.94
371.124	399.94
371.35	395.94
371.576	397.94
371.802	385.94
372.028	383.94
372.254	384.94
372.48	388.94
372.706	399.94
372.932	402.94
373.158	405.94
373.384	400.94
373.61	401.94
373.835	405.94
374.061	402.94
374.287	386.94
374.513	386.94
374.739	414.94
374.965	421.94
375.191	378.94
375.416	419.94
375.642	385.94
375.868	402.94
376.094	394.94
376.319	403.94
376.545	413.94
376.771	392.94
376.997	388.94
377.222	402.94
377.448	389.94
377.674	385.94
377.899	384.94
378.125	396.94
378.35	375.94
378.576	373.94
378.802	383.94
379.027	388.94
379.253	395.94
379.478	387.94
379.704	386.94
379.929	403.94
380.155	381.94
380.38	419.94
380.606	414.94
380.831	389.94
381.057	386.94
381.282	403.94
381.507	387.94
381.733	427.94
381.958	403.94
382.184	391.94
382.409	392.94
382.634	393.94
382.86	389.94
383.085	412.94
383.31	421.94
383.535	396.94
383.761	383.94
383.986	405.94
384.211	416.94
384.436	405.94
384.662	391.94
384.887	395.94
385.112	414.94
385.337	411.94
385.562	400.94
385.787	415.94
386.013	419.94
386.238	415.94
386.463	416.94
386.688	431.94
386.913	423.94
387.138	409.94
387.363	412.94
387.588	401.94
387.813	422.94
388.038	409.94
388.263	418.94
388.488	427.94
388.713	423.94
388.938	411.94
389.163	405.94
389.387	431.94
389.612	396.94
389.837	422.94
390.062	402.94
390.287	407.94
390.512	400.94
390.736	410.94
390.961	425.94
391.186	414.94
391.411	414.94
391.636	429.94
391.86	427.94
392.085	426.94
392.31	394.94
392.534	401.94
392.759	432.94
392.984	417.94
393.208	426.94
393.433	407.94
393.658	426.94
393.882	413.94
394.107	409.94
394.331	400.94
394.556	410.94
394.78	431.94
395.005	415.94
395.229	401.94
395.454	404.94
395.678	411.94
395.903	431.94
396.127	455.94
396.352	458.94
396.576	444.94
396.801	432.94
397.025	423.94
397.249	436.94
397.474	433.94
397.698	430.94
397.922	441.94
398.147	487.94
398.371	472.94
398.595	462.94
398.82	448.94
399.044	472.94
399.268	467.94
399.492	502.94
399.717	529.94
399.941	550.94
400.165	567.94
400.389	570.94
400.613	557.94
400.837	525.94
401.062	474.94
401.286	463.94
401.51	460.94
401.734	462.94
401.958	460.94
402.182	465.94
402.406	474.94
402.63	490.94
402.854	477.94
403.078	480.94
403.302	495.94
403.526	478.94
403.75	474.94
403.974	478.94
404.198	490.94
404.422	489.94
404.645	502.94
404.869	492.94
405.093	546.94
405.317	565.94
405.541	619.94
405.765	586.94
405.988	526.94
406.212	544.94
406.436	567.94
406.66	573.94
406.883	526.94
407.107	545.94
407.331	600.94
407.555	646.94
407.778	641.94
408.002	586.94
408.226	549.94
408.449	531.94
408.673	550.94
408.896	565.94
409.12	610.94
409.344	568.94
409.567	512.94
409.791	522.94
410.014	472.94
410.238	484.94
410.461	481.94
410.685	507.94
410.908	516.94
411.132	529.94
411.355	559.94
411.578	565.94
411.802	520.94
412.025	503.94
412.249	514.94
412.472	547.94
412.695	578.94
412.919	595.94
413.142	521.94
413.365	516.94
413.589	482.94
413.812	477.94
414.035	488.94
414.258	460.94
414.482	447.94
414.705	467.94
414.928	451.94
415.151	451.94
415.374	447.94
415.597	462.94
415.821	449.94
416.044	456.94
416.267	459.94
416.49	470.94
416.713	449.94
416.936	455.94
417.159	469.94
417.382	456.94
417.605	458.94
417.828	464.94
418.051	493.94
418.274	486.94
418.497	464.94
418.72	475.94
418.943	466.94
419.166	473.94
419.389	490.94
419.611	497.94
419.834	477.94
420.057	511.94
420.28	509.94
420.503	498.94
420.726	499.94
420.948	516.94
421.171	554.94
421.394	578.94
421.617	495.94
421.839	484.94
422.062	481.94
422.285	524.94
422.507	551.94
422.73	626.94
422.953	639.94
423.175	545.94
423.398	481.94
423.621	505.94
423.843	529.94
424.066	538.94
424.288	522.94
424.511	543.94
424.733	595.94
424.956	672.94
425.178	671.94
425.401	659.94
425.623	670.94
425.846	582.94
426.068	539.94
426.291	522.94
426.513	512.94
426.735	548.94
426.958	573.94
427.18	655.94
427.402	809.94
427.625	871.94
427.847	794.94
428.069	697.94
428.292	611.94
428.514	548.94
428.736	520.94
428.958	503.94
429.181	502.94
429.403	474.94
429.625	509.94
429.847	524.94
430.069	599.94
430.292	592.94
430.514	501.94
430.736	490.94
430.958	487.94
431.18	465.94
431.402	473.94
431.624	463.94
431.846	427.94
432.068	440.94
432.29	450.94
432.512	447.94
432.734	470.94
432.956	466.94
433.178	472.94
433.4	484.94
433.622	475.94
433.844	446.94
434.066	454.94
434.287	460.94
434.509	464.94
434.731	451.94
434.953	473.94
435.175	477.94
435.397	525.94
435.618	547.94
435.84	576.94
436.062	660.94
436.284	773.94
436.505	630.94
436.727	533.94
436.949	513.94
437.17	491.94
437.392	475.94
437.614	495.94
437.835	538.94
438.057	629.94
438.278	732.94
438.5	742.94
438.721	808.94
438.943	760.94
439.165	624.94
439.386	538.94
439.608	545.94
439.829	551.94
440.05	579.94
440.272	608.94
440.493	586.94
440.715	526.94
440.936	493.94
441.158	489.94
441.379	487.94
441.6	528.94
441.822	511.94
442.043	574.94
442.264	659.94
442.486	705.94
442.707	571.94
442.928	567.94
443.149	555.94
443.371	575.94
443.592	607.94
443.813	680.94
444.034	773.94
444.255	643.94
444.476	553.94
444.698	538.94
444.919	499.94
445.14	660.94
445.361	611.94
445.582	569.94
445.803	649.94
446.024	739.94
446.245	768.94
446.466	715.94
446.687	573.94
446.908	544.94
447.129	494.94
447.35	513.94
447.571	487.94
447.792	473.94
448.013	479.94
448.234	521.94
448.455	574.94
448.675	668.94
448.896	818.94
449.117	693.94
449.338	635.94
449.559	752.94
449.779	840.94
450	671.94
450.221	559.94
450.442	502.94
450.662	498.94
450.883	477.94
451.104	498.94
451.324	496.94
451.545	466.94
451.766	474.94
451.986	448.94
452.207	429.94
452.428	429.94
452.648	432.94
452.869	424.94
453.089	464.94
453.31	453.94
453.53	451.94
453.751	438.94
453.971	447.94
454.192	463.94
454.412	448.94
454.633	451.94
454.853	435.94
455.073	422.94
455.294	451.94
455.514	536.94
455.734	531.94
455.955	431.94
456.175	431.94
456.395	387.94
456.616	417.94
456.836	391.94
457.056	410.94
457.276	385.94
457.497	418.94
457.717	410.94
457.937	396.94
458.157	410.94
458.377	425.94
458.598	451.94
458.818	514.94
459.038	587.94
459.258	627.94
459.478	502.94
459.698	463.94
459.918	464.94
460.138	435.94
460.358	445.94
460.578	435.94
460.798	443.94
461.018	462.94
461.238	453.94
461.458	459.94
461.678	440.94
461.898	456.94
462.118	455.94
462.338	443.94
462.558	449.94
462.777	459.94
462.997	479.94
463.217	481.94
463.437	485.94
463.657	463.94
463.876	466.94
464.096	468.94
464.316	479.94
464.536	477.94
464.755	487.94
464.975	482.94
465.195	529.94
465.414	617.94
465.634	536.94
465.854	482.94
466.073	472.94
466.293	446.94
466.512	456.94
466.732	443.94
466.951	441.94
467.171	457.94
467.391	440.94
467.61	444.94
467.829	469.94
468.049	464.94
468.268	481.94
468.488	454.94
468.707	430.94
468.927	417.94
469.146	433.94
469.365	433.94
469.585	423.94
469.804	447.94
470.023	437.94
470.243	461.94
470.462	457.94
470.681	464.94
470.901	474.94
471.12	446.94
471.339	432.94
471.558	447.94
471.777	455.94
471.997	465.94
472.216	479.94
472.435	516.94
472.654	495.94
472.873	445.94
473.092	436.94
473.311	458.94
473.53	465.94
473.749	454.94
473.968	482.94
474.187	622.94
474.406	633.94
474.625	531.94
474.844	476.94
475.063	453.94
475.282	457.94
475.501	434.94
475.72	467.94
475.939	441.94
476.158	467.94
476.377	453.94
476.596	438.94
476.814	470.94
477.033	462.94
477.252	474.94
477.471	479.94
477.69	473.94
477.908	473.94
478.127	476.94
478.346	482.94
478.564	507.94
478.783	496.94
479.002	501.94
479.22	504.94
479.439	506.94
479.658	499.94
479.876	542.94
480.095	561.94
480.313	554.94
480.532	565.94
480.751	537.94
480.969	565.94
481.188	671.94
481.406	749.94
481.624	629.94
481.843	581.94
482.061	561.94
482.28	524.94
482.498	550.94
482.717	525.94
482.935	546.94
483.153	524.94
483.372	508.94
483.59	546.94
483.808	519.94
484.027	519.94
484.245	541.94
484.463	538.94
484.681	529.94
484.9	535.94
485.118	538.94
485.336	545.94
485.554	549.94
485.772	542.94
485.99	551.94
486.209	573.94
486.427	538.94
486.645	563.94
486.863	585.94
487.081	562.94
487.299	559.94
487.517	554.94
487.735	575.94
487.953	583.94
488.171	568.94
488.389	565.94
488.607	556.94
488.825	570.94
489.043	559.94
489.261	571.94
489.479	583.94
489.696	582.94
489.914	577.94
490.132	591.94
490.35	606.94
490.568	603.94
490.786	610.94
491.003	613.94
491.221	635.94
491.439	662.94
491.657	652.94
491.874	663.94
492.092	664.94
492.31	667.94
492.527	671.94
492.745	684.94
492.963	682.94
493.18	666.94
493.398	657.94
493.615	671.94
493.833	674.94
494.05	670.94
494.268	671.94
494.485	672.94
494.703	659.94
494.92	681.94
495.138	657.94
495.355	678.94
495.573	691.94
495.79	689.94
496.008	687.94
496.225	675.94
496.442	665.94
496.66	671.94
496.877	653.94
497.094	698.94
497.312	667.94
497.529	692.94
497.746	701.94
497.963	709.94
498.181	721.94
498.398	733.94
498.615	721.94
498.832	765.94
499.049	715.94
499.267	741.94
499.484	739.94
499.701	777.94
499.918	811.94
500.135	817.94
500.352	843.94
500.569	864.94
500.786	893.94
501.003	891.94
501.22	884.94
501.437	850.94
501.654	807.94
501.871	807.94
502.088	809.94
502.305	765.94
502.522	745.94
502.739	739.94
502.956	717.94
503.172	723.94
503.389	695.94
503.606	702.94
503.823	705.94
504.04	680.94
504.256	680.94
504.473	674.94
504.69	654.94
504.907	663.94
505.123	639.94
505.34	651.94
505.557	645.94
505.773	657.94
505.99	667.94
506.207	640.94
506.423	645.94
506.64	637.94
506.856	624.94
507.073	628.94
507.289	653.94
507.506	634.94
507.722	662.94
507.939	666.94
508.155	625.94
508.372	604.94
508.588	611.94
508.805	609.94
509.021	609.94
509.238	633.94
509.454	619.94
509.67	627.94
509.887	622.94
510.103	623.94
510.319	657.94
510.536	759.94
510.752	1289.94
510.968	1015.94
511.184	639.94
511.401	593.94
511.617	599.94
511.833	606.94
512.049	618.94
512.265	590.94
512.481	585.94
512.698	615.94
512.914	607.94
513.13	579.94
513.346	574.94
513.562	571.94
513.778	569.94
513.994	624.94
514.21	605.94
514.426	635.94
514.642	671.94
514.858	699.94
515.074	742.94
515.29	909.94
515.506	1363.94
515.721	1154.94
515.937	749.94
516.153	672.94
516.369	633.94
516.585	631.94
516.801	601.94
517.016	605.94
517.232	604.94
517.448	602.94
517.664	601.94
517.879	570.94
518.095	585.94
518.311	584.94
518.527	590.94
518.742	584.94
518.958	555.94
519.173	570.94
519.389	604.94
519.605	609.94
519.82	583.94
520.036	607.94
520.251	628.94
520.467	647.94
520.682	649.94
520.898	645.94
521.113	659.94
521.329	719.94
521.544	834.94
521.76	1088.94
521.975	1809.94
522.19	1767.94
522.406	949.94
522.621	705.94
522.836	623.94
523.052	573.94
523.267	544.94
523.482	573.94
523.698	532.94
523.913	559.94
524.128	551.94
524.343	539.94
524.559	510.94
524.774	509.94
524.989	501.94
525.204	512.94
525.419	512.94
525.634	498.94
525.849	496.94
526.064	485.94
526.28	481.94
526.495	477.94
526.71	483.94
526.925	461.94
527.14	470.94
527.355	478.94
527.57	473.94
527.785	484.94
527.999	468.94
528.214	472.94
528.429	453.94
528.644	469.94
528.859	476.94
529.074	465.94
529.289	483.94
529.503	605.94
529.718	581.94
529.933	520.94
530.148	493.94
530.363	501.94
530.577	469.94
530.792	468.94
531.007	468.94
531.221	464.94
531.436	449.94
531.651	440.94
531.865	467.94
532.08	457.94
532.295	445.94
532.509	450.94
532.724	450.94
532.938	462.94
533.153	452.94
533.367	459.94
533.582	421.94
533.796	433.94
534.011	448.94
534.225	447.94
534.44	424.94
534.654	441.94
534.868	414.94
535.083	426.94
535.297	437.94
535.511	441.94
535.726	438.94
535.94	439.94
536.154	416.94
536.369	435.94
536.583	442.94
536.797	428.94
537.011	431.94
537.225	433.94
537.44	413.94
537.654	433.94
537.868	417.94
538.082	419.94
538.296	430.94
538.51	431.94
538.724	420.94
538.938	435.94
539.153	423.94
539.367	459.94
539.581	441.94
539.795	433.94
540.009	432.94
540.222	421.94
540.436	431.94
540.65	431.94
540.864	428.94
541.078	440.94
541.292	434.94
541.506	466.94
541.72	439.94
541.934	426.94
542.147	416.94
542.361	414.94
542.575	419.94
542.789	433.94
543.002	429.94
543.216	431.94
543.43	424.94
543.644	424.94
543.857	421.94
544.071	463.94
544.285	442.94
544.498	433.94
544.712	406.94
544.925	416.94
545.139	413.94
545.352	419.94
545.566	398.94
545.779	406.94
545.993	394.94
546.206	413.94
546.42	414.94
546.633	427.94
546.847	411.94
547.06	417.94
547.274	418.94
547.487	406.94
547.7	401.94
547.914	405.94
548.127	394.94
548.34	423.94
548.554	419.94
548.767	393.94
548.98	402.94
549.193	393.94
549.407	398.94
549.62	388.94
549.833	408.94
550.046	407.94
550.259	376.94
550.473	399.94
550.686	383.94
550.899	376.94
551.112	377.94
551.325	404.94
551.538	393.94
551.751	384.94
551.964	379.94
552.177	389.94
552.39	394.94
552.603	378.94
552.816	400.94
553.029	389.94
553.242	403.94
553.455	404.94
553.667	396.94
553.88	399.94
554.093	424.94
554.306	418.94
554.519	418.94
554.732	410.94
554.944	383.94
555.157	394.94
555.37	402.94
555.583	387.94
555.795	377.94
556.008	379.94
556.221	375.94
556.433	351.94
556.646	384.94
556.859	373.94
557.071	375.94
557.284	376.94
557.496	354.94
557.709	377.94
557.921	371.94
558.134	367.94
558.346	371.94
558.559	366.94
558.771	353.94
558.984	362.94
559.196	370.94
559.409	357.94
559.621	347.94
559.833	347.94
560.046	355.94
560.258	360.94
560.47	371.94
560.683	369.94
560.895	366.94
561.107	365.94
561.32	354.94
561.532	363.94
561.744	354.94
561.956	357.94
562.168	352.94
562.381	359.94
562.593	375.94
562.805	353.94
563.017	337.94
563.229	349.94
563.441	339.94
563.653	359.94
563.865	369.94
564.077	373.94
564.289	354.94
564.501	369.94
564.713	352.94
564.925	394.94
565.137	367.94
565.349	390.94
565.561	368.94
565.773	378.94
565.985	376.94
566.197	367.94
566.408	405.94
566.62	397.94
566.832	412.94
567.044	407.94
567.255	411.94
567.467	418.94
567.679	413.94
567.891	421.94
568.102	429.94
568.314	427.94
568.526	414.94
568.737	384.94
568.949	379.94
569.161	374.94
569.372	367.94
569.584	371.94
569.795	363.94
570.007	381.94
570.218	407.94
570.43	400.94
570.641	372.94
570.853	345.94
571.064	333.94
571.276	356.94
571.487	340.94
571.698	327.94
571.91	336.94
572.121	328.94
572.333	330.94
572.544	328.94
572.755	319.94
572.966	323.94
573.178	327.94
573.389	319.94
573.6	328.94
573.811	309.94
574.023	305.94
574.234	307.94
574.445	306.94
574.656	292.94
574.867	306.94
575.078	317.94
575.289	288.94
575.501	315.94
575.712	309.94
575.923	301.94
576.134	308.94
576.345	295.94
576.556	295.94
576.767	304.94
576.978	309.94
577.188	285.94
577.399	284.94
577.61	302.94
577.821	303.94
578.032	317.94
578.243	337.94
578.454	592.94
578.665	425.94
578.875	317.94
579.086	315.94
579.297	297.94
579.508	296.94
579.718	289.94
579.929	284.94
580.14	282.94
580.35	285.94
580.561	280.94
580.772	290.94
580.982	292.94
581.193	272.94
581.403	309.94
581.614	272.94
581.825	286.94
582.035	276.94
582.246	290.94
582.456	255.94
582.667	271.94
582.877	282.94
583.087	294.94
583.298	296.94
583.508	291.94
583.719	293.94
583.929	307.94
584.139	283.94
584.35	271.94
584.56	277.94
584.77	277.94
584.981	253.94
585.191	291.94
585.401	264.94
585.611	287.94
585.821	288.94
586.032	278.94
586.242	275.94
586.452	275.94
586.662	263.94
586.872	269.94
587.082	269.94
587.292	250.94
587.502	247.94
587.713	289.94
587.923	265.94
588.133	282.94
588.343	256.94
588.553	259.94
588.762	259.94
588.972	264.94
589.182	285.94
589.392	281.94
589.602	271.94
589.812	273.94
590.022	278.94
590.232	263.94
590.441	261.94
590.651	270.94
590.861	266.94
591.071	265.94
591.281	251.94
591.49	265.94
591.7	282.94
591.91	259.94
592.119	267.94
592.329	274.94
592.539	267.94
592.748	268.94
592.958	278.94
593.167	285.94
593.377	289.94
593.587	306.94
593.796	286.94
594.006	299.94
594.215	288.94
594.424	279.94
594.634	273.94
594.843	281.94
595.053	267.94
595.262	251.94
595.472	268.94
595.681	272.94
595.89	255.94
596.1	247.94
596.309	254.94
596.518	262.94
596.727	233.94
596.937	243.94
597.146	265.94
597.355	260.94
597.564	264.94
597.774	241.94
597.983	247.94
598.192	241.94
598.401	237.94
598.61	263.94
598.819	238.94
599.028	264.94
599.237	250.94
599.446	246.94
599.655	239.94
599.864	248.94
600.073	240.94
600.282	231.94
600.491	249.94
600.7	241.94
600.909	248.94
601.118	249.94
601.327	252.94
601.536	234.94
601.745	240.94
601.953	222.94
602.162	222.94
602.371	237.94
602.58	225.94
602.789	222.94
602.997	234.94
603.206	238.94
603.415	253.94
603.623	244.94
603.832	231.94
604.041	226.94
604.249	234.94
604.458	222.94
604.666	233.94
604.875	220.94
605.084	238.94
605.292	235.94
605.501	227.94
605.709	241.94
605.918	231.94
606.126	228.94
606.334	217.94
606.543	224.94
606.751	224.94
606.96	227.94
607.168	213.94
607.376	241.94
607.585	224.94
607.793	217.94
608.001	225.94
608.21	235.94
608.418	240.94
608.626	237.94
608.834	231.94
609.043	217.94
609.251	227.94
609.459	226.94
609.667	226.94
609.875	239.94
610.083	227.94
610.291	227.94
610.499	234.94
610.707	217.94
610.916	226.94
611.124	225.94
611.332	215.94
611.54	232.94
611.748	204.94
611.955	221.94
612.163	205.94
612.371	204.94
612.579	225.94
612.787	213.94
612.995	226.94
613.203	211.94
613.411	219.94
613.618	224.94
613.826	225.94
614.034	235.94
614.242	203.94
614.449	219.94
614.657	213.94
614.865	225.94
615.072	232.94
615.28	232.94
615.488	229.94
615.695	215.94
615.903	215.94
616.111	213.94
616.318	221.94
616.526	213.94
616.733	219.94
616.941	217.94
617.148	197.94
617.356	216.94
617.563	223.94
617.771	217.94
617.978	216.94
618.185	225.94
618.393	212.94
618.6	215.94
618.807	211.94
619.015	214.94
619.222	207.94
619.429	218.94
619.637	207.94
619.844	208.94
620.051	203.94
620.258	202.94
620.466	209.94
620.673	222.94
620.88	229.94
621.087	203.94
621.294	209.94
621.501	189.94
621.708	208.94
621.915	201.94
622.122	196.94
622.329	216.94
622.536	193.94
622.743	193.94
622.95	199.94
623.157	193.94
623.364	188.94
623.571	209.94
623.778	201.94
623.985	208.94
624.192	197.94
624.399	205.94
624.606	214.94
624.812	191.94
625.019	202.94
625.226	210.94
625.433	203.94
625.639	191.94
625.846	197.94
626.053	194.94
626.259	189.94
626.466	194.94
626.673	189.94
626.879	185.94
627.086	194.94
627.293	195.94
627.499	187.94
627.706	198.94
627.912	194.94
628.119	193.94
628.325	195.94
628.532	196.94
628.738	196.94
628.945	185.94
629.151	176.94
629.357	178.94
629.564	201.94
629.77	178.94
629.976	182.94
630.183	188.94
630.389	188.94
630.595	165.94
630.802	181.94
631.008	182.94
631.214	190.94
631.42	181.94
631.627	189.94
631.833	179.94
632.039	185.94
632.245	177.94
632.451	183.94
632.657	171.94
632.863	150.94
633.069	167.94
633.275	170.94
633.481	160.94
633.688	168.94
633.893	187.94
634.099	155.94
634.305	160.94
634.511	175.94
634.717	159.94
634.923	155.94
635.129	180.94
635.335	158.94
635.541	160.94
635.747	175.94
635.952	163.94
636.158	179.94
636.364	182.94
636.57	187.94
636.775	179.94
636.981	162.94
637.187	163.94
637.392	169.94
637.598	168.94
637.804	163.94
638.009	157.94
638.215	161.94
638.421	160.94
638.626	169.94
638.832	187.94
639.037	165.94
639.243	172.94
639.448	158.94
639.654	159.94
639.859	163.94
640.065	148.94
640.27	168.94
640.475	158.94
640.681	161.94
640.886	159.94
641.091	184.94
641.297	156.94
641.502	159.94
641.707	159.94
641.913	166.94
642.118	149.94
642.323	158.94
642.528	144.94
642.733	173.94
642.939	172.94
643.144	159.94
643.349	173.94
643.554	145.94
643.759	162.94
643.964	158.94
644.169	159.94
644.374	149.94
644.579	159.94
644.784	158.94
644.989	153.94
645.194	153.94
645.399	165.94
645.604	139.94
645.809	174.94
646.014	155.94
646.219	151.94
646.423	145.94
646.628	157.94
646.833	170.94
647.038	154.94
647.243	153.94
647.447	138.94
647.652	162.94
647.857	171.94
648.062	161.94
648.266	166.94
648.471	160.94
648.676	152.94
648.88	151.94
649.085	168.94
649.289	168.94
649.494	146.94
649.698	182.94
649.903	171.94
650.107	166.94
650.312	147.94
650.516	146.94
650.721	130.94
650.925	137.94
651.13	136.94
651.334	150.94
651.539	130.94
651.743	147.94
651.947	135.94
652.152	137.94
652.356	134.94
652.56	137.94
652.764	144.94
652.969	155.94
653.173	128.94
653.377	132.94
653.581	129.94
653.785	125.94
653.99	128.94
654.194	122.94
654.398	122.94
654.602	132.94
654.806	144.94
655.01	133.94
655.214	148.94
655.418	126.94
655.622	139.94
655.826	137.94
656.03	132.94
656.234	121.94
656.438	124.94
656.642	129.94
656.846	126.94
657.049	126.94
657.253	117.94
657.457	111.94
657.661	113.94
657.865	109.94
658.068	110.94
658.272	105.94
658.476	97.94
658.68	100.94
658.883	92.94
659.087	96.94
659.291	89.94
659.494	94.94
659.698	103.94
659.901	97.94
660.105	82.94
660.309	88.94
660.512	94.94
660.716	93.94
660.919	88.94
661.123	97.94
661.326	81.94
661.53	78.94
661.733	82.94
661.936	88.94
662.14	89.94
662.343	90.94
662.546	81.94
662.75	78.94
662.953	79.94
663.156	85.94
663.36	80.94
663.563	95.94
663.766	96.94
663.969	78.94
664.173	87.94
664.376	64.94
664.579	69.94
664.782	76.94
664.985	79.94
665.188	82.94
665.391	82.94
665.594	78.94
665.797	89.94
666	79.94
666.203	89.94
666.406	76.94
666.609	90.94
666.812	74.94
667.015	70.94
667.218	87.94
667.421	69.94
667.624	78.94
667.827	83.94
668.03	75.94
668.232	85.94
668.435	91.94
668.638	79.94
668.841	76.94
669.043	83.94
669.246	92.94
669.449	77.94
669.651	71.94
669.854	73.94
670.057	74.94
670.259	84.94
670.462	68.94
670.665	88.94
670.867	72.94
671.07	80.94
671.272	89.94
671.475	72.94
671.677	81.94
671.88	82.94
672.082	66.94
672.284	82.94
672.487	82.94
672.689	90.94
672.892	83.94
