Data from 1989.PennyLincolnUp.Lamp.En5.5.200Scan.071819.P2_HRD10591_17-25-50-973.txt Node
Date: Thu Jul 18 17:25:50 EDT 2019
User: cochatt
Spectrometer: HR+D1059
Trigger mode: 1
Integration Time (sec): 1.000000E-1
Scans to average: 1
Electric dark correction enabled: true
Nonlinearity correction enabled: false
Boxcar width: 0
XAxis mode: Wavelengths
Number of Pixels in Spectrum: 2048
>>>>>Begin Spectral Data<<<<<
223.165	-20.62
223.4	-20.62
223.635	-20.62
223.869	-7.62
224.104	-9.62
224.338	-23.62
224.573	-21.62
224.808	-2.62
225.042	-1.62
225.277	-4.62
225.511	-16.62
225.746	4.38
225.98	1.38
226.215	8.38
226.449	19.38
226.683	19.38
226.918	33.38
227.152	22.38
227.387	37.38
227.621	38.38
227.856	42.38
228.09	43.38
228.324	36.38
228.559	47.38
228.793	77.38
229.027	97.38
229.262	113.38
229.496	114.38
229.73	137.38
229.964	172.38
230.199	151.38
230.433	129.38
230.667	107.38
230.901	140.38
231.136	105.38
231.37	112.38
231.604	118.38
231.838	122.38
232.072	117.38
232.306	122.38
232.541	114.38
232.775	108.38
233.009	127.38
233.243	113.38
233.477	101.38
233.711	120.38
233.945	116.38
234.179	121.38
234.413	108.38
234.647	124.38
234.881	118.38
235.115	122.38
235.349	108.38
235.583	124.38
235.817	120.38
236.051	134.38
236.285	134.38
236.519	145.38
236.753	137.38
236.987	142.38
237.221	184.38
237.455	240.38
237.689	204.38
237.922	148.38
238.156	121.38
238.39	140.38
238.624	130.38
238.858	127.38
239.091	123.38
239.325	128.38
239.559	126.38
239.793	136.38
240.027	149.38
240.26	143.38
240.494	165.38
240.728	160.38
240.961	169.38
241.195	141.38
241.429	133.38
241.662	150.38
241.896	140.38
242.13	137.38
242.363	137.38
242.597	146.38
242.83	155.38
243.064	135.38
243.298	144.38
243.531	141.38
243.765	154.38
243.998	148.38
244.232	136.38
244.465	166.38
244.699	164.38
244.932	154.38
245.166	164.38
245.399	137.38
245.633	135.38
245.866	148.38
246.099	169.38
246.333	155.38
246.566	163.38
246.8	145.38
247.033	158.38
247.266	166.38
247.5	184.38
247.733	166.38
247.966	184.38
248.2	185.38
248.433	181.38
248.666	186.38
248.899	189.38
249.133	228.38
249.366	234.38
249.599	209.38
249.832	201.38
250.066	196.38
250.299	188.38
250.532	205.38
250.765	251.38
250.998	256.38
251.231	264.38
251.465	241.38
251.698	230.38
251.931	212.38
252.164	216.38
252.397	226.38
252.63	218.38
252.863	233.38
253.096	241.38
253.329	242.38
253.562	263.38
253.795	243.38
254.028	259.38
254.261	257.38
254.494	261.38
254.727	280.38
254.96	296.38
255.193	306.38
255.426	264.38
255.659	250.38
255.892	285.38
256.124	270.38
256.357	280.38
256.59	274.38
256.823	241.38
257.056	232.38
257.289	251.38
257.521	252.38
257.754	250.38
257.987	260.38
258.22	224.38
258.452	221.38
258.685	218.38
258.918	240.38
259.151	237.38
259.383	221.38
259.616	225.38
259.849	257.38
260.081	240.38
260.314	277.38
260.547	284.38
260.779	284.38
261.012	266.38
261.244	267.38
261.477	258.38
261.71	246.38
261.942	233.38
262.175	262.38
262.407	264.38
262.64	263.38
262.872	230.38
263.105	233.38
263.337	252.38
263.57	233.38
263.802	230.38
264.035	223.38
264.267	227.38
264.499	233.38
264.732	234.38
264.964	237.38
265.197	227.38
265.429	215.38
265.661	221.38
265.894	231.38
266.126	243.38
266.358	248.38
266.591	237.38
266.823	230.38
267.055	236.38
267.287	260.38
267.52	251.38
267.752	271.38
267.984	237.38
268.216	242.38
268.448	259.38
268.681	253.38
268.913	270.38
269.145	299.38
269.377	308.38
269.609	314.38
269.841	301.38
270.073	290.38
270.306	315.38
270.538	338.38
270.77	339.38
271.002	337.38
271.234	325.38
271.466	337.38
271.698	362.38
271.93	370.38
272.162	338.38
272.394	359.38
272.626	337.38
272.858	333.38
273.09	298.38
273.322	308.38
273.553	287.38
273.785	278.38
274.017	292.38
274.249	289.38
274.481	297.38
274.713	294.38
274.945	280.38
275.176	298.38
275.408	298.38
275.64	313.38
275.872	303.38
276.104	296.38
276.335	305.38
276.567	314.38
276.799	317.38
277.031	334.38
277.262	360.38
277.494	362.38
277.726	339.38
277.957	321.38
278.189	298.38
278.421	317.38
278.652	314.38
278.884	291.38
279.115	290.38
279.347	292.38
279.579	293.38
279.81	290.38
280.042	276.38
280.273	293.38
280.505	300.38
280.736	291.38
280.968	298.38
281.199	308.38
281.431	296.38
281.662	304.38
281.894	306.38
282.125	291.38
282.356	322.38
282.588	343.38
282.819	321.38
283.051	310.38
283.282	304.38
283.513	299.38
283.745	308.38
283.976	292.38
284.207	280.38
284.439	316.38
284.67	310.38
284.901	299.38
285.132	304.38
285.364	308.38
285.595	297.38
285.826	293.38
286.057	300.38
286.288	297.38
286.52	308.38
286.751	306.38
286.982	299.38
287.213	314.38
287.444	311.38
287.675	311.38
287.906	316.38
288.138	327.38
288.369	318.38
288.6	312.38
288.831	326.38
289.062	324.38
289.293	325.38
289.524	326.38
289.755	314.38
289.986	327.38
290.217	306.38
290.448	305.38
290.679	320.38
290.91	294.38
291.141	290.38
291.371	298.38
291.602	314.38
291.833	308.38
292.064	313.38
292.295	312.38
292.526	311.38
292.757	322.38
292.987	311.38
293.218	304.38
293.449	327.38
293.68	305.38
293.91	312.38
294.141	300.38
294.372	300.38
294.603	321.38
294.833	313.38
295.064	314.38
295.295	320.38
295.525	316.38
295.756	307.38
295.987	332.38
296.217	364.38
296.448	362.38
296.679	336.38
296.909	330.38
297.14	303.38
297.37	316.38
297.601	321.38
297.831	324.38
298.062	313.38
298.292	328.38
298.523	315.38
298.753	326.38
298.984	322.38
299.214	333.38
299.445	315.38
299.675	333.38
299.905	332.38
300.136	338.38
300.366	326.38
300.597	324.38
300.827	336.38
301.057	349.38
301.288	368.38
301.518	360.38
301.748	349.38
301.979	331.38
302.209	333.38
302.439	364.38
302.669	364.38
302.9	350.38
303.13	356.38
303.36	373.38
303.59	364.38
303.82	378.38
304.051	359.38
304.281	347.38
304.511	358.38
304.741	341.38
304.971	340.38
305.201	342.38
305.431	369.38
305.661	348.38
305.891	367.38
306.121	368.38
306.352	346.38
306.582	380.38
306.812	353.38
307.042	350.38
307.272	367.38
307.502	353.38
307.731	376.38
307.961	372.38
308.191	364.38
308.421	376.38
308.651	347.38
308.881	364.38
309.111	388.38
309.341	372.38
309.571	370.38
309.8	391.38
310.03	414.38
310.26	407.38
310.49	413.38
310.72	425.38
310.949	424.38
311.179	453.38
311.409	414.38
311.639	436.38
311.868	393.38
312.098	415.38
312.328	433.38
312.557	462.38
312.787	454.38
313.017	441.38
313.246	436.38
313.476	409.38
313.706	389.38
313.935	413.38
314.165	428.38
314.394	424.38
314.624	435.38
314.853	416.38
315.083	426.38
315.312	413.38
315.542	405.38
315.771	416.38
316.001	404.38
316.23	420.38
316.46	394.38
316.689	395.38
316.919	429.38
317.148	419.38
317.377	443.38
317.607	433.38
317.836	407.38
318.065	404.38
318.295	403.38
318.524	405.38
318.753	406.38
318.983	420.38
319.212	410.38
319.441	423.38
319.67	420.38
319.9	397.38
320.129	398.38
320.358	421.38
320.587	416.38
320.816	426.38
321.046	434.38
321.275	425.38
321.504	434.38
321.733	436.38
321.962	461.38
322.191	457.38
322.42	484.38
322.649	491.38
322.878	504.38
323.108	502.38
323.337	556.38
323.566	578.38
323.795	601.38
324.024	653.38
324.253	816.38
324.482	1176.38
324.71	1848.38
324.939	2590.38
325.168	2267.38
325.397	1150.38
325.626	771.38
325.855	644.38
326.084	585.38
326.313	577.38
326.542	562.38
326.77	628.38
326.999	760.38
327.228	1047.38
327.457	1625.38
327.686	1966.38
327.914	1301.38
328.143	862.38
328.372	741.38
328.6	699.38
328.829	659.38
329.058	659.38
329.287	674.38
329.515	642.38
329.744	587.38
329.972	582.38
330.201	634.38
330.43	696.38
330.658	689.38
330.887	723.38
331.115	661.38
331.344	595.38
331.572	562.38
331.801	545.38
332.03	538.38
332.258	517.38
332.486	483.38
332.715	478.38
332.943	499.38
333.172	501.38
333.4	499.38
333.629	505.38
333.857	538.38
334.085	538.38
334.314	582.38
334.542	604.38
334.771	631.38
334.999	583.38
335.227	521.38
335.455	497.38
335.684	486.38
335.912	474.38
336.14	468.38
336.369	484.38
336.597	490.38
336.825	507.38
337.053	479.38
337.281	473.38
337.51	458.38
337.738	469.38
337.966	481.38
338.194	484.38
338.422	474.38
338.65	446.38
338.878	468.38
339.106	459.38
339.334	450.38
339.562	453.38
339.79	441.38
340.018	464.38
340.246	461.38
340.474	451.38
340.702	459.38
340.93	442.38
341.158	449.38
341.386	470.38
341.614	446.38
341.842	452.38
342.07	429.38
342.298	438.38
342.526	440.38
342.754	458.38
342.981	448.38
343.209	440.38
343.437	445.38
343.665	450.38
343.893	450.38
344.12	459.38
344.348	435.38
344.576	435.38
344.804	476.38
345.031	455.38
345.259	476.38
345.487	475.38
345.714	457.38
345.942	451.38
346.17	438.38
346.397	425.38
346.625	428.38
346.853	437.38
347.08	440.38
347.308	437.38
347.535	462.38
347.763	446.38
347.99	442.38
348.218	468.38
348.445	446.38
348.673	432.38
348.9	443.38
349.128	435.38
349.355	436.38
349.583	418.38
349.81	433.38
350.037	414.38
350.265	432.38
350.492	437.38
350.72	446.38
350.947	426.38
351.174	440.38
351.402	440.38
351.629	455.38
351.856	443.38
352.083	443.38
352.311	454.38
352.538	461.38
352.765	448.38
352.992	443.38
353.22	425.38
353.447	437.38
353.674	438.38
353.901	405.38
354.128	393.38
354.355	408.38
354.583	404.38
354.81	425.38
355.037	390.38
355.264	397.38
355.491	386.38
355.718	406.38
355.945	381.38
356.172	393.38
356.399	395.38
356.626	393.38
356.853	380.38
357.08	385.38
357.307	404.38
357.534	402.38
357.761	394.38
357.988	402.38
358.215	406.38
358.441	393.38
358.668	404.38
358.895	410.38
359.122	404.38
359.349	418.38
359.576	445.38
359.802	450.38
360.029	477.38
360.256	483.38
360.483	485.38
360.709	442.38
360.936	434.38
361.163	413.38
361.39	424.38
361.616	420.38
361.843	430.38
362.07	439.38
362.296	447.38
362.523	440.38
362.749	447.38
362.976	434.38
363.203	414.38
363.429	416.38
363.656	404.38
363.882	394.38
364.109	401.38
364.335	390.38
364.562	411.38
364.788	390.38
365.015	403.38
365.241	388.38
365.468	399.38
365.694	403.38
365.92	398.38
366.147	396.38
366.373	418.38
366.599	409.38
366.826	398.38
367.052	381.38
367.278	411.38
367.505	410.38
367.731	405.38
367.957	421.38
368.184	402.38
368.41	387.38
368.636	419.38
368.862	425.38
369.089	434.38
369.315	422.38
369.541	393.38
369.767	403.38
369.993	411.38
370.219	388.38
370.445	402.38
370.672	378.38
370.898	393.38
371.124	398.38
371.35	398.38
371.576	401.38
371.802	384.38
372.028	388.38
372.254	394.38
372.48	382.38
372.706	407.38
372.932	391.38
373.158	390.38
373.384	374.38
373.61	409.38
373.835	412.38
374.061	396.38
374.287	409.38
374.513	404.38
374.739	389.38
374.965	403.38
375.191	398.38
375.416	408.38
375.642	410.38
375.868	426.38
376.094	400.38
376.319	395.38
376.545	394.38
376.771	386.38
376.997	378.38
377.222	374.38
377.448	407.38
377.674	384.38
377.899	400.38
378.125	386.38
378.35	386.38
378.576	384.38
378.802	391.38
379.027	399.38
379.253	386.38
379.478	391.38
379.704	408.38
379.929	378.38
380.155	373.38
380.38	397.38
380.606	392.38
380.831	392.38
381.057	403.38
381.282	390.38
381.507	390.38
381.733	385.38
381.958	389.38
382.184	394.38
382.409	386.38
382.634	391.38
382.86	400.38
383.085	402.38
383.31	382.38
383.535	385.38
383.761	396.38
383.986	397.38
384.211	402.38
384.436	412.38
384.662	406.38
384.887	405.38
385.112	390.38
385.337	418.38
385.562	394.38
385.787	418.38
386.013	434.38
386.238	435.38
386.463	422.38
386.688	411.38
386.913	397.38
387.138	400.38
387.363	406.38
387.588	399.38
387.813	398.38
388.038	405.38
388.263	434.38
388.488	418.38
388.713	416.38
388.938	420.38
389.163	422.38
389.387	427.38
389.612	414.38
389.837	412.38
390.062	413.38
390.287	413.38
390.512	401.38
390.736	418.38
390.961	406.38
391.186	405.38
391.411	423.38
391.636	410.38
391.86	412.38
392.085	410.38
392.31	392.38
392.534	411.38
392.759	420.38
392.984	406.38
393.208	408.38
393.433	409.38
393.658	429.38
393.882	391.38
394.107	393.38
394.331	413.38
394.556	395.38
394.78	406.38
395.005	414.38
395.229	423.38
395.454	438.38
395.678	418.38
395.903	443.38
396.127	462.38
396.352	433.38
396.576	449.38
396.801	421.38
397.025	424.38
397.249	415.38
397.474	417.38
397.698	429.38
397.922	426.38
398.147	461.38
398.371	443.38
398.595	456.38
398.82	462.38
399.044	480.38
399.268	472.38
399.492	488.38
399.717	497.38
399.941	512.38
400.165	577.38
400.389	560.38
400.613	514.38
400.837	493.38
401.062	476.38
401.286	465.38
401.51	474.38
401.734	456.38
401.958	435.38
402.182	475.38
402.406	488.38
402.63	484.38
402.854	461.38
403.078	462.38
403.302	461.38
403.526	475.38
403.75	480.38
403.974	468.38
404.198	482.38
404.422	468.38
404.645	485.38
404.869	500.38
405.093	532.38
405.317	580.38
405.541	608.38
405.765	544.38
405.988	506.38
406.212	526.38
406.436	542.38
406.66	561.38
406.883	542.38
407.107	552.38
407.331	618.38
407.555	648.38
407.778	637.38
408.002	589.38
408.226	546.38
408.449	521.38
408.673	541.38
408.896	564.38
409.12	607.38
409.344	591.38
409.567	519.38
409.791	513.38
410.014	481.38
410.238	486.38
410.461	480.38
410.685	513.38
410.908	500.38
411.132	522.38
411.355	578.38
411.578	557.38
411.802	499.38
412.025	474.38
412.249	488.38
412.472	529.38
412.695	578.38
412.919	553.38
413.142	502.38
413.365	490.38
413.589	478.38
413.812	469.38
414.035	461.38
414.258	462.38
414.482	435.38
414.705	451.38
414.928	461.38
415.151	460.38
415.374	456.38
415.597	450.38
415.821	436.38
416.044	460.38
416.267	467.38
416.49	440.38
416.713	451.38
416.936	435.38
417.159	444.38
417.382	469.38
417.605	488.38
417.828	483.38
418.051	480.38
418.274	496.38
418.497	470.38
418.72	456.38
418.943	466.38
419.166	471.38
419.389	484.38
419.611	498.38
419.834	494.38
420.057	492.38
420.28	503.38
420.503	485.38
420.726	498.38
420.948	508.38
421.171	568.38
421.394	564.38
421.617	499.38
421.839	493.38
422.062	483.38
422.285	508.38
422.507	574.38
422.73	635.38
422.953	610.38
423.175	538.38
423.398	520.38
423.621	516.38
423.843	531.38
424.066	524.38
424.288	525.38
424.511	533.38
424.733	601.38
424.956	674.38
425.178	636.38
425.401	658.38
425.623	685.38
425.846	566.38
426.068	533.38
426.291	515.38
426.513	498.38
426.735	528.38
426.958	577.38
427.18	647.38
427.402	782.38
427.625	870.38
427.847	782.38
428.069	708.38
428.292	629.38
428.514	546.38
428.736	498.38
428.958	508.38
429.181	483.38
429.403	474.38
429.625	485.38
429.847	524.38
430.069	593.38
430.292	604.38
430.514	504.38
430.736	509.38
430.958	485.38
431.18	438.38
431.402	459.38
431.624	449.38
431.846	433.38
432.068	449.38
432.29	460.38
432.512	457.38
432.734	467.38
432.956	461.38
433.178	455.38
433.4	470.38
433.622	458.38
433.844	434.38
434.066	440.38
434.287	448.38
434.509	449.38
434.731	478.38
434.953	477.38
435.175	475.38
435.397	487.38
435.618	507.38
435.84	585.38
436.062	656.38
436.284	717.38
436.505	589.38
436.727	561.38
436.949	514.38
437.17	503.38
437.392	465.38
437.614	495.38
437.835	529.38
438.057	640.38
438.278	752.38
438.5	728.38
438.721	800.38
438.943	762.38
439.165	597.38
439.386	545.38
439.608	547.38
439.829	529.38
440.05	574.38
440.272	634.38
440.493	589.38
440.715	534.38
440.936	483.38
441.158	484.38
441.379	490.38
441.6	502.38
441.822	500.38
442.043	586.38
442.264	650.38
442.486	689.38
442.707	597.38
442.928	574.38
443.149	550.38
443.371	571.38
443.592	627.38
443.813	700.38
444.034	724.38
444.255	642.38
444.476	548.38
444.698	536.38
444.919	496.38
445.14	634.38
445.361	584.38
445.582	560.38
445.803	654.38
446.024	784.38
446.245	769.38
446.466	672.38
446.687	568.38
446.908	563.38
447.129	493.38
447.35	493.38
447.571	492.38
447.792	486.38
448.013	470.38
448.234	504.38
448.455	566.38
448.675	675.38
448.896	790.38
449.117	660.38
449.338	631.38
449.559	728.38
449.779	833.38
450	674.38
450.221	572.38
450.442	506.38
450.662	472.38
450.883	473.38
451.104	514.38
451.324	488.38
451.545	475.38
451.766	458.38
451.986	432.38
452.207	408.38
452.428	431.38
452.648	441.38
452.869	458.38
453.089	453.38
453.31	474.38
453.53	447.38
453.751	417.38
453.971	430.38
454.192	452.38
454.412	460.38
454.633	398.38
454.853	419.38
455.073	421.38
455.294	474.38
455.514	512.38
455.734	531.38
455.955	436.38
456.175	404.38
456.395	399.38
456.616	392.38
456.836	410.38
457.056	407.38
457.276	390.38
457.497	403.38
457.717	405.38
457.937	402.38
458.157	402.38
458.377	422.38
458.598	442.38
458.818	520.38
459.038	600.38
459.258	601.38
459.478	516.38
459.698	470.38
459.918	448.38
460.138	442.38
460.358	434.38
460.578	440.38
460.798	442.38
461.018	447.38
461.238	450.38
461.458	425.38
461.678	436.38
461.898	454.38
462.118	440.38
462.338	447.38
462.558	440.38
462.777	448.38
462.997	467.38
463.217	479.38
463.437	482.38
463.657	465.38
463.876	499.38
464.096	475.38
464.316	480.38
464.536	485.38
464.755	500.38
464.975	471.38
465.195	526.38
465.414	622.38
465.634	552.38
465.854	482.38
466.073	467.38
466.293	450.38
466.512	452.38
466.732	443.38
466.951	440.38
467.171	425.38
467.391	444.38
467.61	453.38
467.829	452.38
468.049	438.38
468.268	451.38
468.488	437.38
468.707	439.38
468.927	432.38
469.146	421.38
469.365	420.38
469.585	414.38
469.804	424.38
470.023	443.38
470.243	450.38
470.462	441.38
470.681	475.38
470.901	452.38
471.12	437.38
471.339	461.38
471.558	443.38
471.777	454.38
471.997	453.38
472.216	448.38
472.435	520.38
472.654	504.38
472.873	455.38
473.092	442.38
473.311	443.38
473.53	437.38
473.749	462.38
473.968	527.38
474.187	614.38
474.406	642.38
474.625	524.38
474.844	476.38
475.063	460.38
475.282	458.38
475.501	450.38
475.72	448.38
475.939	478.38
476.158	458.38
476.377	468.38
476.596	467.38
476.814	457.38
477.033	459.38
477.252	458.38
477.471	472.38
477.69	490.38
477.908	482.38
478.127	479.38
478.346	484.38
478.564	469.38
478.783	484.38
479.002	499.38
479.22	498.38
479.439	497.38
479.658	517.38
479.876	513.38
480.095	531.38
480.313	560.38
480.532	572.38
480.751	573.38
480.969	573.38
481.188	663.38
481.406	725.38
481.624	616.38
481.843	556.38
482.061	539.38
482.28	530.38
482.498	535.38
482.717	518.38
482.935	539.38
483.153	515.38
483.372	523.38
483.59	516.38
483.808	526.38
484.027	504.38
484.245	525.38
484.463	520.38
484.681	512.38
484.9	548.38
485.118	520.38
485.336	535.38
485.554	535.38
485.772	544.38
485.99	526.38
486.209	541.38
486.427	559.38
486.645	558.38
486.863	606.38
487.081	565.38
487.299	548.38
487.517	548.38
487.735	559.38
487.953	553.38
488.171	572.38
488.389	573.38
488.607	546.38
488.825	552.38
489.043	584.38
489.261	585.38
489.479	594.38
489.696	574.38
489.914	589.38
490.132	607.38
490.35	574.38
490.568	580.38
490.786	610.38
491.003	610.38
491.221	606.38
491.439	636.38
491.657	650.38
491.874	648.38
492.092	662.38
492.31	656.38
492.527	662.38
492.745	658.38
492.963	678.38
493.18	661.38
493.398	657.38
493.615	664.38
493.833	680.38
494.05	682.38
494.268	678.38
494.485	669.38
494.703	660.38
494.92	701.38
495.138	642.38
495.355	690.38
495.573	680.38
495.79	680.38
496.008	666.38
496.225	670.38
496.442	681.38
496.66	689.38
496.877	667.38
497.094	664.38
497.312	687.38
497.529	678.38
497.746	704.38
497.963	699.38
498.181	717.38
498.398	719.38
498.615	724.38
498.832	733.38
499.049	733.38
499.267	741.38
499.484	755.38
499.701	804.38
499.918	796.38
500.135	830.38
500.352	836.38
500.569	855.38
500.786	852.38
501.003	881.38
501.22	856.38
501.437	816.38
501.654	817.38
501.871	835.38
502.088	807.38
502.305	748.38
502.522	750.38
502.739	721.38
502.956	712.38
503.172	715.38
503.389	684.38
503.606	696.38
503.823	696.38
504.04	679.38
504.256	680.38
504.473	651.38
504.69	677.38
504.907	651.38
505.123	647.38
505.34	651.38
505.557	660.38
505.773	641.38
505.99	650.38
506.207	643.38
506.423	627.38
506.64	649.38
506.856	628.38
507.073	629.38
507.289	630.38
507.506	624.38
507.722	634.38
507.939	669.38
508.155	630.38
508.372	598.38
508.588	602.38
508.805	611.38
509.021	620.38
509.238	639.38
509.454	645.38
509.67	651.38
509.887	628.38
510.103	616.38
510.319	648.38
510.536	714.38
510.752	1286.38
510.968	1021.38
511.184	631.38
511.401	632.38
511.617	604.38
511.833	601.38
512.049	600.38
512.265	584.38
512.481	578.38
512.698	586.38
512.914	570.38
513.13	590.38
513.346	591.38
513.562	592.38
513.778	572.38
513.994	621.38
514.21	583.38
514.426	629.38
514.642	696.38
514.858	737.38
515.074	784.38
515.29	902.38
515.506	1409.38
515.721	1120.38
515.937	728.38
516.153	680.38
516.369	647.38
516.585	616.38
516.801	607.38
517.016	593.38
517.232	590.38
517.448	602.38
517.664	572.38
517.879	581.38
518.095	576.38
518.311	574.38
518.527	590.38
518.742	587.38
518.958	578.38
519.173	590.38
519.389	597.38
519.605	592.38
519.82	589.38
520.036	607.38
520.251	628.38
520.467	658.38
520.682	632.38
520.898	660.38
521.113	702.38
521.329	721.38
521.544	839.38
521.76	1085.38
521.975	1855.38
522.19	1825.38
522.406	984.38
522.621	718.38
522.836	609.38
523.052	562.38
523.267	553.38
523.482	564.38
523.698	540.38
523.913	553.38
524.128	542.38
524.343	522.38
524.559	511.38
524.774	507.38
524.989	527.38
525.204	522.38
525.419	522.38
525.634	502.38
525.849	486.38
526.064	482.38
526.28	496.38
526.495	476.38
526.71	468.38
526.925	459.38
527.14	452.38
527.355	451.38
527.57	464.38
527.785	469.38
527.999	478.38
528.214	466.38
528.429	474.38
528.644	472.38
528.859	472.38
529.074	488.38
529.289	494.38
529.503	589.38
529.718	554.38
529.933	500.38
530.148	493.38
530.363	491.38
530.577	473.38
530.792	465.38
531.007	453.38
531.221	450.38
531.436	454.38
531.651	454.38
531.865	460.38
532.08	460.38
532.295	453.38
532.509	448.38
532.724	432.38
532.938	447.38
533.153	450.38
533.367	432.38
533.582	426.38
533.796	424.38
534.011	436.38
534.225	447.38
534.44	457.38
534.654	420.38
534.868	406.38
535.083	427.38
535.297	442.38
535.511	440.38
535.726	468.38
535.94	465.38
536.154	442.38
536.369	442.38
536.583	427.38
536.797	423.38
537.011	426.38
537.225	426.38
537.44	405.38
537.654	440.38
537.868	422.38
538.082	424.38
538.296	431.38
538.51	439.38
538.724	440.38
538.938	436.38
539.153	436.38
539.367	441.38
539.581	434.38
539.795	445.38
540.009	420.38
540.222	412.38
540.436	438.38
540.65	425.38
540.864	422.38
541.078	426.38
541.292	437.38
541.506	425.38
541.72	425.38
541.934	430.38
542.147	424.38
542.361	435.38
542.575	414.38
542.789	421.38
543.002	426.38
543.216	426.38
543.43	434.38
543.644	436.38
543.857	429.38
544.071	443.38
544.285	424.38
544.498	423.38
544.712	416.38
544.925	423.38
545.139	424.38
545.352	420.38
545.566	417.38
545.779	409.38
545.993	398.38
546.206	402.38
546.42	409.38
546.633	390.38
546.847	404.38
547.06	429.38
547.274	401.38
547.487	398.38
547.7	410.38
547.914	402.38
548.127	404.38
548.34	415.38
548.554	392.38
548.767	386.38
548.98	396.38
549.193	396.38
549.407	415.38
549.62	417.38
549.833	404.38
550.046	411.38
550.259	405.38
550.473	384.38
550.686	407.38
550.899	398.38
551.112	399.38
551.325	398.38
551.538	389.38
551.751	384.38
551.964	377.38
552.177	398.38
552.39	388.38
552.603	372.38
552.816	374.38
553.029	390.38
553.242	405.38
553.455	399.38
553.667	410.38
553.88	406.38
554.093	422.38
554.306	413.38
554.519	405.38
554.732	406.38
554.944	363.38
555.157	377.38
555.37	385.38
555.583	378.38
555.795	372.38
556.008	390.38
556.221	376.38
556.433	373.38
556.646	348.38
556.859	368.38
557.071	346.38
557.284	368.38
557.496	356.38
557.709	375.38
557.921	358.38
558.134	363.38
558.346	362.38
558.559	356.38
558.771	358.38
558.984	346.38
559.196	342.38
559.409	341.38
559.621	351.38
559.833	354.38
560.046	356.38
560.258	347.38
560.47	345.38
560.683	354.38
560.895	359.38
561.107	342.38
561.32	362.38
561.532	343.38
561.744	358.38
561.956	379.38
562.168	351.38
562.381	366.38
562.593	356.38
562.805	351.38
563.017	377.38
563.229	351.38
563.441	340.38
563.653	352.38
563.865	354.38
564.077	353.38
564.289	361.38
564.501	360.38
564.713	356.38
564.925	368.38
565.137	370.38
565.349	385.38
565.561	370.38
565.773	395.38
565.985	371.38
566.197	384.38
566.408	386.38
566.62	401.38
566.832	394.38
567.044	398.38
567.255	401.38
567.467	432.38
567.679	409.38
567.891	427.38
568.102	397.38
568.314	399.38
568.526	407.38
568.737	391.38
568.949	386.38
569.161	395.38
569.372	372.38
569.584	357.38
569.795	359.38
570.007	357.38
570.218	430.38
570.43	392.38
570.641	343.38
570.853	334.38
571.064	344.38
571.276	329.38
571.487	328.38
571.698	330.38
571.91	331.38
572.121	317.38
572.333	314.38
572.544	310.38
572.755	313.38
572.966	314.38
573.178	300.38
573.389	321.38
573.6	325.38
573.811	312.38
574.023	316.38
574.234	323.38
574.445	299.38
574.656	327.38
574.867	299.38
575.078	326.38
575.289	313.38
575.501	301.38
575.712	294.38
575.923	327.38
576.134	317.38
576.345	306.38
576.556	304.38
576.767	315.38
576.978	311.38
577.188	323.38
577.399	309.38
577.61	299.38
577.821	298.38
578.032	301.38
578.243	355.38
578.454	591.38
578.665	428.38
578.875	308.38
579.086	306.38
579.297	297.38
579.508	297.38
579.718	269.38
579.929	293.38
580.14	282.38
580.35	300.38
580.561	297.38
580.772	285.38
580.982	279.38
581.193	278.38
581.403	290.38
581.614	271.38
581.825	271.38
582.035	273.38
582.246	300.38
582.456	280.38
582.667	275.38
582.877	269.38
583.087	285.38
583.298	274.38
583.508	285.38
583.719	273.38
583.929	291.38
584.139	267.38
584.35	272.38
584.56	266.38
584.77	264.38
584.981	270.38
585.191	298.38
585.401	277.38
585.611	290.38
585.821	277.38
586.032	278.38
586.242	281.38
586.452	268.38
586.662	285.38
586.872	273.38
587.082	275.38
587.292	281.38
587.502	259.38
587.713	291.38
587.923	267.38
588.133	269.38
588.343	261.38
588.553	269.38
588.762	259.38
588.972	281.38
589.182	273.38
589.392	260.38
589.602	255.38
589.812	276.38
590.022	281.38
590.232	267.38
590.441	263.38
590.651	272.38
590.861	267.38
591.071	262.38
591.281	280.38
591.49	279.38
591.7	285.38
591.91	291.38
592.119	261.38
592.329	270.38
592.539	270.38
592.748	286.38
592.958	274.38
593.167	265.38
593.377	289.38
593.587	284.38
593.796	282.38
594.006	268.38
594.215	281.38
594.424	266.38
594.634	277.38
594.843	282.38
595.053	292.38
595.262	278.38
595.472	283.38
595.681	269.38
595.89	253.38
596.1	255.38
596.309	253.38
596.518	256.38
596.727	254.38
596.937	246.38
597.146	255.38
597.355	260.38
597.564	249.38
597.774	262.38
597.983	244.38
598.192	236.38
598.401	249.38
598.61	244.38
598.819	264.38
599.028	252.38
599.237	260.38
599.446	229.38
599.655	231.38
599.864	230.38
600.073	237.38
600.282	236.38
600.491	243.38
600.7	231.38
600.909	229.38
601.118	223.38
601.327	235.38
601.536	265.38
601.745	259.38
601.953	242.38
602.162	228.38
602.371	232.38
602.58	236.38
602.789	228.38
602.997	239.38
603.206	245.38
603.415	243.38
603.623	233.38
603.832	241.38
604.041	228.38
604.249	233.38
604.458	219.38
604.666	229.38
604.875	214.38
605.084	234.38
605.292	227.38
605.501	233.38
605.709	247.38
605.918	214.38
606.126	231.38
606.334	253.38
606.543	231.38
606.751	223.38
606.96	217.38
607.168	233.38
607.376	232.38
607.585	219.38
607.793	218.38
608.001	237.38
608.21	234.38
608.418	222.38
608.626	234.38
608.834	232.38
609.043	205.38
609.251	220.38
609.459	224.38
609.667	233.38
609.875	237.38
610.083	217.38
610.291	202.38
610.499	227.38
610.707	217.38
610.916	232.38
611.124	218.38
611.332	242.38
611.54	244.38
611.748	224.38
611.955	222.38
612.163	201.38
612.371	221.38
612.579	209.38
612.787	240.38
612.995	228.38
613.203	225.38
613.411	229.38
613.618	217.38
613.826	222.38
614.034	223.38
614.242	206.38
614.449	217.38
614.657	226.38
614.865	225.38
615.072	225.38
615.28	209.38
615.488	223.38
615.695	206.38
615.903	219.38
616.111	226.38
616.318	223.38
616.526	236.38
616.733	206.38
616.941	213.38
617.148	208.38
617.356	225.38
617.563	219.38
617.771	213.38
617.978	201.38
618.185	213.38
618.393	202.38
618.6	228.38
618.807	202.38
619.015	210.38
619.222	220.38
619.429	203.38
619.637	208.38
619.844	210.38
620.051	197.38
620.258	218.38
620.466	200.38
620.673	208.38
620.88	202.38
621.087	212.38
621.294	200.38
621.501	204.38
621.708	204.38
621.915	211.38
622.122	212.38
622.329	219.38
622.536	208.38
622.743	197.38
622.95	219.38
623.157	198.38
623.364	211.38
623.571	204.38
623.778	209.38
623.985	213.38
624.192	217.38
624.399	204.38
624.606	209.38
624.812	200.38
625.019	182.38
625.226	206.38
625.433	202.38
625.639	188.38
625.846	198.38
626.053	203.38
626.259	200.38
626.466	188.38
626.673	189.38
626.879	208.38
627.086	192.38
627.293	197.38
627.499	208.38
627.706	199.38
627.912	181.38
628.119	180.38
628.325	192.38
628.532	187.38
628.738	187.38
628.945	193.38
629.151	182.38
629.357	177.38
629.564	177.38
629.77	200.38
629.976	188.38
630.183	182.38
630.389	190.38
630.595	180.38
630.802	170.38
631.008	191.38
631.214	192.38
631.42	169.38
631.627	165.38
631.833	165.38
632.039	189.38
632.245	189.38
632.451	185.38
632.657	198.38
632.863	165.38
633.069	169.38
633.275	172.38
633.481	164.38
633.688	186.38
633.893	183.38
634.099	184.38
634.305	174.38
634.511	174.38
634.717	171.38
634.923	165.38
635.129	180.38
635.335	172.38
635.541	177.38
635.747	160.38
635.952	147.38
636.158	159.38
636.364	184.38
636.57	186.38
636.775	171.38
636.981	174.38
637.187	171.38
637.392	167.38
637.598	190.38
637.804	168.38
638.009	170.38
638.215	173.38
638.421	178.38
638.626	158.38
638.832	165.38
639.037	165.38
639.243	160.38
639.448	166.38
639.654	150.38
639.859	154.38
640.065	165.38
640.27	168.38
640.475	184.38
640.681	162.38
640.886	156.38
641.091	159.38
641.297	148.38
641.502	173.38
641.707	176.38
641.913	164.38
642.118	168.38
642.323	161.38
642.528	156.38
642.733	168.38
642.939	172.38
643.144	157.38
643.349	163.38
643.554	161.38
643.759	153.38
643.964	159.38
644.169	166.38
644.374	156.38
644.579	169.38
644.784	163.38
644.989	158.38
645.194	151.38
645.399	164.38
645.604	164.38
645.809	161.38
646.014	163.38
646.219	145.38
646.423	156.38
646.628	165.38
646.833	141.38
647.038	149.38
647.243	160.38
647.447	165.38
647.652	141.38
647.857	158.38
648.062	178.38
648.266	150.38
648.471	170.38
648.676	157.38
648.88	168.38
649.085	182.38
649.289	166.38
649.494	171.38
649.698	178.38
649.903	181.38
650.107	173.38
650.312	155.38
650.516	141.38
650.721	154.38
650.925	151.38
651.13	153.38
651.334	142.38
651.539	133.38
651.743	150.38
651.947	135.38
652.152	144.38
652.356	147.38
652.56	151.38
652.764	142.38
652.969	138.38
653.173	130.38
653.377	136.38
653.581	139.38
653.785	137.38
653.99	129.38
654.194	143.38
654.398	138.38
654.602	136.38
654.806	146.38
655.01	148.38
655.214	146.38
655.418	142.38
655.622	127.38
655.826	118.38
656.03	118.38
656.234	130.38
656.438	137.38
656.642	123.38
656.846	124.38
657.049	134.38
657.253	135.38
657.457	114.38
657.661	126.38
657.865	102.38
658.068	105.38
658.272	111.38
658.476	117.38
658.68	99.38
658.883	111.38
659.087	96.38
659.291	106.38
659.494	95.38
659.698	101.38
659.901	108.38
660.105	94.38
660.309	89.38
660.512	102.38
660.716	102.38
660.919	90.38
661.123	88.38
661.326	91.38
661.53	93.38
661.733	93.38
661.936	89.38
662.14	89.38
662.343	85.38
662.546	91.38
662.75	87.38
662.953	91.38
663.156	95.38
663.36	99.38
663.563	85.38
663.766	98.38
663.969	83.38
664.173	80.38
664.376	73.38
664.579	92.38
664.782	101.38
664.985	79.38
665.188	77.38
665.391	85.38
665.594	88.38
665.797	81.38
666	77.38
666.203	84.38
666.406	95.38
666.609	99.38
666.812	79.38
667.015	69.38
667.218	83.38
667.421	80.38
667.624	82.38
667.827	95.38
668.03	81.38
668.232	85.38
668.435	71.38
668.638	98.38
668.841	97.38
669.043	98.38
669.246	91.38
669.449	76.38
669.651	88.38
669.854	83.38
670.057	72.38
670.259	102.38
670.462	85.38
670.665	86.38
670.867	96.38
671.07	99.38
671.272	90.38
671.475	103.38
671.677	84.38
671.88	84.38
672.082	79.38
672.284	67.38
672.487	66.38
672.689	82.38
672.892	85.38
