Data from 1989.PennyLincolnUp.Lamp.En5.5.200Scan.071819.P2_HRD10591_17-24-23-972.txt Node
Date: Thu Jul 18 17:24:23 EDT 2019
User: cochatt
Spectrometer: HR+D1059
Trigger mode: 1
Integration Time (sec): 1.000000E-1
Scans to average: 1
Electric dark correction enabled: true
Nonlinearity correction enabled: false
Boxcar width: 0
XAxis mode: Wavelengths
Number of Pixels in Spectrum: 2048
>>>>>Begin Spectral Data<<<<<
223.165	-19.94
223.4	-19.94
223.635	-19.94
223.869	-23.94
224.104	-22.94
224.338	-13.94
224.573	-16.94
224.808	-15.94
225.042	-0.94
225.277	1.06
225.511	4.06
225.746	3.06
225.98	13.06
226.215	9.06
226.449	20.06
226.683	29.06
226.918	14.06
227.152	21.06
227.387	31.06
227.621	52.06
227.856	39.06
228.09	49.06
228.324	34.06
228.559	55.06
228.793	72.06
229.027	99.06
229.262	96.06
229.496	127.06
229.73	129.06
229.964	155.06
230.199	143.06
230.433	105.06
230.667	106.06
230.901	117.06
231.136	127.06
231.37	87.06
231.604	100.06
231.838	115.06
232.072	101.06
232.306	115.06
232.541	107.06
232.775	106.06
233.009	108.06
233.243	99.06
233.477	110.06
233.711	122.06
233.945	132.06
234.179	114.06
234.413	126.06
234.647	110.06
234.881	118.06
235.115	123.06
235.349	117.06
235.583	126.06
235.817	111.06
236.051	128.06
236.285	115.06
236.519	131.06
236.753	140.06
236.987	147.06
237.221	167.06
237.455	240.06
237.689	203.06
237.922	156.06
238.156	139.06
238.39	137.06
238.624	116.06
238.858	136.06
239.091	122.06
239.325	123.06
239.559	137.06
239.793	131.06
240.027	132.06
240.26	136.06
240.494	147.06
240.728	169.06
240.961	152.06
241.195	148.06
241.429	151.06
241.662	156.06
241.896	131.06
242.13	133.06
242.363	136.06
242.597	139.06
242.83	143.06
243.064	127.06
243.298	139.06
243.531	138.06
243.765	146.06
243.998	139.06
244.232	146.06
244.465	155.06
244.699	161.06
244.932	157.06
245.166	138.06
245.399	139.06
245.633	156.06
245.866	157.06
246.099	147.06
246.333	148.06
246.566	153.06
246.8	155.06
247.033	158.06
247.266	159.06
247.5	177.06
247.733	175.06
247.966	185.06
248.2	187.06
248.433	185.06
248.666	183.06
248.899	202.06
249.133	204.06
249.366	203.06
249.599	195.06
249.832	200.06
250.066	186.06
250.299	186.06
250.532	184.06
250.765	203.06
250.998	210.06
251.231	223.06
251.465	214.06
251.698	211.06
251.931	209.06
252.164	220.06
252.397	205.06
252.63	225.06
252.863	204.06
253.096	247.06
253.329	243.06
253.562	242.06
253.795	231.06
254.028	219.06
254.261	253.06
254.494	248.06
254.727	282.06
254.96	305.06
255.193	299.06
255.426	250.06
255.659	276.06
255.892	257.06
256.124	237.06
256.357	259.06
256.59	234.06
256.823	212.06
257.056	239.06
257.289	224.06
257.521	209.06
257.754	223.06
257.987	210.06
258.22	227.06
258.452	225.06
258.685	236.06
258.918	219.06
259.151	221.06
259.383	233.06
259.616	241.06
259.849	237.06
260.081	219.06
260.314	265.06
260.547	268.06
260.779	261.06
261.012	256.06
261.244	244.06
261.477	258.06
261.71	263.06
261.942	248.06
262.175	246.06
262.407	256.06
262.64	237.06
262.872	227.06
263.105	219.06
263.337	212.06
263.57	224.06
263.802	208.06
264.035	230.06
264.267	221.06
264.499	242.06
264.732	231.06
264.964	222.06
265.197	221.06
265.429	236.06
265.661	231.06
265.894	240.06
266.126	231.06
266.358	216.06
266.591	233.06
266.823	235.06
267.055	239.06
267.287	231.06
267.52	237.06
267.752	229.06
267.984	234.06
268.216	236.06
268.448	251.06
268.681	269.06
268.913	278.06
269.145	273.06
269.377	297.06
269.609	290.06
269.841	293.06
270.073	284.06
270.306	301.06
270.538	335.06
270.77	327.06
271.002	321.06
271.234	340.06
271.466	341.06
271.698	329.06
271.93	347.06
272.162	342.06
272.394	337.06
272.626	333.06
272.858	311.06
273.09	304.06
273.322	315.06
273.553	288.06
273.785	287.06
274.017	273.06
274.249	267.06
274.481	286.06
274.713	285.06
274.945	297.06
275.176	287.06
275.408	289.06
275.64	281.06
275.872	267.06
276.104	268.06
276.335	281.06
276.567	284.06
276.799	308.06
277.031	321.06
277.262	344.06
277.494	333.06
277.726	332.06
277.957	303.06
278.189	291.06
278.421	303.06
278.652	291.06
278.884	283.06
279.115	285.06
279.347	288.06
279.579	279.06
279.81	271.06
280.042	267.06
280.273	270.06
280.505	306.06
280.736	270.06
280.968	274.06
281.199	275.06
281.431	272.06
281.662	289.06
281.894	280.06
282.125	281.06
282.356	311.06
282.588	331.06
282.819	317.06
283.051	288.06
283.282	289.06
283.513	290.06
283.745	281.06
283.976	287.06
284.207	287.06
284.439	288.06
284.67	297.06
284.901	294.06
285.132	305.06
285.364	299.06
285.595	284.06
285.826	291.06
286.057	282.06
286.288	297.06
286.52	295.06
286.751	301.06
286.982	294.06
287.213	279.06
287.444	303.06
287.675	330.06
287.906	305.06
288.138	301.06
288.369	295.06
288.6	326.06
288.831	300.06
289.062	319.06
289.293	302.06
289.524	291.06
289.755	321.06
289.986	289.06
290.217	312.06
290.448	309.06
290.679	301.06
290.91	300.06
291.141	309.06
291.371	297.06
291.602	307.06
291.833	298.06
292.064	279.06
292.295	315.06
292.526	301.06
292.757	290.06
292.987	297.06
293.218	286.06
293.449	278.06
293.68	303.06
293.91	299.06
294.141	277.06
294.372	288.06
294.603	311.06
294.833	305.06
295.064	308.06
295.295	311.06
295.525	295.06
295.756	300.06
295.987	317.06
296.217	343.06
296.448	337.06
296.679	330.06
296.909	301.06
297.14	305.06
297.37	284.06
297.601	291.06
297.831	320.06
298.062	301.06
298.292	321.06
298.523	308.06
298.753	311.06
298.984	320.06
299.214	307.06
299.445	328.06
299.675	322.06
299.905	292.06
300.136	315.06
300.366	307.06
300.597	331.06
300.827	316.06
301.057	337.06
301.288	336.06
301.518	322.06
301.748	312.06
301.979	323.06
302.209	321.06
302.439	339.06
302.669	350.06
302.9	337.06
303.13	347.06
303.36	339.06
303.59	358.06
303.82	330.06
304.051	365.06
304.281	334.06
304.511	334.06
304.741	331.06
304.971	313.06
305.201	339.06
305.431	340.06
305.661	340.06
305.891	347.06
306.121	345.06
306.352	328.06
306.582	353.06
306.812	354.06
307.042	355.06
307.272	330.06
307.502	335.06
307.731	359.06
307.961	336.06
308.191	332.06
308.421	334.06
308.651	344.06
308.881	347.06
309.111	342.06
309.341	358.06
309.571	359.06
309.8	388.06
310.03	391.06
310.26	395.06
310.49	388.06
310.72	399.06
310.949	404.06
311.179	398.06
311.409	385.06
311.639	383.06
311.868	386.06
312.098	386.06
312.328	392.06
312.557	432.06
312.787	436.06
313.017	423.06
313.246	397.06
313.476	375.06
313.706	403.06
313.935	417.06
314.165	408.06
314.394	407.06
314.624	414.06
314.853	392.06
315.083	400.06
315.312	389.06
315.542	383.06
315.771	383.06
316.001	376.06
316.23	383.06
316.46	407.06
316.689	384.06
316.919	379.06
317.148	412.06
317.377	406.06
317.607	419.06
317.836	379.06
318.065	394.06
318.295	377.06
318.524	391.06
318.753	379.06
318.983	391.06
319.212	397.06
319.441	389.06
319.67	403.06
319.9	401.06
320.129	379.06
320.358	396.06
320.587	404.06
320.816	422.06
321.046	418.06
321.275	424.06
321.504	426.06
321.733	420.06
321.962	447.06
322.191	433.06
322.42	443.06
322.649	450.06
322.878	490.06
323.108	488.06
323.337	520.06
323.566	523.06
323.795	564.06
324.024	623.06
324.253	765.06
324.482	1078.06
324.71	1703.06
324.939	2379.06
325.168	2083.06
325.397	1068.06
325.626	705.06
325.855	608.06
326.084	568.06
326.313	548.06
326.542	527.06
326.77	591.06
326.999	697.06
327.228	989.06
327.457	1488.06
327.686	1795.06
327.914	1201.06
328.143	793.06
328.372	684.06
328.6	633.06
328.829	596.06
329.058	597.06
329.287	628.06
329.515	590.06
329.744	534.06
329.972	506.06
330.201	512.06
330.43	563.06
330.658	599.06
330.887	658.06
331.115	627.06
331.344	544.06
331.572	493.06
331.801	513.06
332.03	500.06
332.258	485.06
332.486	463.06
332.715	450.06
332.943	441.06
333.172	457.06
333.4	443.06
333.629	466.06
333.857	475.06
334.085	464.06
334.314	450.06
334.542	444.06
334.771	463.06
334.999	459.06
335.227	455.06
335.455	447.06
335.684	450.06
335.912	446.06
336.14	443.06
336.369	447.06
336.597	436.06
336.825	449.06
337.053	460.06
337.281	446.06
337.51	447.06
337.738	445.06
337.966	433.06
338.194	441.06
338.422	456.06
338.65	415.06
338.878	419.06
339.106	415.06
339.334	420.06
339.562	405.06
339.79	403.06
340.018	427.06
340.246	452.06
340.474	443.06
340.702	436.06
340.93	424.06
341.158	413.06
341.386	425.06
341.614	424.06
341.842	443.06
342.07	446.06
342.298	423.06
342.526	403.06
342.754	404.06
342.981	400.06
343.209	409.06
343.437	427.06
343.665	420.06
343.893	422.06
344.12	429.06
344.348	433.06
344.576	451.06
344.804	438.06
345.031	465.06
345.259	440.06
345.487	456.06
345.714	449.06
345.942	418.06
346.17	405.06
346.397	431.06
346.625	423.06
346.853	421.06
347.08	401.06
347.308	423.06
347.535	449.06
347.763	433.06
347.99	452.06
348.218	436.06
348.445	433.06
348.673	420.06
348.9	435.06
349.128	426.06
349.355	415.06
349.583	433.06
349.81	403.06
350.037	404.06
350.265	392.06
350.492	396.06
350.72	391.06
350.947	381.06
351.174	413.06
351.402	437.06
351.629	414.06
351.856	413.06
352.083	425.06
352.311	449.06
352.538	442.06
352.765	442.06
352.992	423.06
353.22	425.06
353.447	409.06
353.674	401.06
353.901	385.06
354.128	393.06
354.355	385.06
354.583	412.06
354.81	396.06
355.037	392.06
355.264	392.06
355.491	367.06
355.718	405.06
355.945	380.06
356.172	374.06
356.399	377.06
356.626	381.06
356.853	384.06
357.08	356.06
357.307	355.06
357.534	368.06
357.761	361.06
357.988	385.06
358.215	368.06
358.441	360.06
358.668	369.06
358.895	395.06
359.122	387.06
359.349	396.06
359.576	412.06
359.802	433.06
360.029	488.06
360.256	476.06
360.483	454.06
360.709	424.06
360.936	429.06
361.163	438.06
361.39	427.06
361.616	418.06
361.843	420.06
362.07	418.06
362.296	409.06
362.523	413.06
362.749	410.06
362.976	376.06
363.203	397.06
363.429	407.06
363.656	397.06
363.882	374.06
364.109	387.06
364.335	378.06
364.562	375.06
364.788	404.06
365.015	401.06
365.241	395.06
365.468	417.06
365.694	387.06
365.92	385.06
366.147	398.06
366.373	382.06
366.599	402.06
366.826	384.06
367.052	381.06
367.278	373.06
367.505	381.06
367.731	392.06
367.957	384.06
368.184	393.06
368.41	396.06
368.636	381.06
368.862	416.06
369.089	417.06
369.315	384.06
369.541	389.06
369.767	389.06
369.993	397.06
370.219	391.06
370.445	376.06
370.672	381.06
370.898	367.06
371.124	361.06
371.35	389.06
371.576	373.06
371.802	357.06
372.028	375.06
372.254	377.06
372.48	361.06
372.706	374.06
372.932	378.06
373.158	376.06
373.384	368.06
373.61	384.06
373.835	396.06
374.061	400.06
374.287	386.06
374.513	393.06
374.739	379.06
374.965	388.06
375.191	374.06
375.416	379.06
375.642	389.06
375.868	396.06
376.094	391.06
376.319	376.06
376.545	384.06
376.771	376.06
376.997	386.06
377.222	397.06
377.448	382.06
377.674	375.06
377.899	375.06
378.125	386.06
378.35	376.06
378.576	352.06
378.802	379.06
379.027	349.06
379.253	368.06
379.478	373.06
379.704	376.06
379.929	357.06
380.155	383.06
380.38	376.06
380.606	375.06
380.831	377.06
381.057	375.06
381.282	368.06
381.507	369.06
381.733	373.06
381.958	371.06
382.184	382.06
382.409	373.06
382.634	376.06
382.86	377.06
383.085	389.06
383.31	381.06
383.535	385.06
383.761	403.06
383.986	380.06
384.211	376.06
384.436	386.06
384.662	385.06
384.887	377.06
385.112	367.06
385.337	386.06
385.562	399.06
385.787	411.06
386.013	408.06
386.238	405.06
386.463	388.06
386.688	401.06
386.913	382.06
387.138	404.06
387.363	405.06
387.588	377.06
387.813	384.06
388.038	384.06
388.263	414.06
388.488	407.06
388.713	402.06
388.938	406.06
389.163	406.06
389.387	396.06
389.612	398.06
389.837	379.06
390.062	383.06
390.287	375.06
390.512	397.06
390.736	387.06
390.961	394.06
391.186	401.06
391.411	387.06
391.636	397.06
391.86	388.06
392.085	401.06
392.31	393.06
392.534	417.06
392.759	417.06
392.984	392.06
393.208	397.06
393.433	400.06
393.658	411.06
393.882	385.06
394.107	387.06
394.331	385.06
394.556	397.06
394.78	393.06
395.005	375.06
395.229	389.06
395.454	426.06
395.678	396.06
395.903	415.06
396.127	439.06
396.352	427.06
396.576	422.06
396.801	413.06
397.025	422.06
397.249	404.06
397.474	419.06
397.698	409.06
397.922	445.06
398.147	444.06
398.371	450.06
398.595	415.06
398.82	423.06
399.044	442.06
399.268	443.06
399.492	488.06
399.717	505.06
399.941	509.06
400.165	552.06
400.389	552.06
400.613	516.06
400.837	492.06
401.062	481.06
401.286	443.06
401.51	439.06
401.734	447.06
401.958	451.06
402.182	454.06
402.406	465.06
402.63	479.06
402.854	451.06
403.078	453.06
403.302	472.06
403.526	485.06
403.75	463.06
403.974	449.06
404.198	471.06
404.422	465.06
404.645	457.06
404.869	470.06
405.093	476.06
405.317	481.06
405.541	525.06
405.765	496.06
405.988	484.06
406.212	511.06
406.436	517.06
406.66	537.06
406.883	507.06
407.107	516.06
407.331	539.06
407.555	624.06
407.778	624.06
408.002	562.06
408.226	526.06
408.449	501.06
408.673	516.06
408.896	533.06
409.12	583.06
409.344	533.06
409.567	495.06
409.791	481.06
410.014	462.06
410.238	469.06
410.461	451.06
410.685	479.06
410.908	488.06
411.132	507.06
411.355	561.06
411.578	525.06
411.802	479.06
412.025	457.06
412.249	439.06
412.472	468.06
412.695	468.06
412.919	466.06
413.142	462.06
413.365	431.06
413.589	442.06
413.812	443.06
414.035	438.06
414.258	450.06
414.482	431.06
414.705	445.06
414.928	439.06
415.151	438.06
415.374	428.06
415.597	421.06
415.821	431.06
416.044	409.06
416.267	425.06
416.49	439.06
416.713	424.06
416.936	435.06
417.159	429.06
417.382	427.06
417.605	444.06
417.828	440.06
418.051	479.06
418.274	447.06
418.497	426.06
418.72	440.06
418.943	428.06
419.166	453.06
419.389	451.06
419.611	487.06
419.834	466.06
420.057	461.06
420.28	457.06
420.503	450.06
420.726	439.06
420.948	465.06
421.171	518.06
421.394	544.06
421.617	499.06
421.839	460.06
422.062	476.06
422.285	484.06
422.507	545.06
422.73	605.06
422.953	584.06
423.175	511.06
423.398	497.06
423.621	483.06
423.843	501.06
424.066	500.06
424.288	497.06
424.511	522.06
424.733	547.06
424.956	664.06
425.178	597.06
425.401	609.06
425.623	637.06
425.846	549.06
426.068	529.06
426.291	502.06
426.513	519.06
426.735	534.06
426.958	579.06
427.18	622.06
427.402	764.06
427.625	841.06
427.847	736.06
428.069	611.06
428.292	539.06
428.514	517.06
428.736	492.06
428.958	497.06
429.181	464.06
429.403	468.06
429.625	491.06
429.847	519.06
430.069	567.06
430.292	577.06
430.514	488.06
430.736	477.06
430.958	475.06
431.18	450.06
431.402	448.06
431.624	440.06
431.846	431.06
432.068	424.06
432.29	431.06
432.512	453.06
432.734	440.06
432.956	450.06
433.178	443.06
433.4	461.06
433.622	424.06
433.844	447.06
434.066	455.06
434.287	423.06
434.509	431.06
434.731	428.06
434.953	463.06
435.175	446.06
435.397	495.06
435.618	508.06
435.84	537.06
436.062	641.06
436.284	713.06
436.505	584.06
436.727	520.06
436.949	492.06
437.17	475.06
437.392	464.06
437.614	482.06
437.835	526.06
438.057	610.06
438.278	691.06
438.5	719.06
438.721	793.06
438.943	758.06
439.165	584.06
439.386	532.06
439.608	543.06
439.829	563.06
440.05	519.06
440.272	571.06
440.493	569.06
440.715	486.06
440.936	484.06
441.158	489.06
441.379	472.06
441.6	498.06
441.822	483.06
442.043	537.06
442.264	588.06
442.486	676.06
442.707	559.06
442.928	505.06
443.149	518.06
443.371	558.06
443.592	590.06
443.813	695.06
444.034	718.06
444.255	604.06
444.476	534.06
444.698	482.06
444.919	496.06
445.14	575.06
445.361	545.06
445.582	555.06
445.803	617.06
446.024	719.06
446.245	719.06
446.466	656.06
446.687	593.06
446.908	530.06
447.129	472.06
447.35	481.06
447.571	479.06
447.792	454.06
448.013	448.06
448.234	488.06
448.455	562.06
448.675	632.06
448.896	748.06
449.117	651.06
449.338	632.06
449.559	683.06
449.779	805.06
450	649.06
450.221	540.06
450.442	504.06
450.662	487.06
450.883	483.06
451.104	487.06
451.324	467.06
451.545	451.06
451.766	450.06
451.986	421.06
452.207	419.06
452.428	405.06
452.648	452.06
452.869	417.06
453.089	445.06
453.31	426.06
453.53	428.06
453.751	408.06
453.971	420.06
454.192	453.06
454.412	441.06
454.633	413.06
454.853	436.06
455.073	414.06
455.294	438.06
455.514	511.06
455.734	491.06
455.955	424.06
456.175	389.06
456.395	377.06
456.616	394.06
456.836	394.06
457.056	392.06
457.276	382.06
457.497	397.06
457.717	388.06
457.937	411.06
458.157	393.06
458.377	405.06
458.598	445.06
458.818	488.06
459.038	574.06
459.258	583.06
459.478	505.06
459.698	437.06
459.918	423.06
460.138	410.06
460.358	429.06
460.578	442.06
460.798	423.06
461.018	457.06
461.238	400.06
461.458	436.06
461.678	425.06
461.898	435.06
462.118	438.06
462.338	421.06
462.558	438.06
462.777	443.06
462.997	440.06
463.217	444.06
463.437	471.06
463.657	451.06
463.876	462.06
464.096	445.06
464.316	452.06
464.536	457.06
464.755	466.06
464.975	482.06
465.195	495.06
465.414	598.06
465.634	527.06
465.854	474.06
466.073	449.06
466.293	449.06
466.512	434.06
466.732	419.06
466.951	414.06
467.171	411.06
467.391	410.06
467.61	431.06
467.829	428.06
468.049	425.06
468.268	415.06
468.488	389.06
468.707	407.06
468.927	415.06
469.146	389.06
469.365	406.06
469.585	410.06
469.804	426.06
470.023	410.06
470.243	415.06
470.462	440.06
470.681	462.06
470.901	459.06
471.12	403.06
471.339	425.06
471.558	434.06
471.777	436.06
471.997	412.06
472.216	428.06
472.435	396.06
472.654	416.06
472.873	421.06
473.092	401.06
473.311	417.06
473.53	439.06
473.749	424.06
473.968	474.06
474.187	581.06
474.406	591.06
474.625	511.06
474.844	438.06
475.063	444.06
475.282	426.06
475.501	428.06
475.72	431.06
475.939	441.06
476.158	448.06
476.377	421.06
476.596	431.06
476.814	441.06
477.033	447.06
477.252	460.06
477.471	452.06
477.69	454.06
477.908	458.06
478.127	453.06
478.346	467.06
478.564	470.06
478.783	489.06
479.002	488.06
479.22	494.06
479.439	497.06
479.658	521.06
479.876	506.06
480.095	529.06
480.313	567.06
480.532	521.06
480.751	533.06
480.969	513.06
481.188	533.06
481.406	528.06
481.624	522.06
481.843	511.06
482.061	484.06
482.28	496.06
482.498	514.06
482.717	484.06
482.935	493.06
483.153	487.06
483.372	493.06
483.59	481.06
483.808	517.06
484.027	490.06
484.245	488.06
484.463	493.06
484.681	514.06
484.9	506.06
485.118	523.06
485.336	501.06
485.554	524.06
485.772	514.06
485.99	521.06
486.209	499.06
486.427	516.06
486.645	537.06
486.863	561.06
487.081	544.06
487.299	517.06
487.517	545.06
487.735	543.06
487.953	525.06
488.171	541.06
488.389	523.06
488.607	548.06
488.825	535.06
489.043	540.06
489.261	545.06
489.479	543.06
489.696	575.06
489.914	545.06
490.132	536.06
490.35	581.06
490.568	555.06
490.786	557.06
491.003	584.06
491.221	593.06
491.439	609.06
491.657	618.06
491.874	604.06
492.092	629.06
492.31	588.06
492.527	606.06
492.745	603.06
492.963	613.06
493.18	616.06
493.398	633.06
493.615	641.06
493.833	659.06
494.05	617.06
494.268	633.06
494.485	644.06
494.703	627.06
494.92	632.06
495.138	637.06
495.355	657.06
495.573	631.06
495.79	643.06
496.008	636.06
496.225	668.06
496.442	648.06
496.66	628.06
496.877	608.06
497.094	649.06
497.312	629.06
497.529	648.06
497.746	665.06
497.963	659.06
498.181	676.06
498.398	693.06
498.615	693.06
498.832	683.06
499.049	685.06
499.267	693.06
499.484	738.06
499.701	745.06
499.918	766.06
500.135	810.06
500.352	844.06
500.569	811.06
500.786	809.06
501.003	804.06
501.22	824.06
501.437	819.06
501.654	783.06
501.871	791.06
502.088	753.06
502.305	726.06
502.522	697.06
502.739	693.06
502.956	677.06
503.172	668.06
503.389	650.06
503.606	674.06
503.823	668.06
504.04	667.06
504.256	641.06
504.473	637.06
504.69	625.06
504.907	635.06
505.123	631.06
505.34	634.06
505.557	604.06
505.773	627.06
505.99	623.06
506.207	630.06
506.423	613.06
506.64	625.06
506.856	619.06
507.073	620.06
507.289	604.06
507.506	612.06
507.722	627.06
507.939	635.06
508.155	631.06
508.372	594.06
508.588	599.06
508.805	624.06
509.021	583.06
509.238	597.06
509.454	653.06
509.67	612.06
509.887	636.06
510.103	620.06
510.319	603.06
510.536	718.06
510.752	1249.06
510.968	1003.06
511.184	657.06
511.401	587.06
511.617	574.06
511.833	583.06
512.049	563.06
512.265	554.06
512.481	567.06
512.698	559.06
512.914	553.06
513.13	559.06
513.346	563.06
513.562	560.06
513.778	572.06
513.994	563.06
514.21	596.06
514.426	607.06
514.642	649.06
514.858	695.06
515.074	758.06
515.29	903.06
515.506	1365.06
515.721	1101.06
515.937	713.06
516.153	623.06
516.369	617.06
516.585	607.06
516.801	573.06
517.016	598.06
517.232	585.06
517.448	590.06
517.664	567.06
517.879	553.06
518.095	573.06
518.311	587.06
518.527	560.06
518.742	585.06
518.958	565.06
519.173	542.06
519.389	565.06
519.605	559.06
519.82	548.06
520.036	595.06
520.251	593.06
520.467	628.06
520.682	631.06
520.898	650.06
521.113	682.06
521.329	697.06
521.544	835.06
521.76	1073.06
521.975	1780.06
522.19	1699.06
522.406	928.06
522.621	673.06
522.836	608.06
523.052	576.06
523.267	545.06
523.482	527.06
523.698	523.06
523.913	556.06
524.128	523.06
524.343	501.06
524.559	491.06
524.774	475.06
524.989	499.06
525.204	529.06
525.419	515.06
525.634	495.06
525.849	486.06
526.064	488.06
526.28	469.06
526.495	472.06
526.71	459.06
526.925	444.06
527.14	454.06
527.355	455.06
527.57	475.06
527.785	449.06
527.999	467.06
528.214	453.06
528.429	456.06
528.644	471.06
528.859	462.06
529.074	432.06
529.289	475.06
529.503	578.06
529.718	532.06
529.933	499.06
530.148	480.06
530.363	446.06
530.577	450.06
530.792	449.06
531.007	451.06
531.221	437.06
531.436	460.06
531.651	446.06
531.865	451.06
532.08	415.06
532.295	433.06
532.509	437.06
532.724	424.06
532.938	432.06
533.153	421.06
533.367	442.06
533.582	424.06
533.796	428.06
534.011	420.06
534.225	423.06
534.44	409.06
534.654	447.06
534.868	427.06
535.083	417.06
535.297	439.06
535.511	440.06
535.726	420.06
535.94	435.06
536.154	442.06
536.369	423.06
536.583	411.06
536.797	411.06
537.011	414.06
537.225	425.06
537.44	405.06
537.654	431.06
537.868	419.06
538.082	393.06
538.296	417.06
538.51	438.06
538.724	412.06
538.938	424.06
539.153	425.06
539.367	424.06
539.581	445.06
539.795	428.06
540.009	416.06
540.222	420.06
540.436	423.06
540.65	417.06
540.864	424.06
541.078	409.06
541.292	428.06
541.506	400.06
541.72	396.06
541.934	400.06
542.147	417.06
542.361	436.06
542.575	401.06
542.789	398.06
543.002	402.06
543.216	410.06
543.43	419.06
543.644	415.06
543.857	407.06
544.071	435.06
544.285	417.06
544.498	408.06
544.712	395.06
544.925	411.06
545.139	400.06
545.352	394.06
545.566	391.06
545.779	399.06
545.993	405.06
546.206	412.06
546.42	419.06
546.633	418.06
546.847	402.06
547.06	394.06
547.274	397.06
547.487	380.06
547.7	396.06
547.914	389.06
548.127	389.06
548.34	391.06
548.554	410.06
548.767	380.06
548.98	387.06
549.193	402.06
549.407	385.06
549.62	405.06
549.833	401.06
550.046	389.06
550.259	378.06
550.473	363.06
550.686	381.06
550.899	381.06
551.112	385.06
551.325	375.06
551.538	381.06
551.751	385.06
551.964	379.06
552.177	367.06
552.39	377.06
552.603	374.06
552.816	371.06
553.029	408.06
553.242	381.06
553.455	397.06
553.667	410.06
553.88	397.06
554.093	391.06
554.306	388.06
554.519	404.06
554.732	356.06
554.944	385.06
555.157	360.06
555.37	359.06
555.583	375.06
555.795	379.06
556.008	382.06
556.221	359.06
556.433	375.06
556.646	353.06
556.859	369.06
557.071	347.06
557.284	356.06
557.496	359.06
557.709	363.06
557.921	352.06
558.134	338.06
558.346	340.06
558.559	348.06
558.771	330.06
558.984	343.06
559.196	341.06
559.409	345.06
559.621	365.06
559.833	337.06
560.046	355.06
560.258	349.06
560.47	353.06
560.683	347.06
560.895	324.06
561.107	348.06
561.32	345.06
561.532	338.06
561.744	345.06
561.956	358.06
562.168	334.06
562.381	349.06
562.593	353.06
562.805	329.06
563.017	348.06
563.229	336.06
563.441	333.06
563.653	334.06
563.865	342.06
564.077	364.06
564.289	360.06
564.501	358.06
564.713	368.06
564.925	352.06
565.137	368.06
565.349	370.06
565.561	358.06
565.773	361.06
565.985	380.06
566.197	365.06
566.408	391.06
566.62	386.06
566.832	393.06
567.044	381.06
567.255	404.06
567.467	402.06
567.679	412.06
567.891	415.06
568.102	390.06
568.314	397.06
568.526	385.06
568.737	393.06
568.949	368.06
569.161	351.06
569.372	363.06
569.584	354.06
569.795	344.06
570.007	359.06
570.218	415.06
570.43	397.06
570.641	337.06
570.853	335.06
571.064	329.06
571.276	328.06
571.487	312.06
571.698	330.06
571.91	324.06
572.121	334.06
572.333	326.06
572.544	332.06
572.755	315.06
572.966	302.06
573.178	274.06
573.389	299.06
573.6	312.06
573.811	293.06
574.023	318.06
574.234	307.06
574.445	305.06
574.656	291.06
574.867	279.06
575.078	291.06
575.289	301.06
575.501	299.06
575.712	298.06
575.923	274.06
576.134	297.06
576.345	285.06
576.556	293.06
576.767	292.06
576.978	289.06
577.188	291.06
577.399	282.06
577.61	277.06
577.821	298.06
578.032	303.06
578.243	336.06
578.454	578.06
578.665	421.06
578.875	319.06
579.086	289.06
579.297	283.06
579.508	265.06
579.718	284.06
579.929	290.06
580.14	276.06
580.35	257.06
580.561	267.06
580.772	285.06
580.982	288.06
581.193	275.06
581.403	290.06
581.614	266.06
581.825	268.06
582.035	266.06
582.246	307.06
582.456	271.06
582.667	295.06
582.877	268.06
583.087	259.06
583.298	261.06
583.508	276.06
583.719	262.06
583.929	272.06
584.139	267.06
584.35	275.06
584.56	275.06
584.77	284.06
584.981	279.06
585.191	273.06
585.401	276.06
585.611	283.06
585.821	273.06
586.032	261.06
586.242	258.06
586.452	262.06
586.662	280.06
586.872	282.06
587.082	260.06
587.292	273.06
587.502	277.06
587.713	277.06
587.923	256.06
588.133	260.06
588.343	286.06
588.553	293.06
588.762	261.06
588.972	275.06
589.182	277.06
589.392	273.06
589.602	277.06
589.812	263.06
590.022	271.06
590.232	259.06
590.441	248.06
590.651	258.06
590.861	268.06
591.071	267.06
591.281	258.06
591.49	243.06
591.7	267.06
591.91	264.06
592.119	262.06
592.329	256.06
592.539	263.06
592.748	274.06
592.958	253.06
593.167	263.06
593.377	275.06
593.587	271.06
593.796	266.06
594.006	267.06
594.215	261.06
594.424	260.06
594.634	259.06
594.843	263.06
595.053	278.06
595.262	273.06
595.472	247.06
595.681	270.06
595.89	263.06
596.1	247.06
596.309	249.06
596.518	272.06
596.727	245.06
596.937	254.06
597.146	253.06
597.355	227.06
597.564	256.06
597.774	258.06
597.983	234.06
598.192	246.06
598.401	218.06
598.61	241.06
598.819	242.06
599.028	253.06
599.237	228.06
599.446	240.06
599.655	223.06
599.864	223.06
600.073	242.06
600.282	216.06
600.491	240.06
600.7	245.06
600.909	222.06
601.118	232.06
601.327	211.06
601.536	229.06
601.745	247.06
601.953	217.06
602.162	223.06
602.371	216.06
602.58	242.06
602.789	234.06
602.997	243.06
603.206	241.06
603.415	220.06
603.623	242.06
603.832	207.06
604.041	220.06
604.249	217.06
604.458	226.06
604.666	219.06
604.875	215.06
605.084	225.06
605.292	209.06
605.501	225.06
605.709	228.06
605.918	215.06
606.126	223.06
606.334	224.06
606.543	223.06
606.751	228.06
606.96	234.06
607.168	216.06
607.376	221.06
607.585	215.06
607.793	206.06
608.001	212.06
608.21	217.06
608.418	218.06
608.626	215.06
608.834	229.06
609.043	214.06
609.251	204.06
609.459	204.06
609.667	210.06
609.875	222.06
610.083	218.06
610.291	215.06
610.499	219.06
610.707	210.06
610.916	210.06
611.124	211.06
611.332	226.06
611.54	228.06
611.748	221.06
611.955	199.06
612.163	217.06
612.371	208.06
612.579	213.06
612.787	234.06
612.995	214.06
613.203	203.06
613.411	229.06
613.618	205.06
613.826	221.06
614.034	209.06
614.242	202.06
614.449	212.06
614.657	201.06
614.865	197.06
615.072	215.06
615.28	222.06
615.488	221.06
615.695	222.06
615.903	195.06
616.111	211.06
616.318	218.06
616.526	219.06
616.733	193.06
616.941	216.06
617.148	207.06
617.356	211.06
617.563	216.06
617.771	229.06
617.978	207.06
618.185	202.06
618.393	212.06
618.6	201.06
618.807	204.06
619.015	203.06
619.222	198.06
619.429	200.06
619.637	194.06
619.844	212.06
620.051	213.06
620.258	217.06
620.466	193.06
620.673	201.06
620.88	186.06
621.087	202.06
621.294	204.06
621.501	198.06
621.708	223.06
621.915	206.06
622.122	195.06
622.329	186.06
622.536	209.06
622.743	210.06
622.95	189.06
623.157	190.06
623.364	190.06
623.571	183.06
623.778	187.06
623.985	201.06
624.192	193.06
624.399	194.06
624.606	192.06
624.812	198.06
625.019	213.06
625.226	194.06
625.433	200.06
625.639	187.06
625.846	181.06
626.053	200.06
626.259	187.06
626.466	193.06
626.673	190.06
626.879	192.06
627.086	187.06
627.293	185.06
627.499	191.06
627.706	182.06
627.912	184.06
628.119	181.06
628.325	173.06
628.532	192.06
628.738	185.06
628.945	187.06
629.151	184.06
629.357	181.06
629.564	173.06
629.77	172.06
629.976	183.06
630.183	189.06
630.389	177.06
630.595	187.06
630.802	182.06
631.008	179.06
631.214	180.06
631.42	182.06
631.627	169.06
631.833	179.06
632.039	171.06
632.245	181.06
632.451	171.06
632.657	163.06
632.863	169.06
633.069	158.06
633.275	165.06
633.481	164.06
633.688	163.06
633.893	178.06
634.099	178.06
634.305	171.06
634.511	177.06
634.717	173.06
634.923	150.06
635.129	171.06
635.335	162.06
635.541	162.06
635.747	164.06
635.952	170.06
636.158	173.06
636.364	189.06
636.57	156.06
636.775	161.06
636.981	165.06
637.187	167.06
637.392	151.06
637.598	170.06
637.804	153.06
638.009	163.06
638.215	163.06
638.421	181.06
638.626	161.06
638.832	167.06
639.037	161.06
639.243	163.06
639.448	165.06
639.654	165.06
639.859	156.06
640.065	159.06
640.27	139.06
640.475	161.06
640.681	161.06
640.886	154.06
641.091	160.06
641.297	147.06
641.502	160.06
641.707	163.06
641.913	171.06
642.118	151.06
642.323	156.06
642.528	148.06
642.733	159.06
642.939	154.06
643.144	161.06
643.349	156.06
643.554	153.06
643.759	153.06
643.964	154.06
644.169	158.06
644.374	139.06
644.579	155.06
644.784	163.06
644.989	147.06
645.194	150.06
645.399	154.06
645.604	144.06
645.809	158.06
646.014	147.06
646.219	151.06
646.423	149.06
646.628	161.06
646.833	170.06
647.038	160.06
647.243	151.06
647.447	147.06
647.652	144.06
647.857	161.06
648.062	157.06
648.266	154.06
648.471	149.06
648.676	163.06
648.88	157.06
649.085	158.06
649.289	165.06
649.494	170.06
649.698	176.06
649.903	187.06
650.107	161.06
650.312	151.06
650.516	161.06
650.721	154.06
650.925	155.06
651.13	150.06
651.334	126.06
651.539	149.06
651.743	142.06
651.947	123.06
652.152	147.06
652.356	142.06
652.56	155.06
652.764	141.06
652.969	123.06
653.173	113.06
653.377	132.06
653.581	128.06
653.785	131.06
653.99	141.06
654.194	129.06
654.398	142.06
654.602	133.06
654.806	136.06
655.01	129.06
655.214	139.06
655.418	126.06
655.622	123.06
655.826	127.06
656.03	124.06
656.234	127.06
656.438	122.06
656.642	130.06
656.846	119.06
657.049	109.06
657.253	120.06
657.457	113.06
657.661	106.06
657.865	116.06
658.068	114.06
658.272	101.06
658.476	99.06
658.68	115.06
658.883	90.06
659.087	88.06
659.291	94.06
659.494	84.06
659.698	88.06
659.901	91.06
660.105	98.06
660.309	87.06
660.512	94.06
660.716	77.06
660.919	95.06
661.123	94.06
661.326	95.06
661.53	81.06
661.733	95.06
661.936	85.06
662.14	95.06
662.343	76.06
662.546	89.06
662.75	84.06
662.953	84.06
663.156	97.06
663.36	95.06
663.563	77.06
663.766	75.06
663.969	76.06
664.173	90.06
664.376	78.06
664.579	78.06
664.782	83.06
664.985	88.06
665.188	93.06
665.391	87.06
665.594	86.06
665.797	68.06
666	82.06
666.203	83.06
666.406	75.06
666.609	76.06
666.812	75.06
667.015	77.06
667.218	81.06
667.421	88.06
667.624	83.06
667.827	73.06
668.03	89.06
668.232	89.06
668.435	74.06
668.638	82.06
668.841	96.06
669.043	83.06
669.246	78.06
669.449	82.06
669.651	77.06
669.854	76.06
670.057	72.06
670.259	79.06
670.462	85.06
670.665	84.06
670.867	80.06
671.07	80.06
671.272	72.06
671.475	86.06
671.677	75.06
671.88	84.06
672.082	70.06
672.284	84.06
672.487	88.06
672.689	73.06
672.892	81.06
