Data from 1989.PennyLincolnUp.Lamp.En5.5.200Scan.071819.P2_HRD10591_17-23-36-973.txt Node
Date: Thu Jul 18 17:23:36 EDT 2019
User: cochatt
Spectrometer: HR+D1059
Trigger mode: 1
Integration Time (sec): 1.000000E-1
Scans to average: 1
Electric dark correction enabled: true
Nonlinearity correction enabled: false
Boxcar width: 0
XAxis mode: Wavelengths
Number of Pixels in Spectrum: 2048
>>>>>Begin Spectral Data<<<<<
223.165	-25.75
223.4	-25.75
223.635	-25.75
223.869	-28.75
224.104	-8.75
224.338	-15.75
224.573	-19.75
224.808	-12.75
225.042	-7.75
225.277	-1.75
225.511	2.25
225.746	11.25
225.98	12.25
226.215	14.25
226.449	10.25
226.683	18.25
226.918	20.25
227.152	32.25
227.387	18.25
227.621	36.25
227.856	36.25
228.09	40.25
228.324	45.25
228.559	57.25
228.793	76.25
229.027	99.25
229.262	97.25
229.496	103.25
229.73	122.25
229.964	139.25
230.199	120.25
230.433	106.25
230.667	105.25
230.901	117.25
231.136	112.25
231.37	99.25
231.604	100.25
231.838	124.25
232.072	120.25
232.306	110.25
232.541	106.25
232.775	108.25
233.009	113.25
233.243	127.25
233.477	109.25
233.711	120.25
233.945	120.25
234.179	120.25
234.413	114.25
234.647	107.25
234.881	98.25
235.115	120.25
235.349	112.25
235.583	115.25
235.817	135.25
236.051	123.25
236.285	139.25
236.519	120.25
236.753	122.25
236.987	152.25
237.221	184.25
237.455	220.25
237.689	193.25
237.922	124.25
238.156	128.25
238.39	134.25
238.624	131.25
238.858	120.25
239.091	119.25
239.325	125.25
239.559	127.25
239.793	126.25
240.027	125.25
240.26	147.25
240.494	156.25
240.728	150.25
240.961	146.25
241.195	151.25
241.429	152.25
241.662	141.25
241.896	134.25
242.13	146.25
242.363	151.25
242.597	123.25
242.83	132.25
243.064	153.25
243.298	155.25
243.531	141.25
243.765	134.25
243.998	149.25
244.232	134.25
244.465	146.25
244.699	133.25
244.932	141.25
245.166	141.25
245.399	159.25
245.633	154.25
245.866	138.25
246.099	149.25
246.333	144.25
246.566	142.25
246.8	150.25
247.033	156.25
247.266	148.25
247.5	173.25
247.733	161.25
247.966	172.25
248.2	165.25
248.433	160.25
248.666	168.25
248.899	179.25
249.133	176.25
249.366	197.25
249.599	189.25
249.832	182.25
250.066	188.25
250.299	171.25
250.532	196.25
250.765	208.25
250.998	200.25
251.231	218.25
251.465	220.25
251.698	213.25
251.931	189.25
252.164	192.25
252.397	217.25
252.63	218.25
252.863	198.25
253.096	230.25
253.329	229.25
253.562	227.25
253.795	212.25
254.028	224.25
254.261	226.25
254.494	233.25
254.727	249.25
254.96	266.25
255.193	272.25
255.426	262.25
255.659	235.25
255.892	226.25
256.124	237.25
256.357	212.25
256.59	238.25
256.823	226.25
257.056	216.25
257.289	221.25
257.521	219.25
257.754	222.25
257.987	217.25
258.22	204.25
258.452	204.25
258.685	195.25
258.918	209.25
259.151	226.25
259.383	213.25
259.616	238.25
259.849	230.25
260.081	237.25
260.314	250.25
260.547	267.25
260.779	249.25
261.012	230.25
261.244	223.25
261.477	233.25
261.71	236.25
261.942	245.25
262.175	235.25
262.407	243.25
262.64	214.25
262.872	211.25
263.105	219.25
263.337	225.25
263.57	226.25
263.802	220.25
264.035	213.25
264.267	208.25
264.499	207.25
264.732	217.25
264.964	212.25
265.197	230.25
265.429	222.25
265.661	232.25
265.894	213.25
266.126	225.25
266.358	215.25
266.591	215.25
266.823	225.25
267.055	232.25
267.287	236.25
267.52	222.25
267.752	212.25
267.984	224.25
268.216	234.25
268.448	215.25
268.681	230.25
268.913	239.25
269.145	251.25
269.377	299.25
269.609	268.25
269.841	276.25
270.073	282.25
270.306	289.25
270.538	315.25
270.77	333.25
271.002	311.25
271.234	298.25
271.466	317.25
271.698	318.25
271.93	324.25
272.162	305.25
272.394	322.25
272.626	316.25
272.858	298.25
273.09	285.25
273.322	273.25
273.553	271.25
273.785	276.25
274.017	266.25
274.249	276.25
274.481	256.25
274.713	272.25
274.945	275.25
275.176	252.25
275.408	258.25
275.64	259.25
275.872	278.25
276.104	260.25
276.335	288.25
276.567	274.25
276.799	286.25
277.031	295.25
277.262	314.25
277.494	308.25
277.726	295.25
277.957	272.25
278.189	285.25
278.421	281.25
278.652	274.25
278.884	273.25
279.115	270.25
279.347	258.25
279.579	268.25
279.81	273.25
280.042	250.25
280.273	274.25
280.505	268.25
280.736	266.25
280.968	273.25
281.199	276.25
281.431	261.25
281.662	270.25
281.894	269.25
282.125	263.25
282.356	284.25
282.588	306.25
282.819	301.25
283.051	285.25
283.282	292.25
283.513	270.25
283.745	280.25
283.976	280.25
284.207	290.25
284.439	285.25
284.67	282.25
284.901	289.25
285.132	287.25
285.364	284.25
285.595	283.25
285.826	284.25
286.057	273.25
286.288	286.25
286.52	290.25
286.751	281.25
286.982	276.25
287.213	276.25
287.444	287.25
287.675	278.25
287.906	298.25
288.138	307.25
288.369	304.25
288.6	288.25
288.831	288.25
289.062	304.25
289.293	300.25
289.524	290.25
289.755	305.25
289.986	276.25
290.217	281.25
290.448	301.25
290.679	288.25
290.91	306.25
291.141	301.25
291.371	299.25
291.602	322.25
291.833	304.25
292.064	302.25
292.295	285.25
292.526	296.25
292.757	304.25
292.987	280.25
293.218	306.25
293.449	298.25
293.68	292.25
293.91	306.25
294.141	290.25
294.372	289.25
294.603	295.25
294.833	297.25
295.064	293.25
295.295	289.25
295.525	286.25
295.756	306.25
295.987	297.25
296.217	315.25
296.448	314.25
296.679	321.25
296.909	309.25
297.14	323.25
297.37	322.25
297.601	315.25
297.831	301.25
298.062	296.25
298.292	313.25
298.523	294.25
298.753	291.25
298.984	317.25
299.214	314.25
299.445	313.25
299.675	313.25
299.905	319.25
300.136	304.25
300.366	301.25
300.597	312.25
300.827	329.25
301.057	321.25
301.288	317.25
301.518	332.25
301.748	317.25
301.979	337.25
302.209	317.25
302.439	319.25
302.669	328.25
302.9	323.25
303.13	336.25
303.36	332.25
303.59	360.25
303.82	346.25
304.051	334.25
304.281	339.25
304.511	327.25
304.741	320.25
304.971	312.25
305.201	325.25
305.431	321.25
305.661	333.25
305.891	330.25
306.121	333.25
306.352	329.25
306.582	319.25
306.812	327.25
307.042	329.25
307.272	348.25
307.502	330.25
307.731	318.25
307.961	326.25
308.191	341.25
308.421	347.25
308.651	340.25
308.881	336.25
309.111	355.25
309.341	353.25
309.571	349.25
309.8	358.25
310.03	386.25
310.26	361.25
310.49	366.25
310.72	390.25
310.949	385.25
311.179	398.25
311.409	382.25
311.639	371.25
311.868	373.25
312.098	396.25
312.328	398.25
312.557	387.25
312.787	398.25
313.017	402.25
313.246	390.25
313.476	400.25
313.706	392.25
313.935	378.25
314.165	384.25
314.394	402.25
314.624	399.25
314.853	389.25
315.083	382.25
315.312	387.25
315.542	381.25
315.771	387.25
316.001	376.25
316.23	378.25
316.46	381.25
316.689	381.25
316.919	381.25
317.148	398.25
317.377	397.25
317.607	389.25
317.836	384.25
318.065	389.25
318.295	366.25
318.524	372.25
318.753	390.25
318.983	371.25
319.212	385.25
319.441	380.25
319.67	391.25
319.9	381.25
320.129	381.25
320.358	386.25
320.587	378.25
320.816	374.25
321.046	402.25
321.275	404.25
321.504	389.25
321.733	404.25
321.962	404.25
322.191	424.25
322.42	429.25
322.649	442.25
322.878	422.25
323.108	438.25
323.337	493.25
323.566	489.25
323.795	539.25
324.024	574.25
324.253	685.25
324.482	952.25
324.71	1490.25
324.939	2101.25
325.168	1852.25
325.397	944.25
325.626	640.25
325.855	529.25
326.084	516.25
326.313	488.25
326.542	502.25
326.77	547.25
326.999	626.25
327.228	859.25
327.457	1289.25
327.686	1618.25
327.914	1060.25
328.143	692.25
328.372	603.25
328.6	556.25
328.829	562.25
329.058	550.25
329.287	572.25
329.515	546.25
329.744	501.25
329.972	491.25
330.201	485.25
330.43	520.25
330.658	532.25
330.887	556.25
331.115	569.25
331.344	500.25
331.572	481.25
331.801	484.25
332.03	468.25
332.258	457.25
332.486	454.25
332.715	441.25
332.943	422.25
333.172	434.25
333.4	431.25
333.629	418.25
333.857	444.25
334.085	454.25
334.314	458.25
334.542	458.25
334.771	476.25
334.999	428.25
335.227	446.25
335.455	422.25
335.684	422.25
335.912	429.25
336.14	412.25
336.369	442.25
336.597	444.25
336.825	436.25
337.053	435.25
337.281	406.25
337.51	416.25
337.738	430.25
337.966	436.25
338.194	425.25
338.422	426.25
338.65	414.25
338.878	426.25
339.106	418.25
339.334	450.25
339.562	449.25
339.79	419.25
340.018	419.25
340.246	434.25
340.474	429.25
340.702	436.25
340.93	424.25
341.158	426.25
341.386	395.25
341.614	432.25
341.842	426.25
342.07	441.25
342.298	408.25
342.526	411.25
342.754	416.25
342.981	406.25
343.209	401.25
343.437	407.25
343.665	394.25
343.893	423.25
344.12	426.25
344.348	426.25
344.576	411.25
344.804	422.25
345.031	433.25
345.259	452.25
345.487	428.25
345.714	441.25
345.942	414.25
346.17	423.25
346.397	408.25
346.625	385.25
346.853	421.25
347.08	413.25
347.308	425.25
347.535	411.25
347.763	421.25
347.99	400.25
348.218	390.25
348.445	414.25
348.673	430.25
348.9	423.25
349.128	414.25
349.355	402.25
349.583	401.25
349.81	396.25
350.037	389.25
350.265	395.25
350.492	390.25
350.72	387.25
350.947	418.25
351.174	418.25
351.402	430.25
351.629	394.25
351.856	384.25
352.083	416.25
352.311	412.25
352.538	424.25
352.765	433.25
352.992	429.25
353.22	410.25
353.447	401.25
353.674	398.25
353.901	388.25
354.128	410.25
354.355	376.25
354.583	365.25
354.81	388.25
355.037	389.25
355.264	393.25
355.491	381.25
355.718	362.25
355.945	370.25
356.172	368.25
356.399	369.25
356.626	358.25
356.853	375.25
357.08	364.25
357.307	365.25
357.534	378.25
357.761	384.25
357.988	380.25
358.215	391.25
358.441	375.25
358.668	373.25
358.895	382.25
359.122	364.25
359.349	400.25
359.576	429.25
359.802	405.25
360.029	439.25
360.256	461.25
360.483	433.25
360.709	414.25
360.936	418.25
361.163	389.25
361.39	402.25
361.616	410.25
361.843	397.25
362.07	402.25
362.296	410.25
362.523	391.25
362.749	376.25
362.976	386.25
363.203	382.25
363.429	384.25
363.656	390.25
363.882	390.25
364.109	373.25
364.335	382.25
364.562	386.25
364.788	388.25
365.015	383.25
365.241	381.25
365.468	386.25
365.694	388.25
365.92	384.25
366.147	370.25
366.373	383.25
366.599	371.25
366.826	384.25
367.052	369.25
367.278	365.25
367.505	376.25
367.731	386.25
367.957	377.25
368.184	367.25
368.41	380.25
368.636	405.25
368.862	382.25
369.089	395.25
369.315	379.25
369.541	374.25
369.767	380.25
369.993	377.25
370.219	375.25
370.445	359.25
370.672	371.25
370.898	368.25
371.124	366.25
371.35	360.25
371.576	376.25
371.802	372.25
372.028	359.25
372.254	385.25
372.48	381.25
372.706	370.25
372.932	394.25
373.158	393.25
373.384	391.25
373.61	372.25
373.835	392.25
374.061	376.25
374.287	391.25
374.513	406.25
374.739	374.25
374.965	385.25
375.191	391.25
375.416	365.25
375.642	372.25
375.868	374.25
376.094	381.25
376.319	382.25
376.545	381.25
376.771	382.25
376.997	376.25
377.222	381.25
377.448	380.25
377.674	377.25
377.899	372.25
378.125	372.25
378.35	374.25
378.576	375.25
378.802	365.25
379.027	359.25
379.253	377.25
379.478	373.25
379.704	389.25
379.929	398.25
380.155	389.25
380.38	383.25
380.606	369.25
380.831	387.25
381.057	396.25
381.282	370.25
381.507	363.25
381.733	379.25
381.958	374.25
382.184	379.25
382.409	380.25
382.634	372.25
382.86	356.25
383.085	372.25
383.31	396.25
383.535	378.25
383.761	390.25
383.986	390.25
384.211	374.25
384.436	379.25
384.662	381.25
384.887	390.25
385.112	389.25
385.337	389.25
385.562	399.25
385.787	394.25
386.013	390.25
386.238	402.25
386.463	394.25
386.688	386.25
386.913	397.25
387.138	423.25
387.363	402.25
387.588	374.25
387.813	382.25
388.038	410.25
388.263	391.25
388.488	400.25
388.713	404.25
388.938	381.25
389.163	402.25
389.387	406.25
389.612	404.25
389.837	395.25
390.062	397.25
390.287	414.25
390.512	418.25
390.736	393.25
390.961	413.25
391.186	402.25
391.411	404.25
391.636	406.25
391.86	393.25
392.085	396.25
392.31	401.25
392.534	392.25
392.759	412.25
392.984	382.25
393.208	387.25
393.433	411.25
393.658	404.25
393.882	390.25
394.107	386.25
394.331	396.25
394.556	386.25
394.78	391.25
395.005	408.25
395.229	410.25
395.454	409.25
395.678	412.25
395.903	390.25
396.127	438.25
396.352	447.25
396.576	422.25
396.801	414.25
397.025	403.25
397.249	426.25
397.474	407.25
397.698	420.25
397.922	428.25
398.147	427.25
398.371	434.25
398.595	447.25
398.82	450.25
399.044	434.25
399.268	457.25
399.492	513.25
399.717	491.25
399.941	524.25
400.165	568.25
400.389	541.25
400.613	499.25
400.837	488.25
401.062	453.25
401.286	446.25
401.51	449.25
401.734	434.25
401.958	450.25
402.182	454.25
402.406	462.25
402.63	442.25
402.854	439.25
403.078	435.25
403.302	444.25
403.526	473.25
403.75	459.25
403.974	460.25
404.198	441.25
404.422	473.25
404.645	453.25
404.869	475.25
405.093	473.25
405.317	491.25
405.541	508.25
405.765	498.25
405.988	478.25
406.212	455.25
406.436	507.25
406.66	505.25
406.883	504.25
407.107	515.25
407.331	538.25
407.555	616.25
407.778	621.25
408.002	575.25
408.226	517.25
408.449	526.25
408.673	516.25
408.896	517.25
409.12	562.25
409.344	551.25
409.567	483.25
409.791	477.25
410.014	464.25
410.238	466.25
410.461	460.25
410.685	465.25
410.908	499.25
411.132	512.25
411.355	547.25
411.578	527.25
411.802	476.25
412.025	452.25
412.249	449.25
412.472	468.25
412.695	465.25
412.919	479.25
413.142	451.25
413.365	441.25
413.589	446.25
413.812	450.25
414.035	430.25
414.258	433.25
414.482	438.25
414.705	444.25
414.928	423.25
415.151	414.25
415.374	418.25
415.597	433.25
415.821	423.25
416.044	417.25
416.267	424.25
416.49	420.25
416.713	403.25
416.936	433.25
417.159	442.25
417.382	442.25
417.605	422.25
417.828	456.25
418.051	445.25
418.274	460.25
418.497	416.25
418.72	429.25
418.943	436.25
419.166	440.25
419.389	458.25
419.611	452.25
419.834	452.25
420.057	436.25
420.28	427.25
420.503	460.25
420.726	447.25
420.948	467.25
421.171	514.25
421.394	541.25
421.617	465.25
421.839	444.25
422.062	446.25
422.285	473.25
422.507	523.25
422.73	586.25
422.953	573.25
423.175	497.25
423.398	477.25
423.621	480.25
423.843	500.25
424.066	470.25
424.288	477.25
424.511	512.25
424.733	549.25
424.956	626.25
425.178	597.25
425.401	600.25
425.623	646.25
425.846	534.25
426.068	492.25
426.291	498.25
426.513	490.25
426.735	506.25
426.958	539.25
427.18	616.25
427.402	720.25
427.625	804.25
427.847	684.25
428.069	571.25
428.292	527.25
428.514	520.25
428.736	473.25
428.958	474.25
429.181	453.25
429.403	442.25
429.625	477.25
429.847	489.25
430.069	551.25
430.292	549.25
430.514	470.25
430.736	452.25
430.958	469.25
431.18	432.25
431.402	420.25
431.624	413.25
431.846	420.25
432.068	412.25
432.29	418.25
432.512	416.25
432.734	456.25
432.956	444.25
433.178	436.25
433.4	444.25
433.622	451.25
433.844	427.25
434.066	436.25
434.287	429.25
434.509	431.25
434.731	430.25
434.953	451.25
435.175	473.25
435.397	477.25
435.618	490.25
435.84	534.25
436.062	659.25
436.284	678.25
436.505	561.25
436.727	505.25
436.949	470.25
437.17	468.25
437.392	459.25
437.614	480.25
437.835	492.25
438.057	604.25
438.278	702.25
438.5	709.25
438.721	748.25
438.943	705.25
439.165	594.25
439.386	523.25
439.608	509.25
439.829	500.25
440.05	521.25
440.272	583.25
440.493	539.25
440.715	482.25
440.936	468.25
441.158	462.25
441.379	484.25
441.6	462.25
441.822	476.25
442.043	530.25
442.264	589.25
442.486	664.25
442.707	563.25
442.928	524.25
443.149	504.25
443.371	549.25
443.592	572.25
443.813	641.25
444.034	720.25
444.255	572.25
444.476	507.25
444.698	479.25
444.919	514.25
445.14	556.25
445.361	560.25
445.582	533.25
445.803	619.25
446.024	688.25
446.245	712.25
446.466	640.25
446.687	545.25
446.908	498.25
447.129	469.25
447.35	478.25
447.571	457.25
447.792	454.25
448.013	460.25
448.234	469.25
448.455	547.25
448.675	635.25
448.896	731.25
449.117	647.25
449.338	581.25
449.559	660.25
449.779	776.25
450	616.25
450.221	508.25
450.442	486.25
450.662	452.25
450.883	444.25
451.104	458.25
451.324	455.25
451.545	434.25
451.766	411.25
451.986	406.25
452.207	409.25
452.428	414.25
452.648	422.25
452.869	399.25
453.089	410.25
453.31	439.25
453.53	391.25
453.751	399.25
453.971	430.25
454.192	421.25
454.412	402.25
454.633	396.25
454.853	400.25
455.073	398.25
455.294	438.25
455.514	500.25
455.734	480.25
455.955	412.25
456.175	394.25
456.395	393.25
456.616	396.25
456.836	379.25
457.056	378.25
457.276	357.25
457.497	368.25
457.717	374.25
457.937	383.25
458.157	394.25
458.377	399.25
458.598	418.25
458.818	426.25
459.038	551.25
459.258	549.25
459.478	485.25
459.698	420.25
459.918	411.25
460.138	423.25
460.358	415.25
460.578	426.25
460.798	414.25
461.018	418.25
461.238	411.25
461.458	434.25
461.678	437.25
461.898	416.25
462.118	434.25
462.338	437.25
462.558	438.25
462.777	437.25
462.997	453.25
463.217	456.25
463.437	478.25
463.657	449.25
463.876	436.25
464.096	461.25
464.316	447.25
464.536	439.25
464.755	453.25
464.975	468.25
465.195	475.25
465.414	571.25
465.634	500.25
465.854	460.25
466.073	429.25
466.293	408.25
466.512	416.25
466.732	409.25
466.951	409.25
467.171	398.25
467.391	413.25
467.61	422.25
467.829	446.25
468.049	397.25
468.268	410.25
468.488	394.25
468.707	388.25
468.927	389.25
469.146	384.25
469.365	404.25
469.585	402.25
469.804	410.25
470.023	443.25
470.243	432.25
470.462	403.25
470.681	407.25
470.901	426.25
471.12	408.25
471.339	401.25
471.558	416.25
471.777	432.25
471.997	404.25
472.216	382.25
472.435	427.25
472.654	419.25
472.873	411.25
473.092	408.25
473.311	421.25
473.53	416.25
473.749	439.25
473.968	470.25
474.187	562.25
474.406	598.25
474.625	484.25
474.844	467.25
475.063	420.25
475.282	433.25
475.501	416.25
475.72	450.25
475.939	442.25
476.158	428.25
476.377	428.25
476.596	438.25
476.814	434.25
477.033	454.25
477.252	445.25
477.471	448.25
477.69	438.25
477.908	445.25
478.127	462.25
478.346	449.25
478.564	471.25
478.783	465.25
479.002	488.25
479.22	484.25
479.439	484.25
479.658	504.25
479.876	481.25
480.095	490.25
480.313	538.25
480.532	524.25
480.751	499.25
480.969	480.25
481.188	508.25
481.406	520.25
481.624	490.25
481.843	479.25
482.061	492.25
482.28	480.25
482.498	473.25
482.717	484.25
482.935	485.25
483.153	497.25
483.372	477.25
483.59	487.25
483.808	481.25
484.027	475.25
484.245	488.25
484.463	492.25
484.681	497.25
484.9	498.25
485.118	498.25
485.336	468.25
485.554	519.25
485.772	514.25
485.99	500.25
486.209	505.25
486.427	513.25
486.645	533.25
486.863	511.25
487.081	536.25
487.299	520.25
487.517	510.25
487.735	529.25
487.953	549.25
488.171	517.25
488.389	519.25
488.607	524.25
488.825	523.25
489.043	543.25
489.261	541.25
489.479	520.25
489.696	542.25
489.914	527.25
490.132	555.25
490.35	567.25
490.568	541.25
490.786	544.25
491.003	570.25
491.221	578.25
491.439	616.25
491.657	581.25
491.874	550.25
492.092	618.25
492.31	586.25
492.527	595.25
492.745	589.25
492.963	608.25
493.18	617.25
493.398	619.25
493.615	599.25
493.833	593.25
494.05	616.25
494.268	592.25
494.485	606.25
494.703	599.25
494.92	596.25
495.138	601.25
495.355	615.25
495.573	596.25
495.79	613.25
496.008	618.25
496.225	609.25
496.442	617.25
496.66	630.25
496.877	600.25
497.094	600.25
497.312	643.25
497.529	638.25
497.746	630.25
497.963	629.25
498.181	656.25
498.398	682.25
498.615	674.25
498.832	700.25
499.049	698.25
499.267	716.25
499.484	714.25
499.701	729.25
499.918	753.25
500.135	811.25
500.352	795.25
500.569	808.25
500.786	820.25
501.003	802.25
501.22	779.25
501.437	782.25
501.654	766.25
501.871	764.25
502.088	740.25
502.305	705.25
502.522	698.25
502.739	690.25
502.956	673.25
503.172	669.25
503.389	648.25
503.606	678.25
503.823	648.25
504.04	624.25
504.256	618.25
504.473	615.25
504.69	612.25
504.907	617.25
505.123	597.25
505.34	606.25
505.557	601.25
505.773	603.25
505.99	587.25
506.207	596.25
506.423	602.25
506.64	604.25
506.856	572.25
507.073	579.25
507.289	608.25
507.506	588.25
507.722	600.25
507.939	600.25
508.155	602.25
508.372	566.25
508.588	565.25
508.805	585.25
509.021	571.25
509.238	575.25
509.454	594.25
509.67	590.25
509.887	589.25
510.103	549.25
510.319	596.25
510.536	676.25
510.752	1095.25
510.968	908.25
511.184	593.25
511.401	573.25
511.617	541.25
511.833	518.25
512.049	514.25
512.265	544.25
512.481	550.25
512.698	542.25
512.914	543.25
513.13	553.25
513.346	579.25
513.562	543.25
513.778	519.25
513.994	544.25
514.21	554.25
514.426	587.25
514.642	629.25
514.858	625.25
515.074	644.25
515.29	791.25
515.506	1146.25
515.721	925.25
515.937	658.25
516.153	592.25
516.369	578.25
516.585	562.25
516.801	546.25
517.016	556.25
517.232	556.25
517.448	538.25
517.664	563.25
517.879	552.25
518.095	541.25
518.311	555.25
518.527	534.25
518.742	565.25
518.958	547.25
519.173	556.25
519.389	544.25
519.605	541.25
519.82	546.25
520.036	564.25
520.251	553.25
520.467	590.25
520.682	584.25
520.898	574.25
521.113	583.25
521.329	643.25
521.544	729.25
521.76	916.25
521.975	1450.25
522.19	1435.25
522.406	789.25
522.621	622.25
522.836	566.25
523.052	531.25
523.267	542.25
523.482	494.25
523.698	504.25
523.913	508.25
524.128	510.25
524.343	490.25
524.559	462.25
524.774	444.25
524.989	459.25
525.204	479.25
525.419	483.25
525.634	481.25
525.849	449.25
526.064	462.25
526.28	461.25
526.495	456.25
526.71	454.25
526.925	460.25
527.14	459.25
527.355	443.25
527.57	439.25
527.785	450.25
527.999	434.25
528.214	441.25
528.429	441.25
528.644	446.25
528.859	437.25
529.074	439.25
529.289	477.25
529.503	560.25
529.718	516.25
529.933	479.25
530.148	460.25
530.363	452.25
530.577	439.25
530.792	418.25
531.007	434.25
531.221	436.25
531.436	418.25
531.651	436.25
531.865	417.25
532.08	434.25
532.295	433.25
532.509	416.25
532.724	429.25
532.938	422.25
533.153	424.25
533.367	422.25
533.582	434.25
533.796	418.25
534.011	418.25
534.225	414.25
534.44	402.25
534.654	416.25
534.868	422.25
535.083	409.25
535.297	419.25
535.511	411.25
535.726	420.25
535.94	420.25
536.154	411.25
536.369	406.25
536.583	413.25
536.797	416.25
537.011	396.25
537.225	421.25
537.44	413.25
537.654	388.25
537.868	415.25
538.082	410.25
538.296	413.25
538.51	430.25
538.724	419.25
538.938	411.25
539.153	416.25
539.367	423.25
539.581	405.25
539.795	428.25
540.009	410.25
540.222	399.25
540.436	413.25
540.65	407.25
540.864	386.25
541.078	423.25
541.292	411.25
541.506	425.25
541.72	399.25
541.934	398.25
542.147	419.25
542.361	412.25
542.575	401.25
542.789	406.25
543.002	417.25
543.216	412.25
543.43	423.25
543.644	405.25
543.857	396.25
544.071	404.25
544.285	405.25
544.498	421.25
544.712	407.25
544.925	407.25
545.139	436.25
545.352	399.25
545.566	402.25
545.779	393.25
545.993	398.25
546.206	401.25
546.42	393.25
546.633	379.25
546.847	401.25
547.06	380.25
547.274	384.25
547.487	380.25
547.7	380.25
547.914	378.25
548.127	397.25
548.34	383.25
548.554	380.25
548.767	378.25
548.98	397.25
549.193	365.25
549.407	378.25
549.62	373.25
549.833	380.25
550.046	385.25
550.259	378.25
550.473	384.25
550.686	370.25
550.899	356.25
551.112	382.25
551.325	383.25
551.538	400.25
551.751	356.25
551.964	362.25
552.177	379.25
552.39	380.25
552.603	394.25
552.816	391.25
553.029	399.25
553.242	406.25
553.455	383.25
553.667	404.25
553.88	400.25
554.093	404.25
554.306	386.25
554.519	369.25
554.732	382.25
554.944	376.25
555.157	389.25
555.37	356.25
555.583	367.25
555.795	383.25
556.008	354.25
556.221	359.25
556.433	356.25
556.646	349.25
556.859	345.25
557.071	359.25
557.284	344.25
557.496	368.25
557.709	357.25
557.921	362.25
558.134	343.25
558.346	355.25
558.559	334.25
558.771	334.25
558.984	352.25
559.196	340.25
559.409	336.25
559.621	359.25
559.833	339.25
560.046	345.25
560.258	317.25
560.47	329.25
560.683	363.25
560.895	334.25
561.107	347.25
561.32	340.25
561.532	334.25
561.744	348.25
561.956	356.25
562.168	338.25
562.381	340.25
562.593	338.25
562.805	343.25
563.017	354.25
563.229	340.25
563.441	358.25
563.653	357.25
563.865	344.25
564.077	348.25
564.289	352.25
564.501	349.25
564.713	350.25
564.925	344.25
565.137	354.25
565.349	365.25
565.561	372.25
565.773	375.25
565.985	387.25
566.197	365.25
566.408	382.25
566.62	398.25
566.832	395.25
567.044	406.25
567.255	412.25
567.467	381.25
567.679	419.25
567.891	395.25
568.102	413.25
568.314	395.25
568.526	388.25
568.737	375.25
568.949	370.25
569.161	375.25
569.372	362.25
569.584	361.25
569.795	344.25
570.007	348.25
570.218	389.25
570.43	372.25
570.641	326.25
570.853	326.25
571.064	348.25
571.276	320.25
571.487	329.25
571.698	319.25
571.91	314.25
572.121	327.25
572.333	333.25
572.544	323.25
572.755	322.25
572.966	326.25
573.178	300.25
573.389	312.25
573.6	316.25
573.811	321.25
574.023	305.25
574.234	293.25
574.445	298.25
574.656	316.25
574.867	291.25
575.078	311.25
575.289	300.25
575.501	299.25
575.712	288.25
575.923	290.25
576.134	297.25
576.345	281.25
576.556	295.25
576.767	296.25
576.978	304.25
577.188	276.25
577.399	291.25
577.61	296.25
577.821	307.25
578.032	311.25
578.243	332.25
578.454	517.25
578.665	391.25
578.875	291.25
579.086	275.25
579.297	302.25
579.508	285.25
579.718	278.25
579.929	294.25
580.14	291.25
580.35	286.25
580.561	281.25
580.772	276.25
580.982	288.25
581.193	279.25
581.403	285.25
581.614	288.25
581.825	280.25
582.035	287.25
582.246	285.25
582.456	282.25
582.667	279.25
582.877	276.25
583.087	269.25
583.298	274.25
583.508	275.25
583.719	274.25
583.929	276.25
584.139	279.25
584.35	261.25
584.56	269.25
584.77	267.25
584.981	272.25
585.191	260.25
585.401	256.25
585.611	256.25
585.821	276.25
586.032	271.25
586.242	270.25
586.452	274.25
586.662	280.25
586.872	257.25
587.082	268.25
587.292	258.25
587.502	265.25
587.713	263.25
587.923	265.25
588.133	289.25
588.343	276.25
588.553	274.25
588.762	253.25
588.972	264.25
589.182	290.25
589.392	273.25
589.602	264.25
589.812	292.25
590.022	278.25
590.232	254.25
590.441	247.25
590.651	253.25
590.861	265.25
591.071	258.25
591.281	256.25
591.49	270.25
591.7	267.25
591.91	257.25
592.119	258.25
592.329	246.25
592.539	297.25
592.748	258.25
592.958	264.25
593.167	270.25
593.377	271.25
593.587	290.25
593.796	255.25
594.006	264.25
594.215	270.25
594.424	272.25
594.634	260.25
594.843	269.25
595.053	243.25
595.262	256.25
595.472	248.25
595.681	267.25
595.89	256.25
596.1	256.25
596.309	252.25
596.518	250.25
596.727	266.25
596.937	259.25
597.146	251.25
597.355	247.25
597.564	244.25
597.774	244.25
597.983	247.25
598.192	248.25
598.401	246.25
598.61	222.25
598.819	235.25
599.028	232.25
599.237	238.25
599.446	237.25
599.655	227.25
599.864	236.25
600.073	221.25
600.282	252.25
600.491	233.25
600.7	234.25
600.909	245.25
601.118	241.25
601.327	233.25
601.536	213.25
601.745	228.25
601.953	227.25
602.162	231.25
602.371	222.25
602.58	236.25
602.789	231.25
602.997	235.25
603.206	240.25
603.415	236.25
603.623	238.25
603.832	216.25
604.041	226.25
604.249	229.25
604.458	251.25
604.666	227.25
604.875	219.25
605.084	233.25
605.292	210.25
605.501	233.25
605.709	218.25
605.918	209.25
606.126	213.25
606.334	220.25
606.543	233.25
606.751	206.25
606.96	225.25
607.168	232.25
607.376	232.25
607.585	224.25
607.793	231.25
608.001	212.25
608.21	221.25
608.418	228.25
608.626	205.25
608.834	226.25
609.043	204.25
609.251	205.25
609.459	219.25
609.667	217.25
609.875	225.25
610.083	225.25
610.291	219.25
610.499	216.25
610.707	219.25
610.916	224.25
611.124	227.25
611.332	223.25
611.54	235.25
611.748	216.25
611.955	232.25
612.163	231.25
612.371	230.25
612.579	238.25
612.787	241.25
612.995	232.25
613.203	214.25
613.411	227.25
613.618	219.25
613.826	210.25
614.034	215.25
614.242	216.25
614.449	221.25
614.657	194.25
614.865	223.25
615.072	204.25
615.28	215.25
615.488	203.25
615.695	210.25
615.903	211.25
616.111	205.25
616.318	216.25
616.526	209.25
616.733	201.25
616.941	188.25
617.148	198.25
617.356	221.25
617.563	209.25
617.771	216.25
617.978	202.25
618.185	211.25
618.393	210.25
618.6	204.25
618.807	192.25
619.015	200.25
619.222	195.25
619.429	201.25
619.637	206.25
619.844	208.25
620.051	202.25
620.258	199.25
620.466	198.25
620.673	193.25
620.88	207.25
621.087	201.25
621.294	205.25
621.501	205.25
621.708	197.25
621.915	204.25
622.122	197.25
622.329	197.25
622.536	214.25
622.743	205.25
622.95	196.25
623.157	213.25
623.364	180.25
623.571	208.25
623.778	184.25
623.985	195.25
624.192	202.25
624.399	202.25
624.606	207.25
624.812	196.25
625.019	193.25
625.226	192.25
625.433	187.25
625.639	198.25
625.846	201.25
626.053	184.25
626.259	184.25
626.466	202.25
626.673	198.25
626.879	184.25
627.086	187.25
627.293	191.25
627.499	196.25
627.706	195.25
627.912	190.25
628.119	185.25
628.325	202.25
628.532	181.25
628.738	174.25
628.945	181.25
629.151	190.25
629.357	185.25
629.564	177.25
629.77	201.25
629.976	171.25
630.183	177.25
630.389	179.25
630.595	177.25
630.802	185.25
631.008	168.25
631.214	170.25
631.42	189.25
631.627	187.25
631.833	188.25
632.039	178.25
632.245	167.25
632.451	172.25
632.657	176.25
632.863	186.25
633.069	172.25
633.275	174.25
633.481	171.25
633.688	188.25
633.893	178.25
634.099	167.25
634.305	160.25
634.511	177.25
634.717	172.25
634.923	166.25
635.129	176.25
635.335	174.25
635.541	170.25
635.747	172.25
635.952	173.25
636.158	154.25
636.364	171.25
636.57	180.25
636.775	168.25
636.981	164.25
637.187	153.25
637.392	166.25
637.598	158.25
637.804	172.25
638.009	179.25
638.215	162.25
638.421	141.25
638.626	169.25
638.832	158.25
639.037	162.25
639.243	160.25
639.448	166.25
639.654	156.25
639.859	164.25
640.065	165.25
640.27	176.25
640.475	158.25
640.681	159.25
640.886	159.25
641.091	160.25
641.297	170.25
641.502	155.25
641.707	160.25
641.913	170.25
642.118	145.25
642.323	156.25
642.528	156.25
642.733	163.25
642.939	153.25
643.144	147.25
643.349	150.25
643.554	152.25
643.759	156.25
643.964	147.25
644.169	160.25
644.374	164.25
644.579	153.25
644.784	151.25
644.989	173.25
645.194	154.25
645.399	149.25
645.604	168.25
645.809	168.25
646.014	166.25
646.219	160.25
646.423	155.25
646.628	152.25
646.833	165.25
647.038	152.25
647.243	152.25
647.447	149.25
647.652	156.25
647.857	164.25
648.062	171.25
648.266	155.25
648.471	148.25
648.676	173.25
648.88	158.25
649.085	149.25
649.289	148.25
649.494	164.25
649.698	184.25
649.903	178.25
650.107	155.25
650.312	163.25
650.516	153.25
650.721	148.25
650.925	141.25
651.13	144.25
651.334	144.25
651.539	147.25
651.743	136.25
651.947	128.25
652.152	135.25
652.356	128.25
652.56	140.25
652.764	143.25
652.969	125.25
653.173	142.25
653.377	140.25
653.581	114.25
653.785	123.25
653.99	134.25
654.194	128.25
654.398	121.25
654.602	125.25
654.806	107.25
655.01	144.25
655.214	150.25
655.418	125.25
655.622	128.25
655.826	128.25
656.03	114.25
656.234	127.25
656.438	119.25
656.642	128.25
656.846	131.25
657.049	116.25
657.253	110.25
657.457	116.25
657.661	110.25
657.865	116.25
658.068	117.25
658.272	101.25
658.476	114.25
658.68	116.25
658.883	113.25
659.087	115.25
659.291	93.25
659.494	99.25
659.698	94.25
659.901	90.25
660.105	91.25
660.309	93.25
660.512	101.25
660.716	91.25
660.919	117.25
661.123	87.25
661.326	107.25
661.53	90.25
661.733	102.25
661.936	83.25
662.14	86.25
662.343	96.25
662.546	104.25
662.75	91.25
662.953	90.25
663.156	76.25
663.36	86.25
663.563	88.25
663.766	85.25
663.969	86.25
664.173	83.25
664.376	90.25
664.579	74.25
664.782	99.25
664.985	85.25
665.188	72.25
665.391	69.25
665.594	92.25
665.797	89.25
666	80.25
666.203	84.25
666.406	73.25
666.609	74.25
666.812	78.25
667.015	93.25
667.218	84.25
667.421	78.25
667.624	81.25
667.827	68.25
668.03	80.25
668.232	82.25
668.435	72.25
668.638	92.25
668.841	88.25
669.043	77.25
669.246	75.25
669.449	68.25
669.651	86.25
669.854	87.25
670.057	90.25
670.259	77.25
670.462	75.25
670.665	87.25
670.867	86.25
671.07	85.25
671.272	65.25
671.475	93.25
671.677	90.25
671.88	79.25
672.082	93.25
672.284	72.25
672.487	86.25
672.689	85.25
672.892	77.25
