Data from 1989.PennyLincolnUp.Lamp.En5.5.200Scan.071819.P2_HRD10591_17-23-48-973.txt Node
Date: Thu Jul 18 17:23:48 EDT 2019
User: cochatt
Spectrometer: HR+D1059
Trigger mode: 1
Integration Time (sec): 1.000000E-1
Scans to average: 1
Electric dark correction enabled: true
Nonlinearity correction enabled: false
Boxcar width: 0
XAxis mode: Wavelengths
Number of Pixels in Spectrum: 2048
>>>>>Begin Spectral Data<<<<<
223.165	-6.44
223.4	-6.44
223.635	-6.44
223.869	-23.44
224.104	-16.44
224.338	-22.44
224.573	-17.44
224.808	-9.44
225.042	-13.44
225.277	0.56
225.511	-3.44
225.746	7.56
225.98	1.56
226.215	22.56
226.449	24.56
226.683	15.56
226.918	17.56
227.152	22.56
227.387	27.56
227.621	48.56
227.856	42.56
228.09	50.56
228.324	49.56
228.559	47.56
228.793	65.56
229.027	97.56
229.262	102.56
229.496	124.56
229.73	142.56
229.964	150.56
230.199	124.56
230.433	103.56
230.667	115.56
230.901	121.56
231.136	100.56
231.37	116.56
231.604	101.56
231.838	112.56
232.072	109.56
232.306	106.56
232.541	123.56
232.775	126.56
233.009	103.56
233.243	125.56
233.477	110.56
233.711	117.56
233.945	111.56
234.179	116.56
234.413	116.56
234.647	113.56
234.881	110.56
235.115	106.56
235.349	126.56
235.583	112.56
235.817	103.56
236.051	125.56
236.285	114.56
236.519	132.56
236.753	114.56
236.987	144.56
237.221	172.56
237.455	217.56
237.689	188.56
237.922	125.56
238.156	126.56
238.39	121.56
238.624	133.56
238.858	122.56
239.091	122.56
239.325	125.56
239.559	147.56
239.793	124.56
240.027	119.56
240.26	149.56
240.494	150.56
240.728	161.56
240.961	144.56
241.195	135.56
241.429	141.56
241.662	125.56
241.896	127.56
242.13	134.56
242.363	154.56
242.597	135.56
242.83	139.56
243.064	140.56
243.298	138.56
243.531	153.56
243.765	142.56
243.998	143.56
244.232	134.56
244.465	159.56
244.699	142.56
244.932	142.56
245.166	144.56
245.399	141.56
245.633	150.56
245.866	146.56
246.099	147.56
246.333	163.56
246.566	161.56
246.8	162.56
247.033	137.56
247.266	157.56
247.5	168.56
247.733	168.56
247.966	170.56
248.2	180.56
248.433	168.56
248.666	185.56
248.899	186.56
249.133	202.56
249.366	213.56
249.599	204.56
249.832	193.56
250.066	192.56
250.299	190.56
250.532	193.56
250.765	214.56
250.998	240.56
251.231	224.56
251.465	224.56
251.698	197.56
251.931	215.56
252.164	197.56
252.397	195.56
252.63	209.56
252.863	217.56
253.096	220.56
253.329	235.56
253.562	225.56
253.795	218.56
254.028	224.56
254.261	218.56
254.494	234.56
254.727	278.56
254.96	283.56
255.193	291.56
255.426	251.56
255.659	254.56
255.892	225.56
256.124	245.56
256.357	214.56
256.59	227.56
256.823	219.56
257.056	221.56
257.289	217.56
257.521	228.56
257.754	208.56
257.987	213.56
258.22	210.56
258.452	224.56
258.685	211.56
258.918	193.56
259.151	219.56
259.383	203.56
259.616	224.56
259.849	223.56
260.081	261.56
260.314	276.56
260.547	264.56
260.779	239.56
261.012	244.56
261.244	245.56
261.477	227.56
261.71	220.56
261.942	216.56
262.175	243.56
262.407	238.56
262.64	225.56
262.872	229.56
263.105	212.56
263.337	219.56
263.57	234.56
263.802	219.56
264.035	201.56
264.267	205.56
264.499	228.56
264.732	221.56
264.964	217.56
265.197	230.56
265.429	212.56
265.661	230.56
265.894	231.56
266.126	238.56
266.358	228.56
266.591	231.56
266.823	220.56
267.055	235.56
267.287	216.56
267.52	216.56
267.752	225.56
267.984	225.56
268.216	232.56
268.448	240.56
268.681	238.56
268.913	250.56
269.145	254.56
269.377	286.56
269.609	263.56
269.841	278.56
270.073	282.56
270.306	311.56
270.538	341.56
270.77	327.56
271.002	315.56
271.234	295.56
271.466	297.56
271.698	315.56
271.93	323.56
272.162	331.56
272.394	333.56
272.626	297.56
272.858	274.56
273.09	279.56
273.322	290.56
273.553	277.56
273.785	295.56
274.017	261.56
274.249	282.56
274.481	284.56
274.713	266.56
274.945	281.56
275.176	280.56
275.408	272.56
275.64	275.56
275.872	279.56
276.104	282.56
276.335	276.56
276.567	285.56
276.799	272.56
277.031	319.56
277.262	315.56
277.494	318.56
277.726	304.56
277.957	286.56
278.189	282.56
278.421	275.56
278.652	295.56
278.884	279.56
279.115	280.56
279.347	263.56
279.579	264.56
279.81	281.56
280.042	285.56
280.273	258.56
280.505	258.56
280.736	264.56
280.968	264.56
281.199	264.56
281.431	268.56
281.662	263.56
281.894	273.56
282.125	282.56
282.356	304.56
282.588	312.56
282.819	302.56
283.051	295.56
283.282	269.56
283.513	289.56
283.745	295.56
283.976	279.56
284.207	271.56
284.439	290.56
284.67	282.56
284.901	289.56
285.132	296.56
285.364	273.56
285.595	281.56
285.826	268.56
286.057	280.56
286.288	280.56
286.52	287.56
286.751	277.56
286.982	281.56
287.213	274.56
287.444	295.56
287.675	303.56
287.906	295.56
288.138	305.56
288.369	291.56
288.6	320.56
288.831	313.56
289.062	296.56
289.293	294.56
289.524	312.56
289.755	308.56
289.986	285.56
290.217	308.56
290.448	290.56
290.679	288.56
290.91	306.56
291.141	303.56
291.371	295.56
291.602	298.56
291.833	291.56
292.064	299.56
292.295	306.56
292.526	283.56
292.757	290.56
292.987	266.56
293.218	278.56
293.449	282.56
293.68	286.56
293.91	280.56
294.141	308.56
294.372	295.56
294.603	286.56
294.833	302.56
295.064	302.56
295.295	302.56
295.525	303.56
295.756	299.56
295.987	280.56
296.217	327.56
296.448	337.56
296.679	310.56
296.909	293.56
297.14	300.56
297.37	308.56
297.601	287.56
297.831	283.56
298.062	305.56
298.292	319.56
298.523	313.56
298.753	330.56
298.984	300.56
299.214	287.56
299.445	316.56
299.675	304.56
299.905	314.56
300.136	309.56
300.366	317.56
300.597	321.56
300.827	317.56
301.057	328.56
301.288	331.56
301.518	321.56
301.748	319.56
301.979	337.56
302.209	340.56
302.439	337.56
302.669	331.56
302.9	324.56
303.13	329.56
303.36	329.56
303.59	321.56
303.82	337.56
304.051	334.56
304.281	324.56
304.511	304.56
304.741	316.56
304.971	328.56
305.201	321.56
305.431	318.56
305.661	325.56
305.891	332.56
306.121	328.56
306.352	348.56
306.582	338.56
306.812	340.56
307.042	326.56
307.272	314.56
307.502	334.56
307.731	365.56
307.961	343.56
308.191	336.56
308.421	344.56
308.651	351.56
308.881	334.56
309.111	345.56
309.341	328.56
309.571	348.56
309.8	359.56
310.03	374.56
310.26	382.56
310.49	367.56
310.72	378.56
310.949	397.56
311.179	390.56
311.409	372.56
311.639	386.56
311.868	369.56
312.098	365.56
312.328	392.56
312.557	401.56
312.787	412.56
313.017	408.56
313.246	395.56
313.476	379.56
313.706	385.56
313.935	371.56
314.165	396.56
314.394	404.56
314.624	395.56
314.853	403.56
315.083	374.56
315.312	375.56
315.542	359.56
315.771	362.56
316.001	375.56
316.23	368.56
316.46	387.56
316.689	377.56
316.919	369.56
317.148	390.56
317.377	394.56
317.607	382.56
317.836	386.56
318.065	386.56
318.295	396.56
318.524	374.56
318.753	400.56
318.983	388.56
319.212	393.56
319.441	384.56
319.67	395.56
319.9	399.56
320.129	381.56
320.358	378.56
320.587	390.56
320.816	410.56
321.046	416.56
321.275	404.56
321.504	382.56
321.733	392.56
321.962	407.56
322.191	426.56
322.42	425.56
322.649	452.56
322.878	458.56
323.108	464.56
323.337	487.56
323.566	508.56
323.795	546.56
324.024	583.56
324.253	696.56
324.482	1037.56
324.71	1532.56
324.939	2276.56
325.168	1930.56
325.397	1002.56
325.626	656.56
325.855	583.56
326.084	528.56
326.313	528.56
326.542	515.56
326.77	561.56
326.999	644.56
327.228	916.56
327.457	1363.56
327.686	1677.56
327.914	1128.56
328.143	724.56
328.372	623.56
328.6	586.56
328.829	562.56
329.058	577.56
329.287	562.56
329.515	545.56
329.744	511.56
329.972	500.56
330.201	503.56
330.43	535.56
330.658	552.56
330.887	612.56
331.115	595.56
331.344	518.56
331.572	474.56
331.801	500.56
332.03	490.56
332.258	448.56
332.486	427.56
332.715	440.56
332.943	441.56
333.172	446.56
333.4	411.56
333.629	440.56
333.857	469.56
334.085	445.56
334.314	439.56
334.542	454.56
334.771	458.56
334.999	439.56
335.227	456.56
335.455	438.56
335.684	423.56
335.912	450.56
336.14	410.56
336.369	436.56
336.597	427.56
336.825	430.56
337.053	429.56
337.281	437.56
337.51	432.56
337.738	426.56
337.966	422.56
338.194	434.56
338.422	434.56
338.65	432.56
338.878	437.56
339.106	432.56
339.334	414.56
339.562	422.56
339.79	424.56
340.018	433.56
340.246	422.56
340.474	425.56
340.702	415.56
340.93	425.56
341.158	420.56
341.386	405.56
341.614	420.56
341.842	432.56
342.07	438.56
342.298	424.56
342.526	408.56
342.754	387.56
342.981	395.56
343.209	413.56
343.437	405.56
343.665	432.56
343.893	426.56
344.12	436.56
344.348	419.56
344.576	432.56
344.804	430.56
345.031	424.56
345.259	423.56
345.487	431.56
345.714	430.56
345.942	420.56
346.17	395.56
346.397	410.56
346.625	396.56
346.853	406.56
347.08	426.56
347.308	421.56
347.535	404.56
347.763	431.56
347.99	422.56
348.218	411.56
348.445	448.56
348.673	424.56
348.9	425.56
349.128	427.56
349.355	389.56
349.583	396.56
349.81	407.56
350.037	388.56
350.265	385.56
350.492	406.56
350.72	389.56
350.947	384.56
351.174	413.56
351.402	420.56
351.629	408.56
351.856	395.56
352.083	418.56
352.311	435.56
352.538	407.56
352.765	405.56
352.992	398.56
353.22	412.56
353.447	405.56
353.674	410.56
353.901	399.56
354.128	382.56
354.355	381.56
354.583	375.56
354.81	372.56
355.037	385.56
355.264	390.56
355.491	373.56
355.718	376.56
355.945	380.56
356.172	382.56
356.399	358.56
356.626	366.56
356.853	367.56
357.08	369.56
357.307	375.56
357.534	381.56
357.761	379.56
357.988	390.56
358.215	374.56
358.441	377.56
358.668	389.56
358.895	366.56
359.122	379.56
359.349	390.56
359.576	412.56
359.802	406.56
360.029	448.56
360.256	456.56
360.483	460.56
360.709	399.56
360.936	400.56
361.163	402.56
361.39	402.56
361.616	409.56
361.843	388.56
362.07	414.56
362.296	397.56
362.523	402.56
362.749	393.56
362.976	393.56
363.203	376.56
363.429	386.56
363.656	383.56
363.882	378.56
364.109	387.56
364.335	378.56
364.562	395.56
364.788	391.56
365.015	385.56
365.241	376.56
365.468	375.56
365.694	413.56
365.92	384.56
366.147	384.56
366.373	388.56
366.599	391.56
366.826	385.56
367.052	393.56
367.278	377.56
367.505	388.56
367.731	381.56
367.957	373.56
368.184	382.56
368.41	368.56
368.636	371.56
368.862	395.56
369.089	386.56
369.315	366.56
369.541	401.56
369.767	371.56
369.993	368.56
370.219	365.56
370.445	355.56
370.672	368.56
370.898	378.56
371.124	384.56
371.35	374.56
371.576	379.56
371.802	384.56
372.028	379.56
372.254	383.56
372.48	378.56
372.706	375.56
372.932	392.56
373.158	371.56
373.384	391.56
373.61	371.56
373.835	375.56
374.061	386.56
374.287	392.56
374.513	374.56
374.739	378.56
374.965	377.56
375.191	379.56
375.416	401.56
375.642	375.56
375.868	358.56
376.094	370.56
376.319	368.56
376.545	373.56
376.771	392.56
376.997	372.56
377.222	352.56
377.448	357.56
377.674	372.56
377.899	369.56
378.125	368.56
378.35	378.56
378.576	370.56
378.802	382.56
379.027	368.56
379.253	361.56
379.478	356.56
379.704	378.56
379.929	354.56
380.155	370.56
380.38	364.56
380.606	368.56
380.831	374.56
381.057	400.56
381.282	374.56
381.507	373.56
381.733	347.56
381.958	374.56
382.184	390.56
382.409	384.56
382.634	390.56
382.86	389.56
383.085	378.56
383.31	376.56
383.535	360.56
383.761	382.56
383.986	370.56
384.211	382.56
384.436	374.56
384.662	379.56
384.887	382.56
385.112	390.56
385.337	401.56
385.562	382.56
385.787	386.56
386.013	408.56
386.238	397.56
386.463	440.56
386.688	414.56
386.913	388.56
387.138	391.56
387.363	389.56
387.588	387.56
387.813	403.56
388.038	403.56
388.263	399.56
388.488	398.56
388.713	392.56
388.938	395.56
389.163	378.56
389.387	410.56
389.612	405.56
389.837	383.56
390.062	385.56
390.287	383.56
390.512	394.56
390.736	372.56
390.961	392.56
391.186	402.56
391.411	386.56
391.636	403.56
391.86	416.56
392.085	395.56
392.31	418.56
392.534	394.56
392.759	406.56
392.984	415.56
393.208	402.56
393.433	401.56
393.658	393.56
393.882	391.56
394.107	390.56
394.331	397.56
394.556	384.56
394.78	409.56
395.005	398.56
395.229	392.56
395.454	392.56
395.678	391.56
395.903	405.56
396.127	427.56
396.352	457.56
396.576	402.56
396.801	401.56
397.025	418.56
397.249	382.56
397.474	416.56
397.698	417.56
397.922	441.56
398.147	428.56
398.371	426.56
398.595	433.56
398.82	438.56
399.044	435.56
399.268	444.56
399.492	467.56
399.717	486.56
399.941	486.56
400.165	550.56
400.389	546.56
400.613	513.56
400.837	454.56
401.062	455.56
401.286	446.56
401.51	439.56
401.734	441.56
401.958	447.56
402.182	460.56
402.406	473.56
402.63	456.56
402.854	479.56
403.078	434.56
403.302	455.56
403.526	472.56
403.75	503.56
403.974	471.56
404.198	438.56
404.422	434.56
404.645	441.56
404.869	451.56
405.093	491.56
405.317	509.56
405.541	537.56
405.765	477.56
405.988	478.56
406.212	503.56
406.436	515.56
406.66	528.56
406.883	488.56
407.107	535.56
407.331	577.56
407.555	622.56
407.778	610.56
408.002	555.56
408.226	534.56
408.449	506.56
408.673	521.56
408.896	548.56
409.12	572.56
409.344	545.56
409.567	496.56
409.791	489.56
410.014	454.56
410.238	455.56
410.461	476.56
410.685	448.56
410.908	484.56
411.132	508.56
411.355	530.56
411.578	534.56
411.802	490.56
412.025	478.56
412.249	453.56
412.472	445.56
412.695	460.56
412.919	434.56
413.142	440.56
413.365	446.56
413.589	437.56
413.812	442.56
414.035	413.56
414.258	437.56
414.482	430.56
414.705	430.56
414.928	414.56
415.151	436.56
415.374	419.56
415.597	403.56
415.821	415.56
416.044	414.56
416.267	443.56
416.49	427.56
416.713	419.56
416.936	426.56
417.159	437.56
417.382	410.56
417.605	430.56
417.828	430.56
418.051	453.56
418.274	448.56
418.497	416.56
418.72	446.56
418.943	447.56
419.166	447.56
419.389	438.56
419.611	463.56
419.834	433.56
420.057	449.56
420.28	435.56
420.503	423.56
420.726	443.56
420.948	473.56
421.171	494.56
421.394	536.56
421.617	482.56
421.839	447.56
422.062	449.56
422.285	472.56
422.507	535.56
422.73	599.56
422.953	596.56
423.175	512.56
423.398	483.56
423.621	468.56
423.843	484.56
424.066	503.56
424.288	470.56
424.511	495.56
424.733	576.56
424.956	656.56
425.178	623.56
425.401	624.56
425.623	637.56
425.846	539.56
426.068	514.56
426.291	505.56
426.513	512.56
426.735	494.56
426.958	543.56
427.18	636.56
427.402	743.56
427.625	814.56
427.847	692.56
428.069	596.56
428.292	521.56
428.514	495.56
428.736	472.56
428.958	459.56
429.181	447.56
429.403	451.56
429.625	468.56
429.847	512.56
430.069	559.56
430.292	566.56
430.514	478.56
430.736	463.56
430.958	459.56
431.18	441.56
431.402	436.56
431.624	430.56
431.846	422.56
432.068	435.56
432.29	430.56
432.512	418.56
432.734	430.56
432.956	442.56
433.178	441.56
433.4	462.56
433.622	452.56
433.844	433.56
434.066	449.56
434.287	434.56
434.509	435.56
434.731	423.56
434.953	460.56
435.175	469.56
435.397	475.56
435.618	484.56
435.84	532.56
436.062	641.56
436.284	699.56
436.505	594.56
436.727	514.56
436.949	499.56
437.17	472.56
437.392	471.56
437.614	469.56
437.835	511.56
438.057	611.56
438.278	709.56
438.5	691.56
438.721	773.56
438.943	709.56
439.165	568.56
439.386	520.56
439.608	528.56
439.829	507.56
440.05	536.56
440.272	597.56
440.493	520.56
440.715	500.56
440.936	465.56
441.158	465.56
441.379	448.56
441.6	469.56
441.822	483.56
442.043	510.56
442.264	616.56
442.486	659.56
442.707	570.56
442.928	502.56
443.149	495.56
443.371	553.56
443.592	588.56
443.813	676.56
444.034	729.56
444.255	580.56
444.476	516.56
444.698	524.56
444.919	487.56
445.14	580.56
445.361	559.56
445.582	510.56
445.803	601.56
446.024	704.56
446.245	710.56
446.466	656.56
446.687	548.56
446.908	502.56
447.129	472.56
447.35	468.56
447.571	455.56
447.792	452.56
448.013	454.56
448.234	490.56
448.455	539.56
448.675	622.56
448.896	752.56
449.117	640.56
449.338	600.56
449.559	691.56
449.779	802.56
450	611.56
450.221	534.56
450.442	474.56
450.662	462.56
450.883	454.56
451.104	470.56
451.324	455.56
451.545	427.56
451.766	438.56
451.986	408.56
452.207	416.56
452.428	381.56
452.648	421.56
452.869	411.56
453.089	415.56
453.31	434.56
453.53	420.56
453.751	407.56
453.971	388.56
454.192	444.56
454.412	432.56
454.633	415.56
454.853	409.56
455.073	412.56
455.294	435.56
455.514	534.56
455.734	477.56
455.955	450.56
456.175	387.56
456.395	384.56
456.616	375.56
456.836	393.56
457.056	395.56
457.276	404.56
457.497	387.56
457.717	376.56
457.937	391.56
458.157	422.56
458.377	396.56
458.598	415.56
458.818	452.56
459.038	537.56
459.258	584.56
459.478	466.56
459.698	425.56
459.918	421.56
460.138	413.56
460.358	406.56
460.578	407.56
460.798	433.56
461.018	431.56
461.238	423.56
461.458	423.56
461.678	451.56
461.898	417.56
462.118	403.56
462.338	417.56
462.558	431.56
462.777	420.56
462.997	447.56
463.217	450.56
463.437	451.56
463.657	453.56
463.876	458.56
464.096	464.56
464.316	449.56
464.536	464.56
464.755	438.56
464.975	467.56
465.195	499.56
465.414	577.56
465.634	513.56
465.854	469.56
466.073	440.56
466.293	446.56
466.512	407.56
466.732	402.56
466.951	400.56
467.171	404.56
467.391	407.56
467.61	410.56
467.829	448.56
468.049	439.56
468.268	406.56
468.488	388.56
468.707	396.56
468.927	386.56
469.146	404.56
469.365	396.56
469.585	404.56
469.804	394.56
470.023	441.56
470.243	428.56
470.462	404.56
470.681	442.56
470.901	434.56
471.12	408.56
471.339	425.56
471.558	421.56
471.777	408.56
471.997	402.56
472.216	397.56
472.435	426.56
472.654	419.56
472.873	405.56
473.092	417.56
473.311	404.56
473.53	407.56
473.749	436.56
473.968	486.56
474.187	560.56
474.406	585.56
474.625	500.56
474.844	440.56
475.063	408.56
475.282	416.56
475.501	427.56
475.72	450.56
475.939	446.56
476.158	440.56
476.377	439.56
476.596	431.56
476.814	428.56
477.033	439.56
477.252	460.56
477.471	449.56
477.69	441.56
477.908	446.56
478.127	456.56
478.346	450.56
478.564	447.56
478.783	466.56
479.002	478.56
479.22	475.56
479.439	506.56
479.658	475.56
479.876	491.56
480.095	488.56
480.313	522.56
480.532	514.56
480.751	497.56
480.969	502.56
481.188	515.56
481.406	528.56
481.624	497.56
481.843	484.56
482.061	489.56
482.28	469.56
482.498	471.56
482.717	475.56
482.935	471.56
483.153	462.56
483.372	474.56
483.59	487.56
483.808	497.56
484.027	503.56
484.245	470.56
484.463	512.56
484.681	495.56
484.9	474.56
485.118	499.56
485.336	506.56
485.554	494.56
485.772	498.56
485.99	518.56
486.209	500.56
486.427	514.56
486.645	521.56
486.863	543.56
487.081	537.56
487.299	539.56
487.517	519.56
487.735	519.56
487.953	544.56
488.171	529.56
488.389	507.56
488.607	540.56
488.825	534.56
489.043	546.56
489.261	519.56
489.479	570.56
489.696	559.56
489.914	556.56
490.132	547.56
490.35	543.56
490.568	563.56
490.786	555.56
491.003	555.56
491.221	574.56
491.439	566.56
491.657	600.56
491.874	584.56
492.092	592.56
492.31	608.56
492.527	616.56
492.745	606.56
492.963	631.56
493.18	632.56
493.398	611.56
493.615	626.56
493.833	609.56
494.05	624.56
494.268	615.56
494.485	608.56
494.703	622.56
494.92	605.56
495.138	609.56
495.355	648.56
495.573	641.56
495.79	635.56
496.008	606.56
496.225	626.56
496.442	640.56
496.66	646.56
496.877	632.56
497.094	642.56
497.312	619.56
497.529	620.56
497.746	639.56
497.963	667.56
498.181	677.56
498.398	689.56
498.615	687.56
498.832	674.56
499.049	698.56
499.267	721.56
499.484	714.56
499.701	745.56
499.918	776.56
500.135	782.56
500.352	823.56
500.569	814.56
500.786	835.56
501.003	793.56
501.22	788.56
501.437	793.56
501.654	792.56
501.871	785.56
502.088	734.56
502.305	728.56
502.522	730.56
502.739	696.56
502.956	676.56
503.172	666.56
503.389	657.56
503.606	634.56
503.823	666.56
504.04	649.56
504.256	632.56
504.473	631.56
504.69	619.56
504.907	632.56
505.123	628.56
505.34	610.56
505.557	620.56
505.773	609.56
505.99	612.56
506.207	601.56
506.423	624.56
506.64	575.56
506.856	593.56
507.073	599.56
507.289	604.56
507.506	595.56
507.722	590.56
507.939	623.56
508.155	584.56
508.372	590.56
508.588	576.56
508.805	580.56
509.021	572.56
509.238	575.56
509.454	610.56
509.67	571.56
509.887	574.56
510.103	576.56
510.319	597.56
510.536	681.56
510.752	1158.56
510.968	926.56
511.184	607.56
511.401	582.56
511.617	568.56
511.833	552.56
512.049	534.56
512.265	562.56
512.481	524.56
512.698	548.56
512.914	550.56
513.13	556.56
513.346	547.56
513.562	537.56
513.778	571.56
513.994	564.56
514.21	562.56
514.426	596.56
514.642	628.56
514.858	669.56
515.074	679.56
515.29	824.56
515.506	1258.56
515.721	1010.56
515.937	673.56
516.153	608.56
516.369	591.56
516.585	578.56
516.801	558.56
517.016	568.56
517.232	559.56
517.448	542.56
517.664	554.56
517.879	567.56
518.095	574.56
518.311	550.56
518.527	546.56
518.742	530.56
518.958	555.56
519.173	558.56
519.389	547.56
519.605	523.56
519.82	522.56
520.036	553.56
520.251	570.56
520.467	552.56
520.682	611.56
520.898	611.56
521.113	628.56
521.329	691.56
521.544	750.56
521.76	954.56
521.975	1629.56
522.19	1554.56
522.406	848.56
522.621	652.56
522.836	593.56
523.052	553.56
523.267	518.56
523.482	515.56
523.698	523.56
523.913	515.56
524.128	497.56
524.343	497.56
524.559	499.56
524.774	478.56
524.989	487.56
525.204	486.56
525.419	473.56
525.634	476.56
525.849	485.56
526.064	467.56
526.28	470.56
526.495	478.56
526.71	468.56
526.925	473.56
527.14	459.56
527.355	444.56
527.57	437.56
527.785	454.56
527.999	440.56
528.214	436.56
528.429	421.56
528.644	430.56
528.859	448.56
529.074	451.56
529.289	483.56
529.503	559.56
529.718	517.56
529.933	487.56
530.148	436.56
530.363	445.56
530.577	439.56
530.792	450.56
531.007	457.56
531.221	434.56
531.436	431.56
531.651	429.56
531.865	434.56
532.08	434.56
532.295	444.56
532.509	423.56
532.724	433.56
532.938	427.56
533.153	420.56
533.367	419.56
533.582	408.56
533.796	422.56
534.011	443.56
534.225	430.56
534.44	398.56
534.654	430.56
534.868	421.56
535.083	444.56
535.297	416.56
535.511	427.56
535.726	410.56
535.94	430.56
536.154	427.56
536.369	416.56
536.583	438.56
536.797	402.56
537.011	402.56
537.225	402.56
537.44	404.56
537.654	408.56
537.868	396.56
538.082	403.56
538.296	410.56
538.51	408.56
538.724	415.56
538.938	393.56
539.153	401.56
539.367	415.56
539.581	421.56
539.795	401.56
540.009	393.56
540.222	398.56
540.436	416.56
540.65	406.56
540.864	435.56
541.078	436.56
541.292	423.56
541.506	408.56
541.72	406.56
541.934	404.56
542.147	393.56
542.361	378.56
542.575	409.56
542.789	396.56
543.002	403.56
543.216	409.56
543.43	412.56
543.644	409.56
543.857	393.56
544.071	388.56
544.285	408.56
544.498	403.56
544.712	402.56
544.925	416.56
545.139	417.56
545.352	390.56
545.566	399.56
545.779	396.56
545.993	399.56
546.206	403.56
546.42	407.56
546.633	399.56
546.847	398.56
547.06	389.56
547.274	388.56
547.487	402.56
547.7	379.56
547.914	380.56
548.127	388.56
548.34	383.56
548.554	395.56
548.767	404.56
548.98	392.56
549.193	391.56
549.407	380.56
549.62	373.56
549.833	380.56
550.046	379.56
550.259	371.56
550.473	370.56
550.686	352.56
550.899	369.56
551.112	368.56
551.325	379.56
551.538	372.56
551.751	363.56
551.964	372.56
552.177	394.56
552.39	354.56
552.603	391.56
552.816	384.56
553.029	394.56
553.242	374.56
553.455	364.56
553.667	406.56
553.88	412.56
554.093	385.56
554.306	392.56
554.519	376.56
554.732	372.56
554.944	395.56
555.157	382.56
555.37	369.56
555.583	364.56
555.795	382.56
556.008	348.56
556.221	350.56
556.433	351.56
556.646	356.56
556.859	350.56
557.071	360.56
557.284	349.56
557.496	366.56
557.709	352.56
557.921	360.56
558.134	340.56
558.346	352.56
558.559	319.56
558.771	330.56
558.984	338.56
559.196	330.56
559.409	361.56
559.621	339.56
559.833	342.56
560.046	338.56
560.258	323.56
560.47	329.56
560.683	339.56
560.895	344.56
561.107	330.56
561.32	343.56
561.532	342.56
561.744	352.56
561.956	363.56
562.168	336.56
562.381	332.56
562.593	336.56
562.805	366.56
563.017	352.56
563.229	338.56
563.441	356.56
563.653	357.56
563.865	336.56
564.077	347.56
564.289	339.56
564.501	359.56
564.713	379.56
564.925	348.56
565.137	368.56
565.349	374.56
565.561	356.56
565.773	370.56
565.985	390.56
566.197	385.56
566.408	389.56
566.62	382.56
566.832	391.56
567.044	392.56
567.255	392.56
567.467	383.56
567.679	408.56
567.891	395.56
568.102	415.56
568.314	404.56
568.526	383.56
568.737	379.56
568.949	384.56
569.161	378.56
569.372	350.56
569.584	352.56
569.795	350.56
570.007	337.56
570.218	411.56
570.43	374.56
570.641	341.56
570.853	328.56
571.064	323.56
571.276	340.56
571.487	338.56
571.698	324.56
571.91	329.56
572.121	302.56
572.333	313.56
572.544	304.56
572.755	331.56
572.966	318.56
573.178	301.56
573.389	308.56
573.6	310.56
573.811	294.56
574.023	297.56
574.234	288.56
574.445	291.56
574.656	298.56
574.867	293.56
575.078	298.56
575.289	302.56
575.501	308.56
575.712	297.56
575.923	314.56
576.134	277.56
576.345	279.56
576.556	298.56
576.767	291.56
576.978	278.56
577.188	282.56
577.399	279.56
577.61	291.56
577.821	302.56
578.032	286.56
578.243	339.56
578.454	524.56
578.665	413.56
578.875	311.56
579.086	287.56
579.297	302.56
579.508	307.56
579.718	278.56
579.929	283.56
580.14	277.56
580.35	269.56
580.561	269.56
580.772	272.56
580.982	256.56
581.193	272.56
581.403	281.56
581.614	290.56
581.825	274.56
582.035	270.56
582.246	277.56
582.456	280.56
582.667	286.56
582.877	278.56
583.087	283.56
583.298	262.56
583.508	264.56
583.719	272.56
583.929	280.56
584.139	278.56
584.35	264.56
584.56	274.56
584.77	273.56
584.981	256.56
585.191	272.56
585.401	261.56
585.611	271.56
585.821	278.56
586.032	256.56
586.242	260.56
586.452	264.56
586.662	261.56
586.872	275.56
587.082	258.56
587.292	248.56
587.502	276.56
587.713	261.56
587.923	270.56
588.133	251.56
588.343	282.56
588.553	269.56
588.762	282.56
588.972	266.56
589.182	255.56
589.392	268.56
589.602	263.56
589.812	260.56
590.022	251.56
590.232	258.56
590.441	256.56
590.651	258.56
590.861	254.56
591.071	251.56
591.281	256.56
591.49	262.56
591.7	276.56
591.91	269.56
592.119	276.56
592.329	262.56
592.539	279.56
592.748	269.56
592.958	264.56
593.167	252.56
593.377	266.56
593.587	279.56
593.796	286.56
594.006	277.56
594.215	280.56
594.424	281.56
594.634	262.56
594.843	258.56
595.053	273.56
595.262	259.56
595.472	264.56
595.681	244.56
595.89	244.56
596.1	255.56
596.309	256.56
596.518	258.56
596.727	255.56
596.937	234.56
597.146	243.56
597.355	256.56
597.564	233.56
597.774	246.56
597.983	239.56
598.192	231.56
598.401	246.56
598.61	240.56
598.819	256.56
599.028	246.56
599.237	222.56
599.446	224.56
599.655	243.56
599.864	242.56
600.073	240.56
600.282	225.56
600.491	220.56
600.7	230.56
600.909	243.56
601.118	219.56
601.327	239.56
601.536	226.56
601.745	205.56
601.953	203.56
602.162	228.56
602.371	229.56
602.58	241.56
602.789	222.56
602.997	215.56
603.206	230.56
603.415	219.56
603.623	231.56
603.832	225.56
604.041	216.56
604.249	216.56
604.458	232.56
604.666	229.56
604.875	219.56
605.084	211.56
605.292	206.56
605.501	218.56
605.709	218.56
605.918	215.56
606.126	217.56
606.334	219.56
606.543	225.56
606.751	212.56
606.96	205.56
607.168	206.56
607.376	219.56
607.585	223.56
607.793	221.56
608.001	230.56
608.21	203.56
608.418	218.56
608.626	218.56
608.834	219.56
609.043	223.56
609.251	215.56
609.459	222.56
609.667	200.56
609.875	219.56
610.083	193.56
610.291	229.56
610.499	219.56
610.707	221.56
610.916	234.56
611.124	221.56
611.332	212.56
611.54	227.56
611.748	230.56
611.955	218.56
612.163	226.56
612.371	212.56
612.579	207.56
612.787	199.56
612.995	195.56
613.203	214.56
613.411	206.56
613.618	202.56
613.826	205.56
614.034	210.56
614.242	208.56
614.449	207.56
614.657	214.56
614.865	203.56
615.072	217.56
615.28	215.56
615.488	202.56
615.695	195.56
615.903	221.56
616.111	207.56
616.318	206.56
616.526	219.56
616.733	226.56
616.941	201.56
617.148	221.56
617.356	211.56
617.563	215.56
617.771	219.56
617.978	222.56
618.185	204.56
618.393	211.56
618.6	205.56
618.807	188.56
619.015	190.56
619.222	199.56
619.429	211.56
619.637	223.56
619.844	205.56
620.051	209.56
620.258	202.56
620.466	196.56
620.673	192.56
620.88	204.56
621.087	196.56
621.294	196.56
621.501	211.56
621.708	191.56
621.915	201.56
622.122	196.56
622.329	195.56
622.536	194.56
622.743	191.56
622.95	201.56
623.157	198.56
623.364	207.56
623.571	201.56
623.778	201.56
623.985	192.56
624.192	173.56
624.399	192.56
624.606	182.56
624.812	201.56
625.019	181.56
625.226	208.56
625.433	194.56
625.639	192.56
625.846	182.56
626.053	187.56
626.259	192.56
626.466	195.56
626.673	184.56
626.879	182.56
627.086	167.56
627.293	195.56
627.499	180.56
627.706	183.56
627.912	177.56
628.119	177.56
628.325	184.56
628.532	178.56
628.738	184.56
628.945	176.56
629.151	178.56
629.357	186.56
629.564	183.56
629.77	186.56
629.976	199.56
630.183	194.56
630.389	171.56
630.595	185.56
630.802	181.56
631.008	163.56
631.214	169.56
631.42	172.56
631.627	172.56
631.833	162.56
632.039	174.56
632.245	175.56
632.451	171.56
632.657	182.56
632.863	160.56
633.069	179.56
633.275	178.56
633.481	166.56
633.688	156.56
633.893	169.56
634.099	177.56
634.305	175.56
634.511	176.56
634.717	177.56
634.923	184.56
635.129	163.56
635.335	161.56
635.541	175.56
635.747	163.56
635.952	169.56
636.158	170.56
636.364	160.56
636.57	170.56
636.775	167.56
636.981	179.56
637.187	160.56
637.392	168.56
637.598	170.56
637.804	167.56
638.009	158.56
638.215	161.56
638.421	185.56
638.626	150.56
638.832	152.56
639.037	171.56
639.243	166.56
639.448	167.56
639.654	166.56
639.859	160.56
640.065	145.56
640.27	176.56
640.475	183.56
640.681	156.56
640.886	161.56
641.091	158.56
641.297	152.56
641.502	171.56
641.707	154.56
641.913	159.56
642.118	158.56
642.323	146.56
642.528	140.56
642.733	154.56
642.939	156.56
643.144	163.56
643.349	165.56
643.554	160.56
643.759	151.56
643.964	150.56
644.169	162.56
644.374	143.56
644.579	160.56
644.784	146.56
644.989	174.56
645.194	149.56
645.399	143.56
645.604	153.56
645.809	133.56
646.014	151.56
646.219	145.56
646.423	139.56
646.628	153.56
646.833	147.56
647.038	151.56
647.243	152.56
647.447	152.56
647.652	156.56
647.857	150.56
648.062	148.56
648.266	141.56
648.471	153.56
648.676	177.56
648.88	139.56
649.085	154.56
649.289	159.56
649.494	174.56
649.698	186.56
649.903	151.56
650.107	157.56
650.312	166.56
650.516	153.56
650.721	144.56
650.925	144.56
651.13	145.56
651.334	151.56
651.539	130.56
651.743	139.56
651.947	137.56
652.152	140.56
652.356	130.56
652.56	142.56
652.764	139.56
652.969	144.56
653.173	130.56
653.377	127.56
653.581	121.56
653.785	130.56
653.99	128.56
654.194	141.56
654.398	131.56
654.602	134.56
654.806	120.56
655.01	154.56
655.214	134.56
655.418	131.56
655.622	132.56
655.826	132.56
656.03	116.56
656.234	121.56
656.438	126.56
656.642	132.56
656.846	128.56
657.049	117.56
657.253	128.56
657.457	123.56
657.661	114.56
657.865	108.56
658.068	95.56
658.272	101.56
658.476	109.56
658.68	111.56
658.883	106.56
659.087	112.56
659.291	105.56
659.494	103.56
659.698	99.56
659.901	99.56
660.105	101.56
660.309	95.56
660.512	95.56
660.716	100.56
660.919	102.56
661.123	93.56
661.326	96.56
661.53	84.56
661.733	77.56
661.936	76.56
662.14	85.56
662.343	88.56
662.546	63.56
662.75	77.56
662.953	91.56
663.156	80.56
663.36	75.56
663.563	77.56
663.766	82.56
663.969	87.56
664.173	86.56
664.376	76.56
664.579	86.56
664.782	103.56
664.985	80.56
665.188	78.56
665.391	86.56
665.594	85.56
665.797	72.56
666	85.56
666.203	82.56
666.406	66.56
666.609	91.56
666.812	74.56
667.015	92.56
667.218	88.56
667.421	68.56
667.624	89.56
667.827	85.56
668.03	66.56
668.232	73.56
668.435	79.56
668.638	86.56
668.841	81.56
669.043	87.56
669.246	82.56
669.449	83.56
669.651	70.56
669.854	73.56
670.057	63.56
670.259	83.56
670.462	72.56
670.665	95.56
670.867	75.56
671.07	83.56
671.272	82.56
671.475	91.56
671.677	80.56
671.88	78.56
672.082	83.56
672.284	85.56
672.487	76.56
672.689	82.56
672.892	77.56
