Data from 1989.PennyLincolnUp.Lamp.En5.5.200Scan.071819.P2_HRD10591_17-24-10-972.txt Node
Date: Thu Jul 18 17:24:10 EDT 2019
User: cochatt
Spectrometer: HR+D1059
Trigger mode: 1
Integration Time (sec): 1.000000E-1
Scans to average: 1
Electric dark correction enabled: true
Nonlinearity correction enabled: false
Boxcar width: 0
XAxis mode: Wavelengths
Number of Pixels in Spectrum: 2048
>>>>>Begin Spectral Data<<<<<
223.165	-19.75
223.4	-19.75
223.635	-19.75
223.869	-20.75
224.104	-24.75
224.338	-9.75
224.573	-7.75
224.808	-29.75
225.042	4.25
225.277	-10.75
225.511	3.25
225.746	10.25
225.98	1.25
226.215	19.25
226.449	16.25
226.683	23.25
226.918	26.25
227.152	19.25
227.387	31.25
227.621	22.25
227.856	43.25
228.09	45.25
228.324	58.25
228.559	58.25
228.793	80.25
229.027	87.25
229.262	111.25
229.496	110.25
229.73	138.25
229.964	162.25
230.199	130.25
230.433	128.25
230.667	105.25
230.901	123.25
231.136	107.25
231.37	113.25
231.604	113.25
231.838	119.25
232.072	114.25
232.306	120.25
232.541	110.25
232.775	113.25
233.009	119.25
233.243	123.25
233.477	125.25
233.711	112.25
233.945	112.25
234.179	111.25
234.413	112.25
234.647	121.25
234.881	111.25
235.115	120.25
235.349	129.25
235.583	125.25
235.817	143.25
236.051	127.25
236.285	127.25
236.519	134.25
236.753	123.25
236.987	148.25
237.221	186.25
237.455	248.25
237.689	199.25
237.922	144.25
238.156	129.25
238.39	129.25
238.624	124.25
238.858	119.25
239.091	124.25
239.325	112.25
239.559	124.25
239.793	126.25
240.027	126.25
240.26	125.25
240.494	170.25
240.728	142.25
240.961	161.25
241.195	149.25
241.429	146.25
241.662	151.25
241.896	141.25
242.13	123.25
242.363	140.25
242.597	138.25
242.83	124.25
243.064	131.25
243.298	143.25
243.531	137.25
243.765	135.25
243.998	155.25
244.232	131.25
244.465	150.25
244.699	137.25
244.932	162.25
245.166	159.25
245.399	146.25
245.633	139.25
245.866	146.25
246.099	155.25
246.333	169.25
246.566	175.25
246.8	146.25
247.033	154.25
247.266	157.25
247.5	163.25
247.733	173.25
247.966	176.25
248.2	169.25
248.433	185.25
248.666	162.25
248.899	191.25
249.133	198.25
249.366	218.25
249.599	221.25
249.832	197.25
250.066	204.25
250.299	183.25
250.532	196.25
250.765	216.25
250.998	231.25
251.231	250.25
251.465	234.25
251.698	233.25
251.931	217.25
252.164	202.25
252.397	218.25
252.63	221.25
252.863	229.25
253.096	233.25
253.329	238.25
253.562	233.25
253.795	246.25
254.028	241.25
254.261	227.25
254.494	226.25
254.727	284.25
254.96	293.25
255.193	278.25
255.426	273.25
255.659	258.25
255.892	228.25
256.124	239.25
256.357	251.25
256.59	243.25
256.823	217.25
257.056	207.25
257.289	236.25
257.521	211.25
257.754	224.25
257.987	214.25
258.22	212.25
258.452	217.25
258.685	221.25
258.918	219.25
259.151	241.25
259.383	240.25
259.616	245.25
259.849	255.25
260.081	255.25
260.314	293.25
260.547	276.25
260.779	259.25
261.012	261.25
261.244	245.25
261.477	240.25
261.71	237.25
261.942	246.25
262.175	268.25
262.407	276.25
262.64	218.25
262.872	228.25
263.105	231.25
263.337	229.25
263.57	243.25
263.802	222.25
264.035	220.25
264.267	225.25
264.499	217.25
264.732	221.25
264.964	231.25
265.197	240.25
265.429	218.25
265.661	222.25
265.894	227.25
266.126	216.25
266.358	239.25
266.591	223.25
266.823	236.25
267.055	256.25
267.287	247.25
267.52	251.25
267.752	231.25
267.984	257.25
268.216	242.25
268.448	240.25
268.681	265.25
268.913	279.25
269.145	267.25
269.377	305.25
269.609	296.25
269.841	287.25
270.073	292.25
270.306	303.25
270.538	344.25
270.77	352.25
271.002	303.25
271.234	320.25
271.466	323.25
271.698	337.25
271.93	351.25
272.162	332.25
272.394	347.25
272.626	340.25
272.858	308.25
273.09	302.25
273.322	300.25
273.553	289.25
273.785	267.25
274.017	286.25
274.249	288.25
274.481	289.25
274.713	301.25
274.945	283.25
275.176	268.25
275.408	303.25
275.64	279.25
275.872	273.25
276.104	287.25
276.335	278.25
276.567	303.25
276.799	306.25
277.031	320.25
277.262	332.25
277.494	330.25
277.726	314.25
277.957	308.25
278.189	309.25
278.421	298.25
278.652	291.25
278.884	295.25
279.115	277.25
279.347	295.25
279.579	285.25
279.81	279.25
280.042	288.25
280.273	283.25
280.505	290.25
280.736	298.25
280.968	297.25
281.199	291.25
281.431	291.25
281.662	282.25
281.894	275.25
282.125	298.25
282.356	327.25
282.588	327.25
282.819	339.25
283.051	306.25
283.282	283.25
283.513	286.25
283.745	320.25
283.976	309.25
284.207	281.25
284.439	289.25
284.67	287.25
284.901	290.25
285.132	292.25
285.364	309.25
285.595	300.25
285.826	297.25
286.057	295.25
286.288	288.25
286.52	277.25
286.751	286.25
286.982	270.25
287.213	295.25
287.444	283.25
287.675	310.25
287.906	322.25
288.138	319.25
288.369	321.25
288.6	335.25
288.831	321.25
289.062	321.25
289.293	313.25
289.524	328.25
289.755	306.25
289.986	308.25
290.217	309.25
290.448	298.25
290.679	299.25
290.91	310.25
291.141	291.25
291.371	296.25
291.602	307.25
291.833	280.25
292.064	309.25
292.295	323.25
292.526	311.25
292.757	315.25
292.987	305.25
293.218	307.25
293.449	316.25
293.68	328.25
293.91	303.25
294.141	298.25
294.372	305.25
294.603	325.25
294.833	313.25
295.064	294.25
295.295	316.25
295.525	308.25
295.756	312.25
295.987	325.25
296.217	339.25
296.448	345.25
296.679	323.25
296.909	319.25
297.14	289.25
297.37	323.25
297.601	292.25
297.831	322.25
298.062	325.25
298.292	322.25
298.523	311.25
298.753	323.25
298.984	303.25
299.214	312.25
299.445	331.25
299.675	313.25
299.905	333.25
300.136	334.25
300.366	324.25
300.597	327.25
300.827	324.25
301.057	348.25
301.288	347.25
301.518	322.25
301.748	344.25
301.979	343.25
302.209	348.25
302.439	331.25
302.669	340.25
302.9	338.25
303.13	338.25
303.36	340.25
303.59	344.25
303.82	347.25
304.051	352.25
304.281	344.25
304.511	357.25
304.741	332.25
304.971	331.25
305.201	344.25
305.431	329.25
305.661	342.25
305.891	327.25
306.121	329.25
306.352	358.25
306.582	356.25
306.812	343.25
307.042	341.25
307.272	352.25
307.502	360.25
307.731	356.25
307.961	347.25
308.191	355.25
308.421	345.25
308.651	352.25
308.881	352.25
309.111	353.25
309.341	368.25
309.571	383.25
309.8	379.25
310.03	388.25
310.26	381.25
310.49	389.25
310.72	394.25
310.949	415.25
311.179	421.25
311.409	410.25
311.639	401.25
311.868	380.25
312.098	411.25
312.328	409.25
312.557	428.25
312.787	438.25
313.017	420.25
313.246	407.25
313.476	404.25
313.706	387.25
313.935	399.25
314.165	402.25
314.394	446.25
314.624	428.25
314.853	425.25
315.083	408.25
315.312	400.25
315.542	413.25
315.771	399.25
316.001	386.25
316.23	385.25
316.46	363.25
316.689	392.25
316.919	381.25
317.148	419.25
317.377	403.25
317.607	406.25
317.836	408.25
318.065	418.25
318.295	383.25
318.524	376.25
318.753	396.25
318.983	393.25
319.212	396.25
319.441	417.25
319.67	421.25
319.9	417.25
320.129	396.25
320.358	403.25
320.587	409.25
320.816	424.25
321.046	407.25
321.275	416.25
321.504	407.25
321.733	415.25
321.962	424.25
322.191	445.25
322.42	451.25
322.649	460.25
322.878	470.25
323.108	495.25
323.337	521.25
323.566	540.25
323.795	569.25
324.024	612.25
324.253	740.25
324.482	1057.25
324.71	1668.25
324.939	2346.25
325.168	2087.25
325.397	1052.25
325.626	731.25
325.855	620.25
326.084	561.25
326.313	540.25
326.542	541.25
326.77	601.25
326.999	673.25
327.228	949.25
327.457	1450.25
327.686	1800.25
327.914	1189.25
328.143	791.25
328.372	667.25
328.6	620.25
328.829	587.25
329.058	615.25
329.287	592.25
329.515	576.25
329.744	541.25
329.972	536.25
330.201	532.25
330.43	532.25
330.658	581.25
330.887	641.25
331.115	588.25
331.344	529.25
331.572	521.25
331.801	504.25
332.03	522.25
332.258	493.25
332.486	467.25
332.715	473.25
332.943	480.25
333.172	465.25
333.4	453.25
333.629	475.25
333.857	484.25
334.085	480.25
334.314	456.25
334.542	475.25
334.771	486.25
334.999	475.25
335.227	468.25
335.455	454.25
335.684	464.25
335.912	446.25
336.14	468.25
336.369	450.25
336.597	465.25
336.825	466.25
337.053	444.25
337.281	461.25
337.51	445.25
337.738	450.25
337.966	453.25
338.194	453.25
338.422	446.25
338.65	441.25
338.878	435.25
339.106	425.25
339.334	448.25
339.562	445.25
339.79	453.25
340.018	442.25
340.246	455.25
340.474	473.25
340.702	453.25
340.93	439.25
341.158	442.25
341.386	441.25
341.614	440.25
341.842	440.25
342.07	439.25
342.298	435.25
342.526	445.25
342.754	423.25
342.981	396.25
343.209	411.25
343.437	420.25
343.665	422.25
343.893	439.25
344.12	452.25
344.348	460.25
344.576	447.25
344.804	453.25
345.031	449.25
345.259	444.25
345.487	441.25
345.714	425.25
345.942	447.25
346.17	435.25
346.397	432.25
346.625	425.25
346.853	428.25
347.08	423.25
347.308	430.25
347.535	431.25
347.763	443.25
347.99	428.25
348.218	420.25
348.445	438.25
348.673	441.25
348.9	409.25
349.128	424.25
349.355	403.25
349.583	409.25
349.81	405.25
350.037	407.25
350.265	406.25
350.492	405.25
350.72	410.25
350.947	413.25
351.174	416.25
351.402	444.25
351.629	435.25
351.856	424.25
352.083	424.25
352.311	435.25
352.538	441.25
352.765	432.25
352.992	437.25
353.22	446.25
353.447	420.25
353.674	419.25
353.901	411.25
354.128	408.25
354.355	395.25
354.583	373.25
354.81	387.25
355.037	409.25
355.264	385.25
355.491	383.25
355.718	396.25
355.945	389.25
356.172	386.25
356.399	391.25
356.626	387.25
356.853	375.25
357.08	387.25
357.307	383.25
357.534	389.25
357.761	411.25
357.988	401.25
358.215	390.25
358.441	401.25
358.668	388.25
358.895	403.25
359.122	398.25
359.349	401.25
359.576	447.25
359.802	432.25
360.029	491.25
360.256	476.25
360.483	448.25
360.709	420.25
360.936	421.25
361.163	413.25
361.39	410.25
361.616	437.25
361.843	431.25
362.07	415.25
362.296	417.25
362.523	417.25
362.749	424.25
362.976	424.25
363.203	405.25
363.429	390.25
363.656	395.25
363.882	392.25
364.109	411.25
364.335	396.25
364.562	400.25
364.788	405.25
365.015	397.25
365.241	394.25
365.468	387.25
365.694	413.25
365.92	417.25
366.147	389.25
366.373	387.25
366.599	404.25
366.826	378.25
367.052	381.25
367.278	392.25
367.505	382.25
367.731	396.25
367.957	395.25
368.184	405.25
368.41	394.25
368.636	423.25
368.862	403.25
369.089	421.25
369.315	380.25
369.541	374.25
369.767	398.25
369.993	395.25
370.219	386.25
370.445	387.25
370.672	391.25
370.898	388.25
371.124	385.25
371.35	386.25
371.576	379.25
371.802	397.25
372.028	405.25
372.254	387.25
372.48	378.25
372.706	383.25
372.932	397.25
373.158	403.25
373.384	383.25
373.61	392.25
373.835	400.25
374.061	378.25
374.287	407.25
374.513	394.25
374.739	405.25
374.965	395.25
375.191	413.25
375.416	397.25
375.642	393.25
375.868	411.25
376.094	404.25
376.319	381.25
376.545	399.25
376.771	369.25
376.997	371.25
377.222	355.25
377.448	345.25
377.674	403.25
377.899	383.25
378.125	397.25
378.35	373.25
378.576	361.25
378.802	387.25
379.027	382.25
379.253	391.25
379.478	383.25
379.704	395.25
379.929	380.25
380.155	392.25
380.38	381.25
380.606	383.25
380.831	387.25
381.057	391.25
381.282	386.25
381.507	375.25
381.733	378.25
381.958	379.25
382.184	398.25
382.409	375.25
382.634	394.25
382.86	391.25
383.085	374.25
383.31	402.25
383.535	392.25
383.761	394.25
383.986	392.25
384.211	409.25
384.436	396.25
384.662	414.25
384.887	388.25
385.112	396.25
385.337	392.25
385.562	426.25
385.787	418.25
386.013	411.25
386.238	422.25
386.463	419.25
386.688	405.25
386.913	409.25
387.138	413.25
387.363	408.25
387.588	395.25
387.813	423.25
388.038	414.25
388.263	413.25
388.488	431.25
388.713	431.25
388.938	393.25
389.163	417.25
389.387	432.25
389.612	421.25
389.837	414.25
390.062	420.25
390.287	425.25
390.512	409.25
390.736	437.25
390.961	411.25
391.186	396.25
391.411	407.25
391.636	415.25
391.86	424.25
392.085	420.25
392.31	412.25
392.534	424.25
392.759	417.25
392.984	388.25
393.208	403.25
393.433	403.25
393.658	413.25
393.882	409.25
394.107	407.25
394.331	425.25
394.556	412.25
394.78	398.25
395.005	395.25
395.229	426.25
395.454	412.25
395.678	435.25
395.903	425.25
396.127	456.25
396.352	462.25
396.576	433.25
396.801	412.25
397.025	423.25
397.249	434.25
397.474	447.25
397.698	439.25
397.922	438.25
398.147	451.25
398.371	447.25
398.595	442.25
398.82	470.25
399.044	452.25
399.268	476.25
399.492	485.25
399.717	535.25
399.941	537.25
400.165	554.25
400.389	573.25
400.613	523.25
400.837	489.25
401.062	472.25
401.286	474.25
401.51	483.25
401.734	441.25
401.958	455.25
402.182	467.25
402.406	485.25
402.63	493.25
402.854	464.25
403.078	459.25
403.302	481.25
403.526	470.25
403.75	464.25
403.974	441.25
404.198	478.25
404.422	465.25
404.645	483.25
404.869	481.25
405.093	488.25
405.317	513.25
405.541	566.25
405.765	525.25
405.988	500.25
406.212	502.25
406.436	546.25
406.66	543.25
406.883	523.25
407.107	540.25
407.331	561.25
407.555	633.25
407.778	633.25
408.002	583.25
408.226	535.25
408.449	525.25
408.673	525.25
408.896	570.25
409.12	583.25
409.344	583.25
409.567	513.25
409.791	482.25
410.014	475.25
410.238	483.25
410.461	475.25
410.685	468.25
410.908	505.25
411.132	556.25
411.355	573.25
411.578	524.25
411.802	493.25
412.025	467.25
412.249	482.25
412.472	457.25
412.695	481.25
412.919	484.25
413.142	476.25
413.365	460.25
413.589	471.25
413.812	443.25
414.035	427.25
414.258	447.25
414.482	429.25
414.705	473.25
414.928	441.25
415.151	455.25
415.374	445.25
415.597	459.25
415.821	455.25
416.044	441.25
416.267	455.25
416.49	460.25
416.713	444.25
416.936	461.25
417.159	444.25
417.382	445.25
417.605	461.25
417.828	450.25
418.051	467.25
418.274	474.25
418.497	452.25
418.72	463.25
418.943	473.25
419.166	493.25
419.389	481.25
419.611	481.25
419.834	476.25
420.057	459.25
420.28	474.25
420.503	455.25
420.726	469.25
420.948	481.25
421.171	523.25
421.394	566.25
421.617	502.25
421.839	475.25
422.062	467.25
422.285	484.25
422.507	550.25
422.73	627.25
422.953	582.25
423.175	520.25
423.398	517.25
423.621	487.25
423.843	517.25
424.066	541.25
424.288	508.25
424.511	519.25
424.733	587.25
424.956	670.25
425.178	639.25
425.401	630.25
425.623	665.25
425.846	564.25
426.068	529.25
426.291	525.25
426.513	510.25
426.735	546.25
426.958	592.25
427.18	644.25
427.402	782.25
427.625	855.25
427.847	757.25
428.069	630.25
428.292	560.25
428.514	497.25
428.736	510.25
428.958	484.25
429.181	473.25
429.403	476.25
429.625	499.25
429.847	509.25
430.069	561.25
430.292	581.25
430.514	495.25
430.736	476.25
430.958	474.25
431.18	460.25
431.402	450.25
431.624	439.25
431.846	431.25
432.068	439.25
432.29	465.25
432.512	445.25
432.734	455.25
432.956	448.25
433.178	479.25
433.4	473.25
433.622	468.25
433.844	461.25
434.066	429.25
434.287	455.25
434.509	433.25
434.731	457.25
434.953	462.25
435.175	468.25
435.397	483.25
435.618	516.25
435.84	567.25
436.062	641.25
436.284	726.25
436.505	617.25
436.727	556.25
436.949	501.25
437.17	481.25
437.392	476.25
437.614	487.25
437.835	520.25
438.057	617.25
438.278	717.25
438.5	714.25
438.721	820.25
438.943	750.25
439.165	585.25
439.386	543.25
439.608	531.25
439.829	552.25
440.05	556.25
440.272	610.25
440.493	571.25
440.715	508.25
440.936	499.25
441.158	490.25
441.379	488.25
441.6	496.25
441.822	501.25
442.043	551.25
442.264	667.25
442.486	690.25
442.707	571.25
442.928	519.25
443.149	540.25
443.371	580.25
443.592	595.25
443.813	682.25
444.034	744.25
444.255	607.25
444.476	556.25
444.698	513.25
444.919	511.25
445.14	598.25
445.361	575.25
445.582	556.25
445.803	618.25
446.024	731.25
446.245	742.25
446.466	665.25
446.687	596.25
446.908	545.25
447.129	506.25
447.35	495.25
447.571	466.25
447.792	465.25
448.013	461.25
448.234	519.25
448.455	559.25
448.675	654.25
448.896	768.25
449.117	671.25
449.338	625.25
449.559	724.25
449.779	817.25
450	665.25
450.221	522.25
450.442	511.25
450.662	481.25
450.883	502.25
451.104	479.25
451.324	493.25
451.545	467.25
451.766	458.25
451.986	437.25
452.207	447.25
452.428	405.25
452.648	421.25
452.869	444.25
453.089	429.25
453.31	467.25
453.53	449.25
453.751	419.25
453.971	431.25
454.192	433.25
454.412	448.25
454.633	413.25
454.853	406.25
455.073	415.25
455.294	452.25
455.514	507.25
455.734	505.25
455.955	424.25
456.175	417.25
456.395	396.25
456.616	403.25
456.836	381.25
457.056	383.25
457.276	385.25
457.497	396.25
457.717	410.25
457.937	418.25
458.157	407.25
458.377	411.25
458.598	443.25
458.818	506.25
459.038	574.25
459.258	590.25
459.478	509.25
459.698	437.25
459.918	440.25
460.138	444.25
460.358	433.25
460.578	418.25
460.798	431.25
461.018	436.25
461.238	436.25
461.458	437.25
461.678	464.25
461.898	456.25
462.118	429.25
462.338	449.25
462.558	464.25
462.777	438.25
462.997	470.25
463.217	453.25
463.437	486.25
463.657	463.25
463.876	473.25
464.096	470.25
464.316	472.25
464.536	466.25
464.755	482.25
464.975	504.25
465.195	535.25
465.414	631.25
465.634	531.25
465.854	481.25
466.073	437.25
466.293	451.25
466.512	449.25
466.732	441.25
466.951	433.25
467.171	433.25
467.391	438.25
467.61	456.25
467.829	458.25
468.049	439.25
468.268	416.25
468.488	403.25
468.707	411.25
468.927	432.25
469.146	402.25
469.365	403.25
469.585	421.25
469.804	429.25
470.023	436.25
470.243	455.25
470.462	461.25
470.681	484.25
470.901	459.25
471.12	463.25
471.339	436.25
471.558	439.25
471.777	437.25
471.997	445.25
472.216	436.25
472.435	440.25
472.654	438.25
472.873	435.25
473.092	431.25
473.311	432.25
473.53	462.25
473.749	449.25
473.968	479.25
474.187	574.25
474.406	632.25
474.625	490.25
474.844	451.25
475.063	448.25
475.282	432.25
475.501	448.25
475.72	448.25
475.939	444.25
476.158	426.25
476.377	460.25
476.596	460.25
476.814	472.25
477.033	465.25
477.252	464.25
477.471	472.25
477.69	471.25
477.908	482.25
478.127	471.25
478.346	472.25
478.564	487.25
478.783	489.25
479.002	483.25
479.22	493.25
479.439	511.25
479.658	525.25
479.876	536.25
480.095	520.25
480.313	547.25
480.532	539.25
480.751	531.25
480.969	536.25
481.188	553.25
481.406	554.25
481.624	539.25
481.843	516.25
482.061	517.25
482.28	497.25
482.498	520.25
482.717	516.25
482.935	522.25
483.153	487.25
483.372	509.25
483.59	528.25
483.808	516.25
484.027	512.25
484.245	521.25
484.463	516.25
484.681	513.25
484.9	517.25
485.118	535.25
485.336	519.25
485.554	527.25
485.772	523.25
485.99	533.25
486.209	535.25
486.427	539.25
486.645	553.25
486.863	550.25
487.081	545.25
487.299	524.25
487.517	545.25
487.735	564.25
487.953	553.25
488.171	531.25
488.389	545.25
488.607	525.25
488.825	540.25
489.043	566.25
489.261	578.25
489.479	547.25
489.696	568.25
489.914	568.25
490.132	589.25
490.35	565.25
490.568	594.25
490.786	567.25
491.003	594.25
491.221	591.25
491.439	601.25
491.657	617.25
491.874	631.25
492.092	599.25
492.31	628.25
492.527	653.25
492.745	618.25
492.963	639.25
493.18	620.25
493.398	626.25
493.615	619.25
493.833	621.25
494.05	637.25
494.268	664.25
494.485	646.25
494.703	640.25
494.92	633.25
495.138	643.25
495.355	659.25
495.573	625.25
495.79	662.25
496.008	653.25
496.225	637.25
496.442	666.25
496.66	675.25
496.877	672.25
497.094	661.25
497.312	680.25
497.529	662.25
497.746	672.25
497.963	689.25
498.181	717.25
498.398	717.25
498.615	728.25
498.832	693.25
499.049	715.25
499.267	732.25
499.484	774.25
499.701	773.25
499.918	800.25
500.135	817.25
500.352	853.25
500.569	867.25
500.786	895.25
501.003	844.25
501.22	850.25
501.437	833.25
501.654	808.25
501.871	775.25
502.088	775.25
502.305	762.25
502.522	717.25
502.739	691.25
502.956	698.25
503.172	687.25
503.389	678.25
503.606	666.25
503.823	687.25
504.04	687.25
504.256	674.25
504.473	668.25
504.69	643.25
504.907	668.25
505.123	641.25
505.34	643.25
505.557	628.25
505.773	652.25
505.99	639.25
506.207	629.25
506.423	638.25
506.64	642.25
506.856	632.25
507.073	620.25
507.289	615.25
507.506	595.25
507.722	631.25
507.939	669.25
508.155	624.25
508.372	623.25
508.588	618.25
508.805	591.25
509.021	625.25
509.238	617.25
509.454	637.25
509.67	623.25
509.887	632.25
510.103	611.25
510.319	632.25
510.536	709.25
510.752	1220.25
510.968	979.25
511.184	631.25
511.401	593.25
511.617	601.25
511.833	573.25
512.049	571.25
512.265	585.25
512.481	580.25
512.698	567.25
512.914	573.25
513.13	558.25
513.346	567.25
513.562	595.25
513.778	585.25
513.994	608.25
514.21	572.25
514.426	609.25
514.642	669.25
514.858	675.25
515.074	725.25
515.29	883.25
515.506	1345.25
515.721	1071.25
515.937	713.25
516.153	639.25
516.369	629.25
516.585	608.25
516.801	588.25
517.016	612.25
517.232	601.25
517.448	590.25
517.664	601.25
517.879	583.25
518.095	574.25
518.311	575.25
518.527	599.25
518.742	587.25
518.958	573.25
519.173	579.25
519.389	555.25
519.605	556.25
519.82	563.25
520.036	617.25
520.251	602.25
520.467	624.25
520.682	636.25
520.898	662.25
521.113	675.25
521.329	695.25
521.544	802.25
521.76	1043.25
521.975	1779.25
522.19	1733.25
522.406	920.25
522.621	697.25
522.836	620.25
523.052	614.25
523.267	578.25
523.482	513.25
523.698	534.25
523.913	531.25
524.128	536.25
524.343	501.25
524.559	515.25
524.774	512.25
524.989	488.25
525.204	521.25
525.419	531.25
525.634	516.25
525.849	486.25
526.064	471.25
526.28	481.25
526.495	452.25
526.71	455.25
526.925	452.25
527.14	473.25
527.355	485.25
527.57	461.25
527.785	459.25
527.999	462.25
528.214	480.25
528.429	466.25
528.644	470.25
528.859	476.25
529.074	483.25
529.289	466.25
529.503	590.25
529.718	592.25
529.933	511.25
530.148	460.25
530.363	464.25
530.577	476.25
530.792	474.25
531.007	476.25
531.221	470.25
531.436	468.25
531.651	456.25
531.865	467.25
532.08	463.25
532.295	437.25
532.509	424.25
532.724	467.25
532.938	471.25
533.153	431.25
533.367	428.25
533.582	435.25
533.796	429.25
534.011	448.25
534.225	445.25
534.44	423.25
534.654	421.25
534.868	447.25
535.083	431.25
535.297	441.25
535.511	469.25
535.726	453.25
535.94	460.25
536.154	429.25
536.369	439.25
536.583	441.25
536.797	435.25
537.011	418.25
537.225	421.25
537.44	430.25
537.654	408.25
537.868	446.25
538.082	417.25
538.296	440.25
538.51	433.25
538.724	435.25
538.938	412.25
539.153	429.25
539.367	444.25
539.581	429.25
539.795	441.25
540.009	432.25
540.222	412.25
540.436	425.25
540.65	425.25
540.864	429.25
541.078	452.25
541.292	433.25
541.506	428.25
541.72	444.25
541.934	425.25
542.147	423.25
542.361	419.25
542.575	403.25
542.789	417.25
543.002	445.25
543.216	445.25
543.43	419.25
543.644	417.25
543.857	418.25
544.071	412.25
544.285	434.25
544.498	435.25
544.712	434.25
544.925	410.25
545.139	416.25
545.352	415.25
545.566	424.25
545.779	438.25
545.993	425.25
546.206	403.25
546.42	407.25
546.633	404.25
546.847	404.25
547.06	422.25
547.274	410.25
547.487	414.25
547.7	404.25
547.914	417.25
548.127	395.25
548.34	393.25
548.554	392.25
548.767	401.25
548.98	385.25
549.193	387.25
549.407	403.25
549.62	416.25
549.833	390.25
550.046	388.25
550.259	397.25
550.473	376.25
550.686	410.25
550.899	397.25
551.112	393.25
551.325	391.25
551.538	391.25
551.751	396.25
551.964	404.25
552.177	383.25
552.39	386.25
552.603	375.25
552.816	391.25
553.029	390.25
553.242	407.25
553.455	400.25
553.667	417.25
553.88	423.25
554.093	416.25
554.306	401.25
554.519	408.25
554.732	389.25
554.944	403.25
555.157	409.25
555.37	395.25
555.583	375.25
555.795	387.25
556.008	375.25
556.221	363.25
556.433	370.25
556.646	379.25
556.859	388.25
557.071	365.25
557.284	359.25
557.496	368.25
557.709	356.25
557.921	360.25
558.134	367.25
558.346	351.25
558.559	358.25
558.771	353.25
558.984	337.25
559.196	363.25
559.409	351.25
559.621	355.25
559.833	359.25
560.046	341.25
560.258	333.25
560.47	351.25
560.683	354.25
560.895	359.25
561.107	352.25
561.32	358.25
561.532	377.25
561.744	354.25
561.956	351.25
562.168	360.25
562.381	362.25
562.593	375.25
562.805	354.25
563.017	341.25
563.229	353.25
563.441	375.25
563.653	360.25
563.865	371.25
564.077	371.25
564.289	347.25
564.501	387.25
564.713	369.25
564.925	373.25
565.137	397.25
565.349	387.25
565.561	383.25
565.773	396.25
565.985	372.25
566.197	377.25
566.408	402.25
566.62	397.25
566.832	424.25
567.044	422.25
567.255	417.25
567.467	434.25
567.679	425.25
567.891	432.25
568.102	412.25
568.314	402.25
568.526	406.25
568.737	409.25
568.949	384.25
569.161	361.25
569.372	367.25
569.584	369.25
569.795	361.25
570.007	364.25
570.218	401.25
570.43	393.25
570.641	363.25
570.853	361.25
571.064	346.25
571.276	351.25
571.487	327.25
571.698	352.25
571.91	322.25
572.121	325.25
572.333	337.25
572.544	334.25
572.755	320.25
572.966	330.25
573.178	321.25
573.389	334.25
573.6	315.25
573.811	321.25
574.023	312.25
574.234	315.25
574.445	320.25
574.656	315.25
574.867	313.25
575.078	310.25
575.289	307.25
575.501	318.25
575.712	301.25
575.923	300.25
576.134	312.25
576.345	303.25
576.556	288.25
576.767	307.25
576.978	287.25
577.188	314.25
577.399	314.25
577.61	299.25
577.821	287.25
578.032	304.25
578.243	351.25
578.454	601.25
578.665	423.25
578.875	317.25
579.086	305.25
579.297	291.25
579.508	275.25
579.718	288.25
579.929	286.25
580.14	292.25
580.35	285.25
580.561	289.25
580.772	297.25
580.982	291.25
581.193	275.25
581.403	305.25
581.614	287.25
581.825	281.25
582.035	284.25
582.246	283.25
582.456	277.25
582.667	280.25
582.877	305.25
583.087	275.25
583.298	276.25
583.508	272.25
583.719	287.25
583.929	291.25
584.139	265.25
584.35	278.25
584.56	284.25
584.77	276.25
584.981	277.25
585.191	276.25
585.401	276.25
585.611	272.25
585.821	267.25
586.032	261.25
586.242	260.25
586.452	266.25
586.662	275.25
586.872	275.25
587.082	265.25
587.292	276.25
587.502	245.25
587.713	258.25
587.923	285.25
588.133	283.25
588.343	258.25
588.553	246.25
588.762	279.25
588.972	273.25
589.182	261.25
589.392	279.25
589.602	259.25
589.812	255.25
590.022	271.25
590.232	276.25
590.441	249.25
590.651	261.25
590.861	262.25
591.071	275.25
591.281	274.25
591.49	300.25
591.7	286.25
591.91	275.25
592.119	267.25
592.329	272.25
592.539	280.25
592.748	287.25
592.958	275.25
593.167	280.25
593.377	296.25
593.587	298.25
593.796	293.25
594.006	278.25
594.215	292.25
594.424	301.25
594.634	274.25
594.843	266.25
595.053	269.25
595.262	264.25
595.472	275.25
595.681	253.25
595.89	273.25
596.1	278.25
596.309	250.25
596.518	265.25
596.727	263.25
596.937	252.25
597.146	242.25
597.355	248.25
597.564	245.25
597.774	255.25
597.983	246.25
598.192	253.25
598.401	250.25
598.61	224.25
598.819	238.25
599.028	241.25
599.237	241.25
599.446	233.25
599.655	261.25
599.864	239.25
600.073	230.25
600.282	248.25
600.491	236.25
600.7	249.25
600.909	231.25
601.118	242.25
601.327	222.25
601.536	255.25
601.745	229.25
601.953	239.25
602.162	233.25
602.371	242.25
602.58	234.25
602.789	235.25
602.997	232.25
603.206	243.25
603.415	219.25
603.623	245.25
603.832	236.25
604.041	235.25
604.249	234.25
604.458	234.25
604.666	228.25
604.875	226.25
605.084	235.25
605.292	230.25
605.501	234.25
605.709	211.25
605.918	228.25
606.126	225.25
606.334	228.25
606.543	235.25
606.751	237.25
606.96	214.25
607.168	224.25
607.376	209.25
607.585	218.25
607.793	230.25
608.001	220.25
608.21	222.25
608.418	233.25
608.626	223.25
608.834	226.25
609.043	215.25
609.251	228.25
609.459	215.25
609.667	224.25
609.875	219.25
610.083	221.25
610.291	224.25
610.499	220.25
610.707	228.25
610.916	226.25
611.124	236.25
611.332	216.25
611.54	237.25
611.748	234.25
611.955	226.25
612.163	215.25
612.371	224.25
612.579	230.25
612.787	227.25
612.995	219.25
613.203	210.25
613.411	206.25
613.618	228.25
613.826	232.25
614.034	219.25
614.242	209.25
614.449	210.25
614.657	207.25
614.865	217.25
615.072	221.25
615.28	225.25
615.488	227.25
615.695	197.25
615.903	213.25
616.111	219.25
616.318	218.25
616.526	227.25
616.733	218.25
616.941	205.25
617.148	218.25
617.356	213.25
617.563	203.25
617.771	213.25
617.978	207.25
618.185	223.25
618.393	220.25
618.6	199.25
618.807	203.25
619.015	204.25
619.222	208.25
619.429	204.25
619.637	208.25
619.844	202.25
620.051	215.25
620.258	204.25
620.466	219.25
620.673	196.25
620.88	203.25
621.087	212.25
621.294	205.25
621.501	208.25
621.708	211.25
621.915	202.25
622.122	207.25
622.329	212.25
622.536	223.25
622.743	193.25
622.95	206.25
623.157	191.25
623.364	204.25
623.571	199.25
623.778	192.25
623.985	195.25
624.192	201.25
624.399	199.25
624.606	194.25
624.812	212.25
625.019	178.25
625.226	204.25
625.433	202.25
625.639	200.25
625.846	191.25
626.053	186.25
626.259	205.25
626.466	190.25
626.673	196.25
626.879	191.25
627.086	200.25
627.293	186.25
627.499	197.25
627.706	206.25
627.912	181.25
628.119	187.25
628.325	181.25
628.532	193.25
628.738	194.25
628.945	190.25
629.151	193.25
629.357	180.25
629.564	189.25
629.77	177.25
629.976	192.25
630.183	166.25
630.389	195.25
630.595	191.25
630.802	165.25
631.008	187.25
631.214	194.25
631.42	170.25
631.627	172.25
631.833	186.25
632.039	166.25
632.245	191.25
632.451	172.25
632.657	178.25
632.863	182.25
633.069	166.25
633.275	172.25
633.481	167.25
633.688	177.25
633.893	186.25
634.099	172.25
634.305	187.25
634.511	173.25
634.717	164.25
634.923	175.25
635.129	160.25
635.335	171.25
635.541	178.25
635.747	183.25
635.952	159.25
636.158	156.25
636.364	155.25
636.57	182.25
636.775	180.25
636.981	167.25
637.187	163.25
637.392	168.25
637.598	182.25
637.804	162.25
638.009	156.25
638.215	175.25
638.421	161.25
638.626	161.25
638.832	163.25
639.037	160.25
639.243	179.25
639.448	170.25
639.654	159.25
639.859	134.25
640.065	160.25
640.27	165.25
640.475	150.25
640.681	165.25
640.886	179.25
641.091	160.25
641.297	170.25
641.502	169.25
641.707	158.25
641.913	161.25
642.118	162.25
642.323	161.25
642.528	166.25
642.733	159.25
642.939	158.25
643.144	161.25
643.349	164.25
643.554	163.25
643.759	159.25
643.964	158.25
644.169	164.25
644.374	157.25
644.579	165.25
644.784	165.25
644.989	145.25
645.194	151.25
645.399	145.25
645.604	175.25
645.809	168.25
646.014	153.25
646.219	158.25
646.423	156.25
646.628	143.25
646.833	150.25
647.038	160.25
647.243	152.25
647.447	159.25
647.652	168.25
647.857	156.25
648.062	143.25
648.266	164.25
648.471	148.25
648.676	169.25
648.88	159.25
649.085	162.25
649.289	154.25
649.494	177.25
649.698	181.25
649.903	170.25
650.107	172.25
650.312	160.25
650.516	149.25
650.721	163.25
650.925	152.25
651.13	148.25
651.334	139.25
651.539	142.25
651.743	131.25
651.947	151.25
652.152	147.25
652.356	149.25
652.56	127.25
652.764	140.25
652.969	156.25
653.173	145.25
653.377	141.25
653.581	142.25
653.785	135.25
653.99	121.25
654.194	124.25
654.398	120.25
654.602	142.25
654.806	116.25
655.01	134.25
655.214	137.25
655.418	136.25
655.622	132.25
655.826	134.25
656.03	119.25
656.234	110.25
656.438	121.25
656.642	108.25
656.846	123.25
657.049	115.25
657.253	120.25
657.457	113.25
657.661	115.25
657.865	110.25
658.068	104.25
658.272	100.25
658.476	101.25
658.68	104.25
658.883	104.25
659.087	96.25
659.291	102.25
659.494	105.25
659.698	106.25
659.901	110.25
660.105	103.25
660.309	82.25
660.512	90.25
660.716	93.25
660.919	90.25
661.123	86.25
661.326	80.25
661.53	89.25
661.733	97.25
661.936	93.25
662.14	87.25
662.343	92.25
662.546	87.25
662.75	91.25
662.953	75.25
663.156	97.25
663.36	96.25
663.563	81.25
663.766	85.25
663.969	77.25
664.173	95.25
664.376	76.25
664.579	83.25
664.782	89.25
664.985	81.25
665.188	89.25
665.391	79.25
665.594	96.25
665.797	94.25
666	84.25
666.203	91.25
666.406	93.25
666.609	77.25
666.812	82.25
667.015	89.25
667.218	74.25
667.421	76.25
667.624	80.25
667.827	89.25
668.03	71.25
668.232	78.25
668.435	72.25
668.638	78.25
668.841	83.25
669.043	96.25
669.246	89.25
669.449	69.25
669.651	88.25
669.854	90.25
670.057	85.25
670.259	87.25
670.462	88.25
670.665	68.25
670.867	93.25
671.07	75.25
671.272	75.25
671.475	75.25
671.677	88.25
671.88	75.25
672.082	77.25
672.284	88.25
672.487	92.25
672.689	85.25
672.892	80.25
