Data from 1989.PennyLincolnUp.Lamp.En5.5.200Scan.071819.P2_HRD10591_17-23-23-972.txt Node
Date: Thu Jul 18 17:23:23 EDT 2019
User: cochatt
Spectrometer: HR+D1059
Trigger mode: 1
Integration Time (sec): 1.000000E-1
Scans to average: 1
Electric dark correction enabled: true
Nonlinearity correction enabled: false
Boxcar width: 0
XAxis mode: Wavelengths
Number of Pixels in Spectrum: 2048
>>>>>Begin Spectral Data<<<<<
223.165	-28.12
223.4	-28.12
223.635	-28.12
223.869	1.88
224.104	-24.12
224.338	-19.12
224.573	-21.12
224.808	-12.12
225.042	-0.12
225.277	0.88
225.511	0.88
225.746	-8.12
225.98	8.88
226.215	4.88
226.449	19.88
226.683	29.88
226.918	19.88
227.152	25.88
227.387	31.88
227.621	29.88
227.856	52.88
228.09	57.88
228.324	48.88
228.559	51.88
228.793	67.88
229.027	90.88
229.262	109.88
229.496	105.88
229.73	106.88
229.964	129.88
230.199	116.88
230.433	114.88
230.667	105.88
230.901	94.88
231.136	112.88
231.37	112.88
231.604	101.88
231.838	113.88
232.072	115.88
232.306	96.88
232.541	113.88
232.775	121.88
233.009	105.88
233.243	114.88
233.477	109.88
233.711	130.88
233.945	108.88
234.179	109.88
234.413	114.88
234.647	112.88
234.881	113.88
235.115	110.88
235.349	110.88
235.583	121.88
235.817	118.88
236.051	112.88
236.285	125.88
236.519	117.88
236.753	124.88
236.987	130.88
237.221	156.88
237.455	217.88
237.689	180.88
237.922	120.88
238.156	125.88
238.39	122.88
238.624	110.88
238.858	126.88
239.091	116.88
239.325	130.88
239.559	115.88
239.793	134.88
240.027	117.88
240.26	128.88
240.494	138.88
240.728	140.88
240.961	144.88
241.195	136.88
241.429	134.88
241.662	137.88
241.896	126.88
242.13	139.88
242.363	132.88
242.597	138.88
242.83	154.88
243.064	137.88
243.298	133.88
243.531	135.88
243.765	133.88
243.998	136.88
244.232	144.88
244.465	130.88
244.699	131.88
244.932	153.88
245.166	147.88
245.399	144.88
245.633	137.88
245.866	146.88
246.099	155.88
246.333	160.88
246.566	132.88
246.8	141.88
247.033	159.88
247.266	148.88
247.5	141.88
247.733	160.88
247.966	166.88
248.2	166.88
248.433	165.88
248.666	184.88
248.899	172.88
249.133	196.88
249.366	194.88
249.599	189.88
249.832	180.88
250.066	165.88
250.299	176.88
250.532	169.88
250.765	178.88
250.998	205.88
251.231	216.88
251.465	201.88
251.698	200.88
251.931	190.88
252.164	192.88
252.397	181.88
252.63	183.88
252.863	206.88
253.096	210.88
253.329	212.88
253.562	207.88
253.795	212.88
254.028	224.88
254.261	218.88
254.494	230.88
254.727	241.88
254.96	260.88
255.193	250.88
255.426	246.88
255.659	234.88
255.892	215.88
256.124	228.88
256.357	217.88
256.59	210.88
256.823	217.88
257.056	203.88
257.289	189.88
257.521	207.88
257.754	205.88
257.987	208.88
258.22	212.88
258.452	220.88
258.685	200.88
258.918	204.88
259.151	196.88
259.383	223.88
259.616	210.88
259.849	209.88
260.081	226.88
260.314	236.88
260.547	250.88
260.779	248.88
261.012	242.88
261.244	220.88
261.477	219.88
261.71	219.88
261.942	199.88
262.175	227.88
262.407	212.88
262.64	219.88
262.872	212.88
263.105	195.88
263.337	203.88
263.57	204.88
263.802	205.88
264.035	212.88
264.267	210.88
264.499	213.88
264.732	207.88
264.964	221.88
265.197	208.88
265.429	216.88
265.661	219.88
265.894	215.88
266.126	214.88
266.358	206.88
266.591	212.88
266.823	234.88
267.055	214.88
267.287	234.88
267.52	227.88
267.752	221.88
267.984	222.88
268.216	220.88
268.448	206.88
268.681	227.88
268.913	214.88
269.145	259.88
269.377	278.88
269.609	256.88
269.841	276.88
270.073	269.88
270.306	280.88
270.538	302.88
270.77	295.88
271.002	285.88
271.234	245.88
271.466	269.88
271.698	290.88
271.93	315.88
272.162	294.88
272.394	297.88
272.626	307.88
272.858	284.88
273.09	259.88
273.322	259.88
273.553	257.88
273.785	267.88
274.017	242.88
274.249	241.88
274.481	257.88
274.713	266.88
274.945	263.88
275.176	244.88
275.408	253.88
275.64	249.88
275.872	258.88
276.104	269.88
276.335	251.88
276.567	256.88
276.799	270.88
277.031	281.88
277.262	280.88
277.494	294.88
277.726	300.88
277.957	281.88
278.189	256.88
278.421	266.88
278.652	266.88
278.884	257.88
279.115	257.88
279.347	269.88
279.579	269.88
279.81	262.88
280.042	251.88
280.273	264.88
280.505	246.88
280.736	262.88
280.968	278.88
281.199	277.88
281.431	262.88
281.662	266.88
281.894	257.88
282.125	268.88
282.356	267.88
282.588	278.88
282.819	290.88
283.051	271.88
283.282	270.88
283.513	266.88
283.745	266.88
283.976	262.88
284.207	279.88
284.439	256.88
284.67	271.88
284.901	274.88
285.132	263.88
285.364	263.88
285.595	285.88
285.826	291.88
286.057	270.88
286.288	254.88
286.52	267.88
286.751	278.88
286.982	270.88
287.213	273.88
287.444	274.88
287.675	261.88
287.906	288.88
288.138	280.88
288.369	288.88
288.6	284.88
288.831	277.88
289.062	272.88
289.293	281.88
289.524	277.88
289.755	278.88
289.986	269.88
290.217	288.88
290.448	278.88
290.679	295.88
290.91	280.88
291.141	274.88
291.371	281.88
291.602	276.88
291.833	292.88
292.064	266.88
292.295	284.88
292.526	256.88
292.757	284.88
292.987	259.88
293.218	275.88
293.449	291.88
293.68	279.88
293.91	279.88
294.141	272.88
294.372	282.88
294.603	281.88
294.833	306.88
295.064	287.88
295.295	278.88
295.525	276.88
295.756	275.88
295.987	275.88
296.217	296.88
296.448	312.88
296.679	289.88
296.909	292.88
297.14	291.88
297.37	287.88
297.601	315.88
297.831	280.88
298.062	308.88
298.292	299.88
298.523	311.88
298.753	313.88
298.984	298.88
299.214	278.88
299.445	290.88
299.675	295.88
299.905	290.88
300.136	312.88
300.366	285.88
300.597	293.88
300.827	290.88
301.057	306.88
301.288	304.88
301.518	313.88
301.748	304.88
301.979	292.88
302.209	318.88
302.439	308.88
302.669	321.88
302.9	310.88
303.13	318.88
303.36	330.88
303.59	306.88
303.82	320.88
304.051	328.88
304.281	323.88
304.511	320.88
304.741	340.88
304.971	319.88
305.201	312.88
305.431	306.88
305.661	306.88
305.891	315.88
306.121	315.88
306.352	322.88
306.582	315.88
306.812	311.88
307.042	316.88
307.272	305.88
307.502	327.88
307.731	330.88
307.961	324.88
308.191	309.88
308.421	321.88
308.651	304.88
308.881	331.88
309.111	314.88
309.341	323.88
309.571	306.88
309.8	340.88
310.03	363.88
310.26	345.88
310.49	362.88
310.72	361.88
310.949	381.88
311.179	362.88
311.409	360.88
311.639	346.88
311.868	356.88
312.098	356.88
312.328	336.88
312.557	376.88
312.787	373.88
313.017	380.88
313.246	358.88
313.476	357.88
313.706	354.88
313.935	348.88
314.165	356.88
314.394	374.88
314.624	370.88
314.853	357.88
315.083	354.88
315.312	362.88
315.542	361.88
315.771	344.88
316.001	352.88
316.23	349.88
316.46	341.88
316.689	344.88
316.919	365.88
317.148	370.88
317.377	378.88
317.607	356.88
317.836	340.88
318.065	343.88
318.295	349.88
318.524	353.88
318.753	351.88
318.983	355.88
319.212	358.88
319.441	359.88
319.67	396.88
319.9	360.88
320.129	370.88
320.358	350.88
320.587	374.88
320.816	361.88
321.046	378.88
321.275	396.88
321.504	372.88
321.733	379.88
321.962	392.88
322.191	406.88
322.42	390.88
322.649	421.88
322.878	417.88
323.108	415.88
323.337	433.88
323.566	442.88
323.795	485.88
324.024	516.88
324.253	607.88
324.482	850.88
324.71	1285.88
324.939	1848.88
325.168	1612.88
325.397	838.88
325.626	564.88
325.855	475.88
326.084	468.88
326.313	455.88
326.542	474.88
326.77	517.88
326.999	581.88
327.228	769.88
327.457	1137.88
327.686	1400.88
327.914	941.88
328.143	628.88
328.372	532.88
328.6	499.88
328.829	498.88
329.058	514.88
329.287	519.88
329.515	482.88
329.744	470.88
329.972	443.88
330.201	449.88
330.43	460.88
330.658	463.88
330.887	530.88
331.115	542.88
331.344	473.88
331.572	440.88
331.801	435.88
332.03	429.88
332.258	416.88
332.486	416.88
332.715	404.88
332.943	396.88
333.172	417.88
333.4	402.88
333.629	419.88
333.857	432.88
334.085	425.88
334.314	429.88
334.542	414.88
334.771	409.88
334.999	407.88
335.227	416.88
335.455	411.88
335.684	422.88
335.912	418.88
336.14	417.88
336.369	438.88
336.597	426.88
336.825	406.88
337.053	416.88
337.281	413.88
337.51	407.88
337.738	399.88
337.966	408.88
338.194	414.88
338.422	389.88
338.65	417.88
338.878	398.88
339.106	390.88
339.334	411.88
339.562	394.88
339.79	384.88
340.018	418.88
340.246	397.88
340.474	402.88
340.702	414.88
340.93	411.88
341.158	394.88
341.386	390.88
341.614	395.88
341.842	399.88
342.07	405.88
342.298	387.88
342.526	382.88
342.754	372.88
342.981	389.88
343.209	399.88
343.437	410.88
343.665	395.88
343.893	404.88
344.12	412.88
344.348	407.88
344.576	394.88
344.804	416.88
345.031	412.88
345.259	409.88
345.487	416.88
345.714	404.88
345.942	405.88
346.17	394.88
346.397	375.88
346.625	402.88
346.853	385.88
347.08	391.88
347.308	386.88
347.535	395.88
347.763	394.88
347.99	397.88
348.218	388.88
348.445	391.88
348.673	389.88
348.9	387.88
349.128	366.88
349.355	382.88
349.583	390.88
349.81	374.88
350.037	367.88
350.265	353.88
350.492	378.88
350.72	380.88
350.947	350.88
351.174	391.88
351.402	398.88
351.629	388.88
351.856	413.88
352.083	384.88
352.311	408.88
352.538	397.88
352.765	402.88
352.992	386.88
353.22	377.88
353.447	387.88
353.674	344.88
353.901	378.88
354.128	349.88
354.355	360.88
354.583	364.88
354.81	365.88
355.037	378.88
355.264	360.88
355.491	354.88
355.718	354.88
355.945	345.88
356.172	356.88
356.399	364.88
356.626	362.88
356.853	350.88
357.08	359.88
357.307	355.88
357.534	351.88
357.761	353.88
357.988	361.88
358.215	354.88
358.441	354.88
358.668	338.88
358.895	365.88
359.122	362.88
359.349	360.88
359.576	375.88
359.802	377.88
360.029	395.88
360.256	415.88
360.483	401.88
360.709	371.88
360.936	375.88
361.163	384.88
361.39	368.88
361.616	368.88
361.843	383.88
362.07	376.88
362.296	352.88
362.523	368.88
362.749	354.88
362.976	369.88
363.203	372.88
363.429	358.88
363.656	347.88
363.882	349.88
364.109	373.88
364.335	371.88
364.562	351.88
364.788	363.88
365.015	375.88
365.241	361.88
365.468	369.88
365.694	366.88
365.92	346.88
366.147	355.88
366.373	340.88
366.599	344.88
366.826	354.88
367.052	369.88
367.278	351.88
367.505	348.88
367.731	387.88
367.957	338.88
368.184	366.88
368.41	362.88
368.636	369.88
368.862	374.88
369.089	345.88
369.315	358.88
369.541	372.88
369.767	368.88
369.993	370.88
370.219	344.88
370.445	348.88
370.672	348.88
370.898	358.88
371.124	353.88
371.35	356.88
371.576	370.88
371.802	356.88
372.028	349.88
372.254	338.88
372.48	354.88
372.706	375.88
372.932	344.88
373.158	360.88
373.384	381.88
373.61	371.88
373.835	365.88
374.061	368.88
374.287	386.88
374.513	359.88
374.739	378.88
374.965	370.88
375.191	354.88
375.416	360.88
375.642	377.88
375.868	368.88
376.094	362.88
376.319	368.88
376.545	360.88
376.771	344.88
376.997	350.88
377.222	358.88
377.448	350.88
377.674	368.88
377.899	368.88
378.125	352.88
378.35	348.88
378.576	346.88
378.802	345.88
379.027	353.88
379.253	349.88
379.478	338.88
379.704	362.88
379.929	377.88
380.155	358.88
380.38	339.88
380.606	369.88
380.831	376.88
381.057	368.88
381.282	376.88
381.507	355.88
381.733	344.88
381.958	377.88
382.184	349.88
382.409	390.88
382.634	359.88
382.86	368.88
383.085	353.88
383.31	354.88
383.535	374.88
383.761	376.88
383.986	386.88
384.211	358.88
384.436	379.88
384.662	376.88
384.887	384.88
385.112	382.88
385.337	384.88
385.562	394.88
385.787	380.88
386.013	394.88
386.238	406.88
386.463	404.88
386.688	392.88
386.913	374.88
387.138	368.88
387.363	397.88
387.588	386.88
387.813	398.88
388.038	372.88
388.263	378.88
388.488	411.88
388.713	378.88
388.938	374.88
389.163	376.88
389.387	390.88
389.612	387.88
389.837	379.88
390.062	376.88
390.287	372.88
390.512	368.88
390.736	380.88
390.961	375.88
391.186	378.88
391.411	387.88
391.636	386.88
391.86	382.88
392.085	388.88
392.31	392.88
392.534	390.88
392.759	355.88
392.984	363.88
393.208	368.88
393.433	380.88
393.658	371.88
393.882	387.88
394.107	371.88
394.331	393.88
394.556	384.88
394.78	396.88
395.005	380.88
395.229	370.88
395.454	396.88
395.678	384.88
395.903	385.88
396.127	410.88
396.352	428.88
396.576	416.88
396.801	391.88
397.025	403.88
397.249	384.88
397.474	393.88
397.698	398.88
397.922	420.88
398.147	404.88
398.371	438.88
398.595	419.88
398.82	425.88
399.044	437.88
399.268	448.88
399.492	452.88
399.717	487.88
399.941	504.88
400.165	521.88
400.389	542.88
400.613	502.88
400.837	436.88
401.062	427.88
401.286	441.88
401.51	438.88
401.734	449.88
401.958	417.88
402.182	433.88
402.406	419.88
402.63	417.88
402.854	418.88
403.078	428.88
403.302	440.88
403.526	464.88
403.75	441.88
403.974	454.88
404.198	429.88
404.422	463.88
404.645	453.88
404.869	433.88
405.093	435.88
405.317	468.88
405.541	483.88
405.765	482.88
405.988	475.88
406.212	477.88
406.436	462.88
406.66	480.88
406.883	458.88
407.107	498.88
407.331	532.88
407.555	577.88
407.778	570.88
408.002	525.88
408.226	478.88
408.449	474.88
408.673	479.88
408.896	517.88
409.12	540.88
409.344	500.88
409.567	464.88
409.791	455.88
410.014	446.88
410.238	450.88
410.461	450.88
410.685	458.88
410.908	460.88
411.132	489.88
411.355	509.88
411.578	514.88
411.802	441.88
412.025	454.88
412.249	440.88
412.472	439.88
412.695	443.88
412.919	448.88
413.142	420.88
413.365	422.88
413.589	409.88
413.812	390.88
414.035	421.88
414.258	406.88
414.482	425.88
414.705	402.88
414.928	412.88
415.151	424.88
415.374	414.88
415.597	408.88
415.821	429.88
416.044	438.88
416.267	416.88
416.49	399.88
416.713	409.88
416.936	422.88
417.159	400.88
417.382	424.88
417.605	409.88
417.828	427.88
418.051	466.88
418.274	444.88
418.497	408.88
418.72	409.88
418.943	417.88
419.166	434.88
419.389	442.88
419.611	437.88
419.834	451.88
420.057	442.88
420.28	404.88
420.503	428.88
420.726	420.88
420.948	463.88
421.171	469.88
421.394	481.88
421.617	456.88
421.839	454.88
422.062	426.88
422.285	451.88
422.507	520.88
422.73	566.88
422.953	573.88
423.175	483.88
423.398	472.88
423.621	442.88
423.843	467.88
424.066	474.88
424.288	453.88
424.511	493.88
424.733	540.88
424.956	602.88
425.178	601.88
425.401	578.88
425.623	590.88
425.846	509.88
426.068	483.88
426.291	456.88
426.513	478.88
426.735	460.88
426.958	521.88
427.18	587.88
427.402	709.88
427.625	758.88
427.847	664.88
428.069	530.88
428.292	491.88
428.514	459.88
428.736	452.88
428.958	443.88
429.181	425.88
429.403	436.88
429.625	460.88
429.847	450.88
430.069	554.88
430.292	537.88
430.514	471.88
430.736	420.88
430.958	430.88
431.18	413.88
431.402	411.88
431.624	398.88
431.846	407.88
432.068	420.88
432.29	424.88
432.512	411.88
432.734	414.88
432.956	411.88
433.178	403.88
433.4	425.88
433.622	417.88
433.844	423.88
434.066	403.88
434.287	403.88
434.509	413.88
434.731	403.88
434.953	427.88
435.175	445.88
435.397	458.88
435.618	469.88
435.84	517.88
436.062	590.88
436.284	654.88
436.505	545.88
436.727	477.88
436.949	428.88
437.17	433.88
437.392	429.88
437.614	445.88
437.835	469.88
438.057	570.88
438.278	645.88
438.5	644.88
438.721	737.88
438.943	690.88
439.165	556.88
439.386	501.88
439.608	497.88
439.829	480.88
440.05	512.88
440.272	561.88
440.493	513.88
440.715	459.88
440.936	452.88
441.158	460.88
441.379	436.88
441.6	449.88
441.822	450.88
442.043	507.88
442.264	590.88
442.486	603.88
442.707	544.88
442.928	486.88
443.149	487.88
443.371	508.88
443.592	532.88
443.813	618.88
444.034	660.88
444.255	564.88
444.476	470.88
444.698	481.88
444.919	455.88
445.14	538.88
445.361	530.88
445.582	498.88
445.803	565.88
446.024	647.88
446.245	654.88
446.466	580.88
446.687	521.88
446.908	480.88
447.129	456.88
447.35	449.88
447.571	448.88
447.792	422.88
448.013	441.88
448.234	435.88
448.455	509.88
448.675	585.88
448.896	709.88
449.117	581.88
449.338	564.88
449.559	667.88
449.779	757.88
450	567.88
450.221	473.88
450.442	425.88
450.662	442.88
450.883	440.88
451.104	438.88
451.324	426.88
451.545	400.88
451.766	399.88
451.986	406.88
452.207	403.88
452.428	370.88
452.648	389.88
452.869	391.88
453.089	376.88
453.31	420.88
453.53	392.88
453.751	399.88
453.971	402.88
454.192	378.88
454.412	388.88
454.633	389.88
454.853	375.88
455.073	384.88
455.294	417.88
455.514	442.88
455.734	454.88
455.955	412.88
456.175	364.88
456.395	364.88
456.616	347.88
456.836	368.88
457.056	362.88
457.276	346.88
457.497	369.88
457.717	376.88
457.937	374.88
458.157	389.88
458.377	370.88
458.598	403.88
458.818	452.88
459.038	481.88
459.258	549.88
459.478	466.88
459.698	401.88
459.918	409.88
460.138	394.88
460.358	397.88
460.578	410.88
460.798	392.88
461.018	411.88
461.238	414.88
461.458	397.88
461.678	411.88
461.898	399.88
462.118	417.88
462.338	398.88
462.558	434.88
462.777	420.88
462.997	450.88
463.217	445.88
463.437	436.88
463.657	422.88
463.876	433.88
464.096	446.88
464.316	429.88
464.536	435.88
464.755	457.88
464.975	444.88
465.195	470.88
465.414	499.88
465.634	477.88
465.854	427.88
466.073	411.88
466.293	399.88
466.512	422.88
466.732	420.88
466.951	392.88
467.171	402.88
467.391	386.88
467.61	402.88
467.829	429.88
468.049	400.88
468.268	382.88
468.488	380.88
468.707	368.88
468.927	368.88
469.146	365.88
469.365	399.88
469.585	383.88
469.804	388.88
470.023	387.88
470.243	403.88
470.462	411.88
470.681	418.88
470.901	416.88
471.12	395.88
471.339	406.88
471.558	404.88
471.777	384.88
471.997	404.88
472.216	376.88
472.435	391.88
472.654	392.88
472.873	387.88
473.092	409.88
473.311	394.88
473.53	410.88
473.749	398.88
473.968	450.88
474.187	525.88
474.406	572.88
474.625	450.88
474.844	420.88
475.063	404.88
475.282	395.88
475.501	417.88
475.72	421.88
475.939	417.88
476.158	429.88
476.377	401.88
476.596	414.88
476.814	418.88
477.033	427.88
477.252	422.88
477.471	431.88
477.69	425.88
477.908	442.88
478.127	421.88
478.346	421.88
478.564	425.88
478.783	443.88
479.002	449.88
479.22	436.88
479.439	462.88
479.658	482.88
479.876	468.88
480.095	494.88
480.313	504.88
480.532	491.88
480.751	484.88
480.969	498.88
481.188	490.88
481.406	450.88
481.624	476.88
481.843	477.88
482.061	482.88
482.28	462.88
482.498	455.88
482.717	465.88
482.935	464.88
483.153	459.88
483.372	467.88
483.59	473.88
483.808	483.88
484.027	472.88
484.245	455.88
484.463	450.88
484.681	467.88
484.9	480.88
485.118	454.88
485.336	475.88
485.554	483.88
485.772	483.88
485.99	485.88
486.209	481.88
486.427	487.88
486.645	493.88
486.863	495.88
487.081	502.88
487.299	478.88
487.517	487.88
487.735	501.88
487.953	501.88
488.171	498.88
488.389	497.88
488.607	514.88
488.825	510.88
489.043	491.88
489.261	489.88
489.479	506.88
489.696	511.88
489.914	522.88
490.132	512.88
490.35	505.88
490.568	507.88
490.786	520.88
491.003	542.88
491.221	540.88
491.439	561.88
491.657	555.88
491.874	548.88
492.092	563.88
492.31	554.88
492.527	570.88
492.745	564.88
492.963	566.88
493.18	569.88
493.398	556.88
493.615	580.88
493.833	576.88
494.05	583.88
494.268	579.88
494.485	577.88
494.703	572.88
494.92	574.88
495.138	588.88
495.355	562.88
495.573	568.88
495.79	591.88
496.008	599.88
496.225	590.88
496.442	587.88
496.66	584.88
496.877	595.88
497.094	588.88
497.312	618.88
497.529	624.88
497.746	630.88
497.963	622.88
498.181	636.88
498.398	642.88
498.615	669.88
498.832	634.88
499.049	684.88
499.267	678.88
499.484	698.88
499.701	731.88
499.918	723.88
500.135	758.88
500.352	780.88
500.569	786.88
500.786	777.88
501.003	794.88
501.22	769.88
501.437	752.88
501.654	730.88
501.871	724.88
502.088	715.88
502.305	667.88
502.522	693.88
502.739	659.88
502.956	632.88
503.172	624.88
503.389	610.88
503.606	594.88
503.823	609.88
504.04	603.88
504.256	587.88
504.473	602.88
504.69	589.88
504.907	576.88
505.123	574.88
505.34	584.88
505.557	577.88
505.773	584.88
505.99	552.88
506.207	552.88
506.423	581.88
506.64	560.88
506.856	566.88
507.073	551.88
507.289	568.88
507.506	544.88
507.722	538.88
507.939	569.88
508.155	558.88
508.372	512.88
508.588	528.88
508.805	524.88
509.021	534.88
509.238	545.88
509.454	546.88
509.67	537.88
509.887	533.88
510.103	531.88
510.319	549.88
510.536	602.88
510.752	968.88
510.968	819.88
511.184	566.88
511.401	536.88
511.617	506.88
511.833	513.88
512.049	500.88
512.265	512.88
512.481	518.88
512.698	515.88
512.914	490.88
513.13	508.88
513.346	512.88
513.562	505.88
513.778	517.88
513.994	529.88
514.21	512.88
514.426	539.88
514.642	566.88
514.858	576.88
515.074	626.88
515.29	727.88
515.506	1008.88
515.721	830.88
515.937	605.88
516.153	567.88
516.369	548.88
516.585	529.88
516.801	514.88
517.016	513.88
517.232	519.88
517.448	511.88
517.664	500.88
517.879	514.88
518.095	527.88
518.311	504.88
518.527	512.88
518.742	524.88
518.958	504.88
519.173	512.88
519.389	496.88
519.605	506.88
519.82	493.88
520.036	502.88
520.251	518.88
520.467	552.88
520.682	544.88
520.898	529.88
521.113	578.88
521.329	587.88
521.544	650.88
521.76	808.88
521.975	1304.88
522.19	1289.88
522.406	729.88
522.621	569.88
522.836	517.88
523.052	506.88
523.267	493.88
523.482	458.88
523.698	461.88
523.913	453.88
524.128	485.88
524.343	468.88
524.559	447.88
524.774	448.88
524.989	434.88
525.204	472.88
525.419	454.88
525.634	464.88
525.849	433.88
526.064	439.88
526.28	421.88
526.495	422.88
526.71	420.88
526.925	422.88
527.14	436.88
527.355	397.88
527.57	428.88
527.785	416.88
527.999	406.88
528.214	442.88
528.429	426.88
528.644	452.88
528.859	421.88
529.074	436.88
529.289	460.88
529.503	501.88
529.718	481.88
529.933	448.88
530.148	452.88
530.363	440.88
530.577	416.88
530.792	417.88
531.007	398.88
531.221	410.88
531.436	414.88
531.651	408.88
531.865	424.88
532.08	408.88
532.295	416.88
532.509	416.88
532.724	396.88
532.938	414.88
533.153	414.88
533.367	402.88
533.582	417.88
533.796	401.88
534.011	404.88
534.225	411.88
534.44	397.88
534.654	402.88
534.868	413.88
535.083	409.88
535.297	409.88
535.511	391.88
535.726	416.88
535.94	416.88
536.154	401.88
536.369	387.88
536.583	392.88
536.797	377.88
537.011	370.88
537.225	406.88
537.44	412.88
537.654	390.88
537.868	406.88
538.082	392.88
538.296	379.88
538.51	392.88
538.724	400.88
538.938	385.88
539.153	391.88
539.367	398.88
539.581	409.88
539.795	390.88
540.009	404.88
540.222	406.88
540.436	374.88
540.65	393.88
540.864	387.88
541.078	385.88
541.292	394.88
541.506	388.88
541.72	413.88
541.934	389.88
542.147	381.88
542.361	374.88
542.575	388.88
542.789	376.88
543.002	382.88
543.216	392.88
543.43	390.88
543.644	391.88
543.857	381.88
544.071	394.88
544.285	376.88
544.498	372.88
544.712	390.88
544.925	374.88
545.139	373.88
545.352	374.88
545.566	378.88
545.779	398.88
545.993	363.88
546.206	380.88
546.42	376.88
546.633	385.88
546.847	376.88
547.06	381.88
547.274	374.88
547.487	376.88
547.7	375.88
547.914	389.88
548.127	374.88
548.34	360.88
548.554	378.88
548.767	386.88
548.98	377.88
549.193	361.88
549.407	362.88
549.62	372.88
549.833	382.88
550.046	368.88
550.259	378.88
550.473	360.88
550.686	359.88
550.899	359.88
551.112	365.88
551.325	384.88
551.538	345.88
551.751	353.88
551.964	359.88
552.177	359.88
552.39	376.88
552.603	382.88
552.816	380.88
553.029	383.88
553.242	352.88
553.455	365.88
553.667	361.88
553.88	394.88
554.093	379.88
554.306	390.88
554.519	376.88
554.732	377.88
554.944	368.88
555.157	375.88
555.37	358.88
555.583	364.88
555.795	353.88
556.008	334.88
556.221	333.88
556.433	357.88
556.646	341.88
556.859	318.88
557.071	354.88
557.284	347.88
557.496	325.88
557.709	335.88
557.921	325.88
558.134	339.88
558.346	329.88
558.559	344.88
558.771	336.88
558.984	342.88
559.196	345.88
559.409	336.88
559.621	339.88
559.833	347.88
560.046	348.88
560.258	343.88
560.47	337.88
560.683	301.88
560.895	314.88
561.107	320.88
561.32	334.88
561.532	338.88
561.744	332.88
561.956	338.88
562.168	338.88
562.381	338.88
562.593	328.88
562.805	351.88
563.017	321.88
563.229	335.88
563.441	316.88
563.653	329.88
563.865	329.88
564.077	345.88
564.289	327.88
564.501	339.88
564.713	350.88
564.925	362.88
565.137	346.88
565.349	333.88
565.561	369.88
565.773	355.88
565.985	346.88
566.197	362.88
566.408	382.88
566.62	384.88
566.832	396.88
567.044	389.88
567.255	406.88
567.467	401.88
567.679	393.88
567.891	403.88
568.102	404.88
568.314	381.88
568.526	377.88
568.737	372.88
568.949	359.88
569.161	337.88
569.372	353.88
569.584	357.88
569.795	348.88
570.007	345.88
570.218	365.88
570.43	353.88
570.641	321.88
570.853	340.88
571.064	298.88
571.276	317.88
571.487	324.88
571.698	316.88
571.91	306.88
572.121	301.88
572.333	308.88
572.544	293.88
572.755	314.88
572.966	293.88
573.178	308.88
573.389	280.88
573.6	307.88
573.811	280.88
574.023	294.88
574.234	297.88
574.445	304.88
574.656	287.88
574.867	280.88
575.078	301.88
575.289	305.88
575.501	280.88
575.712	294.88
575.923	289.88
576.134	296.88
576.345	286.88
576.556	292.88
576.767	276.88
576.978	289.88
577.188	284.88
577.399	285.88
577.61	292.88
577.821	296.88
578.032	273.88
578.243	294.88
578.454	470.88
578.665	352.88
578.875	292.88
579.086	279.88
579.297	278.88
579.508	276.88
579.718	278.88
579.929	294.88
580.14	275.88
580.35	255.88
580.561	265.88
580.772	262.88
580.982	262.88
581.193	251.88
581.403	284.88
581.614	273.88
581.825	271.88
582.035	263.88
582.246	273.88
582.456	254.88
582.667	289.88
582.877	274.88
583.087	265.88
583.298	251.88
583.508	252.88
583.719	272.88
583.929	274.88
584.139	283.88
584.35	228.88
584.56	256.88
584.77	274.88
584.981	262.88
585.191	269.88
585.401	281.88
585.611	253.88
585.821	275.88
586.032	275.88
586.242	256.88
586.452	252.88
586.662	265.88
586.872	252.88
587.082	247.88
587.292	271.88
587.502	253.88
587.713	261.88
587.923	254.88
588.133	252.88
588.343	263.88
588.553	242.88
588.762	255.88
588.972	266.88
589.182	280.88
589.392	262.88
589.602	253.88
589.812	260.88
590.022	262.88
590.232	255.88
590.441	256.88
590.651	246.88
590.861	228.88
591.071	254.88
591.281	257.88
591.49	269.88
591.7	270.88
591.91	263.88
592.119	259.88
592.329	262.88
592.539	263.88
592.748	264.88
592.958	279.88
593.167	274.88
593.377	253.88
593.587	289.88
593.796	269.88
594.006	255.88
594.215	256.88
594.424	264.88
594.634	268.88
594.843	275.88
595.053	258.88
595.262	247.88
595.472	262.88
595.681	242.88
595.89	240.88
596.1	262.88
596.309	253.88
596.518	262.88
596.727	261.88
596.937	231.88
597.146	236.88
597.355	250.88
597.564	234.88
597.774	226.88
597.983	246.88
598.192	234.88
598.401	251.88
598.61	221.88
598.819	236.88
599.028	245.88
599.237	243.88
599.446	227.88
599.655	245.88
599.864	228.88
600.073	218.88
600.282	235.88
600.491	229.88
600.7	236.88
600.909	236.88
601.118	233.88
601.327	232.88
601.536	237.88
601.745	231.88
601.953	235.88
602.162	226.88
602.371	230.88
602.58	224.88
602.789	225.88
602.997	203.88
603.206	225.88
603.415	218.88
603.623	231.88
603.832	208.88
604.041	220.88
604.249	200.88
604.458	211.88
604.666	190.88
604.875	200.88
605.084	229.88
605.292	212.88
605.501	203.88
605.709	209.88
605.918	221.88
606.126	222.88
606.334	237.88
606.543	230.88
606.751	233.88
606.96	215.88
607.168	213.88
607.376	224.88
607.585	218.88
607.793	230.88
608.001	208.88
608.21	206.88
608.418	215.88
608.626	216.88
608.834	213.88
609.043	212.88
609.251	237.88
609.459	217.88
609.667	209.88
609.875	215.88
610.083	226.88
610.291	220.88
610.499	211.88
610.707	220.88
610.916	212.88
611.124	228.88
611.332	213.88
611.54	222.88
611.748	231.88
611.955	230.88
612.163	211.88
612.371	198.88
612.579	220.88
612.787	220.88
612.995	209.88
613.203	218.88
613.411	211.88
613.618	217.88
613.826	211.88
614.034	211.88
614.242	216.88
614.449	190.88
614.657	225.88
614.865	209.88
615.072	191.88
615.28	198.88
615.488	200.88
615.695	207.88
615.903	207.88
616.111	208.88
616.318	196.88
616.526	200.88
616.733	219.88
616.941	199.88
617.148	204.88
617.356	188.88
617.563	190.88
617.771	202.88
617.978	211.88
618.185	221.88
618.393	212.88
618.6	200.88
618.807	203.88
619.015	209.88
619.222	189.88
619.429	210.88
619.637	206.88
619.844	216.88
620.051	190.88
620.258	198.88
620.466	194.88
620.673	196.88
620.88	195.88
621.087	202.88
621.294	217.88
621.501	211.88
621.708	187.88
621.915	204.88
622.122	199.88
622.329	198.88
622.536	200.88
622.743	201.88
622.95	187.88
623.157	206.88
623.364	202.88
623.571	202.88
623.778	194.88
623.985	187.88
624.192	204.88
624.399	193.88
624.606	202.88
624.812	179.88
625.019	195.88
625.226	193.88
625.433	189.88
625.639	182.88
625.846	185.88
626.053	188.88
626.259	185.88
626.466	194.88
626.673	185.88
626.879	204.88
627.086	174.88
627.293	181.88
627.499	189.88
627.706	186.88
627.912	174.88
628.119	200.88
628.325	181.88
628.532	189.88
628.738	178.88
628.945	182.88
629.151	185.88
629.357	181.88
629.564	180.88
629.77	192.88
629.976	186.88
630.183	166.88
630.389	177.88
630.595	167.88
630.802	180.88
631.008	170.88
631.214	177.88
631.42	172.88
631.627	183.88
631.833	159.88
632.039	170.88
632.245	174.88
632.451	178.88
632.657	180.88
632.863	170.88
633.069	176.88
633.275	155.88
633.481	152.88
633.688	161.88
633.893	150.88
634.099	150.88
634.305	172.88
634.511	154.88
634.717	170.88
634.923	160.88
635.129	170.88
635.335	177.88
635.541	173.88
635.747	165.88
635.952	171.88
636.158	180.88
636.364	184.88
636.57	159.88
636.775	176.88
636.981	183.88
637.187	165.88
637.392	166.88
637.598	162.88
637.804	180.88
638.009	166.88
638.215	170.88
638.421	156.88
638.626	150.88
638.832	161.88
639.037	167.88
639.243	140.88
639.448	154.88
639.654	158.88
639.859	173.88
640.065	163.88
640.27	168.88
640.475	182.88
640.681	149.88
640.886	162.88
641.091	164.88
641.297	158.88
641.502	162.88
641.707	153.88
641.913	166.88
642.118	160.88
642.323	158.88
642.528	157.88
642.733	142.88
642.939	166.88
643.144	154.88
643.349	152.88
643.554	156.88
643.759	156.88
643.964	156.88
644.169	153.88
644.374	146.88
644.579	138.88
644.784	174.88
644.989	155.88
645.194	156.88
645.399	170.88
645.604	166.88
645.809	161.88
646.014	163.88
646.219	148.88
646.423	153.88
646.628	159.88
646.833	169.88
647.038	157.88
647.243	155.88
647.447	152.88
647.652	163.88
647.857	154.88
648.062	143.88
648.266	138.88
648.471	159.88
648.676	170.88
648.88	149.88
649.085	151.88
649.289	157.88
649.494	156.88
649.698	167.88
649.903	171.88
650.107	164.88
650.312	163.88
650.516	139.88
650.721	155.88
650.925	134.88
651.13	130.88
651.334	153.88
651.539	146.88
651.743	155.88
651.947	146.88
652.152	146.88
652.356	122.88
652.56	138.88
652.764	128.88
652.969	138.88
653.173	148.88
653.377	135.88
653.581	142.88
653.785	141.88
653.99	125.88
654.194	118.88
654.398	130.88
654.602	144.88
654.806	136.88
655.01	142.88
655.214	129.88
655.418	137.88
655.622	130.88
655.826	134.88
656.03	132.88
656.234	127.88
656.438	121.88
656.642	129.88
656.846	141.88
657.049	125.88
657.253	127.88
657.457	132.88
657.661	144.88
657.865	134.88
658.068	111.88
658.272	103.88
658.476	97.88
658.68	74.88
658.883	94.88
659.087	100.88
659.291	88.88
659.494	97.88
659.698	101.88
659.901	98.88
660.105	100.88
660.309	100.88
660.512	93.88
660.716	83.88
660.919	85.88
661.123	93.88
661.326	90.88
661.53	81.88
661.733	91.88
661.936	94.88
662.14	84.88
662.343	78.88
662.546	86.88
662.75	85.88
662.953	73.88
663.156	78.88
663.36	94.88
663.563	79.88
663.766	86.88
663.969	76.88
664.173	93.88
664.376	87.88
664.579	85.88
664.782	94.88
664.985	78.88
665.188	91.88
665.391	79.88
665.594	71.88
665.797	79.88
666	81.88
666.203	82.88
666.406	78.88
666.609	91.88
666.812	74.88
667.015	74.88
667.218	73.88
667.421	78.88
667.624	78.88
667.827	101.88
668.03	76.88
668.232	78.88
668.435	81.88
668.638	78.88
668.841	90.88
669.043	80.88
669.246	82.88
669.449	75.88
669.651	83.88
669.854	74.88
670.057	79.88
670.259	80.88
670.462	81.88
670.665	75.88
670.867	85.88
671.07	79.88
671.272	80.88
671.475	91.88
671.677	92.88
671.88	89.88
672.082	77.88
672.284	83.88
672.487	90.88
672.689	83.88
672.892	82.88
