Data from 1989.PennyLincolnUp.Lamp.En5.5.200Scan.071819.P2_HRD10591_17-24-05-973.txt Node
Date: Thu Jul 18 17:24:05 EDT 2019
User: cochatt
Spectrometer: HR+D1059
Trigger mode: 1
Integration Time (sec): 1.000000E-1
Scans to average: 1
Electric dark correction enabled: true
Nonlinearity correction enabled: false
Boxcar width: 0
XAxis mode: Wavelengths
Number of Pixels in Spectrum: 2048
>>>>>Begin Spectral Data<<<<<
223.165	-11.25
223.4	-11.25
223.635	-11.25
223.869	-19.25
224.104	-26.25
224.338	0.75
224.573	-3.25
224.808	-7.25
225.042	-21.25
225.277	-10.25
225.511	-0.25
225.746	-2.25
225.98	-8.25
226.215	16.75
226.449	31.75
226.683	7.75
226.918	23.75
227.152	28.75
227.387	30.75
227.621	39.75
227.856	48.75
228.09	36.75
228.324	48.75
228.559	58.75
228.793	61.75
229.027	93.75
229.262	121.75
229.496	124.75
229.73	119.75
229.964	138.75
230.199	138.75
230.433	119.75
230.667	119.75
230.901	113.75
231.136	103.75
231.37	109.75
231.604	124.75
231.838	121.75
232.072	122.75
232.306	120.75
232.541	117.75
232.775	115.75
233.009	122.75
233.243	111.75
233.477	120.75
233.711	116.75
233.945	101.75
234.179	121.75
234.413	115.75
234.647	123.75
234.881	118.75
235.115	135.75
235.349	122.75
235.583	123.75
235.817	136.75
236.051	137.75
236.285	126.75
236.519	126.75
236.753	139.75
236.987	159.75
237.221	192.75
237.455	232.75
237.689	196.75
237.922	161.75
238.156	134.75
238.39	141.75
238.624	132.75
238.858	130.75
239.091	124.75
239.325	112.75
239.559	121.75
239.793	122.75
240.027	130.75
240.26	135.75
240.494	161.75
240.728	167.75
240.961	156.75
241.195	148.75
241.429	137.75
241.662	136.75
241.896	140.75
242.13	160.75
242.363	135.75
242.597	127.75
242.83	151.75
243.064	163.75
243.298	144.75
243.531	141.75
243.765	135.75
243.998	129.75
244.232	140.75
244.465	138.75
244.699	155.75
244.932	145.75
245.166	157.75
245.399	140.75
245.633	149.75
245.866	165.75
246.099	150.75
246.333	163.75
246.566	164.75
246.8	160.75
247.033	161.75
247.266	175.75
247.5	173.75
247.733	175.75
247.966	179.75
248.2	183.75
248.433	180.75
248.666	191.75
248.899	198.75
249.133	204.75
249.366	234.75
249.599	206.75
249.832	198.75
250.066	194.75
250.299	206.75
250.532	195.75
250.765	219.75
250.998	221.75
251.231	245.75
251.465	254.75
251.698	213.75
251.931	229.75
252.164	218.75
252.397	213.75
252.63	211.75
252.863	223.75
253.096	237.75
253.329	239.75
253.562	244.75
253.795	224.75
254.028	223.75
254.261	229.75
254.494	255.75
254.727	261.75
254.96	293.75
255.193	300.75
255.426	291.75
255.659	233.75
255.892	247.75
256.124	267.75
256.357	231.75
256.59	221.75
256.823	235.75
257.056	215.75
257.289	215.75
257.521	223.75
257.754	219.75
257.987	225.75
258.22	225.75
258.452	243.75
258.685	225.75
258.918	221.75
259.151	225.75
259.383	225.75
259.616	235.75
259.849	244.75
260.081	253.75
260.314	244.75
260.547	271.75
260.779	265.75
261.012	240.75
261.244	244.75
261.477	236.75
261.71	233.75
261.942	255.75
262.175	253.75
262.407	243.75
262.64	240.75
262.872	235.75
263.105	236.75
263.337	240.75
263.57	230.75
263.802	221.75
264.035	231.75
264.267	231.75
264.499	232.75
264.732	236.75
264.964	230.75
265.197	227.75
265.429	241.75
265.661	217.75
265.894	217.75
266.126	222.75
266.358	233.75
266.591	234.75
266.823	221.75
267.055	263.75
267.287	249.75
267.52	247.75
267.752	259.75
267.984	221.75
268.216	240.75
268.448	240.75
268.681	269.75
268.913	252.75
269.145	294.75
269.377	299.75
269.609	315.75
269.841	302.75
270.073	308.75
270.306	320.75
270.538	342.75
270.77	361.75
271.002	325.75
271.234	336.75
271.466	334.75
271.698	353.75
271.93	352.75
272.162	363.75
272.394	357.75
272.626	332.75
272.858	308.75
273.09	290.75
273.322	301.75
273.553	285.75
273.785	290.75
274.017	283.75
274.249	277.75
274.481	283.75
274.713	298.75
274.945	295.75
275.176	292.75
275.408	293.75
275.64	290.75
275.872	305.75
276.104	281.75
276.335	298.75
276.567	295.75
276.799	302.75
277.031	341.75
277.262	348.75
277.494	349.75
277.726	317.75
277.957	311.75
278.189	292.75
278.421	300.75
278.652	295.75
278.884	297.75
279.115	281.75
279.347	294.75
279.579	276.75
279.81	289.75
280.042	313.75
280.273	283.75
280.505	286.75
280.736	291.75
280.968	299.75
281.199	276.75
281.431	291.75
281.662	276.75
281.894	284.75
282.125	312.75
282.356	329.75
282.588	310.75
282.819	328.75
283.051	296.75
283.282	298.75
283.513	307.75
283.745	301.75
283.976	311.75
284.207	314.75
284.439	310.75
284.67	288.75
284.901	290.75
285.132	307.75
285.364	319.75
285.595	300.75
285.826	280.75
286.057	298.75
286.288	302.75
286.52	290.75
286.751	291.75
286.982	286.75
287.213	287.75
287.444	287.75
287.675	301.75
287.906	312.75
288.138	319.75
288.369	329.75
288.6	323.75
288.831	337.75
289.062	321.75
289.293	323.75
289.524	319.75
289.755	300.75
289.986	310.75
290.217	313.75
290.448	303.75
290.679	312.75
290.91	307.75
291.141	313.75
291.371	309.75
291.602	316.75
291.833	317.75
292.064	305.75
292.295	289.75
292.526	306.75
292.757	316.75
292.987	316.75
293.218	308.75
293.449	299.75
293.68	295.75
293.91	289.75
294.141	332.75
294.372	294.75
294.603	319.75
294.833	312.75
295.064	299.75
295.295	312.75
295.525	329.75
295.756	303.75
295.987	325.75
296.217	343.75
296.448	355.75
296.679	304.75
296.909	306.75
297.14	308.75
297.37	320.75
297.601	321.75
297.831	320.75
298.062	322.75
298.292	339.75
298.523	319.75
298.753	324.75
298.984	307.75
299.214	319.75
299.445	327.75
299.675	316.75
299.905	331.75
300.136	320.75
300.366	329.75
300.597	333.75
300.827	337.75
301.057	352.75
301.288	358.75
301.518	359.75
301.748	371.75
301.979	341.75
302.209	348.75
302.439	359.75
302.669	343.75
302.9	334.75
303.13	343.75
303.36	336.75
303.59	345.75
303.82	358.75
304.051	349.75
304.281	352.75
304.511	359.75
304.741	342.75
304.971	342.75
305.201	358.75
305.431	321.75
305.661	357.75
305.891	352.75
306.121	362.75
306.352	344.75
306.582	364.75
306.812	352.75
307.042	368.75
307.272	352.75
307.502	345.75
307.731	365.75
307.961	359.75
308.191	373.75
308.421	346.75
308.651	355.75
308.881	348.75
309.111	361.75
309.341	363.75
309.571	373.75
309.8	385.75
310.03	381.75
310.26	412.75
310.49	403.75
310.72	410.75
310.949	408.75
311.179	442.75
311.409	400.75
311.639	399.75
311.868	405.75
312.098	387.75
312.328	406.75
312.557	434.75
312.787	453.75
313.017	439.75
313.246	411.75
313.476	404.75
313.706	410.75
313.935	424.75
314.165	412.75
314.394	427.75
314.624	437.75
314.853	439.75
315.083	399.75
315.312	398.75
315.542	400.75
315.771	396.75
316.001	379.75
316.23	398.75
316.46	386.75
316.689	411.75
316.919	421.75
317.148	405.75
317.377	445.75
317.607	405.75
317.836	422.75
318.065	411.75
318.295	421.75
318.524	396.75
318.753	408.75
318.983	385.75
319.212	407.75
319.441	424.75
319.67	434.75
319.9	418.75
320.129	407.75
320.358	418.75
320.587	419.75
320.816	418.75
321.046	452.75
321.275	450.75
321.504	428.75
321.733	428.75
321.962	443.75
322.191	444.75
322.42	465.75
322.649	476.75
322.878	490.75
323.108	491.75
323.337	564.75
323.566	554.75
323.795	630.75
324.024	652.75
324.253	783.75
324.482	1105.75
324.71	1675.75
324.939	2410.75
325.168	2027.75
325.397	1074.75
325.626	746.75
325.855	597.75
326.084	561.75
326.313	529.75
326.542	560.75
326.77	628.75
326.999	713.75
327.228	1011.75
327.457	1477.75
327.686	1831.75
327.914	1232.75
328.143	796.75
328.372	676.75
328.6	609.75
328.829	630.75
329.058	627.75
329.287	623.75
329.515	587.75
329.744	557.75
329.972	531.75
330.201	520.75
330.43	575.75
330.658	598.75
330.887	651.75
331.115	630.75
331.344	561.75
331.572	509.75
331.801	513.75
332.03	505.75
332.258	477.75
332.486	480.75
332.715	468.75
332.943	487.75
333.172	489.75
333.4	474.75
333.629	474.75
333.857	476.75
334.085	480.75
334.314	477.75
334.542	487.75
334.771	488.75
334.999	471.75
335.227	491.75
335.455	483.75
335.684	470.75
335.912	451.75
336.14	463.75
336.369	447.75
336.597	464.75
336.825	467.75
337.053	472.75
337.281	454.75
337.51	479.75
337.738	475.75
337.966	474.75
338.194	480.75
338.422	460.75
338.65	476.75
338.878	472.75
339.106	448.75
339.334	449.75
339.562	460.75
339.79	441.75
340.018	455.75
340.246	455.75
340.474	469.75
340.702	458.75
340.93	445.75
341.158	443.75
341.386	452.75
341.614	437.75
341.842	444.75
342.07	446.75
342.298	423.75
342.526	435.75
342.754	449.75
342.981	426.75
343.209	437.75
343.437	460.75
343.665	420.75
343.893	451.75
344.12	479.75
344.348	451.75
344.576	463.75
344.804	467.75
345.031	489.75
345.259	502.75
345.487	468.75
345.714	478.75
345.942	457.75
346.17	415.75
346.397	452.75
346.625	452.75
346.853	428.75
347.08	438.75
347.308	424.75
347.535	459.75
347.763	431.75
347.99	456.75
348.218	437.75
348.445	457.75
348.673	451.75
348.9	428.75
349.128	425.75
349.355	411.75
349.583	431.75
349.81	428.75
350.037	413.75
350.265	413.75
350.492	425.75
350.72	435.75
350.947	422.75
351.174	442.75
351.402	438.75
351.629	429.75
351.856	442.75
352.083	452.75
352.311	442.75
352.538	434.75
352.765	451.75
352.992	428.75
353.22	437.75
353.447	418.75
353.674	409.75
353.901	398.75
354.128	412.75
354.355	421.75
354.583	408.75
354.81	400.75
355.037	390.75
355.264	415.75
355.491	387.75
355.718	393.75
355.945	394.75
356.172	395.75
356.399	411.75
356.626	392.75
356.853	392.75
357.08	395.75
357.307	382.75
357.534	395.75
357.761	381.75
357.988	386.75
358.215	397.75
358.441	411.75
358.668	383.75
358.895	405.75
359.122	383.75
359.349	405.75
359.576	444.75
359.802	458.75
360.029	490.75
360.256	483.75
360.483	468.75
360.709	427.75
360.936	433.75
361.163	403.75
361.39	423.75
361.616	439.75
361.843	411.75
362.07	419.75
362.296	413.75
362.523	435.75
362.749	437.75
362.976	438.75
363.203	394.75
363.429	389.75
363.656	421.75
363.882	378.75
364.109	400.75
364.335	390.75
364.562	409.75
364.788	424.75
365.015	401.75
365.241	393.75
365.468	411.75
365.694	404.75
365.92	427.75
366.147	399.75
366.373	425.75
366.599	393.75
366.826	407.75
367.052	391.75
367.278	411.75
367.505	396.75
367.731	392.75
367.957	396.75
368.184	405.75
368.41	398.75
368.636	406.75
368.862	413.75
369.089	420.75
369.315	405.75
369.541	392.75
369.767	407.75
369.993	412.75
370.219	404.75
370.445	395.75
370.672	406.75
370.898	388.75
371.124	403.75
371.35	391.75
371.576	396.75
371.802	393.75
372.028	394.75
372.254	394.75
372.48	398.75
372.706	377.75
372.932	391.75
373.158	404.75
373.384	407.75
373.61	414.75
373.835	405.75
374.061	397.75
374.287	401.75
374.513	398.75
374.739	396.75
374.965	406.75
375.191	405.75
375.416	416.75
375.642	415.75
375.868	397.75
376.094	388.75
376.319	395.75
376.545	398.75
376.771	386.75
376.997	379.75
377.222	385.75
377.448	388.75
377.674	415.75
377.899	381.75
378.125	379.75
378.35	385.75
378.576	366.75
378.802	379.75
379.027	384.75
379.253	387.75
379.478	399.75
379.704	375.75
379.929	376.75
380.155	376.75
380.38	389.75
380.606	387.75
380.831	389.75
381.057	408.75
381.282	385.75
381.507	386.75
381.733	394.75
381.958	383.75
382.184	395.75
382.409	377.75
382.634	403.75
382.86	404.75
383.085	411.75
383.31	406.75
383.535	416.75
383.761	415.75
383.986	394.75
384.211	403.75
384.436	409.75
384.662	393.75
384.887	407.75
385.112	409.75
385.337	398.75
385.562	411.75
385.787	413.75
386.013	417.75
386.238	417.75
386.463	428.75
386.688	428.75
386.913	397.75
387.138	415.75
387.363	408.75
387.588	421.75
387.813	408.75
388.038	437.75
388.263	412.75
388.488	406.75
388.713	406.75
388.938	400.75
389.163	393.75
389.387	390.75
389.612	413.75
389.837	400.75
390.062	414.75
390.287	404.75
390.512	407.75
390.736	439.75
390.961	415.75
391.186	431.75
391.411	427.75
391.636	422.75
391.86	435.75
392.085	416.75
392.31	402.75
392.534	427.75
392.759	427.75
392.984	413.75
393.208	406.75
393.433	407.75
393.658	418.75
393.882	391.75
394.107	407.75
394.331	410.75
394.556	416.75
394.78	411.75
395.005	429.75
395.229	419.75
395.454	422.75
395.678	433.75
395.903	439.75
396.127	457.75
396.352	456.75
396.576	443.75
396.801	421.75
397.025	417.75
397.249	435.75
397.474	447.75
397.698	455.75
397.922	468.75
398.147	472.75
398.371	475.75
398.595	464.75
398.82	443.75
399.044	464.75
399.268	483.75
399.492	510.75
399.717	536.75
399.941	553.75
400.165	600.75
400.389	607.75
400.613	541.75
400.837	511.75
401.062	476.75
401.286	487.75
401.51	465.75
401.734	464.75
401.958	468.75
402.182	482.75
402.406	467.75
402.63	457.75
402.854	499.75
403.078	475.75
403.302	477.75
403.526	492.75
403.75	500.75
403.974	452.75
404.198	466.75
404.422	486.75
404.645	483.75
404.869	474.75
405.093	526.75
405.317	534.75
405.541	562.75
405.765	529.75
405.988	497.75
406.212	500.75
406.436	540.75
406.66	543.75
406.883	531.75
407.107	553.75
407.331	586.75
407.555	644.75
407.778	667.75
408.002	590.75
408.226	560.75
408.449	548.75
408.673	527.75
408.896	552.75
409.12	608.75
409.344	583.75
409.567	538.75
409.791	487.75
410.014	475.75
410.238	497.75
410.461	487.75
410.685	485.75
410.908	498.75
411.132	524.75
411.355	597.75
411.578	559.75
411.802	512.75
412.025	474.75
412.249	463.75
412.472	460.75
412.695	499.75
412.919	492.75
413.142	481.75
413.365	472.75
413.589	453.75
413.812	447.75
414.035	457.75
414.258	449.75
414.482	459.75
414.705	463.75
414.928	458.75
415.151	461.75
415.374	452.75
415.597	445.75
415.821	429.75
416.044	454.75
416.267	463.75
416.49	465.75
416.713	448.75
416.936	459.75
417.159	453.75
417.382	436.75
417.605	439.75
417.828	491.75
418.051	471.75
418.274	480.75
418.497	464.75
418.72	465.75
418.943	453.75
419.166	465.75
419.389	510.75
419.611	490.75
419.834	486.75
420.057	491.75
420.28	488.75
420.503	462.75
420.726	479.75
420.948	500.75
421.171	522.75
421.394	607.75
421.617	507.75
421.839	474.75
422.062	463.75
422.285	480.75
422.507	575.75
422.73	632.75
422.953	606.75
423.175	535.75
423.398	521.75
423.621	514.75
423.843	556.75
424.066	536.75
424.288	528.75
424.511	559.75
424.733	599.75
424.956	688.75
425.178	641.75
425.401	663.75
425.623	688.75
425.846	575.75
426.068	531.75
426.291	509.75
426.513	524.75
426.735	532.75
426.958	587.75
427.18	664.75
427.402	765.75
427.625	877.75
427.847	758.75
428.069	638.75
428.292	547.75
428.514	545.75
428.736	536.75
428.958	516.75
429.181	498.75
429.403	486.75
429.625	509.75
429.847	544.75
430.069	601.75
430.292	587.75
430.514	523.75
430.736	491.75
430.958	464.75
431.18	468.75
431.402	467.75
431.624	455.75
431.846	447.75
432.068	449.75
432.29	462.75
432.512	446.75
432.734	460.75
432.956	442.75
433.178	461.75
433.4	480.75
433.622	487.75
433.844	457.75
434.066	457.75
434.287	461.75
434.509	443.75
434.731	458.75
434.953	465.75
435.175	465.75
435.397	496.75
435.618	535.75
435.84	561.75
436.062	668.75
436.284	744.75
436.505	627.75
436.727	553.75
436.949	522.75
437.17	499.75
437.392	501.75
437.614	510.75
437.835	544.75
438.057	666.75
438.278	745.75
438.5	739.75
438.721	819.75
438.943	756.75
439.165	626.75
439.386	561.75
439.608	547.75
439.829	547.75
440.05	580.75
440.272	609.75
440.493	557.75
440.715	527.75
440.936	500.75
441.158	520.75
441.379	475.75
441.6	493.75
441.822	533.75
442.043	551.75
442.264	654.75
442.486	712.75
442.707	606.75
442.928	530.75
443.149	549.75
443.371	590.75
443.592	632.75
443.813	706.75
444.034	790.75
444.255	627.75
444.476	579.75
444.698	535.75
444.919	526.75
445.14	617.75
445.361	589.75
445.582	563.75
445.803	621.75
446.024	755.75
446.245	767.75
446.466	676.75
446.687	595.75
446.908	504.75
447.129	500.75
447.35	476.75
447.571	513.75
447.792	463.75
448.013	497.75
448.234	520.75
448.455	565.75
448.675	675.75
448.896	797.75
449.117	673.75
449.338	648.75
449.559	757.75
449.779	845.75
450	660.75
450.221	565.75
450.442	484.75
450.662	483.75
450.883	509.75
451.104	519.75
451.324	497.75
451.545	467.75
451.766	474.75
451.986	437.75
452.207	414.75
452.428	445.75
452.648	435.75
452.869	447.75
453.089	451.75
453.31	454.75
453.53	447.75
453.751	439.75
453.971	449.75
454.192	443.75
454.412	443.75
454.633	423.75
454.853	439.75
455.073	445.75
455.294	464.75
455.514	539.75
455.734	512.75
455.955	422.75
456.175	437.75
456.395	428.75
456.616	403.75
456.836	414.75
457.056	413.75
457.276	387.75
457.497	399.75
457.717	408.75
457.937	421.75
458.157	421.75
458.377	432.75
458.598	441.75
458.818	527.75
459.038	593.75
459.258	637.75
459.478	511.75
459.698	465.75
459.918	445.75
460.138	441.75
460.358	459.75
460.578	442.75
460.798	475.75
461.018	444.75
461.238	459.75
461.458	442.75
461.678	439.75
461.898	445.75
462.118	464.75
462.338	468.75
462.558	482.75
462.777	474.75
462.997	475.75
463.217	481.75
463.437	483.75
463.657	478.75
463.876	483.75
464.096	501.75
464.316	469.75
464.536	461.75
464.755	487.75
464.975	502.75
465.195	547.75
465.414	604.75
465.634	529.75
465.854	487.75
466.073	472.75
466.293	458.75
466.512	445.75
466.732	413.75
466.951	426.75
467.171	427.75
467.391	439.75
467.61	437.75
467.829	472.75
468.049	446.75
468.268	438.75
468.488	420.75
468.707	405.75
468.927	413.75
469.146	410.75
469.365	431.75
469.585	420.75
469.804	423.75
470.023	440.75
470.243	431.75
470.462	428.75
470.681	460.75
470.901	472.75
471.12	461.75
471.339	460.75
471.558	464.75
471.777	425.75
471.997	438.75
472.216	428.75
472.435	432.75
472.654	446.75
472.873	426.75
473.092	445.75
473.311	440.75
473.53	448.75
473.749	456.75
473.968	503.75
474.187	599.75
474.406	647.75
474.625	515.75
474.844	472.75
475.063	463.75
475.282	456.75
475.501	433.75
475.72	460.75
475.939	468.75
476.158	455.75
476.377	453.75
476.596	447.75
476.814	448.75
477.033	483.75
477.252	481.75
477.471	451.75
477.69	478.75
477.908	457.75
478.127	471.75
478.346	479.75
478.564	498.75
478.783	492.75
479.002	468.75
479.22	491.75
479.439	520.75
479.658	525.75
479.876	542.75
480.095	536.75
480.313	572.75
480.532	557.75
480.751	557.75
480.969	546.75
481.188	550.75
481.406	553.75
481.624	552.75
481.843	523.75
482.061	521.75
482.28	528.75
482.498	511.75
482.717	528.75
482.935	506.75
483.153	504.75
483.372	517.75
483.59	495.75
483.808	523.75
484.027	513.75
484.245	537.75
484.463	517.75
484.681	534.75
484.9	520.75
485.118	520.75
485.336	534.75
485.554	552.75
485.772	529.75
485.99	526.75
486.209	541.75
486.427	538.75
486.645	550.75
486.863	570.75
487.081	591.75
487.299	565.75
487.517	562.75
487.735	577.75
487.953	537.75
488.171	547.75
488.389	563.75
488.607	572.75
488.825	546.75
489.043	563.75
489.261	561.75
489.479	564.75
489.696	558.75
489.914	577.75
490.132	588.75
490.35	594.75
490.568	598.75
490.786	596.75
491.003	595.75
491.221	604.75
491.439	618.75
491.657	638.75
491.874	637.75
492.092	636.75
492.31	631.75
492.527	628.75
492.745	642.75
492.963	640.75
493.18	642.75
493.398	626.75
493.615	671.75
493.833	659.75
494.05	652.75
494.268	647.75
494.485	653.75
494.703	641.75
494.92	647.75
495.138	654.75
495.355	664.75
495.573	667.75
495.79	631.75
496.008	662.75
496.225	669.75
496.442	676.75
496.66	687.75
496.877	665.75
497.094	664.75
497.312	675.75
497.529	664.75
497.746	693.75
497.963	711.75
498.181	707.75
498.398	707.75
498.615	709.75
498.832	730.75
499.049	733.75
499.267	768.75
499.484	756.75
499.701	801.75
499.918	808.75
500.135	822.75
500.352	871.75
500.569	878.75
500.786	894.75
501.003	874.75
501.22	827.75
501.437	830.75
501.654	821.75
501.871	854.75
502.088	818.75
502.305	761.75
502.522	730.75
502.739	723.75
502.956	714.75
503.172	688.75
503.389	680.75
503.606	680.75
503.823	687.75
504.04	675.75
504.256	669.75
504.473	639.75
504.69	659.75
504.907	661.75
505.123	652.75
505.34	667.75
505.557	669.75
505.773	620.75
505.99	629.75
506.207	635.75
506.423	645.75
506.64	630.75
506.856	639.75
507.073	604.75
507.289	609.75
507.506	648.75
507.722	643.75
507.939	636.75
508.155	648.75
508.372	612.75
508.588	612.75
508.805	603.75
509.021	624.75
509.238	627.75
509.454	617.75
509.67	609.75
509.887	619.75
510.103	635.75
510.319	634.75
510.536	746.75
510.752	1296.75
510.968	1028.75
511.184	654.75
511.401	623.75
511.617	600.75
511.833	569.75
512.049	598.75
512.265	589.75
512.481	592.75
512.698	596.75
512.914	580.75
513.13	581.75
513.346	581.75
513.562	575.75
513.778	583.75
513.994	592.75
514.21	603.75
514.426	641.75
514.642	660.75
514.858	697.75
515.074	733.75
515.29	921.75
515.506	1354.75
515.721	1101.75
515.937	727.75
516.153	662.75
516.369	635.75
516.585	636.75
516.801	581.75
517.016	615.75
517.232	598.75
517.448	604.75
517.664	623.75
517.879	595.75
518.095	585.75
518.311	579.75
518.527	593.75
518.742	588.75
518.958	584.75
519.173	571.75
519.389	601.75
519.605	590.75
519.82	576.75
520.036	601.75
520.251	640.75
520.467	665.75
520.682	640.75
520.898	662.75
521.113	683.75
521.329	726.75
521.544	847.75
521.76	1093.75
521.975	1845.75
522.19	1791.75
522.406	952.75
522.621	709.75
522.836	609.75
523.052	599.75
523.267	552.75
523.482	567.75
523.698	552.75
523.913	549.75
524.128	546.75
524.343	509.75
524.559	519.75
524.774	501.75
524.989	546.75
525.204	533.75
525.419	529.75
525.634	519.75
525.849	479.75
526.064	490.75
526.28	501.75
526.495	476.75
526.71	483.75
526.925	480.75
527.14	464.75
527.355	465.75
527.57	469.75
527.785	478.75
527.999	462.75
528.214	494.75
528.429	490.75
528.644	479.75
528.859	475.75
529.074	472.75
529.289	522.75
529.503	596.75
529.718	565.75
529.933	512.75
530.148	484.75
530.363	481.75
530.577	476.75
530.792	461.75
531.007	461.75
531.221	464.75
531.436	469.75
531.651	446.75
531.865	451.75
532.08	458.75
532.295	445.75
532.509	439.75
532.724	451.75
532.938	447.75
533.153	465.75
533.367	458.75
533.582	447.75
533.796	453.75
534.011	443.75
534.225	436.75
534.44	438.75
534.654	446.75
534.868	451.75
535.083	413.75
535.297	450.75
535.511	453.75
535.726	458.75
535.94	451.75
536.154	456.75
536.369	433.75
536.583	437.75
536.797	438.75
537.011	439.75
537.225	421.75
537.44	422.75
537.654	435.75
537.868	428.75
538.082	429.75
538.296	441.75
538.51	420.75
538.724	411.75
538.938	441.75
539.153	424.75
539.367	458.75
539.581	448.75
539.795	450.75
540.009	419.75
540.222	441.75
540.436	433.75
540.65	441.75
540.864	443.75
541.078	422.75
541.292	428.75
541.506	431.75
541.72	444.75
541.934	425.75
542.147	439.75
542.361	405.75
542.575	417.75
542.789	416.75
543.002	419.75
543.216	444.75
543.43	428.75
543.644	439.75
543.857	431.75
544.071	407.75
544.285	431.75
544.498	439.75
544.712	408.75
544.925	413.75
545.139	422.75
545.352	435.75
545.566	421.75
545.779	416.75
545.993	423.75
546.206	442.75
546.42	423.75
546.633	413.75
546.847	416.75
547.06	408.75
547.274	429.75
547.487	410.75
547.7	403.75
547.914	422.75
548.127	394.75
548.34	399.75
548.554	403.75
548.767	419.75
548.98	404.75
549.193	396.75
549.407	401.75
549.62	426.75
549.833	393.75
550.046	398.75
550.259	393.75
550.473	389.75
550.686	405.75
550.899	389.75
551.112	384.75
551.325	397.75
551.538	411.75
551.751	377.75
551.964	414.75
552.177	414.75
552.39	403.75
552.603	405.75
552.816	391.75
553.029	395.75
553.242	391.75
553.455	409.75
553.667	417.75
553.88	424.75
554.093	425.75
554.306	432.75
554.519	408.75
554.732	397.75
554.944	386.75
555.157	386.75
555.37	376.75
555.583	380.75
555.795	380.75
556.008	378.75
556.221	361.75
556.433	363.75
556.646	364.75
556.859	380.75
557.071	369.75
557.284	358.75
557.496	349.75
557.709	365.75
557.921	367.75
558.134	362.75
558.346	355.75
558.559	367.75
558.771	332.75
558.984	365.75
559.196	341.75
559.409	359.75
559.621	371.75
559.833	349.75
560.046	367.75
560.258	345.75
560.47	363.75
560.683	348.75
560.895	366.75
561.107	343.75
561.32	359.75
561.532	358.75
561.744	356.75
561.956	349.75
562.168	339.75
562.381	363.75
562.593	380.75
562.805	352.75
563.017	362.75
563.229	369.75
563.441	353.75
563.653	357.75
563.865	369.75
564.077	354.75
564.289	356.75
564.501	382.75
564.713	367.75
564.925	381.75
565.137	393.75
565.349	396.75
565.561	373.75
565.773	389.75
565.985	399.75
566.197	375.75
566.408	389.75
566.62	402.75
566.832	429.75
567.044	423.75
567.255	422.75
567.467	452.75
567.679	418.75
567.891	438.75
568.102	433.75
568.314	424.75
568.526	423.75
568.737	409.75
568.949	386.75
569.161	374.75
569.372	375.75
569.584	378.75
569.795	372.75
570.007	370.75
570.218	412.75
570.43	407.75
570.641	363.75
570.853	369.75
571.064	362.75
571.276	347.75
571.487	339.75
571.698	336.75
571.91	333.75
572.121	329.75
572.333	323.75
572.544	323.75
572.755	324.75
572.966	317.75
573.178	329.75
573.389	318.75
573.6	307.75
573.811	316.75
574.023	309.75
574.234	314.75
574.445	309.75
574.656	311.75
574.867	327.75
575.078	328.75
575.289	316.75
575.501	304.75
575.712	315.75
575.923	305.75
576.134	321.75
576.345	307.75
576.556	306.75
576.767	291.75
576.978	291.75
577.188	313.75
577.399	323.75
577.61	301.75
577.821	295.75
578.032	298.75
578.243	356.75
578.454	599.75
578.665	441.75
578.875	320.75
579.086	300.75
579.297	311.75
579.508	285.75
579.718	282.75
579.929	296.75
580.14	288.75
580.35	285.75
580.561	277.75
580.772	299.75
580.982	300.75
581.193	289.75
581.403	287.75
581.614	281.75
581.825	260.75
582.035	298.75
582.246	285.75
582.456	284.75
582.667	289.75
582.877	265.75
583.087	290.75
583.298	289.75
583.508	267.75
583.719	284.75
583.929	297.75
584.139	279.75
584.35	277.75
584.56	277.75
584.77	277.75
584.981	264.75
585.191	296.75
585.401	259.75
585.611	285.75
585.821	284.75
586.032	286.75
586.242	276.75
586.452	284.75
586.662	262.75
586.872	266.75
587.082	274.75
587.292	284.75
587.502	274.75
587.713	274.75
587.923	274.75
588.133	268.75
588.343	279.75
588.553	262.75
588.762	281.75
588.972	275.75
589.182	265.75
589.392	286.75
589.602	270.75
589.812	268.75
590.022	275.75
590.232	283.75
590.441	285.75
590.651	260.75
590.861	272.75
591.071	293.75
591.281	285.75
591.49	287.75
591.7	265.75
591.91	280.75
592.119	280.75
592.329	289.75
592.539	281.75
592.748	289.75
592.958	293.75
593.167	268.75
593.377	293.75
593.587	275.75
593.796	291.75
594.006	300.75
594.215	291.75
594.424	290.75
594.634	290.75
594.843	293.75
595.053	275.75
595.262	259.75
595.472	277.75
595.681	271.75
595.89	258.75
596.1	273.75
596.309	268.75
596.518	245.75
596.727	256.75
596.937	264.75
597.146	264.75
597.355	257.75
597.564	243.75
597.774	273.75
597.983	266.75
598.192	255.75
598.401	245.75
598.61	245.75
598.819	258.75
599.028	244.75
599.237	240.75
599.446	258.75
599.655	231.75
599.864	236.75
600.073	240.75
600.282	234.75
600.491	235.75
600.7	240.75
600.909	234.75
601.118	240.75
601.327	228.75
601.536	227.75
601.745	240.75
601.953	252.75
602.162	242.75
602.371	258.75
602.58	239.75
602.789	251.75
602.997	240.75
603.206	214.75
603.415	242.75
603.623	227.75
603.832	241.75
604.041	232.75
604.249	224.75
604.458	226.75
604.666	234.75
604.875	220.75
605.084	233.75
605.292	233.75
605.501	252.75
605.709	220.75
605.918	215.75
606.126	230.75
606.334	233.75
606.543	232.75
606.751	228.75
606.96	228.75
607.168	221.75
607.376	241.75
607.585	237.75
607.793	234.75
608.001	211.75
608.21	223.75
608.418	211.75
608.626	211.75
608.834	247.75
609.043	235.75
609.251	226.75
609.459	222.75
609.667	226.75
609.875	228.75
610.083	226.75
610.291	217.75
610.499	205.75
610.707	224.75
610.916	217.75
611.124	227.75
611.332	240.75
611.54	236.75
611.748	227.75
611.955	216.75
612.163	226.75
612.371	237.75
612.579	221.75
612.787	231.75
612.995	211.75
613.203	228.75
613.411	221.75
613.618	217.75
613.826	235.75
614.034	227.75
614.242	220.75
614.449	225.75
614.657	218.75
614.865	230.75
615.072	214.75
615.28	224.75
615.488	220.75
615.695	212.75
615.903	214.75
616.111	219.75
616.318	213.75
616.526	206.75
616.733	215.75
616.941	220.75
617.148	217.75
617.356	232.75
617.563	217.75
617.771	213.75
617.978	193.75
618.185	211.75
618.393	233.75
618.6	220.75
618.807	217.75
619.015	218.75
619.222	223.75
619.429	216.75
619.637	224.75
619.844	209.75
620.051	204.75
620.258	211.75
620.466	190.75
620.673	203.75
620.88	206.75
621.087	203.75
621.294	212.75
621.501	207.75
621.708	216.75
621.915	202.75
622.122	217.75
622.329	217.75
622.536	208.75
622.743	191.75
622.95	204.75
623.157	204.75
623.364	197.75
623.571	196.75
623.778	200.75
623.985	209.75
624.192	213.75
624.399	191.75
624.606	216.75
624.812	210.75
625.019	195.75
625.226	200.75
625.433	209.75
625.639	211.75
625.846	206.75
626.053	166.75
626.259	191.75
626.466	183.75
626.673	188.75
626.879	195.75
627.086	209.75
627.293	189.75
627.499	204.75
627.706	191.75
627.912	196.75
628.119	181.75
628.325	199.75
628.532	186.75
628.738	182.75
628.945	193.75
629.151	178.75
629.357	197.75
629.564	172.75
629.77	200.75
629.976	189.75
630.183	184.75
630.389	186.75
630.595	185.75
630.802	171.75
631.008	184.75
631.214	193.75
631.42	191.75
631.627	172.75
631.833	183.75
632.039	179.75
632.245	164.75
632.451	177.75
632.657	183.75
632.863	193.75
633.069	181.75
633.275	182.75
633.481	183.75
633.688	182.75
633.893	180.75
634.099	186.75
634.305	167.75
634.511	165.75
634.717	167.75
634.923	178.75
635.129	177.75
635.335	183.75
635.541	175.75
635.747	170.75
635.952	173.75
636.158	177.75
636.364	161.75
636.57	179.75
636.775	171.75
636.981	180.75
637.187	175.75
637.392	185.75
637.598	151.75
637.804	168.75
638.009	166.75
638.215	167.75
638.421	153.75
638.626	176.75
638.832	153.75
639.037	167.75
639.243	150.75
639.448	175.75
639.654	161.75
639.859	164.75
640.065	149.75
640.27	170.75
640.475	160.75
640.681	172.75
640.886	164.75
641.091	174.75
641.297	162.75
641.502	172.75
641.707	158.75
641.913	177.75
642.118	161.75
642.323	174.75
642.528	151.75
642.733	152.75
642.939	149.75
643.144	162.75
643.349	144.75
643.554	155.75
643.759	156.75
643.964	148.75
644.169	152.75
644.374	137.75
644.579	145.75
644.784	162.75
644.989	163.75
645.194	149.75
645.399	178.75
645.604	180.75
645.809	167.75
646.014	157.75
646.219	159.75
646.423	153.75
646.628	155.75
646.833	163.75
647.038	176.75
647.243	162.75
647.447	147.75
647.652	164.75
647.857	155.75
648.062	167.75
648.266	165.75
648.471	152.75
648.676	158.75
648.88	161.75
649.085	154.75
649.289	147.75
649.494	157.75
649.698	181.75
649.903	183.75
650.107	161.75
650.312	159.75
650.516	151.75
650.721	155.75
650.925	156.75
651.13	156.75
651.334	148.75
651.539	139.75
651.743	152.75
651.947	141.75
652.152	142.75
652.356	141.75
652.56	145.75
652.764	131.75
652.969	133.75
653.173	139.75
653.377	131.75
653.581	133.75
653.785	142.75
653.99	133.75
654.194	136.75
654.398	141.75
654.602	143.75
654.806	142.75
655.01	149.75
655.214	139.75
655.418	136.75
655.622	127.75
655.826	134.75
656.03	125.75
656.234	139.75
656.438	132.75
656.642	137.75
656.846	132.75
657.049	127.75
657.253	119.75
657.457	123.75
657.661	109.75
657.865	99.75
658.068	111.75
658.272	117.75
658.476	111.75
658.68	101.75
658.883	118.75
659.087	99.75
659.291	99.75
659.494	107.75
659.698	98.75
659.901	103.75
660.105	104.75
660.309	92.75
660.512	100.75
660.716	99.75
660.919	80.75
661.123	102.75
661.326	85.75
661.53	82.75
661.733	103.75
661.936	89.75
662.14	80.75
662.343	89.75
662.546	72.75
662.75	83.75
662.953	95.75
663.156	79.75
663.36	82.75
663.563	93.75
663.766	70.75
663.969	89.75
664.173	85.75
664.376	81.75
664.579	83.75
664.782	83.75
664.985	81.75
665.188	78.75
665.391	84.75
665.594	81.75
665.797	78.75
666	89.75
666.203	78.75
666.406	90.75
666.609	75.75
666.812	81.75
667.015	84.75
667.218	80.75
667.421	78.75
667.624	73.75
667.827	79.75
668.03	88.75
668.232	75.75
668.435	72.75
668.638	69.75
668.841	91.75
669.043	79.75
669.246	85.75
669.449	78.75
669.651	93.75
669.854	87.75
670.057	81.75
670.259	91.75
670.462	73.75
670.665	63.75
670.867	96.75
671.07	75.75
671.272	95.75
671.475	92.75
671.677	72.75
671.88	73.75
672.082	100.75
672.284	91.75
672.487	82.75
672.689	88.75
672.892	92.75
