Data from 1989.PennyLincolnUp.Lamp.En5.5.200Scan.071819.P2_HRD10591_17-25-31-973.txt Node
Date: Thu Jul 18 17:25:31 EDT 2019
User: cochatt
Spectrometer: HR+D1059
Trigger mode: 1
Integration Time (sec): 1.000000E-1
Scans to average: 1
Electric dark correction enabled: true
Nonlinearity correction enabled: false
Boxcar width: 0
XAxis mode: Wavelengths
Number of Pixels in Spectrum: 2048
>>>>>Begin Spectral Data<<<<<
223.165	-9.62
223.4	-9.62
223.635	-9.62
223.869	-15.62
224.104	-1.62
224.338	-14.62
224.573	-12.62
224.808	-1.62
225.042	-13.62
225.277	-19.62
225.511	-8.62
225.746	5.38
225.98	4.38
226.215	10.38
226.449	14.38
226.683	26.38
226.918	18.38
227.152	18.38
227.387	38.38
227.621	33.38
227.856	35.38
228.09	34.38
228.324	63.38
228.559	58.38
228.793	54.38
229.027	86.38
229.262	122.38
229.496	123.38
229.73	122.38
229.964	162.38
230.199	125.38
230.433	128.38
230.667	101.38
230.901	122.38
231.136	119.38
231.37	126.38
231.604	114.38
231.838	120.38
232.072	109.38
232.306	118.38
232.541	115.38
232.775	115.38
233.009	104.38
233.243	113.38
233.477	107.38
233.711	125.38
233.945	116.38
234.179	120.38
234.413	126.38
234.647	118.38
234.881	109.38
235.115	112.38
235.349	113.38
235.583	121.38
235.817	130.38
236.051	138.38
236.285	124.38
236.519	125.38
236.753	143.38
236.987	133.38
237.221	200.38
237.455	223.38
237.689	198.38
237.922	159.38
238.156	122.38
238.39	118.38
238.624	131.38
238.858	142.38
239.091	123.38
239.325	124.38
239.559	129.38
239.793	124.38
240.027	150.38
240.26	153.38
240.494	148.38
240.728	156.38
240.961	148.38
241.195	126.38
241.429	136.38
241.662	147.38
241.896	130.38
242.13	146.38
242.363	143.38
242.597	134.38
242.83	138.38
243.064	138.38
243.298	130.38
243.531	159.38
243.765	130.38
243.998	132.38
244.232	137.38
244.465	146.38
244.699	164.38
244.932	156.38
245.166	137.38
245.399	156.38
245.633	151.38
245.866	136.38
246.099	168.38
246.333	158.38
246.566	155.38
246.8	156.38
247.033	152.38
247.266	155.38
247.5	186.38
247.733	172.38
247.966	185.38
248.2	183.38
248.433	185.38
248.666	186.38
248.899	199.38
249.133	209.38
249.366	236.38
249.599	205.38
249.832	203.38
250.066	196.38
250.299	192.38
250.532	207.38
250.765	219.38
250.998	229.38
251.231	252.38
251.465	232.38
251.698	203.38
251.931	221.38
252.164	230.38
252.397	220.38
252.63	215.38
252.863	208.38
253.096	217.38
253.329	227.38
253.562	255.38
253.795	233.38
254.028	240.38
254.261	241.38
254.494	251.38
254.727	263.38
254.96	309.38
255.193	294.38
255.426	272.38
255.659	240.38
255.892	252.38
256.124	262.38
256.357	266.38
256.59	235.38
256.823	254.38
257.056	251.38
257.289	239.38
257.521	225.38
257.754	240.38
257.987	258.38
258.22	234.38
258.452	219.38
258.685	212.38
258.918	227.38
259.151	223.38
259.383	250.38
259.616	229.38
259.849	228.38
260.081	260.38
260.314	274.38
260.547	282.38
260.779	266.38
261.012	262.38
261.244	258.38
261.477	231.38
261.71	222.38
261.942	252.38
262.175	254.38
262.407	250.38
262.64	221.38
262.872	222.38
263.105	231.38
263.337	215.38
263.57	221.38
263.802	241.38
264.035	236.38
264.267	228.38
264.499	225.38
264.732	221.38
264.964	230.38
265.197	229.38
265.429	224.38
265.661	229.38
265.894	243.38
266.126	239.38
266.358	242.38
266.591	227.38
266.823	235.38
267.055	230.38
267.287	228.38
267.52	243.38
267.752	242.38
267.984	267.38
268.216	231.38
268.448	241.38
268.681	235.38
268.913	251.38
269.145	280.38
269.377	305.38
269.609	286.38
269.841	291.38
270.073	310.38
270.306	312.38
270.538	332.38
270.77	360.38
271.002	313.38
271.234	319.38
271.466	325.38
271.698	344.38
271.93	366.38
272.162	356.38
272.394	357.38
272.626	322.38
272.858	329.38
273.09	291.38
273.322	297.38
273.553	297.38
273.785	279.38
274.017	270.38
274.249	279.38
274.481	276.38
274.713	298.38
274.945	297.38
275.176	307.38
275.408	292.38
275.64	292.38
275.872	280.38
276.104	267.38
276.335	304.38
276.567	287.38
276.799	306.38
277.031	315.38
277.262	360.38
277.494	356.38
277.726	339.38
277.957	317.38
278.189	296.38
278.421	296.38
278.652	298.38
278.884	276.38
279.115	296.38
279.347	299.38
279.579	308.38
279.81	286.38
280.042	284.38
280.273	273.38
280.505	268.38
280.736	292.38
280.968	294.38
281.199	304.38
281.431	278.38
281.662	298.38
281.894	291.38
282.125	289.38
282.356	302.38
282.588	325.38
282.819	319.38
283.051	311.38
283.282	305.38
283.513	296.38
283.745	294.38
283.976	303.38
284.207	315.38
284.439	316.38
284.67	282.38
284.901	295.38
285.132	275.38
285.364	309.38
285.595	303.38
285.826	292.38
286.057	317.38
286.288	290.38
286.52	315.38
286.751	308.38
286.982	297.38
287.213	276.38
287.444	293.38
287.675	296.38
287.906	308.38
288.138	316.38
288.369	311.38
288.6	330.38
288.831	309.38
289.062	313.38
289.293	302.38
289.524	306.38
289.755	296.38
289.986	324.38
290.217	322.38
290.448	302.38
290.679	311.38
290.91	299.38
291.141	315.38
291.371	323.38
291.602	281.38
291.833	281.38
292.064	283.38
292.295	308.38
292.526	304.38
292.757	302.38
292.987	308.38
293.218	318.38
293.449	292.38
293.68	303.38
293.91	286.38
294.141	288.38
294.372	297.38
294.603	297.38
294.833	295.38
295.064	313.38
295.295	312.38
295.525	323.38
295.756	312.38
295.987	333.38
296.217	343.38
296.448	360.38
296.679	309.38
296.909	316.38
297.14	300.38
297.37	324.38
297.601	317.38
297.831	317.38
298.062	314.38
298.292	315.38
298.523	327.38
298.753	311.38
298.984	322.38
299.214	322.38
299.445	324.38
299.675	336.38
299.905	311.38
300.136	329.38
300.366	326.38
300.597	312.38
300.827	337.38
301.057	338.38
301.288	358.38
301.518	329.38
301.748	336.38
301.979	324.38
302.209	340.38
302.439	335.38
302.669	332.38
302.9	362.38
303.13	331.38
303.36	332.38
303.59	357.38
303.82	369.38
304.051	350.38
304.281	359.38
304.511	345.38
304.741	337.38
304.971	338.38
305.201	351.38
305.431	340.38
305.661	332.38
305.891	354.38
306.121	345.38
306.352	351.38
306.582	361.38
306.812	341.38
307.042	348.38
307.272	350.38
307.502	361.38
307.731	364.38
307.961	369.38
308.191	346.38
308.421	356.38
308.651	379.38
308.881	378.38
309.111	364.38
309.341	363.38
309.571	383.38
309.8	382.38
310.03	386.38
310.26	394.38
310.49	412.38
310.72	420.38
310.949	425.38
311.179	431.38
311.409	410.38
311.639	408.38
311.868	392.38
312.098	396.38
312.328	385.38
312.557	427.38
312.787	432.38
313.017	436.38
313.246	411.38
313.476	407.38
313.706	419.38
313.935	422.38
314.165	430.38
314.394	435.38
314.624	446.38
314.853	425.38
315.083	406.38
315.312	392.38
315.542	394.38
315.771	395.38
316.001	405.38
316.23	403.38
316.46	384.38
316.689	405.38
316.919	418.38
317.148	411.38
317.377	411.38
317.607	412.38
317.836	410.38
318.065	397.38
318.295	401.38
318.524	392.38
318.753	386.38
318.983	426.38
319.212	399.38
319.441	418.38
319.67	424.38
319.9	408.38
320.129	401.38
320.358	418.38
320.587	401.38
320.816	412.38
321.046	414.38
321.275	426.38
321.504	443.38
321.733	439.38
321.962	447.38
322.191	470.38
322.42	466.38
322.649	512.38
322.878	494.38
323.108	510.38
323.337	532.38
323.566	541.38
323.795	594.38
324.024	655.38
324.253	758.38
324.482	1117.38
324.71	1744.38
324.939	2516.38
325.168	2185.38
325.397	1145.38
325.626	737.38
325.855	617.38
326.084	563.38
326.313	550.38
326.542	576.38
326.77	614.38
326.999	700.38
327.228	1003.38
327.457	1566.38
327.686	1916.38
327.914	1236.38
328.143	809.38
328.372	704.38
328.6	634.38
328.829	644.38
329.058	647.38
329.287	643.38
329.515	608.38
329.744	574.38
329.972	563.38
330.201	572.38
330.43	629.38
330.658	631.38
330.887	653.38
331.115	665.38
331.344	562.38
331.572	512.38
331.801	536.38
332.03	541.38
332.258	506.38
332.486	462.38
332.715	491.38
332.943	480.38
333.172	455.38
333.4	473.38
333.629	482.38
333.857	520.38
334.085	502.38
334.314	538.38
334.542	558.38
334.771	588.38
334.999	539.38
335.227	499.38
335.455	491.38
335.684	479.38
335.912	474.38
336.14	464.38
336.369	459.38
336.597	467.38
336.825	465.38
337.053	452.38
337.281	476.38
337.51	447.38
337.738	444.38
337.966	458.38
338.194	455.38
338.422	441.38
338.65	442.38
338.878	450.38
339.106	452.38
339.334	442.38
339.562	435.38
339.79	434.38
340.018	455.38
340.246	428.38
340.474	432.38
340.702	437.38
340.93	455.38
341.158	431.38
341.386	459.38
341.614	432.38
341.842	436.38
342.07	425.38
342.298	451.38
342.526	437.38
342.754	442.38
342.981	438.38
343.209	428.38
343.437	437.38
343.665	448.38
343.893	444.38
344.12	442.38
344.348	435.38
344.576	438.38
344.804	453.38
345.031	456.38
345.259	463.38
345.487	463.38
345.714	436.38
345.942	428.38
346.17	446.38
346.397	439.38
346.625	452.38
346.853	438.38
347.08	398.38
347.308	444.38
347.535	443.38
347.763	445.38
347.99	442.38
348.218	443.38
348.445	456.38
348.673	427.38
348.9	423.38
349.128	413.38
349.355	419.38
349.583	411.38
349.81	401.38
350.037	414.38
350.265	418.38
350.492	400.38
350.72	414.38
350.947	407.38
351.174	414.38
351.402	442.38
351.629	418.38
351.856	422.38
352.083	438.38
352.311	464.38
352.538	444.38
352.765	453.38
352.992	436.38
353.22	422.38
353.447	400.38
353.674	415.38
353.901	408.38
354.128	406.38
354.355	405.38
354.583	404.38
354.81	392.38
355.037	388.38
355.264	390.38
355.491	375.38
355.718	386.38
355.945	394.38
356.172	372.38
356.399	394.38
356.626	391.38
356.853	386.38
357.08	370.38
357.307	387.38
357.534	394.38
357.761	388.38
357.988	395.38
358.215	401.38
358.441	398.38
358.668	413.38
358.895	400.38
359.122	406.38
359.349	409.38
359.576	422.38
359.802	436.38
360.029	468.38
360.256	489.38
360.483	468.38
360.709	409.38
360.936	442.38
361.163	430.38
361.39	428.38
361.616	424.38
361.843	407.38
362.07	420.38
362.296	440.38
362.523	425.38
362.749	415.38
362.976	403.38
363.203	403.38
363.429	409.38
363.656	385.38
363.882	404.38
364.109	414.38
364.335	409.38
364.562	412.38
364.788	403.38
365.015	405.38
365.241	385.38
365.468	405.38
365.694	386.38
365.92	410.38
366.147	412.38
366.373	390.38
366.599	378.38
366.826	397.38
367.052	385.38
367.278	386.38
367.505	391.38
367.731	402.38
367.957	394.38
368.184	397.38
368.41	393.38
368.636	386.38
368.862	411.38
369.089	403.38
369.315	386.38
369.541	400.38
369.767	397.38
369.993	388.38
370.219	386.38
370.445	409.38
370.672	383.38
370.898	378.38
371.124	393.38
371.35	378.38
371.576	381.38
371.802	370.38
372.028	394.38
372.254	408.38
372.48	389.38
372.706	387.38
372.932	371.38
373.158	384.38
373.384	378.38
373.61	371.38
373.835	393.38
374.061	373.38
374.287	379.38
374.513	371.38
374.739	376.38
374.965	394.38
375.191	378.38
375.416	403.38
375.642	382.38
375.868	414.38
376.094	404.38
376.319	376.38
376.545	381.38
376.771	370.38
376.997	373.38
377.222	395.38
377.448	390.38
377.674	386.38
377.899	374.38
378.125	383.38
378.35	374.38
378.576	382.38
378.802	370.38
379.027	384.38
379.253	384.38
379.478	363.38
379.704	384.38
379.929	376.38
380.155	380.38
380.38	388.38
380.606	390.38
380.831	388.38
381.057	381.38
381.282	382.38
381.507	380.38
381.733	363.38
381.958	380.38
382.184	390.38
382.409	386.38
382.634	403.38
382.86	411.38
383.085	395.38
383.31	411.38
383.535	376.38
383.761	394.38
383.986	394.38
384.211	401.38
384.436	387.38
384.662	390.38
384.887	398.38
385.112	408.38
385.337	387.38
385.562	389.38
385.787	408.38
386.013	416.38
386.238	427.38
386.463	402.38
386.688	425.38
386.913	396.38
387.138	382.38
387.363	398.38
387.588	402.38
387.813	416.38
388.038	391.38
388.263	391.38
388.488	407.38
388.713	414.38
388.938	406.38
389.163	406.38
389.387	415.38
389.612	398.38
389.837	397.38
390.062	398.38
390.287	409.38
390.512	415.38
390.736	418.38
390.961	393.38
391.186	391.38
391.411	383.38
391.636	409.38
391.86	406.38
392.085	419.38
392.31	426.38
392.534	414.38
392.759	405.38
392.984	425.38
393.208	404.38
393.433	404.38
393.658	391.38
393.882	392.38
394.107	394.38
394.331	414.38
394.556	418.38
394.78	413.38
395.005	438.38
395.229	413.38
395.454	408.38
395.678	399.38
395.903	412.38
396.127	441.38
396.352	443.38
396.576	428.38
396.801	419.38
397.025	424.38
397.249	421.38
397.474	443.38
397.698	402.38
397.922	463.38
398.147	442.38
398.371	440.38
398.595	438.38
398.82	442.38
399.044	449.38
399.268	465.38
399.492	485.38
399.717	497.38
399.941	517.38
400.165	576.38
400.389	548.38
400.613	530.38
400.837	481.38
401.062	464.38
401.286	463.38
401.51	456.38
401.734	441.38
401.958	443.38
402.182	464.38
402.406	474.38
402.63	470.38
402.854	444.38
403.078	458.38
403.302	463.38
403.526	477.38
403.75	471.38
403.974	482.38
404.198	479.38
404.422	463.38
404.645	490.38
404.869	512.38
405.093	508.38
405.317	545.38
405.541	590.38
405.765	546.38
405.988	520.38
406.212	508.38
406.436	532.38
406.66	530.38
406.883	532.38
407.107	555.38
407.331	580.38
407.555	646.38
407.778	634.38
408.002	552.38
408.226	525.38
408.449	514.38
408.673	504.38
408.896	536.38
409.12	588.38
409.344	556.38
409.567	506.38
409.791	477.38
410.014	494.38
410.238	459.38
410.461	488.38
410.685	466.38
410.908	471.38
411.132	524.38
411.355	584.38
411.578	554.38
411.802	463.38
412.025	483.38
412.249	489.38
412.472	500.38
412.695	554.38
412.919	542.38
413.142	476.38
413.365	466.38
413.589	470.38
413.812	439.38
414.035	465.38
414.258	446.38
414.482	458.38
414.705	434.38
414.928	453.38
415.151	443.38
415.374	449.38
415.597	434.38
415.821	448.38
416.044	441.38
416.267	438.38
416.49	443.38
416.713	449.38
416.936	440.38
417.159	434.38
417.382	447.38
417.605	465.38
417.828	474.38
418.051	462.38
418.274	456.38
418.497	440.38
418.72	438.38
418.943	432.38
419.166	465.38
419.389	488.38
419.611	454.38
419.834	463.38
420.057	458.38
420.28	474.38
420.503	480.38
420.726	468.38
420.948	486.38
421.171	518.38
421.394	557.38
421.617	499.38
421.839	452.38
422.062	469.38
422.285	500.38
422.507	547.38
422.73	635.38
422.953	617.38
423.175	530.38
423.398	500.38
423.621	530.38
423.843	509.38
424.066	511.38
424.288	500.38
424.511	511.38
424.733	568.38
424.956	663.38
425.178	660.38
425.401	634.38
425.623	636.38
425.846	586.38
426.068	530.38
426.291	516.38
426.513	525.38
426.735	515.38
426.958	563.38
427.18	652.38
427.402	780.38
427.625	844.38
427.847	762.38
428.069	660.38
428.292	583.38
428.514	518.38
428.736	507.38
428.958	506.38
429.181	476.38
429.403	458.38
429.625	495.38
429.847	521.38
430.069	577.38
430.292	601.38
430.514	495.38
430.736	465.38
430.958	471.38
431.18	464.38
431.402	439.38
431.624	443.38
431.846	422.38
432.068	439.38
432.29	433.38
432.512	471.38
432.734	472.38
432.956	444.38
433.178	462.38
433.4	450.38
433.622	457.38
433.844	446.38
434.066	443.38
434.287	423.38
434.509	434.38
434.731	463.38
434.953	452.38
435.175	490.38
435.397	509.38
435.618	519.38
435.84	563.38
436.062	664.38
436.284	722.38
436.505	598.38
436.727	531.38
436.949	494.38
437.17	472.38
437.392	465.38
437.614	474.38
437.835	508.38
438.057	612.38
438.278	719.38
438.5	725.38
438.721	794.38
438.943	732.38
439.165	587.38
439.386	551.38
439.608	547.38
439.829	532.38
440.05	547.38
440.272	607.38
440.493	579.38
440.715	503.38
440.936	516.38
441.158	482.38
441.379	483.38
441.6	506.38
441.822	512.38
442.043	555.38
442.264	631.38
442.486	671.38
442.707	566.38
442.928	520.38
443.149	527.38
443.371	567.38
443.592	612.38
443.813	683.38
444.034	747.38
444.255	626.38
444.476	542.38
444.698	522.38
444.919	508.38
445.14	618.38
445.361	562.38
445.582	554.38
445.803	625.38
446.024	733.38
446.245	764.38
446.466	674.38
446.687	548.38
446.908	530.38
447.129	516.38
447.35	476.38
447.571	489.38
447.792	473.38
448.013	467.38
448.234	519.38
448.455	562.38
448.675	672.38
448.896	780.38
449.117	641.38
449.338	607.38
449.559	722.38
449.779	836.38
450	635.38
450.221	545.38
450.442	500.38
450.662	479.38
450.883	494.38
451.104	501.38
451.324	488.38
451.545	468.38
451.766	440.38
451.986	422.38
452.207	428.38
452.428	410.38
452.648	419.38
452.869	426.38
453.089	442.38
453.31	441.38
453.53	450.38
453.751	428.38
453.971	419.38
454.192	453.38
454.412	440.38
454.633	411.38
454.853	418.38
455.073	407.38
455.294	450.38
455.514	534.38
455.734	502.38
455.955	444.38
456.175	425.38
456.395	419.38
456.616	392.38
456.836	388.38
457.056	379.38
457.276	403.38
457.497	407.38
457.717	402.38
457.937	419.38
458.157	416.38
458.377	433.38
458.598	432.38
458.818	498.38
459.038	560.38
459.258	585.38
459.478	496.38
459.698	443.38
459.918	444.38
460.138	439.38
460.358	446.38
460.578	442.38
460.798	440.38
461.018	451.38
461.238	445.38
461.458	441.38
461.678	440.38
461.898	419.38
462.118	438.38
462.338	442.38
462.558	448.38
462.777	475.38
462.997	465.38
463.217	451.38
463.437	455.38
463.657	463.38
463.876	470.38
464.096	447.38
464.316	463.38
464.536	462.38
464.755	474.38
464.975	460.38
465.195	514.38
465.414	608.38
465.634	541.38
465.854	475.38
466.073	454.38
466.293	430.38
466.512	430.38
466.732	435.38
466.951	452.38
467.171	435.38
467.391	443.38
467.61	466.38
467.829	433.38
468.049	426.38
468.268	456.38
468.488	416.38
468.707	442.38
468.927	408.38
469.146	391.38
469.365	401.38
469.585	416.38
469.804	442.38
470.023	432.38
470.243	446.38
470.462	439.38
470.681	451.38
470.901	459.38
471.12	445.38
471.339	424.38
471.558	424.38
471.777	424.38
471.997	445.38
472.216	438.38
472.435	494.38
472.654	480.38
472.873	452.38
473.092	429.38
473.311	434.38
473.53	443.38
473.749	446.38
473.968	510.38
474.187	596.38
474.406	616.38
474.625	504.38
474.844	468.38
475.063	445.38
475.282	444.38
475.501	448.38
475.72	457.38
475.939	450.38
476.158	453.38
476.377	459.38
476.596	456.38
476.814	457.38
477.033	467.38
477.252	466.38
477.471	445.38
477.69	455.38
477.908	441.38
478.127	485.38
478.346	467.38
478.564	468.38
478.783	476.38
479.002	504.38
479.22	488.38
479.439	522.38
479.658	528.38
479.876	541.38
480.095	518.38
480.313	558.38
480.532	541.38
480.751	527.38
480.969	559.38
481.188	603.38
481.406	644.38
481.624	574.38
481.843	528.38
482.061	547.38
482.28	524.38
482.498	508.38
482.717	494.38
482.935	502.38
483.153	503.38
483.372	495.38
483.59	493.38
483.808	498.38
484.027	506.38
484.245	522.38
484.463	524.38
484.681	526.38
484.9	524.38
485.118	507.38
485.336	544.38
485.554	541.38
485.772	513.38
485.99	524.38
486.209	525.38
486.427	533.38
486.645	548.38
486.863	558.38
487.081	581.38
487.299	553.38
487.517	549.38
487.735	570.38
487.953	545.38
488.171	571.38
488.389	555.38
488.607	580.38
488.825	536.38
489.043	567.38
489.261	547.38
489.479	551.38
489.696	550.38
489.914	557.38
490.132	568.38
490.35	563.38
490.568	586.38
490.786	584.38
491.003	597.38
491.221	608.38
491.439	601.38
491.657	616.38
491.874	638.38
492.092	642.38
492.31	657.38
492.527	663.38
492.745	658.38
492.963	631.38
493.18	662.38
493.398	660.38
493.615	635.38
493.833	674.38
494.05	682.38
494.268	659.38
494.485	633.38
494.703	634.38
494.92	644.38
495.138	649.38
495.355	671.38
495.573	662.38
495.79	670.38
496.008	660.38
496.225	649.38
496.442	631.38
496.66	656.38
496.877	649.38
497.094	666.38
497.312	663.38
497.529	664.38
497.746	671.38
497.963	678.38
498.181	690.38
498.398	704.38
498.615	718.38
498.832	753.38
499.049	739.38
499.267	747.38
499.484	773.38
499.701	752.38
499.918	794.38
500.135	816.38
500.352	830.38
500.569	864.38
500.786	825.38
501.003	851.38
501.22	836.38
501.437	802.38
501.654	811.38
501.871	831.38
502.088	763.38
502.305	750.38
502.522	734.38
502.739	715.38
502.956	689.38
503.172	687.38
503.389	653.38
503.606	692.38
503.823	694.38
504.04	665.38
504.256	647.38
504.473	650.38
504.69	660.38
504.907	676.38
505.123	660.38
505.34	620.38
505.557	640.38
505.773	643.38
505.99	633.38
506.207	642.38
506.423	638.38
506.64	622.38
506.856	628.38
507.073	604.38
507.289	627.38
507.506	624.38
507.722	626.38
507.939	624.38
508.155	623.38
508.372	606.38
508.588	582.38
508.805	590.38
509.021	609.38
509.238	636.38
509.454	631.38
509.67	628.38
509.887	629.38
510.103	603.38
510.319	612.38
510.536	704.38
510.752	1240.38
510.968	1010.38
511.184	659.38
511.401	626.38
511.617	601.38
511.833	574.38
512.049	574.38
512.265	584.38
512.481	569.38
512.698	568.38
512.914	574.38
513.13	568.38
513.346	557.38
513.562	583.38
513.778	577.38
513.994	579.38
514.21	600.38
514.426	643.38
514.642	676.38
514.858	675.38
515.074	733.38
515.29	918.38
515.506	1343.38
515.721	1118.38
515.937	732.38
516.153	629.38
516.369	617.38
516.585	607.38
516.801	594.38
517.016	582.38
517.232	564.38
517.448	587.38
517.664	589.38
517.879	575.38
518.095	606.38
518.311	587.38
518.527	582.38
518.742	564.38
518.958	575.38
519.173	554.38
519.389	553.38
519.605	578.38
519.82	554.38
520.036	587.38
520.251	631.38
520.467	658.38
520.682	649.38
520.898	650.38
521.113	682.38
521.329	730.38
521.544	810.38
521.76	1045.38
521.975	1794.38
522.19	1736.38
522.406	914.38
522.621	700.38
522.836	609.38
523.052	564.38
523.267	547.38
523.482	542.38
523.698	530.38
523.913	545.38
524.128	528.38
524.343	516.38
524.559	512.38
524.774	507.38
524.989	510.38
525.204	527.38
525.419	506.38
525.634	486.38
525.849	475.38
526.064	478.38
526.28	474.38
526.495	461.38
526.71	488.38
526.925	451.38
527.14	455.38
527.355	469.38
527.57	453.38
527.785	460.38
527.999	475.38
528.214	475.38
528.429	454.38
528.644	464.38
528.859	482.38
529.074	472.38
529.289	499.38
529.503	566.38
529.718	556.38
529.933	506.38
530.148	478.38
530.363	460.38
530.577	444.38
530.792	459.38
531.007	435.38
531.221	457.38
531.436	474.38
531.651	441.38
531.865	474.38
532.08	438.38
532.295	432.38
532.509	439.38
532.724	439.38
532.938	464.38
533.153	456.38
533.367	440.38
533.582	446.38
533.796	451.38
534.011	454.38
534.225	438.38
534.44	422.38
534.654	438.38
534.868	438.38
535.083	431.38
535.297	440.38
535.511	426.38
535.726	430.38
535.94	422.38
536.154	456.38
536.369	422.38
536.583	425.38
536.797	444.38
537.011	411.38
537.225	427.38
537.44	415.38
537.654	423.38
537.868	434.38
538.082	406.38
538.296	408.38
538.51	434.38
538.724	410.38
538.938	424.38
539.153	430.38
539.367	410.38
539.581	424.38
539.795	423.38
540.009	423.38
540.222	431.38
540.436	417.38
540.65	417.38
540.864	451.38
541.078	442.38
541.292	424.38
541.506	422.38
541.72	418.38
541.934	413.38
542.147	409.38
542.361	426.38
542.575	395.38
542.789	404.38
543.002	408.38
543.216	418.38
543.43	424.38
543.644	396.38
543.857	423.38
544.071	447.38
544.285	439.38
544.498	416.38
544.712	417.38
544.925	414.38
545.139	413.38
545.352	412.38
545.566	414.38
545.779	398.38
545.993	390.38
546.206	423.38
546.42	404.38
546.633	414.38
546.847	406.38
547.06	379.38
547.274	396.38
547.487	400.38
547.7	390.38
547.914	391.38
548.127	393.38
548.34	392.38
548.554	399.38
548.767	395.38
548.98	390.38
549.193	402.38
549.407	404.38
549.62	389.38
549.833	398.38
550.046	377.38
550.259	395.38
550.473	397.38
550.686	396.38
550.899	385.38
551.112	374.38
551.325	392.38
551.538	377.38
551.751	384.38
551.964	388.38
552.177	402.38
552.39	387.38
552.603	414.38
552.816	388.38
553.029	387.38
553.242	384.38
553.455	410.38
553.667	392.38
553.88	411.38
554.093	384.38
554.306	402.38
554.519	384.38
554.732	392.38
554.944	405.38
555.157	380.38
555.37	378.38
555.583	380.38
555.795	392.38
556.008	379.38
556.221	372.38
556.433	379.38
556.646	348.38
556.859	372.38
557.071	378.38
557.284	351.38
557.496	355.38
557.709	347.38
557.921	345.38
558.134	353.38
558.346	368.38
558.559	363.38
558.771	334.38
558.984	362.38
559.196	332.38
559.409	357.38
559.621	340.38
559.833	331.38
560.046	347.38
560.258	354.38
560.47	354.38
560.683	354.38
560.895	339.38
561.107	345.38
561.32	351.38
561.532	331.38
561.744	356.38
561.956	364.38
562.168	338.38
562.381	346.38
562.593	363.38
562.805	356.38
563.017	350.38
563.229	344.38
563.441	347.38
563.653	366.38
563.865	337.38
564.077	348.38
564.289	386.38
564.501	375.38
564.713	355.38
564.925	361.38
565.137	354.38
565.349	358.38
565.561	381.38
565.773	378.38
565.985	382.38
566.197	382.38
566.408	378.38
566.62	408.38
566.832	419.38
567.044	400.38
567.255	408.38
567.467	393.38
567.679	403.38
567.891	427.38
568.102	415.38
568.314	400.38
568.526	389.38
568.737	389.38
568.949	370.38
569.161	381.38
569.372	376.38
569.584	359.38
569.795	354.38
570.007	350.38
570.218	394.38
570.43	394.38
570.641	350.38
570.853	347.38
571.064	350.38
571.276	331.38
571.487	339.38
571.698	331.38
571.91	335.38
572.121	330.38
572.333	310.38
572.544	329.38
572.755	337.38
572.966	311.38
573.178	324.38
573.389	309.38
573.6	316.38
573.811	301.38
574.023	293.38
574.234	305.38
574.445	306.38
574.656	305.38
574.867	296.38
575.078	313.38
575.289	297.38
575.501	318.38
575.712	306.38
575.923	317.38
576.134	311.38
576.345	298.38
576.556	282.38
576.767	295.38
576.978	292.38
577.188	307.38
577.399	294.38
577.61	304.38
577.821	314.38
578.032	304.38
578.243	336.38
578.454	582.38
578.665	420.38
578.875	318.38
579.086	274.38
579.297	313.38
579.508	278.38
579.718	298.38
579.929	292.38
580.14	280.38
580.35	280.38
580.561	273.38
580.772	304.38
580.982	274.38
581.193	278.38
581.403	264.38
581.614	280.38
581.825	290.38
582.035	275.38
582.246	278.38
582.456	275.38
582.667	272.38
582.877	282.38
583.087	267.38
583.298	273.38
583.508	288.38
583.719	291.38
583.929	274.38
584.139	262.38
584.35	265.38
584.56	275.38
584.77	268.38
584.981	289.38
585.191	265.38
585.401	275.38
585.611	280.38
585.821	264.38
586.032	268.38
586.242	273.38
586.452	261.38
586.662	274.38
586.872	258.38
587.082	261.38
587.292	258.38
587.502	278.38
587.713	272.38
587.923	262.38
588.133	260.38
588.343	276.38
588.553	249.38
588.762	233.38
588.972	272.38
589.182	282.38
589.392	283.38
589.602	275.38
589.812	284.38
590.022	255.38
590.232	270.38
590.441	243.38
590.651	264.38
590.861	270.38
591.071	246.38
591.281	263.38
591.49	248.38
591.7	273.38
591.91	268.38
592.119	282.38
592.329	261.38
592.539	278.38
592.748	273.38
592.958	257.38
593.167	266.38
593.377	277.38
593.587	261.38
593.796	299.38
594.006	279.38
594.215	268.38
594.424	263.38
594.634	258.38
594.843	272.38
595.053	274.38
595.262	246.38
595.472	265.38
595.681	250.38
595.89	250.38
596.1	248.38
596.309	254.38
596.518	252.38
596.727	278.38
596.937	243.38
597.146	241.38
597.355	239.38
597.564	246.38
597.774	238.38
597.983	236.38
598.192	235.38
598.401	254.38
598.61	274.38
598.819	242.38
599.028	220.38
599.237	231.38
599.446	225.38
599.655	238.38
599.864	227.38
600.073	243.38
600.282	244.38
600.491	233.38
600.7	241.38
600.909	245.38
601.118	222.38
601.327	247.38
601.536	232.38
601.745	236.38
601.953	234.38
602.162	263.38
602.371	256.38
602.58	239.38
602.789	241.38
602.997	231.38
603.206	220.38
603.415	238.38
603.623	238.38
603.832	243.38
604.041	231.38
604.249	221.38
604.458	235.38
604.666	231.38
604.875	220.38
605.084	233.38
605.292	221.38
605.501	221.38
605.709	222.38
605.918	209.38
606.126	234.38
606.334	231.38
606.543	223.38
606.751	231.38
606.96	224.38
607.168	235.38
607.376	206.38
607.585	244.38
607.793	236.38
608.001	219.38
608.21	236.38
608.418	244.38
608.626	224.38
608.834	225.38
609.043	205.38
609.251	203.38
609.459	217.38
609.667	219.38
609.875	228.38
610.083	232.38
610.291	209.38
610.499	208.38
610.707	226.38
610.916	222.38
611.124	219.38
611.332	221.38
611.54	222.38
611.748	209.38
611.955	233.38
612.163	222.38
612.371	226.38
612.579	220.38
612.787	221.38
612.995	221.38
613.203	212.38
613.411	215.38
613.618	223.38
613.826	218.38
614.034	231.38
614.242	220.38
614.449	199.38
614.657	225.38
614.865	214.38
615.072	231.38
615.28	210.38
615.488	201.38
615.695	221.38
615.903	198.38
616.111	213.38
616.318	216.38
616.526	207.38
616.733	220.38
616.941	212.38
617.148	211.38
617.356	209.38
617.563	216.38
617.771	195.38
617.978	193.38
618.185	195.38
618.393	211.38
618.6	197.38
618.807	193.38
619.015	203.38
619.222	196.38
619.429	194.38
619.637	202.38
619.844	207.38
620.051	196.38
620.258	208.38
620.466	223.38
620.673	195.38
620.88	197.38
621.087	193.38
621.294	200.38
621.501	217.38
621.708	194.38
621.915	204.38
622.122	209.38
622.329	215.38
622.536	215.38
622.743	217.38
622.95	193.38
623.157	191.38
623.364	205.38
623.571	195.38
623.778	184.38
623.985	193.38
624.192	190.38
624.399	195.38
624.606	196.38
624.812	180.38
625.019	184.38
625.226	192.38
625.433	196.38
625.639	191.38
625.846	176.38
626.053	188.38
626.259	197.38
626.466	198.38
626.673	186.38
626.879	181.38
627.086	213.38
627.293	196.38
627.499	193.38
627.706	182.38
627.912	195.38
628.119	186.38
628.325	192.38
628.532	178.38
628.738	190.38
628.945	181.38
629.151	178.38
629.357	177.38
629.564	177.38
629.77	184.38
629.976	195.38
630.183	162.38
630.389	167.38
630.595	177.38
630.802	182.38
631.008	183.38
631.214	179.38
631.42	180.38
631.627	186.38
631.833	171.38
632.039	175.38
632.245	167.38
632.451	182.38
632.657	178.38
632.863	161.38
633.069	171.38
633.275	176.38
633.481	163.38
633.688	162.38
633.893	170.38
634.099	161.38
634.305	160.38
634.511	162.38
634.717	178.38
634.923	161.38
635.129	146.38
635.335	163.38
635.541	167.38
635.747	180.38
635.952	150.38
636.158	155.38
636.364	172.38
636.57	163.38
636.775	175.38
636.981	174.38
637.187	156.38
637.392	178.38
637.598	162.38
637.804	179.38
638.009	158.38
638.215	174.38
638.421	166.38
638.626	148.38
638.832	166.38
639.037	163.38
639.243	165.38
639.448	177.38
639.654	179.38
639.859	159.38
640.065	157.38
640.27	169.38
640.475	167.38
640.681	153.38
640.886	160.38
641.091	156.38
641.297	171.38
641.502	152.38
641.707	165.38
641.913	148.38
642.118	158.38
642.323	160.38
642.528	158.38
642.733	153.38
642.939	154.38
643.144	147.38
643.349	144.38
643.554	154.38
643.759	146.38
643.964	151.38
644.169	159.38
644.374	163.38
644.579	168.38
644.784	165.38
644.989	136.38
645.194	154.38
645.399	158.38
645.604	148.38
645.809	174.38
646.014	150.38
646.219	161.38
646.423	147.38
646.628	152.38
646.833	152.38
647.038	158.38
647.243	155.38
647.447	155.38
647.652	159.38
647.857	158.38
648.062	156.38
648.266	137.38
648.471	153.38
648.676	162.38
648.88	156.38
649.085	175.38
649.289	172.38
649.494	155.38
649.698	180.38
649.903	164.38
650.107	163.38
650.312	166.38
650.516	133.38
650.721	149.38
650.925	135.38
651.13	151.38
651.334	149.38
651.539	160.38
651.743	143.38
651.947	133.38
652.152	139.38
652.356	132.38
652.56	135.38
652.764	129.38
652.969	128.38
653.173	138.38
653.377	130.38
653.581	136.38
653.785	128.38
653.99	127.38
654.194	124.38
654.398	130.38
654.602	130.38
654.806	118.38
655.01	139.38
655.214	145.38
655.418	138.38
655.622	154.38
655.826	129.38
656.03	128.38
656.234	106.38
656.438	134.38
656.642	116.38
656.846	129.38
657.049	126.38
657.253	111.38
657.457	110.38
657.661	127.38
657.865	110.38
658.068	103.38
658.272	95.38
658.476	114.38
658.68	101.38
658.883	104.38
659.087	107.38
659.291	107.38
659.494	83.38
659.698	97.38
659.901	88.38
660.105	103.38
660.309	97.38
660.512	107.38
660.716	108.38
660.919	92.38
661.123	91.38
661.326	94.38
661.53	89.38
661.733	95.38
661.936	98.38
662.14	90.38
662.343	91.38
662.546	80.38
662.75	76.38
662.953	88.38
663.156	82.38
663.36	80.38
663.563	90.38
663.766	77.38
663.969	85.38
664.173	82.38
664.376	83.38
664.579	76.38
664.782	80.38
664.985	78.38
665.188	76.38
665.391	70.38
665.594	80.38
665.797	85.38
666	100.38
666.203	66.38
666.406	76.38
666.609	89.38
666.812	92.38
667.015	75.38
667.218	91.38
667.421	73.38
667.624	86.38
667.827	83.38
668.03	83.38
668.232	74.38
668.435	78.38
668.638	80.38
668.841	77.38
669.043	95.38
669.246	82.38
669.449	75.38
669.651	90.38
669.854	87.38
670.057	82.38
670.259	63.38
670.462	65.38
670.665	72.38
670.867	77.38
671.07	82.38
671.272	69.38
671.475	89.38
671.677	79.38
671.88	81.38
672.082	76.38
672.284	61.38
672.487	83.38
672.689	78.38
672.892	89.38
