Data from 1989.PennyLincolnUp.Lamp.En5.5.200Scan.071819.P2_HRD10591_17-25-56-974.txt Node
Date: Thu Jul 18 17:25:56 EDT 2019
User: cochatt
Spectrometer: HR+D1059
Trigger mode: 1
Integration Time (sec): 1.000000E-1
Scans to average: 1
Electric dark correction enabled: true
Nonlinearity correction enabled: false
Boxcar width: 0
XAxis mode: Wavelengths
Number of Pixels in Spectrum: 2048
>>>>>Begin Spectral Data<<<<<
223.165	-4.44
223.4	-4.44
223.635	-4.44
223.869	-8.44
224.104	-20.44
224.338	-14.44
224.573	-8.44
224.808	-8.44
225.042	-12.44
225.277	-3.44
225.511	-10.44
225.746	-8.44
225.98	-0.44
226.215	6.56
226.449	16.56
226.683	27.56
226.918	23.56
227.152	25.56
227.387	46.56
227.621	28.56
227.856	43.56
228.09	48.56
228.324	49.56
228.559	51.56
228.793	70.56
229.027	91.56
229.262	96.56
229.496	121.56
229.73	135.56
229.964	162.56
230.199	130.56
230.433	117.56
230.667	128.56
230.901	118.56
231.136	121.56
231.37	119.56
231.604	118.56
231.838	123.56
232.072	123.56
232.306	119.56
232.541	118.56
232.775	123.56
233.009	117.56
233.243	113.56
233.477	122.56
233.711	109.56
233.945	118.56
234.179	115.56
234.413	125.56
234.647	120.56
234.881	126.56
235.115	136.56
235.349	125.56
235.583	127.56
235.817	127.56
236.051	128.56
236.285	126.56
236.519	129.56
236.753	142.56
236.987	147.56
237.221	200.56
237.455	249.56
237.689	197.56
237.922	137.56
238.156	142.56
238.39	142.56
238.624	141.56
238.858	139.56
239.091	132.56
239.325	142.56
239.559	137.56
239.793	137.56
240.027	140.56
240.26	164.56
240.494	156.56
240.728	171.56
240.961	155.56
241.195	146.56
241.429	155.56
241.662	132.56
241.896	133.56
242.13	155.56
242.363	149.56
242.597	134.56
242.83	149.56
243.064	135.56
243.298	148.56
243.531	151.56
243.765	149.56
243.998	153.56
244.232	155.56
244.465	148.56
244.699	156.56
244.932	149.56
245.166	147.56
245.399	157.56
245.633	150.56
245.866	162.56
246.099	172.56
246.333	151.56
246.566	167.56
246.8	172.56
247.033	166.56
247.266	170.56
247.5	182.56
247.733	177.56
247.966	177.56
248.2	187.56
248.433	172.56
248.666	197.56
248.899	201.56
249.133	214.56
249.366	247.56
249.599	225.56
249.832	195.56
250.066	203.56
250.299	198.56
250.532	212.56
250.765	231.56
250.998	269.56
251.231	248.56
251.465	241.56
251.698	239.56
251.931	217.56
252.164	224.56
252.397	204.56
252.63	223.56
252.863	226.56
253.096	228.56
253.329	253.56
253.562	257.56
253.795	260.56
254.028	243.56
254.261	259.56
254.494	270.56
254.727	282.56
254.96	311.56
255.193	317.56
255.426	287.56
255.659	271.56
255.892	288.56
256.124	290.56
256.357	299.56
256.59	277.56
256.823	256.56
257.056	217.56
257.289	237.56
257.521	237.56
257.754	243.56
257.987	223.56
258.22	232.56
258.452	230.56
258.685	228.56
258.918	238.56
259.151	228.56
259.383	240.56
259.616	238.56
259.849	264.56
260.081	252.56
260.314	287.56
260.547	298.56
260.779	272.56
261.012	256.56
261.244	267.56
261.477	260.56
261.71	261.56
261.942	258.56
262.175	275.56
262.407	249.56
262.64	245.56
262.872	241.56
263.105	242.56
263.337	237.56
263.57	230.56
263.802	233.56
264.035	229.56
264.267	228.56
264.499	223.56
264.732	248.56
264.964	247.56
265.197	231.56
265.429	225.56
265.661	245.56
265.894	242.56
266.126	246.56
266.358	237.56
266.591	246.56
266.823	259.56
267.055	266.56
267.287	261.56
267.52	239.56
267.752	247.56
267.984	256.56
268.216	245.56
268.448	261.56
268.681	272.56
268.913	278.56
269.145	276.56
269.377	312.56
269.609	299.56
269.841	284.56
270.073	287.56
270.306	313.56
270.538	332.56
270.77	359.56
271.002	344.56
271.234	339.56
271.466	340.56
271.698	342.56
271.93	362.56
272.162	384.56
272.394	351.56
272.626	339.56
272.858	332.56
273.09	330.56
273.322	289.56
273.553	301.56
273.785	299.56
274.017	305.56
274.249	295.56
274.481	294.56
274.713	294.56
274.945	312.56
275.176	310.56
275.408	311.56
275.64	293.56
275.872	299.56
276.104	315.56
276.335	298.56
276.567	323.56
276.799	340.56
277.031	347.56
277.262	328.56
277.494	343.56
277.726	339.56
277.957	333.56
278.189	309.56
278.421	331.56
278.652	319.56
278.884	315.56
279.115	311.56
279.347	306.56
279.579	322.56
279.81	306.56
280.042	281.56
280.273	287.56
280.505	305.56
280.736	316.56
280.968	293.56
281.199	296.56
281.431	300.56
281.662	281.56
281.894	297.56
282.125	306.56
282.356	324.56
282.588	329.56
282.819	369.56
283.051	302.56
283.282	277.56
283.513	316.56
283.745	305.56
283.976	304.56
284.207	314.56
284.439	323.56
284.67	306.56
284.901	306.56
285.132	300.56
285.364	300.56
285.595	301.56
285.826	309.56
286.057	307.56
286.288	324.56
286.52	319.56
286.751	321.56
286.982	315.56
287.213	315.56
287.444	318.56
287.675	311.56
287.906	323.56
288.138	341.56
288.369	317.56
288.6	341.56
288.831	317.56
289.062	335.56
289.293	333.56
289.524	322.56
289.755	316.56
289.986	306.56
290.217	289.56
290.448	307.56
290.679	328.56
290.91	316.56
291.141	306.56
291.371	334.56
291.602	319.56
291.833	316.56
292.064	327.56
292.295	338.56
292.526	333.56
292.757	306.56
292.987	315.56
293.218	313.56
293.449	325.56
293.68	320.56
293.91	323.56
294.141	335.56
294.372	303.56
294.603	317.56
294.833	334.56
295.064	326.56
295.295	323.56
295.525	339.56
295.756	334.56
295.987	307.56
296.217	351.56
296.448	381.56
296.679	339.56
296.909	331.56
297.14	337.56
297.37	337.56
297.601	330.56
297.831	340.56
298.062	333.56
298.292	327.56
298.523	343.56
298.753	345.56
298.984	324.56
299.214	333.56
299.445	347.56
299.675	337.56
299.905	353.56
300.136	348.56
300.366	339.56
300.597	343.56
300.827	333.56
301.057	345.56
301.288	358.56
301.518	354.56
301.748	338.56
301.979	363.56
302.209	354.56
302.439	341.56
302.669	355.56
302.9	360.56
303.13	349.56
303.36	348.56
303.59	359.56
303.82	350.56
304.051	383.56
304.281	381.56
304.511	355.56
304.741	347.56
304.971	352.56
305.201	356.56
305.431	347.56
305.661	353.56
305.891	370.56
306.121	357.56
306.352	365.56
306.582	378.56
306.812	373.56
307.042	359.56
307.272	373.56
307.502	381.56
307.731	376.56
307.961	364.56
308.191	403.56
308.421	369.56
308.651	383.56
308.881	373.56
309.111	361.56
309.341	370.56
309.571	383.56
309.8	385.56
310.03	407.56
310.26	419.56
310.49	418.56
310.72	428.56
310.949	435.56
311.179	454.56
311.409	429.56
311.639	421.56
311.868	409.56
312.098	433.56
312.328	413.56
312.557	434.56
312.787	462.56
313.017	423.56
313.246	410.56
313.476	414.56
313.706	395.56
313.935	424.56
314.165	460.56
314.394	427.56
314.624	441.56
314.853	424.56
315.083	414.56
315.312	443.56
315.542	395.56
315.771	406.56
316.001	397.56
316.23	405.56
316.46	392.56
316.689	404.56
316.919	414.56
317.148	435.56
317.377	413.56
317.607	430.56
317.836	427.56
318.065	418.56
318.295	426.56
318.524	433.56
318.753	399.56
318.983	405.56
319.212	423.56
319.441	420.56
319.67	437.56
319.9	421.56
320.129	425.56
320.358	411.56
320.587	434.56
320.816	424.56
321.046	446.56
321.275	445.56
321.504	458.56
321.733	449.56
321.962	456.56
322.191	463.56
322.42	487.56
322.649	511.56
322.878	525.56
323.108	541.56
323.337	554.56
323.566	583.56
323.795	618.56
324.024	693.56
324.253	825.56
324.482	1177.56
324.71	1861.56
324.939	2633.56
325.168	2252.56
325.397	1223.56
325.626	791.56
325.855	643.56
326.084	585.56
326.313	572.56
326.542	591.56
326.77	643.56
326.999	769.56
327.228	1076.56
327.457	1611.56
327.686	1947.56
327.914	1328.56
328.143	856.56
328.372	746.56
328.6	707.56
328.829	661.56
329.058	649.56
329.287	699.56
329.515	653.56
329.744	588.56
329.972	609.56
330.201	653.56
330.43	702.56
330.658	722.56
330.887	704.56
331.115	672.56
331.344	590.56
331.572	567.56
331.801	557.56
332.03	541.56
332.258	533.56
332.486	510.56
332.715	533.56
332.943	506.56
333.172	490.56
333.4	490.56
333.629	524.56
333.857	531.56
334.085	553.56
334.314	574.56
334.542	640.56
334.771	663.56
334.999	593.56
335.227	531.56
335.455	519.56
335.684	493.56
335.912	510.56
336.14	517.56
336.369	490.56
336.597	468.56
336.825	490.56
337.053	472.56
337.281	476.56
337.51	477.56
337.738	487.56
337.966	492.56
338.194	492.56
338.422	494.56
338.65	482.56
338.878	461.56
339.106	460.56
339.334	476.56
339.562	447.56
339.79	463.56
340.018	452.56
340.246	477.56
340.474	485.56
340.702	462.56
340.93	453.56
341.158	453.56
341.386	452.56
341.614	467.56
341.842	462.56
342.07	446.56
342.298	442.56
342.526	463.56
342.754	469.56
342.981	427.56
343.209	444.56
343.437	447.56
343.665	429.56
343.893	451.56
344.12	454.56
344.348	469.56
344.576	462.56
344.804	471.56
345.031	478.56
345.259	497.56
345.487	449.56
345.714	455.56
345.942	459.56
346.17	450.56
346.397	440.56
346.625	453.56
346.853	456.56
347.08	430.56
347.308	447.56
347.535	452.56
347.763	442.56
347.99	417.56
348.218	461.56
348.445	464.56
348.673	492.56
348.9	437.56
349.128	443.56
349.355	435.56
349.583	429.56
349.81	455.56
350.037	435.56
350.265	437.56
350.492	423.56
350.72	431.56
350.947	439.56
351.174	441.56
351.402	441.56
351.629	453.56
351.856	455.56
352.083	476.56
352.311	474.56
352.538	462.56
352.765	465.56
352.992	452.56
353.22	448.56
353.447	456.56
353.674	439.56
353.901	433.56
354.128	408.56
354.355	420.56
354.583	416.56
354.81	410.56
355.037	422.56
355.264	425.56
355.491	410.56
355.718	405.56
355.945	414.56
356.172	388.56
356.399	407.56
356.626	398.56
356.853	399.56
357.08	397.56
357.307	413.56
357.534	407.56
357.761	403.56
357.988	406.56
358.215	421.56
358.441	388.56
358.668	414.56
358.895	401.56
359.122	423.56
359.349	438.56
359.576	454.56
359.802	474.56
360.029	493.56
360.256	503.56
360.483	490.56
360.709	451.56
360.936	444.56
361.163	444.56
361.39	427.56
361.616	441.56
361.843	416.56
362.07	441.56
362.296	426.56
362.523	446.56
362.749	444.56
362.976	442.56
363.203	426.56
363.429	412.56
363.656	423.56
363.882	407.56
364.109	397.56
364.335	413.56
364.562	411.56
364.788	415.56
365.015	431.56
365.241	409.56
365.468	403.56
365.694	422.56
365.92	420.56
366.147	413.56
366.373	417.56
366.599	417.56
366.826	391.56
367.052	404.56
367.278	406.56
367.505	429.56
367.731	414.56
367.957	430.56
368.184	408.56
368.41	450.56
368.636	439.56
368.862	421.56
369.089	418.56
369.315	403.56
369.541	409.56
369.767	404.56
369.993	413.56
370.219	407.56
370.445	390.56
370.672	412.56
370.898	395.56
371.124	415.56
371.35	418.56
371.576	403.56
371.802	407.56
372.028	406.56
372.254	388.56
372.48	383.56
372.706	410.56
372.932	401.56
373.158	406.56
373.384	396.56
373.61	406.56
373.835	405.56
374.061	417.56
374.287	407.56
374.513	405.56
374.739	408.56
374.965	413.56
375.191	411.56
375.416	392.56
375.642	403.56
375.868	391.56
376.094	400.56
376.319	397.56
376.545	388.56
376.771	407.56
376.997	396.56
377.222	391.56
377.448	395.56
377.674	409.56
377.899	409.56
378.125	402.56
378.35	383.56
378.576	391.56
378.802	391.56
379.027	404.56
379.253	387.56
379.478	405.56
379.704	376.56
379.929	387.56
380.155	403.56
380.38	386.56
380.606	396.56
380.831	405.56
381.057	412.56
381.282	386.56
381.507	406.56
381.733	393.56
381.958	402.56
382.184	389.56
382.409	409.56
382.634	402.56
382.86	391.56
383.085	405.56
383.31	419.56
383.535	391.56
383.761	408.56
383.986	405.56
384.211	414.56
384.436	417.56
384.662	416.56
384.887	426.56
385.112	405.56
385.337	409.56
385.562	414.56
385.787	427.56
386.013	435.56
386.238	427.56
386.463	421.56
386.688	418.56
386.913	435.56
387.138	421.56
387.363	408.56
387.588	421.56
387.813	424.56
388.038	423.56
388.263	425.56
388.488	401.56
388.713	417.56
388.938	436.56
389.163	423.56
389.387	426.56
389.612	423.56
389.837	417.56
390.062	399.56
390.287	432.56
390.512	428.56
390.736	433.56
390.961	405.56
391.186	431.56
391.411	414.56
391.636	452.56
391.86	415.56
392.085	414.56
392.31	417.56
392.534	425.56
392.759	432.56
392.984	425.56
393.208	428.56
393.433	430.56
393.658	413.56
393.882	434.56
394.107	421.56
394.331	412.56
394.556	410.56
394.78	445.56
395.005	433.56
395.229	426.56
395.454	413.56
395.678	434.56
395.903	456.56
396.127	473.56
396.352	444.56
396.576	454.56
396.801	421.56
397.025	419.56
397.249	424.56
397.474	460.56
397.698	423.56
397.922	446.56
398.147	469.56
398.371	468.56
398.595	478.56
398.82	475.56
399.044	472.56
399.268	502.56
399.492	497.56
399.717	525.56
399.941	541.56
400.165	568.56
400.389	574.56
400.613	527.56
400.837	518.56
401.062	491.56
401.286	493.56
401.51	492.56
401.734	473.56
401.958	478.56
402.182	473.56
402.406	479.56
402.63	475.56
402.854	482.56
403.078	475.56
403.302	504.56
403.526	477.56
403.75	477.56
403.974	487.56
404.198	485.56
404.422	510.56
404.645	496.56
404.869	530.56
405.093	530.56
405.317	580.56
405.541	643.56
405.765	587.56
405.988	531.56
406.212	534.56
406.436	566.56
406.66	573.56
406.883	534.56
407.107	546.56
407.331	601.56
407.555	654.56
407.778	659.56
408.002	585.56
408.226	540.56
408.449	535.56
408.673	554.56
408.896	588.56
409.12	616.56
409.344	577.56
409.567	525.56
409.791	515.56
410.014	519.56
410.238	489.56
410.461	481.56
410.685	494.56
410.908	496.56
411.132	554.56
411.355	585.56
411.578	550.56
411.802	502.56
412.025	494.56
412.249	507.56
412.472	533.56
412.695	567.56
412.919	585.56
413.142	532.56
413.365	513.56
413.589	470.56
413.812	489.56
414.035	485.56
414.258	447.56
414.482	471.56
414.705	450.56
414.928	453.56
415.151	472.56
415.374	454.56
415.597	479.56
415.821	461.56
416.044	498.56
416.267	471.56
416.49	448.56
416.713	460.56
416.936	466.56
417.159	454.56
417.382	475.56
417.605	485.56
417.828	490.56
418.051	510.56
418.274	475.56
418.497	437.56
418.72	455.56
418.943	440.56
419.166	484.56
419.389	517.56
419.611	490.56
419.834	485.56
420.057	498.56
420.28	507.56
420.503	519.56
420.726	487.56
420.948	524.56
421.171	569.56
421.394	572.56
421.617	524.56
421.839	493.56
422.062	490.56
422.285	497.56
422.507	577.56
422.73	646.56
422.953	601.56
423.175	525.56
423.398	535.56
423.621	533.56
423.843	546.56
424.066	528.56
424.288	515.56
424.511	533.56
424.733	617.56
424.956	708.56
425.178	661.56
425.401	675.56
425.623	689.56
425.846	568.56
426.068	554.56
426.291	518.56
426.513	551.56
426.735	549.56
426.958	600.56
427.18	672.56
427.402	810.56
427.625	921.56
427.847	816.56
428.069	696.56
428.292	603.56
428.514	549.56
428.736	514.56
428.958	495.56
429.181	516.56
429.403	488.56
429.625	505.56
429.847	535.56
430.069	618.56
430.292	601.56
430.514	518.56
430.736	509.56
430.958	493.56
431.18	467.56
431.402	468.56
431.624	453.56
431.846	446.56
432.068	444.56
432.29	443.56
432.512	468.56
432.734	471.56
432.956	467.56
433.178	491.56
433.4	499.56
433.622	476.56
433.844	457.56
434.066	448.56
434.287	459.56
434.509	458.56
434.731	467.56
434.953	490.56
435.175	507.56
435.397	531.56
435.618	521.56
435.84	579.56
436.062	693.56
436.284	750.56
436.505	629.56
436.727	556.56
436.949	518.56
437.17	514.56
437.392	483.56
437.614	529.56
437.835	537.56
438.057	651.56
438.278	753.56
438.5	753.56
438.721	806.56
438.943	778.56
439.165	651.56
439.386	558.56
439.608	563.56
439.829	545.56
440.05	564.56
440.272	638.56
440.493	587.56
440.715	558.56
440.936	534.56
441.158	487.56
441.379	497.56
441.6	499.56
441.822	550.56
442.043	577.56
442.264	668.56
442.486	701.56
442.707	581.56
442.928	547.56
443.149	556.56
443.371	579.56
443.592	630.56
443.813	722.56
444.034	786.56
444.255	670.56
444.476	561.56
444.698	535.56
444.919	523.56
445.14	672.56
445.361	600.56
445.582	599.56
445.803	651.56
446.024	782.56
446.245	764.56
446.466	723.56
446.687	590.56
446.908	553.56
447.129	525.56
447.35	488.56
447.571	505.56
447.792	497.56
448.013	470.56
448.234	529.56
448.455	597.56
448.675	655.56
448.896	785.56
449.117	707.56
449.338	645.56
449.559	773.56
449.779	855.56
450	681.56
450.221	570.56
450.442	525.56
450.662	513.56
450.883	505.56
451.104	495.56
451.324	514.56
451.545	483.56
451.766	470.56
451.986	429.56
452.207	449.56
452.428	436.56
452.648	441.56
452.869	459.56
453.089	455.56
453.31	468.56
453.53	458.56
453.751	430.56
453.971	454.56
454.192	463.56
454.412	445.56
454.633	429.56
454.853	450.56
455.073	426.56
455.294	451.56
455.514	566.56
455.734	493.56
455.955	446.56
456.175	437.56
456.395	393.56
456.616	404.56
456.836	399.56
457.056	410.56
457.276	393.56
457.497	407.56
457.717	429.56
457.937	434.56
458.157	435.56
458.377	426.56
458.598	427.56
458.818	532.56
459.038	590.56
459.258	628.56
459.478	523.56
459.698	478.56
459.918	473.56
460.138	439.56
460.358	444.56
460.578	459.56
460.798	452.56
461.018	475.56
461.238	465.56
461.458	447.56
461.678	446.56
461.898	440.56
462.118	441.56
462.338	464.56
462.558	461.56
462.777	471.56
462.997	481.56
463.217	476.56
463.437	460.56
463.657	488.56
463.876	466.56
464.096	473.56
464.316	476.56
464.536	486.56
464.755	470.56
464.975	499.56
465.195	527.56
465.414	602.56
465.634	549.56
465.854	513.56
466.073	485.56
466.293	467.56
466.512	463.56
466.732	444.56
466.951	434.56
467.171	419.56
467.391	450.56
467.61	458.56
467.829	452.56
468.049	470.56
468.268	466.56
468.488	462.56
468.707	428.56
468.927	435.56
469.146	412.56
469.365	433.56
469.585	438.56
469.804	457.56
470.023	453.56
470.243	460.56
470.462	457.56
470.681	495.56
470.901	472.56
471.12	445.56
471.339	450.56
471.558	442.56
471.777	475.56
471.997	450.56
472.216	469.56
472.435	527.56
472.654	502.56
472.873	466.56
473.092	462.56
473.311	455.56
473.53	439.56
473.749	459.56
473.968	523.56
474.187	606.56
474.406	650.56
474.625	521.56
474.844	487.56
475.063	470.56
475.282	462.56
475.501	448.56
475.72	475.56
475.939	452.56
476.158	465.56
476.377	470.56
476.596	463.56
476.814	486.56
477.033	466.56
477.252	465.56
477.471	479.56
477.69	493.56
477.908	494.56
478.127	484.56
478.346	459.56
478.564	487.56
478.783	498.56
479.002	489.56
479.22	526.56
479.439	515.56
479.658	544.56
479.876	533.56
480.095	553.56
480.313	569.56
480.532	565.56
480.751	539.56
480.969	583.56
481.188	674.56
481.406	721.56
481.624	622.56
481.843	581.56
482.061	569.56
482.28	562.56
482.498	532.56
482.717	529.56
482.935	532.56
483.153	520.56
483.372	523.56
483.59	531.56
483.808	533.56
484.027	523.56
484.245	557.56
484.463	532.56
484.681	561.56
484.9	559.56
485.118	563.56
485.336	551.56
485.554	570.56
485.772	550.56
485.99	549.56
486.209	554.56
486.427	551.56
486.645	578.56
486.863	583.56
487.081	605.56
487.299	574.56
487.517	567.56
487.735	560.56
487.953	559.56
488.171	581.56
488.389	573.56
488.607	571.56
488.825	588.56
489.043	567.56
489.261	588.56
489.479	587.56
489.696	585.56
489.914	591.56
490.132	606.56
490.35	613.56
490.568	610.56
490.786	616.56
491.003	616.56
491.221	642.56
491.439	641.56
491.657	652.56
491.874	667.56
492.092	661.56
492.31	669.56
492.527	659.56
492.745	683.56
492.963	695.56
493.18	686.56
493.398	684.56
493.615	716.56
493.833	702.56
494.05	701.56
494.268	670.56
494.485	675.56
494.703	683.56
494.92	663.56
495.138	709.56
495.355	692.56
495.573	693.56
495.79	711.56
496.008	711.56
496.225	689.56
496.442	687.56
496.66	670.56
496.877	690.56
497.094	691.56
497.312	682.56
497.529	699.56
497.746	718.56
497.963	692.56
498.181	710.56
498.398	725.56
498.615	734.56
498.832	763.56
499.049	739.56
499.267	732.56
499.484	780.56
499.701	793.56
499.918	839.56
500.135	826.56
500.352	883.56
500.569	875.56
500.786	898.56
501.003	906.56
501.22	853.56
501.437	865.56
501.654	846.56
501.871	837.56
502.088	835.56
502.305	762.56
502.522	762.56
502.739	737.56
502.956	719.56
503.172	701.56
503.389	699.56
503.606	700.56
503.823	707.56
504.04	677.56
504.256	669.56
504.473	677.56
504.69	671.56
504.907	695.56
505.123	643.56
505.34	645.56
505.557	661.56
505.773	659.56
505.99	687.56
506.207	640.56
506.423	652.56
506.64	656.56
506.856	635.56
507.073	627.56
507.289	644.56
507.506	647.56
507.722	663.56
507.939	643.56
508.155	646.56
508.372	641.56
508.588	614.56
508.805	629.56
509.021	633.56
509.238	655.56
509.454	651.56
509.67	636.56
509.887	659.56
510.103	648.56
510.319	636.56
510.536	757.56
510.752	1283.56
510.968	1065.56
511.184	675.56
511.401	621.56
511.617	614.56
511.833	598.56
512.049	581.56
512.265	598.56
512.481	597.56
512.698	614.56
512.914	608.56
513.13	622.56
513.346	589.56
513.562	588.56
513.778	591.56
513.994	590.56
514.21	606.56
514.426	655.56
514.642	713.56
514.858	724.56
515.074	777.56
515.29	913.56
515.506	1390.56
515.721	1155.56
515.937	751.56
516.153	680.56
516.369	636.56
516.585	615.56
516.801	619.56
517.016	604.56
517.232	599.56
517.448	578.56
517.664	605.56
517.879	592.56
518.095	584.56
518.311	617.56
518.527	581.56
518.742	605.56
518.958	592.56
519.173	578.56
519.389	599.56
519.605	591.56
519.82	612.56
520.036	603.56
520.251	632.56
520.467	676.56
520.682	663.56
520.898	685.56
521.113	700.56
521.329	753.56
521.544	865.56
521.76	1101.56
521.975	1829.56
522.19	1834.56
522.406	972.56
522.621	714.56
522.836	636.56
523.052	610.56
523.267	558.56
523.482	588.56
523.698	559.56
523.913	563.56
524.128	535.56
524.343	525.56
524.559	548.56
524.774	533.56
524.989	508.56
525.204	507.56
525.419	528.56
525.634	493.56
525.849	526.56
526.064	481.56
526.28	475.56
526.495	481.56
526.71	474.56
526.925	495.56
527.14	486.56
527.355	502.56
527.57	468.56
527.785	453.56
527.999	472.56
528.214	489.56
528.429	489.56
528.644	473.56
528.859	493.56
529.074	485.56
529.289	511.56
529.503	581.56
529.718	572.56
529.933	523.56
530.148	484.56
530.363	477.56
530.577	471.56
530.792	471.56
531.007	484.56
531.221	463.56
531.436	464.56
531.651	459.56
531.865	445.56
532.08	459.56
532.295	467.56
532.509	462.56
532.724	454.56
532.938	443.56
533.153	460.56
533.367	472.56
533.582	452.56
533.796	449.56
534.011	457.56
534.225	450.56
534.44	462.56
534.654	431.56
534.868	432.56
535.083	455.56
535.297	451.56
535.511	444.56
535.726	455.56
535.94	472.56
536.154	482.56
536.369	452.56
536.583	441.56
536.797	458.56
537.011	432.56
537.225	419.56
537.44	428.56
537.654	433.56
537.868	431.56
538.082	428.56
538.296	432.56
538.51	427.56
538.724	462.56
538.938	443.56
539.153	446.56
539.367	438.56
539.581	436.56
539.795	445.56
540.009	430.56
540.222	446.56
540.436	440.56
540.65	459.56
540.864	443.56
541.078	439.56
541.292	468.56
541.506	437.56
541.72	407.56
541.934	438.56
542.147	449.56
542.361	439.56
542.575	414.56
542.789	427.56
543.002	430.56
543.216	442.56
543.43	439.56
543.644	435.56
543.857	430.56
544.071	437.56
544.285	441.56
544.498	453.56
544.712	425.56
544.925	437.56
545.139	441.56
545.352	428.56
545.566	420.56
545.779	417.56
545.993	432.56
546.206	417.56
546.42	406.56
546.633	428.56
546.847	407.56
547.06	417.56
547.274	415.56
547.487	410.56
547.7	428.56
547.914	399.56
548.127	406.56
548.34	410.56
548.554	392.56
548.767	405.56
548.98	385.56
549.193	397.56
549.407	416.56
549.62	403.56
549.833	393.56
550.046	386.56
550.259	398.56
550.473	392.56
550.686	414.56
550.899	392.56
551.112	405.56
551.325	404.56
551.538	403.56
551.751	402.56
551.964	403.56
552.177	416.56
552.39	407.56
552.603	420.56
552.816	429.56
553.029	416.56
553.242	402.56
553.455	414.56
553.667	421.56
553.88	439.56
554.093	429.56
554.306	418.56
554.519	393.56
554.732	406.56
554.944	400.56
555.157	394.56
555.37	399.56
555.583	375.56
555.795	383.56
556.008	364.56
556.221	374.56
556.433	375.56
556.646	367.56
556.859	373.56
557.071	345.56
557.284	382.56
557.496	405.56
557.709	371.56
557.921	355.56
558.134	365.56
558.346	359.56
558.559	373.56
558.771	367.56
558.984	355.56
559.196	353.56
559.409	357.56
559.621	372.56
559.833	348.56
560.046	347.56
560.258	354.56
560.47	362.56
560.683	354.56
560.895	355.56
561.107	356.56
561.32	349.56
561.532	353.56
561.744	363.56
561.956	359.56
562.168	350.56
562.381	353.56
562.593	358.56
562.805	386.56
563.017	344.56
563.229	346.56
563.441	372.56
563.653	357.56
563.865	373.56
564.077	366.56
564.289	357.56
564.501	365.56
564.713	371.56
564.925	374.56
565.137	379.56
565.349	365.56
565.561	385.56
565.773	375.56
565.985	391.56
566.197	386.56
566.408	397.56
566.62	399.56
566.832	411.56
567.044	414.56
567.255	391.56
567.467	425.56
567.679	425.56
567.891	457.56
568.102	429.56
568.314	436.56
568.526	421.56
568.737	401.56
568.949	387.56
569.161	382.56
569.372	387.56
569.584	386.56
569.795	371.56
570.007	381.56
570.218	419.56
570.43	402.56
570.641	373.56
570.853	332.56
571.064	342.56
571.276	325.56
571.487	343.56
571.698	352.56
571.91	319.56
572.121	331.56
572.333	345.56
572.544	330.56
572.755	324.56
572.966	345.56
573.178	318.56
573.389	346.56
573.6	323.56
573.811	308.56
574.023	323.56
574.234	315.56
574.445	319.56
574.656	308.56
574.867	301.56
575.078	306.56
575.289	311.56
575.501	305.56
575.712	312.56
575.923	312.56
576.134	319.56
576.345	298.56
576.556	307.56
576.767	308.56
576.978	313.56
577.188	305.56
577.399	314.56
577.61	292.56
577.821	303.56
578.032	308.56
578.243	355.56
578.454	597.56
578.665	439.56
578.875	313.56
579.086	308.56
579.297	296.56
579.508	288.56
579.718	296.56
579.929	287.56
580.14	295.56
580.35	291.56
580.561	304.56
580.772	300.56
580.982	293.56
581.193	288.56
581.403	303.56
581.614	315.56
581.825	293.56
582.035	272.56
582.246	289.56
582.456	310.56
582.667	285.56
582.877	284.56
583.087	273.56
583.298	265.56
583.508	279.56
583.719	284.56
583.929	287.56
584.139	292.56
584.35	267.56
584.56	277.56
584.77	288.56
584.981	269.56
585.191	279.56
585.401	285.56
585.611	280.56
585.821	270.56
586.032	287.56
586.242	283.56
586.452	285.56
586.662	286.56
586.872	279.56
587.082	269.56
587.292	258.56
587.502	282.56
587.713	262.56
587.923	277.56
588.133	281.56
588.343	280.56
588.553	279.56
588.762	276.56
588.972	264.56
589.182	287.56
589.392	265.56
589.602	272.56
589.812	268.56
590.022	288.56
590.232	273.56
590.441	287.56
590.651	275.56
590.861	266.56
591.071	280.56
591.281	270.56
591.49	282.56
591.7	278.56
591.91	279.56
592.119	285.56
592.329	289.56
592.539	293.56
592.748	289.56
592.958	267.56
593.167	305.56
593.377	272.56
593.587	291.56
593.796	284.56
594.006	297.56
594.215	287.56
594.424	281.56
594.634	275.56
594.843	288.56
595.053	275.56
595.262	275.56
595.472	255.56
595.681	270.56
595.89	280.56
596.1	247.56
596.309	271.56
596.518	270.56
596.727	249.56
596.937	247.56
597.146	256.56
597.355	259.56
597.564	257.56
597.774	258.56
597.983	245.56
598.192	247.56
598.401	230.56
598.61	256.56
598.819	253.56
599.028	269.56
599.237	262.56
599.446	251.56
599.655	261.56
599.864	243.56
600.073	259.56
600.282	247.56
600.491	242.56
600.7	230.56
600.909	241.56
601.118	238.56
601.327	232.56
601.536	245.56
601.745	243.56
601.953	235.56
602.162	257.56
602.371	243.56
602.58	259.56
602.789	234.56
602.997	250.56
603.206	238.56
603.415	239.56
603.623	242.56
603.832	223.56
604.041	230.56
604.249	245.56
604.458	236.56
604.666	221.56
604.875	236.56
605.084	236.56
605.292	230.56
605.501	230.56
605.709	237.56
605.918	246.56
606.126	234.56
606.334	232.56
606.543	219.56
606.751	227.56
606.96	225.56
607.168	234.56
607.376	240.56
607.585	225.56
607.793	225.56
608.001	217.56
608.21	236.56
608.418	226.56
608.626	216.56
608.834	219.56
609.043	229.56
609.251	220.56
609.459	215.56
609.667	221.56
609.875	235.56
610.083	230.56
610.291	235.56
610.499	231.56
610.707	245.56
610.916	238.56
611.124	241.56
611.332	245.56
611.54	226.56
611.748	224.56
611.955	225.56
612.163	220.56
612.371	232.56
612.579	213.56
612.787	235.56
612.995	237.56
613.203	224.56
613.411	235.56
613.618	227.56
613.826	219.56
614.034	205.56
614.242	238.56
614.449	229.56
614.657	217.56
614.865	218.56
615.072	207.56
615.28	231.56
615.488	212.56
615.695	205.56
615.903	204.56
616.111	231.56
616.318	232.56
616.526	216.56
616.733	202.56
616.941	208.56
617.148	207.56
617.356	213.56
617.563	213.56
617.771	217.56
617.978	219.56
618.185	213.56
618.393	218.56
618.6	226.56
618.807	215.56
619.015	221.56
619.222	222.56
619.429	223.56
619.637	202.56
619.844	218.56
620.051	220.56
620.258	216.56
620.466	218.56
620.673	203.56
620.88	201.56
621.087	212.56
621.294	222.56
621.501	195.56
621.708	212.56
621.915	209.56
622.122	200.56
622.329	213.56
622.536	226.56
622.743	190.56
622.95	221.56
623.157	236.56
623.364	194.56
623.571	204.56
623.778	201.56
623.985	195.56
624.192	203.56
624.399	198.56
624.606	196.56
624.812	194.56
625.019	219.56
625.226	188.56
625.433	220.56
625.639	220.56
625.846	214.56
626.053	220.56
626.259	207.56
626.466	199.56
626.673	207.56
626.879	212.56
627.086	207.56
627.293	193.56
627.499	203.56
627.706	200.56
627.912	181.56
628.119	203.56
628.325	181.56
628.532	184.56
628.738	185.56
628.945	194.56
629.151	172.56
629.357	193.56
629.564	188.56
629.77	186.56
629.976	197.56
630.183	185.56
630.389	179.56
630.595	191.56
630.802	193.56
631.008	182.56
631.214	173.56
631.42	201.56
631.627	191.56
631.833	175.56
632.039	186.56
632.245	157.56
632.451	165.56
632.657	171.56
632.863	187.56
633.069	166.56
633.275	177.56
633.481	173.56
633.688	190.56
633.893	177.56
634.099	173.56
634.305	171.56
634.511	173.56
634.717	174.56
634.923	181.56
635.129	166.56
635.335	172.56
635.541	181.56
635.747	177.56
635.952	186.56
636.158	172.56
636.364	190.56
636.57	187.56
636.775	190.56
636.981	184.56
637.187	177.56
637.392	188.56
637.598	166.56
637.804	173.56
638.009	170.56
638.215	165.56
638.421	159.56
638.626	184.56
638.832	157.56
639.037	164.56
639.243	184.56
639.448	177.56
639.654	183.56
639.859	171.56
640.065	169.56
640.27	177.56
640.475	181.56
640.681	154.56
640.886	174.56
641.091	161.56
641.297	171.56
641.502	162.56
641.707	172.56
641.913	155.56
642.118	169.56
642.323	156.56
642.528	157.56
642.733	178.56
642.939	180.56
643.144	163.56
643.349	167.56
643.554	156.56
643.759	149.56
643.964	161.56
644.169	154.56
644.374	163.56
644.579	156.56
644.784	164.56
644.989	155.56
645.194	163.56
645.399	161.56
645.604	173.56
645.809	149.56
646.014	161.56
646.219	157.56
646.423	159.56
646.628	150.56
646.833	147.56
647.038	168.56
647.243	168.56
647.447	155.56
647.652	169.56
647.857	163.56
648.062	162.56
648.266	161.56
648.471	166.56
648.676	166.56
648.88	159.56
649.085	162.56
649.289	161.56
649.494	185.56
649.698	179.56
649.903	186.56
650.107	181.56
650.312	168.56
650.516	156.56
650.721	147.56
650.925	149.56
651.13	131.56
651.334	163.56
651.539	136.56
651.743	146.56
651.947	133.56
652.152	133.56
652.356	156.56
652.56	145.56
652.764	146.56
652.969	141.56
653.173	153.56
653.377	142.56
653.581	151.56
653.785	131.56
653.99	124.56
654.194	132.56
654.398	122.56
654.602	137.56
654.806	127.56
655.01	157.56
655.214	142.56
655.418	129.56
655.622	139.56
655.826	141.56
656.03	135.56
656.234	142.56
656.438	131.56
656.642	139.56
656.846	131.56
657.049	135.56
657.253	127.56
657.457	122.56
657.661	116.56
657.865	117.56
658.068	120.56
658.272	110.56
658.476	118.56
658.68	110.56
658.883	108.56
659.087	116.56
659.291	120.56
659.494	98.56
659.698	109.56
659.901	93.56
660.105	102.56
660.309	103.56
660.512	91.56
660.716	97.56
660.919	92.56
661.123	87.56
661.326	116.56
661.53	97.56
661.733	79.56
661.936	99.56
662.14	91.56
662.343	88.56
662.546	86.56
662.75	94.56
662.953	75.56
663.156	93.56
663.36	92.56
663.563	97.56
663.766	87.56
663.969	87.56
664.173	74.56
664.376	87.56
664.579	86.56
664.782	75.56
664.985	83.56
665.188	69.56
665.391	75.56
665.594	90.56
665.797	83.56
666	81.56
666.203	77.56
666.406	85.56
666.609	83.56
666.812	82.56
667.015	78.56
667.218	77.56
667.421	72.56
667.624	78.56
667.827	91.56
668.03	85.56
668.232	83.56
668.435	70.56
668.638	93.56
668.841	93.56
669.043	96.56
669.246	87.56
669.449	66.56
669.651	78.56
669.854	82.56
670.057	71.56
670.259	65.56
670.462	90.56
670.665	82.56
670.867	82.56
671.07	84.56
671.272	87.56
671.475	89.56
671.677	82.56
671.88	81.56
672.082	79.56
672.284	80.56
672.487	87.56
672.689	76.56
672.892	84.56
