Data from 1989.PennyLincolnUp.Lamp.En5.5.200Scan.071819.P2_HRD10591_17-25-51-973.txt Node
Date: Thu Jul 18 17:25:51 EDT 2019
User: cochatt
Spectrometer: HR+D1059
Trigger mode: 1
Integration Time (sec): 1.000000E-1
Scans to average: 1
Electric dark correction enabled: true
Nonlinearity correction enabled: false
Boxcar width: 0
XAxis mode: Wavelengths
Number of Pixels in Spectrum: 2048
>>>>>Begin Spectral Data<<<<<
223.165	-21.44
223.4	-21.44
223.635	-21.44
223.869	-7.44
224.104	-12.44
224.338	-22.44
224.573	-20.44
224.808	-17.44
225.042	-7.44
225.277	-0.44
225.511	0.56
225.746	4.56
225.98	5.56
226.215	20.56
226.449	8.56
226.683	27.56
226.918	13.56
227.152	28.56
227.387	34.56
227.621	32.56
227.856	49.56
228.09	41.56
228.324	60.56
228.559	48.56
228.793	81.56
229.027	119.56
229.262	115.56
229.496	132.56
229.73	140.56
229.964	155.56
230.199	149.56
230.433	137.56
230.667	117.56
230.901	114.56
231.136	110.56
231.37	120.56
231.604	106.56
231.838	125.56
232.072	112.56
232.306	115.56
232.541	119.56
232.775	104.56
233.009	123.56
233.243	119.56
233.477	121.56
233.711	125.56
233.945	109.56
234.179	99.56
234.413	115.56
234.647	109.56
234.881	121.56
235.115	134.56
235.349	122.56
235.583	127.56
235.817	136.56
236.051	140.56
236.285	129.56
236.519	132.56
236.753	130.56
236.987	163.56
237.221	208.56
237.455	260.56
237.689	191.56
237.922	134.56
238.156	149.56
238.39	122.56
238.624	140.56
238.858	120.56
239.091	129.56
239.325	130.56
239.559	125.56
239.793	148.56
240.027	142.56
240.26	141.56
240.494	160.56
240.728	161.56
240.961	148.56
241.195	151.56
241.429	142.56
241.662	149.56
241.896	135.56
242.13	132.56
242.363	134.56
242.597	146.56
242.83	138.56
243.064	131.56
243.298	142.56
243.531	141.56
243.765	137.56
243.998	145.56
244.232	133.56
244.465	138.56
244.699	151.56
244.932	172.56
245.166	161.56
245.399	161.56
245.633	148.56
245.866	170.56
246.099	147.56
246.333	158.56
246.566	169.56
246.8	156.56
247.033	159.56
247.266	182.56
247.5	172.56
247.733	181.56
247.966	184.56
248.2	188.56
248.433	189.56
248.666	184.56
248.899	188.56
249.133	201.56
249.366	227.56
249.599	224.56
249.832	212.56
250.066	184.56
250.299	203.56
250.532	227.56
250.765	235.56
250.998	238.56
251.231	260.56
251.465	251.56
251.698	229.56
251.931	225.56
252.164	222.56
252.397	200.56
252.63	237.56
252.863	226.56
253.096	242.56
253.329	258.56
253.562	257.56
253.795	231.56
254.028	252.56
254.261	225.56
254.494	253.56
254.727	278.56
254.96	325.56
255.193	298.56
255.426	275.56
255.659	244.56
255.892	268.56
256.124	278.56
256.357	284.56
256.59	270.56
256.823	260.56
257.056	264.56
257.289	247.56
257.521	232.56
257.754	227.56
257.987	231.56
258.22	247.56
258.452	231.56
258.685	236.56
258.918	233.56
259.151	235.56
259.383	236.56
259.616	243.56
259.849	232.56
260.081	270.56
260.314	278.56
260.547	282.56
260.779	291.56
261.012	280.56
261.244	254.56
261.477	235.56
261.71	228.56
261.942	255.56
262.175	272.56
262.407	256.56
262.64	236.56
262.872	238.56
263.105	228.56
263.337	236.56
263.57	236.56
263.802	228.56
264.035	227.56
264.267	224.56
264.499	210.56
264.732	238.56
264.964	245.56
265.197	235.56
265.429	228.56
265.661	225.56
265.894	229.56
266.126	260.56
266.358	223.56
266.591	248.56
266.823	245.56
267.055	240.56
267.287	258.56
267.52	252.56
267.752	252.56
267.984	257.56
268.216	247.56
268.448	260.56
268.681	254.56
268.913	272.56
269.145	278.56
269.377	286.56
269.609	291.56
269.841	296.56
270.073	312.56
270.306	330.56
270.538	346.56
270.77	349.56
271.002	344.56
271.234	326.56
271.466	328.56
271.698	351.56
271.93	357.56
272.162	365.56
272.394	348.56
272.626	317.56
272.858	328.56
273.09	321.56
273.322	314.56
273.553	297.56
273.785	307.56
274.017	276.56
274.249	304.56
274.481	286.56
274.713	295.56
274.945	286.56
275.176	282.56
275.408	296.56
275.64	290.56
275.872	274.56
276.104	287.56
276.335	277.56
276.567	302.56
276.799	321.56
277.031	341.56
277.262	346.56
277.494	349.56
277.726	337.56
277.957	330.56
278.189	321.56
278.421	288.56
278.652	295.56
278.884	295.56
279.115	304.56
279.347	286.56
279.579	277.56
279.81	295.56
280.042	290.56
280.273	293.56
280.505	290.56
280.736	284.56
280.968	293.56
281.199	288.56
281.431	300.56
281.662	298.56
281.894	292.56
282.125	290.56
282.356	327.56
282.588	334.56
282.819	305.56
283.051	306.56
283.282	306.56
283.513	310.56
283.745	300.56
283.976	312.56
284.207	292.56
284.439	296.56
284.67	312.56
284.901	279.56
285.132	300.56
285.364	285.56
285.595	281.56
285.826	292.56
286.057	299.56
286.288	293.56
286.52	296.56
286.751	287.56
286.982	332.56
287.213	306.56
287.444	314.56
287.675	318.56
287.906	326.56
288.138	321.56
288.369	339.56
288.6	323.56
288.831	323.56
289.062	320.56
289.293	307.56
289.524	316.56
289.755	321.56
289.986	319.56
290.217	275.56
290.448	308.56
290.679	308.56
290.91	307.56
291.141	313.56
291.371	305.56
291.602	311.56
291.833	313.56
292.064	306.56
292.295	280.56
292.526	308.56
292.757	303.56
292.987	306.56
293.218	296.56
293.449	306.56
293.68	299.56
293.91	290.56
294.141	329.56
294.372	321.56
294.603	316.56
294.833	322.56
295.064	321.56
295.295	297.56
295.525	316.56
295.756	299.56
295.987	314.56
296.217	345.56
296.448	368.56
296.679	326.56
296.909	324.56
297.14	321.56
297.37	309.56
297.601	320.56
297.831	317.56
298.062	325.56
298.292	334.56
298.523	340.56
298.753	302.56
298.984	323.56
299.214	330.56
299.445	297.56
299.675	316.56
299.905	352.56
300.136	329.56
300.366	330.56
300.597	340.56
300.827	331.56
301.057	345.56
301.288	336.56
301.518	348.56
301.748	339.56
301.979	345.56
302.209	352.56
302.439	358.56
302.669	350.56
302.9	345.56
303.13	338.56
303.36	345.56
303.59	352.56
303.82	346.56
304.051	352.56
304.281	352.56
304.511	350.56
304.741	364.56
304.971	344.56
305.201	344.56
305.431	353.56
305.661	359.56
305.891	363.56
306.121	348.56
306.352	349.56
306.582	353.56
306.812	357.56
307.042	358.56
307.272	358.56
307.502	352.56
307.731	347.56
307.961	358.56
308.191	357.56
308.421	347.56
308.651	371.56
308.881	336.56
309.111	360.56
309.341	363.56
309.571	385.56
309.8	378.56
310.03	390.56
310.26	390.56
310.49	399.56
310.72	389.56
310.949	434.56
311.179	425.56
311.409	413.56
311.639	415.56
311.868	396.56
312.098	415.56
312.328	409.56
312.557	435.56
312.787	458.56
313.017	445.56
313.246	421.56
313.476	381.56
313.706	400.56
313.935	416.56
314.165	414.56
314.394	426.56
314.624	428.56
314.853	432.56
315.083	443.56
315.312	394.56
315.542	397.56
315.771	397.56
316.001	397.56
316.23	423.56
316.46	419.56
316.689	406.56
316.919	402.56
317.148	419.56
317.377	421.56
317.607	437.56
317.836	402.56
318.065	388.56
318.295	416.56
318.524	393.56
318.753	396.56
318.983	399.56
319.212	396.56
319.441	404.56
319.67	434.56
319.9	424.56
320.129	422.56
320.358	402.56
320.587	435.56
320.816	425.56
321.046	440.56
321.275	427.56
321.504	444.56
321.733	423.56
321.962	437.56
322.191	461.56
322.42	459.56
322.649	474.56
322.878	493.56
323.108	504.56
323.337	540.56
323.566	564.56
323.795	585.56
324.024	674.56
324.253	812.56
324.482	1147.56
324.71	1773.56
324.939	2506.56
325.168	2205.56
325.397	1131.56
325.626	776.56
325.855	662.56
326.084	557.56
326.313	574.56
326.542	564.56
326.77	634.56
326.999	768.56
327.228	1002.56
327.457	1577.56
327.686	1896.56
327.914	1296.56
328.143	847.56
328.372	710.56
328.6	681.56
328.829	642.56
329.058	661.56
329.287	655.56
329.515	635.56
329.744	591.56
329.972	560.56
330.201	601.56
330.43	654.56
330.658	690.56
330.887	708.56
331.115	658.56
331.344	576.56
331.572	556.56
331.801	572.56
332.03	528.56
332.258	542.56
332.486	505.56
332.715	468.56
332.943	502.56
333.172	489.56
333.4	490.56
333.629	506.56
333.857	534.56
334.085	560.56
334.314	589.56
334.542	613.56
334.771	642.56
334.999	580.56
335.227	523.56
335.455	514.56
335.684	463.56
335.912	496.56
336.14	470.56
336.369	476.56
336.597	471.56
336.825	487.56
337.053	452.56
337.281	474.56
337.51	474.56
337.738	483.56
337.966	462.56
338.194	459.56
338.422	473.56
338.65	473.56
338.878	471.56
339.106	456.56
339.334	460.56
339.562	454.56
339.79	440.56
340.018	464.56
340.246	463.56
340.474	456.56
340.702	459.56
340.93	472.56
341.158	462.56
341.386	460.56
341.614	466.56
341.842	457.56
342.07	418.56
342.298	435.56
342.526	419.56
342.754	427.56
342.981	426.56
343.209	440.56
343.437	416.56
343.665	428.56
343.893	459.56
344.12	439.56
344.348	442.56
344.576	460.56
344.804	451.56
345.031	456.56
345.259	459.56
345.487	472.56
345.714	452.56
345.942	450.56
346.17	439.56
346.397	447.56
346.625	425.56
346.853	428.56
347.08	428.56
347.308	452.56
347.535	444.56
347.763	468.56
347.99	445.56
348.218	438.56
348.445	472.56
348.673	441.56
348.9	416.56
349.128	432.56
349.355	419.56
349.583	418.56
349.81	419.56
350.037	427.56
350.265	404.56
350.492	409.56
350.72	415.56
350.947	424.56
351.174	436.56
351.402	416.56
351.629	452.56
351.856	436.56
352.083	455.56
352.311	460.56
352.538	459.56
352.765	438.56
352.992	436.56
353.22	427.56
353.447	427.56
353.674	429.56
353.901	428.56
354.128	404.56
354.355	414.56
354.583	396.56
354.81	385.56
355.037	391.56
355.264	379.56
355.491	389.56
355.718	395.56
355.945	400.56
356.172	389.56
356.399	393.56
356.626	380.56
356.853	396.56
357.08	399.56
357.307	392.56
357.534	392.56
357.761	374.56
357.988	384.56
358.215	374.56
358.441	388.56
358.668	409.56
358.895	429.56
359.122	415.56
359.349	416.56
359.576	432.56
359.802	426.56
360.029	464.56
360.256	480.56
360.483	491.56
360.709	421.56
360.936	419.56
361.163	411.56
361.39	442.56
361.616	413.56
361.843	433.56
362.07	423.56
362.296	439.56
362.523	432.56
362.749	424.56
362.976	430.56
363.203	409.56
363.429	422.56
363.656	431.56
363.882	410.56
364.109	395.56
364.335	388.56
364.562	402.56
364.788	388.56
365.015	408.56
365.241	408.56
365.468	394.56
365.694	407.56
365.92	412.56
366.147	392.56
366.373	408.56
366.599	399.56
366.826	385.56
367.052	397.56
367.278	396.56
367.505	401.56
367.731	395.56
367.957	400.56
368.184	409.56
368.41	389.56
368.636	413.56
368.862	432.56
369.089	393.56
369.315	401.56
369.541	417.56
369.767	391.56
369.993	403.56
370.219	395.56
370.445	388.56
370.672	390.56
370.898	387.56
371.124	373.56
371.35	389.56
371.576	405.56
371.802	386.56
372.028	392.56
372.254	383.56
372.48	382.56
372.706	377.56
372.932	386.56
373.158	373.56
373.384	407.56
373.61	392.56
373.835	375.56
374.061	396.56
374.287	398.56
374.513	377.56
374.739	386.56
374.965	380.56
375.191	386.56
375.416	388.56
375.642	400.56
375.868	387.56
376.094	390.56
376.319	375.56
376.545	387.56
376.771	382.56
376.997	384.56
377.222	373.56
377.448	380.56
377.674	376.56
377.899	394.56
378.125	364.56
378.35	378.56
378.576	368.56
378.802	385.56
379.027	385.56
379.253	375.56
379.478	378.56
379.704	385.56
379.929	374.56
380.155	378.56
380.38	382.56
380.606	380.56
380.831	384.56
381.057	380.56
381.282	385.56
381.507	382.56
381.733	385.56
381.958	390.56
382.184	384.56
382.409	402.56
382.634	388.56
382.86	392.56
383.085	376.56
383.31	386.56
383.535	408.56
383.761	380.56
383.986	382.56
384.211	393.56
384.436	378.56
384.662	401.56
384.887	392.56
385.112	400.56
385.337	406.56
385.562	412.56
385.787	399.56
386.013	431.56
386.238	429.56
386.463	412.56
386.688	408.56
386.913	393.56
387.138	416.56
387.363	412.56
387.588	404.56
387.813	411.56
388.038	390.56
388.263	396.56
388.488	406.56
388.713	410.56
388.938	409.56
389.163	426.56
389.387	429.56
389.612	419.56
389.837	412.56
390.062	396.56
390.287	412.56
390.512	395.56
390.736	410.56
390.961	421.56
391.186	410.56
391.411	408.56
391.636	399.56
391.86	409.56
392.085	410.56
392.31	417.56
392.534	421.56
392.759	439.56
392.984	405.56
393.208	405.56
393.433	397.56
393.658	394.56
393.882	391.56
394.107	393.56
394.331	398.56
394.556	433.56
394.78	414.56
395.005	417.56
395.229	404.56
395.454	390.56
395.678	404.56
395.903	446.56
396.127	451.56
396.352	445.56
396.576	424.56
396.801	413.56
397.025	424.56
397.249	413.56
397.474	422.56
397.698	418.56
397.922	461.56
398.147	447.56
398.371	462.56
398.595	454.56
398.82	453.56
399.044	470.56
399.268	462.56
399.492	474.56
399.717	519.56
399.941	514.56
400.165	540.56
400.389	577.56
400.613	518.56
400.837	476.56
401.062	460.56
401.286	456.56
401.51	444.56
401.734	453.56
401.958	457.56
402.182	472.56
402.406	476.56
402.63	459.56
402.854	490.56
403.078	457.56
403.302	481.56
403.526	492.56
403.75	471.56
403.974	470.56
404.198	459.56
404.422	463.56
404.645	487.56
404.869	492.56
405.093	548.56
405.317	576.56
405.541	608.56
405.765	568.56
405.988	515.56
406.212	524.56
406.436	538.56
406.66	564.56
406.883	537.56
407.107	531.56
407.331	582.56
407.555	660.56
407.778	641.56
408.002	597.56
408.226	549.56
408.449	544.56
408.673	524.56
408.896	568.56
409.12	617.56
409.344	566.56
409.567	490.56
409.791	497.56
410.014	508.56
410.238	481.56
410.461	482.56
410.685	485.56
410.908	483.56
411.132	538.56
411.355	558.56
411.578	535.56
411.802	506.56
412.025	485.56
412.249	496.56
412.472	524.56
412.695	588.56
412.919	555.56
413.142	492.56
413.365	490.56
413.589	465.56
413.812	469.56
414.035	474.56
414.258	466.56
414.482	440.56
414.705	437.56
414.928	453.56
415.151	429.56
415.374	434.56
415.597	453.56
415.821	451.56
416.044	442.56
416.267	441.56
416.49	449.56
416.713	445.56
416.936	448.56
417.159	444.56
417.382	469.56
417.605	444.56
417.828	459.56
418.051	496.56
418.274	489.56
418.497	467.56
418.72	442.56
418.943	454.56
419.166	472.56
419.389	488.56
419.611	465.56
419.834	490.56
420.057	475.56
420.28	488.56
420.503	505.56
420.726	481.56
420.948	485.56
421.171	529.56
421.394	568.56
421.617	508.56
421.839	478.56
422.062	481.56
422.285	489.56
422.507	550.56
422.73	611.56
422.953	598.56
423.175	522.56
423.398	505.56
423.621	516.56
423.843	524.56
424.066	510.56
424.288	498.56
424.511	560.56
424.733	608.56
424.956	669.56
425.178	638.56
425.401	633.56
425.623	654.56
425.846	549.56
426.068	510.56
426.291	506.56
426.513	512.56
426.735	535.56
426.958	564.56
427.18	639.56
427.402	754.56
427.625	862.56
427.847	777.56
428.069	699.56
428.292	595.56
428.514	546.56
428.736	520.56
428.958	499.56
429.181	480.56
429.403	468.56
429.625	475.56
429.847	540.56
430.069	580.56
430.292	609.56
430.514	514.56
430.736	468.56
430.958	458.56
431.18	457.56
431.402	460.56
431.624	457.56
431.846	449.56
432.068	439.56
432.29	459.56
432.512	455.56
432.734	474.56
432.956	474.56
433.178	478.56
433.4	476.56
433.622	467.56
433.844	460.56
434.066	454.56
434.287	439.56
434.509	455.56
434.731	465.56
434.953	461.56
435.175	481.56
435.397	494.56
435.618	506.56
435.84	544.56
436.062	669.56
436.284	716.56
436.505	586.56
436.727	521.56
436.949	518.56
437.17	510.56
437.392	500.56
437.614	499.56
437.835	521.56
438.057	648.56
438.278	733.56
438.5	729.56
438.721	786.56
438.943	757.56
439.165	611.56
439.386	557.56
439.608	551.56
439.829	525.56
440.05	571.56
440.272	608.56
440.493	595.56
440.715	524.56
440.936	514.56
441.158	480.56
441.379	490.56
441.6	489.56
441.822	506.56
442.043	562.56
442.264	637.56
442.486	674.56
442.707	584.56
442.928	545.56
443.149	543.56
443.371	556.56
443.592	604.56
443.813	697.56
444.034	757.56
444.255	613.56
444.476	525.56
444.698	503.56
444.919	519.56
445.14	641.56
445.361	595.56
445.582	564.56
445.803	628.56
446.024	766.56
446.245	734.56
446.466	728.56
446.687	560.56
446.908	526.56
447.129	512.56
447.35	490.56
447.571	470.56
447.792	476.56
448.013	464.56
448.234	526.56
448.455	540.56
448.675	683.56
448.896	771.56
449.117	677.56
449.338	628.56
449.559	708.56
449.779	814.56
450	673.56
450.221	538.56
450.442	512.56
450.662	467.56
450.883	473.56
451.104	489.56
451.324	483.56
451.545	456.56
451.766	441.56
451.986	440.56
452.207	424.56
452.428	444.56
452.648	431.56
452.869	444.56
453.089	429.56
453.31	430.56
453.53	439.56
453.751	448.56
453.971	430.56
454.192	453.56
454.412	437.56
454.633	417.56
454.853	425.56
455.073	428.56
455.294	457.56
455.514	525.56
455.734	509.56
455.955	441.56
456.175	404.56
456.395	408.56
456.616	422.56
456.836	384.56
457.056	400.56
457.276	401.56
457.497	404.56
457.717	390.56
457.937	390.56
458.157	420.56
458.377	456.56
458.598	430.56
458.818	527.56
459.038	586.56
459.258	604.56
459.478	514.56
459.698	461.56
459.918	449.56
460.138	435.56
460.358	437.56
460.578	429.56
460.798	442.56
461.018	464.56
461.238	427.56
461.458	420.56
461.678	426.56
461.898	426.56
462.118	428.56
462.338	454.56
462.558	438.56
462.777	467.56
462.997	454.56
463.217	469.56
463.437	465.56
463.657	467.56
463.876	434.56
464.096	451.56
464.316	447.56
464.536	466.56
464.755	475.56
464.975	482.56
465.195	535.56
465.414	630.56
465.634	532.56
465.854	504.56
466.073	477.56
466.293	442.56
466.512	430.56
466.732	438.56
466.951	440.56
467.171	435.56
467.391	430.56
467.61	428.56
467.829	456.56
468.049	448.56
468.268	445.56
468.488	459.56
468.707	434.56
468.927	425.56
469.146	406.56
469.365	412.56
469.585	405.56
469.804	419.56
470.023	436.56
470.243	430.56
470.462	440.56
470.681	461.56
470.901	467.56
471.12	440.56
471.339	438.56
471.558	450.56
471.777	444.56
471.997	451.56
472.216	468.56
472.435	514.56
472.654	501.56
472.873	463.56
473.092	436.56
473.311	428.56
473.53	443.56
473.749	463.56
473.968	501.56
474.187	618.56
474.406	633.56
474.625	516.56
474.844	460.56
475.063	441.56
475.282	453.56
475.501	451.56
475.72	472.56
475.939	452.56
476.158	434.56
476.377	458.56
476.596	444.56
476.814	458.56
477.033	459.56
477.252	485.56
477.471	445.56
477.69	465.56
477.908	459.56
478.127	485.56
478.346	475.56
478.564	485.56
478.783	472.56
479.002	485.56
479.22	489.56
479.439	502.56
479.658	546.56
479.876	517.56
480.095	523.56
480.313	567.56
480.532	566.56
480.751	538.56
480.969	540.56
481.188	649.56
481.406	738.56
481.624	628.56
481.843	596.56
482.061	526.56
482.28	546.56
482.498	552.56
482.717	537.56
482.935	518.56
483.153	527.56
483.372	513.56
483.59	517.56
483.808	532.56
484.027	516.56
484.245	517.56
484.463	523.56
484.681	518.56
484.9	523.56
485.118	523.56
485.336	531.56
485.554	538.56
485.772	545.56
485.99	520.56
486.209	536.56
486.427	546.56
486.645	560.56
486.863	585.56
487.081	546.56
487.299	561.56
487.517	567.56
487.735	563.56
487.953	540.56
488.171	569.56
488.389	551.56
488.607	581.56
488.825	584.56
489.043	587.56
489.261	554.56
489.479	584.56
489.696	578.56
489.914	590.56
490.132	581.56
490.35	595.56
490.568	581.56
490.786	599.56
491.003	600.56
491.221	605.56
491.439	619.56
491.657	640.56
491.874	658.56
492.092	627.56
492.31	660.56
492.527	666.56
492.745	668.56
492.963	698.56
493.18	656.56
493.398	658.56
493.615	674.56
493.833	673.56
494.05	685.56
494.268	660.56
494.485	646.56
494.703	661.56
494.92	660.56
495.138	646.56
495.355	677.56
495.573	656.56
495.79	668.56
496.008	677.56
496.225	666.56
496.442	690.56
496.66	694.56
496.877	666.56
497.094	691.56
497.312	674.56
497.529	694.56
497.746	711.56
497.963	674.56
498.181	716.56
498.398	737.56
498.615	714.56
498.832	753.56
499.049	722.56
499.267	754.56
499.484	766.56
499.701	729.56
499.918	816.56
500.135	831.56
500.352	845.56
500.569	875.56
500.786	838.56
501.003	864.56
501.22	847.56
501.437	845.56
501.654	807.56
501.871	822.56
502.088	782.56
502.305	755.56
502.522	744.56
502.739	740.56
502.956	683.56
503.172	699.56
503.389	684.56
503.606	694.56
503.823	686.56
504.04	670.56
504.256	669.56
504.473	674.56
504.69	646.56
504.907	661.56
505.123	650.56
505.34	646.56
505.557	647.56
505.773	633.56
505.99	629.56
506.207	628.56
506.423	632.56
506.64	632.56
506.856	611.56
507.073	632.56
507.289	634.56
507.506	633.56
507.722	620.56
507.939	642.56
508.155	644.56
508.372	625.56
508.588	615.56
508.805	612.56
509.021	610.56
509.238	630.56
509.454	640.56
509.67	623.56
509.887	605.56
510.103	631.56
510.319	613.56
510.536	749.56
510.752	1257.56
510.968	1009.56
511.184	641.56
511.401	619.56
511.617	609.56
511.833	591.56
512.049	610.56
512.265	584.56
512.481	592.56
512.698	585.56
512.914	603.56
513.13	572.56
513.346	553.56
513.562	588.56
513.778	564.56
513.994	601.56
514.21	602.56
514.426	618.56
514.642	661.56
514.858	708.56
515.074	752.56
515.29	917.56
515.506	1376.56
515.721	1092.56
515.937	733.56
516.153	676.56
516.369	651.56
516.585	622.56
516.801	604.56
517.016	611.56
517.232	587.56
517.448	590.56
517.664	594.56
517.879	594.56
518.095	577.56
518.311	566.56
518.527	596.56
518.742	576.56
518.958	564.56
519.173	576.56
519.389	573.56
519.605	578.56
519.82	572.56
520.036	599.56
520.251	635.56
520.467	666.56
520.682	642.56
520.898	672.56
521.113	684.56
521.329	759.56
521.544	837.56
521.76	1094.56
521.975	1814.56
522.19	1744.56
522.406	950.56
522.621	692.56
522.836	608.56
523.052	598.56
523.267	554.56
523.482	542.56
523.698	553.56
523.913	556.56
524.128	525.56
524.343	492.56
524.559	517.56
524.774	511.56
524.989	496.56
525.204	519.56
525.419	503.56
525.634	481.56
525.849	486.56
526.064	492.56
526.28	465.56
526.495	471.56
526.71	481.56
526.925	451.56
527.14	452.56
527.355	464.56
527.57	467.56
527.785	469.56
527.999	460.56
528.214	451.56
528.429	459.56
528.644	460.56
528.859	468.56
529.074	462.56
529.289	494.56
529.503	595.56
529.718	570.56
529.933	504.56
530.148	483.56
530.363	473.56
530.577	468.56
530.792	474.56
531.007	441.56
531.221	454.56
531.436	470.56
531.651	453.56
531.865	448.56
532.08	454.56
532.295	471.56
532.509	448.56
532.724	448.56
532.938	448.56
533.153	432.56
533.367	459.56
533.582	436.56
533.796	445.56
534.011	432.56
534.225	434.56
534.44	440.56
534.654	451.56
534.868	441.56
535.083	430.56
535.297	428.56
535.511	439.56
535.726	450.56
535.94	416.56
536.154	432.56
536.369	449.56
536.583	424.56
536.797	418.56
537.011	419.56
537.225	433.56
537.44	427.56
537.654	418.56
537.868	426.56
538.082	424.56
538.296	421.56
538.51	456.56
538.724	448.56
538.938	429.56
539.153	423.56
539.367	440.56
539.581	434.56
539.795	413.56
540.009	434.56
540.222	414.56
540.436	412.56
540.65	441.56
540.864	451.56
541.078	458.56
541.292	438.56
541.506	430.56
541.72	422.56
541.934	428.56
542.147	430.56
542.361	416.56
542.575	418.56
542.789	420.56
543.002	430.56
543.216	433.56
543.43	432.56
543.644	439.56
543.857	422.56
544.071	422.56
544.285	413.56
544.498	413.56
544.712	417.56
544.925	439.56
545.139	420.56
545.352	394.56
545.566	429.56
545.779	397.56
545.993	413.56
546.206	423.56
546.42	404.56
546.633	397.56
546.847	407.56
547.06	393.56
547.274	386.56
547.487	415.56
547.7	394.56
547.914	416.56
548.127	404.56
548.34	409.56
548.554	399.56
548.767	411.56
548.98	394.56
549.193	386.56
549.407	400.56
549.62	393.56
549.833	396.56
550.046	423.56
550.259	401.56
550.473	388.56
550.686	400.56
550.899	380.56
551.112	389.56
551.325	378.56
551.538	390.56
551.751	393.56
551.964	380.56
552.177	397.56
552.39	395.56
552.603	388.56
552.816	395.56
553.029	388.56
553.242	401.56
553.455	388.56
553.667	418.56
553.88	401.56
554.093	403.56
554.306	388.56
554.519	420.56
554.732	395.56
554.944	378.56
555.157	378.56
555.37	401.56
555.583	366.56
555.795	381.56
556.008	352.56
556.221	368.56
556.433	384.56
556.646	371.56
556.859	368.56
557.071	369.56
557.284	353.56
557.496	376.56
557.709	374.56
557.921	360.56
558.134	346.56
558.346	349.56
558.559	370.56
558.771	360.56
558.984	357.56
559.196	359.56
559.409	372.56
559.621	359.56
559.833	339.56
560.046	342.56
560.258	361.56
560.47	365.56
560.683	354.56
560.895	345.56
561.107	346.56
561.32	348.56
561.532	357.56
561.744	352.56
561.956	346.56
562.168	353.56
562.381	344.56
562.593	343.56
562.805	356.56
563.017	339.56
563.229	345.56
563.441	357.56
563.653	352.56
563.865	364.56
564.077	367.56
564.289	351.56
564.501	369.56
564.713	341.56
564.925	349.56
565.137	363.56
565.349	385.56
565.561	352.56
565.773	366.56
565.985	379.56
566.197	368.56
566.408	377.56
566.62	392.56
566.832	414.56
567.044	406.56
567.255	396.56
567.467	406.56
567.679	425.56
567.891	421.56
568.102	428.56
568.314	411.56
568.526	421.56
568.737	404.56
568.949	372.56
569.161	366.56
569.372	368.56
569.584	372.56
569.795	344.56
570.007	358.56
570.218	403.56
570.43	380.56
570.641	354.56
570.853	334.56
571.064	352.56
571.276	342.56
571.487	347.56
571.698	324.56
571.91	335.56
572.121	300.56
572.333	326.56
572.544	338.56
572.755	329.56
572.966	328.56
573.178	316.56
573.389	305.56
573.6	330.56
573.811	326.56
574.023	312.56
574.234	294.56
574.445	293.56
574.656	303.56
574.867	322.56
575.078	297.56
575.289	315.56
575.501	301.56
575.712	292.56
575.923	309.56
576.134	303.56
576.345	306.56
576.556	292.56
576.767	292.56
576.978	306.56
577.188	294.56
577.399	300.56
577.61	294.56
577.821	280.56
578.032	300.56
578.243	343.56
578.454	590.56
578.665	408.56
578.875	309.56
579.086	304.56
579.297	292.56
579.508	303.56
579.718	288.56
579.929	271.56
580.14	285.56
580.35	281.56
580.561	286.56
580.772	282.56
580.982	271.56
581.193	281.56
581.403	276.56
581.614	288.56
581.825	270.56
582.035	290.56
582.246	289.56
582.456	268.56
582.667	281.56
582.877	283.56
583.087	267.56
583.298	266.56
583.508	284.56
583.719	280.56
583.929	285.56
584.139	280.56
584.35	278.56
584.56	279.56
584.77	289.56
584.981	276.56
585.191	267.56
585.401	275.56
585.611	271.56
585.821	268.56
586.032	280.56
586.242	279.56
586.452	261.56
586.662	277.56
586.872	280.56
587.082	253.56
587.292	283.56
587.502	278.56
587.713	260.56
587.923	261.56
588.133	273.56
588.343	278.56
588.553	262.56
588.762	277.56
588.972	263.56
589.182	262.56
589.392	262.56
589.602	266.56
589.812	269.56
590.022	260.56
590.232	277.56
590.441	251.56
590.651	265.56
590.861	252.56
591.071	257.56
591.281	282.56
591.49	274.56
591.7	271.56
591.91	266.56
592.119	268.56
592.329	286.56
592.539	269.56
592.748	262.56
592.958	274.56
593.167	267.56
593.377	292.56
593.587	273.56
593.796	276.56
594.006	278.56
594.215	284.56
594.424	263.56
594.634	268.56
594.843	277.56
595.053	277.56
595.262	282.56
595.472	273.56
595.681	270.56
595.89	269.56
596.1	272.56
596.309	238.56
596.518	241.56
596.727	250.56
596.937	248.56
597.146	240.56
597.355	246.56
597.564	262.56
597.774	262.56
597.983	234.56
598.192	245.56
598.401	254.56
598.61	251.56
598.819	245.56
599.028	241.56
599.237	237.56
599.446	250.56
599.655	255.56
599.864	224.56
600.073	224.56
600.282	233.56
600.491	254.56
600.7	246.56
600.909	228.56
601.118	216.56
601.327	235.56
601.536	240.56
601.745	227.56
601.953	230.56
602.162	236.56
602.371	239.56
602.58	234.56
602.789	232.56
602.997	243.56
603.206	221.56
603.415	240.56
603.623	235.56
603.832	242.56
604.041	240.56
604.249	239.56
604.458	224.56
604.666	214.56
604.875	227.56
605.084	219.56
605.292	223.56
605.501	226.56
605.709	217.56
605.918	219.56
606.126	228.56
606.334	228.56
606.543	227.56
606.751	216.56
606.96	228.56
607.168	236.56
607.376	240.56
607.585	237.56
607.793	221.56
608.001	215.56
608.21	232.56
608.418	228.56
608.626	228.56
608.834	229.56
609.043	230.56
609.251	222.56
609.459	209.56
609.667	244.56
609.875	230.56
610.083	232.56
610.291	213.56
610.499	220.56
610.707	217.56
610.916	216.56
611.124	212.56
611.332	226.56
611.54	232.56
611.748	218.56
611.955	220.56
612.163	215.56
612.371	213.56
612.579	218.56
612.787	209.56
612.995	217.56
613.203	226.56
613.411	218.56
613.618	219.56
613.826	216.56
614.034	225.56
614.242	207.56
614.449	208.56
614.657	217.56
614.865	225.56
615.072	213.56
615.28	219.56
615.488	209.56
615.695	202.56
615.903	233.56
616.111	206.56
616.318	221.56
616.526	218.56
616.733	212.56
616.941	203.56
617.148	216.56
617.356	210.56
617.563	201.56
617.771	214.56
617.978	221.56
618.185	212.56
618.393	227.56
618.6	225.56
618.807	226.56
619.015	214.56
619.222	221.56
619.429	209.56
619.637	202.56
619.844	209.56
620.051	202.56
620.258	203.56
620.466	225.56
620.673	196.56
620.88	204.56
621.087	198.56
621.294	206.56
621.501	207.56
621.708	204.56
621.915	206.56
622.122	205.56
622.329	220.56
622.536	207.56
622.743	194.56
622.95	213.56
623.157	197.56
623.364	202.56
623.571	203.56
623.778	206.56
623.985	197.56
624.192	192.56
624.399	201.56
624.606	201.56
624.812	195.56
625.019	185.56
625.226	202.56
625.433	217.56
625.639	181.56
625.846	200.56
626.053	180.56
626.259	194.56
626.466	199.56
626.673	183.56
626.879	198.56
627.086	182.56
627.293	179.56
627.499	176.56
627.706	197.56
627.912	165.56
628.119	190.56
628.325	188.56
628.532	188.56
628.738	189.56
628.945	194.56
629.151	187.56
629.357	180.56
629.564	191.56
629.77	182.56
629.976	182.56
630.183	187.56
630.389	172.56
630.595	178.56
630.802	182.56
631.008	178.56
631.214	160.56
631.42	193.56
631.627	196.56
631.833	176.56
632.039	170.56
632.245	172.56
632.451	194.56
632.657	180.56
632.863	181.56
633.069	168.56
633.275	185.56
633.481	179.56
633.688	189.56
633.893	178.56
634.099	165.56
634.305	179.56
634.511	156.56
634.717	164.56
634.923	160.56
635.129	169.56
635.335	180.56
635.541	159.56
635.747	169.56
635.952	171.56
636.158	165.56
636.364	172.56
636.57	175.56
636.775	180.56
636.981	162.56
637.187	186.56
637.392	167.56
637.598	171.56
637.804	183.56
638.009	172.56
638.215	169.56
638.421	162.56
638.626	177.56
638.832	165.56
639.037	159.56
639.243	162.56
639.448	151.56
639.654	173.56
639.859	185.56
640.065	162.56
640.27	151.56
640.475	166.56
640.681	156.56
640.886	165.56
641.091	160.56
641.297	184.56
641.502	164.56
641.707	181.56
641.913	163.56
642.118	146.56
642.323	146.56
642.528	156.56
642.733	160.56
642.939	144.56
643.144	160.56
643.349	173.56
643.554	173.56
643.759	157.56
643.964	162.56
644.169	150.56
644.374	167.56
644.579	162.56
644.784	153.56
644.989	157.56
645.194	161.56
645.399	163.56
645.604	168.56
645.809	160.56
646.014	150.56
646.219	159.56
646.423	164.56
646.628	172.56
646.833	153.56
647.038	150.56
647.243	144.56
647.447	152.56
647.652	158.56
647.857	161.56
648.062	153.56
648.266	151.56
648.471	159.56
648.676	170.56
648.88	155.56
649.085	149.56
649.289	160.56
649.494	156.56
649.698	185.56
649.903	165.56
650.107	173.56
650.312	149.56
650.516	154.56
650.721	156.56
650.925	150.56
651.13	142.56
651.334	146.56
651.539	161.56
651.743	146.56
651.947	138.56
652.152	140.56
652.356	140.56
652.56	122.56
652.764	141.56
652.969	141.56
653.173	141.56
653.377	138.56
653.581	136.56
653.785	126.56
653.99	134.56
654.194	128.56
654.398	134.56
654.602	144.56
654.806	137.56
655.01	138.56
655.214	133.56
655.418	117.56
655.622	128.56
655.826	132.56
656.03	134.56
656.234	124.56
656.438	142.56
656.642	118.56
656.846	128.56
657.049	124.56
657.253	119.56
657.457	125.56
657.661	121.56
657.865	116.56
658.068	103.56
658.272	110.56
658.476	100.56
658.68	120.56
658.883	100.56
659.087	89.56
659.291	104.56
659.494	96.56
659.698	92.56
659.901	102.56
660.105	92.56
660.309	81.56
660.512	90.56
660.716	96.56
660.919	92.56
661.123	99.56
661.326	84.56
661.53	85.56
661.733	84.56
661.936	88.56
662.14	92.56
662.343	93.56
662.546	78.56
662.75	73.56
662.953	98.56
663.156	89.56
663.36	75.56
663.563	76.56
663.766	80.56
663.969	83.56
664.173	83.56
664.376	88.56
664.579	75.56
664.782	85.56
664.985	69.56
665.188	65.56
665.391	81.56
665.594	78.56
665.797	74.56
666	81.56
666.203	70.56
666.406	82.56
666.609	97.56
666.812	93.56
667.015	93.56
667.218	83.56
667.421	92.56
667.624	92.56
667.827	74.56
668.03	76.56
668.232	72.56
668.435	80.56
668.638	69.56
668.841	89.56
669.043	80.56
669.246	79.56
669.449	85.56
669.651	78.56
669.854	91.56
670.057	85.56
670.259	92.56
670.462	88.56
670.665	79.56
670.867	98.56
671.07	84.56
671.272	72.56
671.475	80.56
671.677	84.56
671.88	85.56
672.082	81.56
672.284	89.56
672.487	90.56
672.689	86.56
672.892	73.56
