Data from 1989.PennyLincolnUp.Lamp.En5.5.200Scan.071819.P2_HRD10591_17-26-01-974.txt Node
Date: Thu Jul 18 17:26:01 EDT 2019
User: cochatt
Spectrometer: HR+D1059
Trigger mode: 1
Integration Time (sec): 1.000000E-1
Scans to average: 1
Electric dark correction enabled: true
Nonlinearity correction enabled: false
Boxcar width: 0
XAxis mode: Wavelengths
Number of Pixels in Spectrum: 2048
>>>>>Begin Spectral Data<<<<<
223.165	-15.31
223.4	-15.31
223.635	-15.31
223.869	-21.31
224.104	-27.31
224.338	-3.31
224.573	-19.31
224.808	-14.31
225.042	-10.31
225.277	-8.31
225.511	-14.31
225.746	3.69
225.98	-3.31
226.215	23.69
226.449	19.69
226.683	32.69
226.918	26.69
227.152	30.69
227.387	40.69
227.621	44.69
227.856	45.69
228.09	50.69
228.324	57.69
228.559	62.69
228.793	51.69
229.027	96.69
229.262	117.69
229.496	120.69
229.73	136.69
229.964	161.69
230.199	133.69
230.433	115.69
230.667	125.69
230.901	118.69
231.136	123.69
231.37	119.69
231.604	122.69
231.838	121.69
232.072	117.69
232.306	114.69
232.541	121.69
232.775	111.69
233.009	120.69
233.243	114.69
233.477	116.69
233.711	109.69
233.945	128.69
234.179	126.69
234.413	129.69
234.647	122.69
234.881	122.69
235.115	122.69
235.349	136.69
235.583	107.69
235.817	125.69
236.051	136.69
236.285	136.69
236.519	127.69
236.753	143.69
236.987	144.69
237.221	213.69
237.455	267.69
237.689	197.69
237.922	148.69
238.156	134.69
238.39	148.69
238.624	134.69
238.858	142.69
239.091	148.69
239.325	122.69
239.559	140.69
239.793	126.69
240.027	145.69
240.26	152.69
240.494	180.69
240.728	158.69
240.961	168.69
241.195	165.69
241.429	158.69
241.662	142.69
241.896	129.69
242.13	147.69
242.363	144.69
242.597	148.69
242.83	149.69
243.064	148.69
243.298	154.69
243.531	149.69
243.765	131.69
243.998	155.69
244.232	170.69
244.465	155.69
244.699	157.69
244.932	139.69
245.166	141.69
245.399	157.69
245.633	163.69
245.866	156.69
246.099	155.69
246.333	160.69
246.566	173.69
246.8	180.69
247.033	148.69
247.266	180.69
247.5	179.69
247.733	180.69
247.966	201.69
248.2	196.69
248.433	188.69
248.666	203.69
248.899	201.69
249.133	237.69
249.366	225.69
249.599	246.69
249.832	211.69
250.066	206.69
250.299	208.69
250.532	224.69
250.765	245.69
250.998	269.69
251.231	269.69
251.465	242.69
251.698	244.69
251.931	233.69
252.164	220.69
252.397	233.69
252.63	220.69
252.863	219.69
253.096	240.69
253.329	269.69
253.562	256.69
253.795	255.69
254.028	248.69
254.261	240.69
254.494	263.69
254.727	290.69
254.96	333.69
255.193	337.69
255.426	291.69
255.659	284.69
255.892	297.69
256.124	285.69
256.357	292.69
256.59	290.69
256.823	263.69
257.056	257.69
257.289	244.69
257.521	240.69
257.754	259.69
257.987	258.69
258.22	252.69
258.452	213.69
258.685	231.69
258.918	236.69
259.151	224.69
259.383	277.69
259.616	256.69
259.849	254.69
260.081	265.69
260.314	288.69
260.547	301.69
260.779	284.69
261.012	235.69
261.244	256.69
261.477	251.69
261.71	254.69
261.942	270.69
262.175	258.69
262.407	268.69
262.64	261.69
262.872	247.69
263.105	262.69
263.337	244.69
263.57	235.69
263.802	224.69
264.035	240.69
264.267	235.69
264.499	234.69
264.732	245.69
264.964	242.69
265.197	236.69
265.429	253.69
265.661	247.69
265.894	234.69
266.126	249.69
266.358	244.69
266.591	240.69
266.823	241.69
267.055	260.69
267.287	254.69
267.52	249.69
267.752	245.69
267.984	261.69
268.216	260.69
268.448	248.69
268.681	265.69
268.913	276.69
269.145	296.69
269.377	307.69
269.609	312.69
269.841	301.69
270.073	289.69
270.306	314.69
270.538	356.69
270.77	354.69
271.002	357.69
271.234	343.69
271.466	362.69
271.698	345.69
271.93	369.69
272.162	351.69
272.394	376.69
272.626	342.69
272.858	327.69
273.09	330.69
273.322	308.69
273.553	314.69
273.785	312.69
274.017	311.69
274.249	295.69
274.481	307.69
274.713	304.69
274.945	316.69
275.176	304.69
275.408	308.69
275.64	300.69
275.872	320.69
276.104	293.69
276.335	311.69
276.567	311.69
276.799	325.69
277.031	351.69
277.262	371.69
277.494	370.69
277.726	337.69
277.957	336.69
278.189	329.69
278.421	298.69
278.652	314.69
278.884	286.69
279.115	304.69
279.347	304.69
279.579	298.69
279.81	305.69
280.042	298.69
280.273	301.69
280.505	330.69
280.736	290.69
280.968	294.69
281.199	306.69
281.431	301.69
281.662	309.69
281.894	304.69
282.125	305.69
282.356	319.69
282.588	340.69
282.819	348.69
283.051	306.69
283.282	319.69
283.513	318.69
283.745	322.69
283.976	308.69
284.207	314.69
284.439	318.69
284.67	316.69
284.901	313.69
285.132	322.69
285.364	326.69
285.595	316.69
285.826	329.69
286.057	309.69
286.288	325.69
286.52	316.69
286.751	312.69
286.982	313.69
287.213	316.69
287.444	331.69
287.675	319.69
287.906	338.69
288.138	349.69
288.369	345.69
288.6	342.69
288.831	346.69
289.062	332.69
289.293	299.69
289.524	314.69
289.755	332.69
289.986	314.69
290.217	313.69
290.448	315.69
290.679	324.69
290.91	322.69
291.141	338.69
291.371	318.69
291.602	314.69
291.833	331.69
292.064	318.69
292.295	324.69
292.526	331.69
292.757	341.69
292.987	343.69
293.218	316.69
293.449	323.69
293.68	320.69
293.91	312.69
294.141	337.69
294.372	321.69
294.603	321.69
294.833	322.69
295.064	312.69
295.295	330.69
295.525	317.69
295.756	328.69
295.987	329.69
296.217	347.69
296.448	369.69
296.679	349.69
296.909	339.69
297.14	326.69
297.37	339.69
297.601	352.69
297.831	327.69
298.062	333.69
298.292	326.69
298.523	340.69
298.753	330.69
298.984	332.69
299.214	352.69
299.445	330.69
299.675	341.69
299.905	348.69
300.136	328.69
300.366	337.69
300.597	346.69
300.827	361.69
301.057	373.69
301.288	378.69
301.518	370.69
301.748	345.69
301.979	364.69
302.209	360.69
302.439	361.69
302.669	373.69
302.9	363.69
303.13	376.69
303.36	357.69
303.59	371.69
303.82	392.69
304.051	385.69
304.281	372.69
304.511	372.69
304.741	362.69
304.971	369.69
305.201	377.69
305.431	367.69
305.661	365.69
305.891	365.69
306.121	376.69
306.352	372.69
306.582	374.69
306.812	374.69
307.042	369.69
307.272	360.69
307.502	377.69
307.731	373.69
307.961	376.69
308.191	381.69
308.421	368.69
308.651	371.69
308.881	379.69
309.111	392.69
309.341	384.69
309.571	380.69
309.8	406.69
310.03	412.69
310.26	417.69
310.49	399.69
310.72	447.69
310.949	448.69
311.179	454.69
311.409	435.69
311.639	434.69
311.868	418.69
312.098	420.69
312.328	438.69
312.557	445.69
312.787	461.69
313.017	481.69
313.246	426.69
313.476	419.69
313.706	423.69
313.935	439.69
314.165	436.69
314.394	440.69
314.624	435.69
314.853	432.69
315.083	432.69
315.312	434.69
315.542	411.69
315.771	421.69
316.001	419.69
316.23	410.69
316.46	416.69
316.689	417.69
316.919	422.69
317.148	440.69
317.377	441.69
317.607	422.69
317.836	425.69
318.065	435.69
318.295	425.69
318.524	422.69
318.753	426.69
318.983	432.69
319.212	426.69
319.441	420.69
319.67	444.69
319.9	433.69
320.129	449.69
320.358	438.69
320.587	428.69
320.816	446.69
321.046	454.69
321.275	455.69
321.504	441.69
321.733	456.69
321.962	473.69
322.191	454.69
322.42	483.69
322.649	494.69
322.878	520.69
323.108	530.69
323.337	571.69
323.566	585.69
323.795	606.69
324.024	678.69
324.253	808.69
324.482	1201.69
324.71	1856.69
324.939	2628.69
325.168	2248.69
325.397	1180.69
325.626	784.69
325.855	679.69
326.084	611.69
326.313	606.69
326.542	603.69
326.77	652.69
326.999	786.69
327.228	1064.69
327.457	1626.69
327.686	1942.69
327.914	1345.69
328.143	878.69
328.372	781.69
328.6	682.69
328.829	656.69
329.058	700.69
329.287	704.69
329.515	661.69
329.744	621.69
329.972	635.69
330.201	644.69
330.43	715.69
330.658	718.69
330.887	714.69
331.115	697.69
331.344	613.69
331.572	562.69
331.801	568.69
332.03	551.69
332.258	545.69
332.486	513.69
332.715	529.69
332.943	522.69
333.172	525.69
333.4	521.69
333.629	528.69
333.857	576.69
334.085	579.69
334.314	592.69
334.542	646.69
334.771	700.69
334.999	592.69
335.227	532.69
335.455	546.69
335.684	507.69
335.912	490.69
336.14	492.69
336.369	498.69
336.597	521.69
336.825	505.69
337.053	521.69
337.281	500.69
337.51	493.69
337.738	490.69
337.966	491.69
338.194	501.69
338.422	485.69
338.65	493.69
338.878	462.69
339.106	473.69
339.334	477.69
339.562	473.69
339.79	468.69
340.018	444.69
340.246	451.69
340.474	482.69
340.702	468.69
340.93	468.69
341.158	466.69
341.386	450.69
341.614	463.69
341.842	472.69
342.07	462.69
342.298	457.69
342.526	466.69
342.754	445.69
342.981	448.69
343.209	473.69
343.437	447.69
343.665	475.69
343.893	463.69
344.12	483.69
344.348	470.69
344.576	494.69
344.804	500.69
345.031	471.69
345.259	468.69
345.487	497.69
345.714	484.69
345.942	460.69
346.17	446.69
346.397	454.69
346.625	454.69
346.853	453.69
347.08	444.69
347.308	451.69
347.535	466.69
347.763	481.69
347.99	463.69
348.218	483.69
348.445	491.69
348.673	479.69
348.9	461.69
349.128	453.69
349.355	428.69
349.583	435.69
349.81	437.69
350.037	425.69
350.265	438.69
350.492	424.69
350.72	434.69
350.947	415.69
351.174	458.69
351.402	482.69
351.629	462.69
351.856	445.69
352.083	470.69
352.311	476.69
352.538	466.69
352.765	475.69
352.992	455.69
353.22	455.69
353.447	462.69
353.674	445.69
353.901	435.69
354.128	414.69
354.355	419.69
354.583	421.69
354.81	429.69
355.037	426.69
355.264	416.69
355.491	401.69
355.718	410.69
355.945	416.69
356.172	408.69
356.399	411.69
356.626	410.69
356.853	404.69
357.08	419.69
357.307	410.69
357.534	410.69
357.761	404.69
357.988	409.69
358.215	416.69
358.441	406.69
358.668	426.69
358.895	418.69
359.122	412.69
359.349	432.69
359.576	446.69
359.802	470.69
360.029	516.69
360.256	522.69
360.483	491.69
360.709	440.69
360.936	426.69
361.163	445.69
361.39	438.69
361.616	422.69
361.843	428.69
362.07	459.69
362.296	450.69
362.523	436.69
362.749	440.69
362.976	441.69
363.203	434.69
363.429	443.69
363.656	433.69
363.882	425.69
364.109	418.69
364.335	445.69
364.562	415.69
364.788	436.69
365.015	422.69
365.241	432.69
365.468	415.69
365.694	443.69
365.92	444.69
366.147	425.69
366.373	418.69
366.599	412.69
366.826	408.69
367.052	398.69
367.278	408.69
367.505	410.69
367.731	415.69
367.957	438.69
368.184	406.69
368.41	410.69
368.636	425.69
368.862	439.69
369.089	428.69
369.315	435.69
369.541	407.69
369.767	417.69
369.993	421.69
370.219	404.69
370.445	415.69
370.672	405.69
370.898	419.69
371.124	443.69
371.35	424.69
371.576	410.69
371.802	411.69
372.028	414.69
372.254	414.69
372.48	397.69
372.706	410.69
372.932	381.69
373.158	405.69
373.384	418.69
373.61	402.69
373.835	425.69
374.061	414.69
374.287	418.69
374.513	420.69
374.739	427.69
374.965	437.69
375.191	407.69
375.416	422.69
375.642	408.69
375.868	414.69
376.094	423.69
376.319	391.69
376.545	410.69
376.771	391.69
376.997	402.69
377.222	394.69
377.448	390.69
377.674	399.69
377.899	395.69
378.125	406.69
378.35	406.69
378.576	399.69
378.802	411.69
379.027	411.69
379.253	417.69
379.478	389.69
379.704	393.69
379.929	397.69
380.155	404.69
380.38	404.69
380.606	409.69
380.831	405.69
381.057	408.69
381.282	396.69
381.507	397.69
381.733	412.69
381.958	406.69
382.184	414.69
382.409	396.69
382.634	411.69
382.86	405.69
383.085	409.69
383.31	403.69
383.535	418.69
383.761	412.69
383.986	409.69
384.211	416.69
384.436	437.69
384.662	424.69
384.887	426.69
385.112	413.69
385.337	426.69
385.562	436.69
385.787	423.69
386.013	420.69
386.238	448.69
386.463	444.69
386.688	426.69
386.913	425.69
387.138	437.69
387.363	408.69
387.588	420.69
387.813	415.69
388.038	426.69
388.263	443.69
388.488	437.69
388.713	431.69
388.938	420.69
389.163	457.69
389.387	435.69
389.612	429.69
389.837	418.69
390.062	444.69
390.287	411.69
390.512	434.69
390.736	412.69
390.961	426.69
391.186	418.69
391.411	434.69
391.636	442.69
391.86	429.69
392.085	408.69
392.31	418.69
392.534	422.69
392.759	427.69
392.984	428.69
393.208	432.69
393.433	430.69
393.658	425.69
393.882	432.69
394.107	436.69
394.331	419.69
394.556	420.69
394.78	444.69
395.005	423.69
395.229	411.69
395.454	431.69
395.678	430.69
395.903	466.69
396.127	440.69
396.352	466.69
396.576	454.69
396.801	439.69
397.025	439.69
397.249	438.69
397.474	443.69
397.698	450.69
397.922	448.69
398.147	476.69
398.371	475.69
398.595	476.69
398.82	455.69
399.044	478.69
399.268	496.69
399.492	525.69
399.717	554.69
399.941	579.69
400.165	583.69
400.389	586.69
400.613	540.69
400.837	493.69
401.062	500.69
401.286	489.69
401.51	487.69
401.734	468.69
401.958	492.69
402.182	486.69
402.406	498.69
402.63	503.69
402.854	513.69
403.078	489.69
403.302	500.69
403.526	489.69
403.75	500.69
403.974	487.69
404.198	501.69
404.422	527.69
404.645	525.69
404.869	500.69
405.093	557.69
405.317	574.69
405.541	642.69
405.765	560.69
405.988	568.69
406.212	554.69
406.436	537.69
406.66	552.69
406.883	570.69
407.107	590.69
407.331	621.69
407.555	650.69
407.778	681.69
408.002	605.69
408.226	581.69
408.449	559.69
408.673	541.69
408.896	582.69
409.12	626.69
409.344	585.69
409.567	546.69
409.791	506.69
410.014	525.69
410.238	525.69
410.461	496.69
410.685	531.69
410.908	536.69
411.132	539.69
411.355	607.69
411.578	578.69
411.802	526.69
412.025	532.69
412.249	523.69
412.472	558.69
412.695	617.69
412.919	590.69
413.142	541.69
413.365	515.69
413.589	501.69
413.812	476.69
414.035	476.69
414.258	466.69
414.482	482.69
414.705	466.69
414.928	455.69
415.151	500.69
415.374	480.69
415.597	482.69
415.821	472.69
416.044	490.69
416.267	480.69
416.49	478.69
416.713	473.69
416.936	449.69
417.159	458.69
417.382	485.69
417.605	475.69
417.828	496.69
418.051	500.69
418.274	498.69
418.497	478.69
418.72	474.69
418.943	478.69
419.166	491.69
419.389	513.69
419.611	501.69
419.834	508.69
420.057	508.69
420.28	512.69
420.503	499.69
420.726	500.69
420.948	547.69
421.171	568.69
421.394	583.69
421.617	525.69
421.839	502.69
422.062	515.69
422.285	508.69
422.507	564.69
422.73	634.69
422.953	612.69
423.175	536.69
423.398	532.69
423.621	521.69
423.843	541.69
424.066	551.69
424.288	552.69
424.511	563.69
424.733	598.69
424.956	681.69
425.178	673.69
425.401	656.69
425.623	694.69
425.846	602.69
426.068	544.69
426.291	534.69
426.513	531.69
426.735	548.69
426.958	595.69
427.18	701.69
427.402	808.69
427.625	888.69
427.847	816.69
428.069	703.69
428.292	634.69
428.514	582.69
428.736	523.69
428.958	535.69
429.181	497.69
429.403	496.69
429.625	523.69
429.847	548.69
430.069	599.69
430.292	608.69
430.514	516.69
430.736	485.69
430.958	483.69
431.18	471.69
431.402	480.69
431.624	462.69
431.846	449.69
432.068	459.69
432.29	466.69
432.512	456.69
432.734	480.69
432.956	452.69
433.178	477.69
433.4	503.69
433.622	470.69
433.844	474.69
434.066	477.69
434.287	455.69
434.509	461.69
434.731	477.69
434.953	513.69
435.175	489.69
435.397	531.69
435.618	538.69
435.84	586.69
436.062	701.69
436.284	783.69
436.505	621.69
436.727	571.69
436.949	498.69
437.17	515.69
437.392	507.69
437.614	514.69
437.835	552.69
438.057	674.69
438.278	761.69
438.5	767.69
438.721	791.69
438.943	788.69
439.165	631.69
439.386	596.69
439.608	559.69
439.829	570.69
440.05	598.69
440.272	610.69
440.493	606.69
440.715	553.69
440.936	524.69
441.158	508.69
441.379	497.69
441.6	518.69
441.822	544.69
442.043	578.69
442.264	670.69
442.486	730.69
442.707	626.69
442.928	553.69
443.149	558.69
443.371	594.69
443.592	620.69
443.813	747.69
444.034	777.69
444.255	641.69
444.476	573.69
444.698	539.69
444.919	538.69
445.14	654.69
445.361	610.69
445.582	594.69
445.803	652.69
446.024	774.69
446.245	819.69
446.466	712.69
446.687	589.69
446.908	546.69
447.129	523.69
447.35	515.69
447.571	518.69
447.792	492.69
448.013	516.69
448.234	533.69
448.455	592.69
448.675	695.69
448.896	806.69
449.117	708.69
449.338	654.69
449.559	750.69
449.779	852.69
450	706.69
450.221	576.69
450.442	523.69
450.662	496.69
450.883	500.69
451.104	530.69
451.324	517.69
451.545	464.69
451.766	458.69
451.986	442.69
452.207	448.69
452.428	442.69
452.648	434.69
452.869	458.69
453.089	466.69
453.31	475.69
453.53	435.69
453.751	442.69
453.971	466.69
454.192	477.69
454.412	474.69
454.633	420.69
454.853	443.69
455.073	448.69
455.294	472.69
455.514	550.69
455.734	523.69
455.955	452.69
456.175	418.69
456.395	441.69
456.616	436.69
456.836	432.69
457.056	437.69
457.276	407.69
457.497	415.69
457.717	397.69
457.937	432.69
458.157	418.69
458.377	422.69
458.598	458.69
458.818	523.69
459.038	628.69
459.258	654.69
459.478	534.69
459.698	482.69
459.918	461.69
460.138	461.69
460.358	465.69
460.578	476.69
460.798	480.69
461.018	464.69
461.238	467.69
461.458	438.69
461.678	464.69
461.898	457.69
462.118	445.69
462.338	473.69
462.558	465.69
462.777	459.69
462.997	477.69
463.217	492.69
463.437	480.69
463.657	482.69
463.876	475.69
464.096	476.69
464.316	480.69
464.536	478.69
464.755	495.69
464.975	488.69
465.195	544.69
465.414	628.69
465.634	557.69
465.854	522.69
466.073	477.69
466.293	476.69
466.512	443.69
466.732	449.69
466.951	453.69
467.171	453.69
467.391	462.69
467.61	456.69
467.829	483.69
468.049	496.69
468.268	475.69
468.488	454.69
468.707	438.69
468.927	445.69
469.146	427.69
469.365	435.69
469.585	441.69
469.804	457.69
470.023	453.69
470.243	452.69
470.462	459.69
470.681	482.69
470.901	488.69
471.12	466.69
471.339	456.69
471.558	467.69
471.777	482.69
471.997	458.69
472.216	465.69
472.435	532.69
472.654	506.69
472.873	471.69
473.092	476.69
473.311	438.69
473.53	476.69
473.749	478.69
473.968	517.69
474.187	635.69
474.406	672.69
474.625	541.69
474.844	468.69
475.063	477.69
475.282	475.69
475.501	468.69
475.72	476.69
475.939	493.69
476.158	476.69
476.377	476.69
476.596	488.69
476.814	477.69
477.033	489.69
477.252	476.69
477.471	493.69
477.69	507.69
477.908	496.69
478.127	488.69
478.346	503.69
478.564	506.69
478.783	499.69
479.002	520.69
479.22	528.69
479.439	530.69
479.658	544.69
479.876	567.69
480.095	566.69
480.313	597.69
480.532	551.69
480.751	579.69
480.969	585.69
481.188	707.69
481.406	764.69
481.624	652.69
481.843	569.69
482.061	572.69
482.28	542.69
482.498	553.69
482.717	547.69
482.935	540.69
483.153	525.69
483.372	552.69
483.59	549.69
483.808	531.69
484.027	537.69
484.245	545.69
484.463	532.69
484.681	530.69
484.9	547.69
485.118	574.69
485.336	546.69
485.554	552.69
485.772	535.69
485.99	553.69
486.209	554.69
486.427	580.69
486.645	592.69
486.863	591.69
487.081	595.69
487.299	589.69
487.517	592.69
487.735	589.69
487.953	556.69
488.171	592.69
488.389	579.69
488.607	564.69
488.825	589.69
489.043	579.69
489.261	585.69
489.479	594.69
489.696	617.69
489.914	573.69
490.132	596.69
490.35	591.69
490.568	613.69
490.786	636.69
491.003	640.69
491.221	648.69
491.439	666.69
491.657	668.69
491.874	680.69
492.092	708.69
492.31	707.69
492.527	680.69
492.745	685.69
492.963	671.69
493.18	700.69
493.398	713.69
493.615	700.69
493.833	713.69
494.05	677.69
494.268	688.69
494.485	716.69
494.703	702.69
494.92	697.69
495.138	668.69
495.355	703.69
495.573	722.69
495.79	693.69
496.008	692.69
496.225	686.69
496.442	716.69
496.66	718.69
496.877	696.69
497.094	696.69
497.312	717.69
497.529	707.69
497.746	716.69
497.963	744.69
498.181	760.69
498.398	759.69
498.615	742.69
498.832	758.69
499.049	754.69
499.267	782.69
499.484	798.69
499.701	802.69
499.918	832.69
500.135	882.69
500.352	890.69
500.569	906.69
500.786	904.69
501.003	921.69
501.22	901.69
501.437	836.69
501.654	834.69
501.871	857.69
502.088	839.69
502.305	801.69
502.522	789.69
502.739	793.69
502.956	742.69
503.172	735.69
503.389	726.69
503.606	744.69
503.823	693.69
504.04	694.69
504.256	679.69
504.473	688.69
504.69	698.69
504.907	699.69
505.123	676.69
505.34	669.69
505.557	674.69
505.773	685.69
505.99	668.69
506.207	680.69
506.423	673.69
506.64	667.69
506.856	646.69
507.073	646.69
507.289	654.69
507.506	662.69
507.722	657.69
507.939	683.69
508.155	651.69
508.372	649.69
508.588	622.69
508.805	642.69
509.021	662.69
509.238	656.69
509.454	664.69
509.67	653.69
509.887	629.69
510.103	616.69
510.319	644.69
510.536	756.69
510.752	1284.69
510.968	1073.69
511.184	664.69
511.401	621.69
511.617	600.69
511.833	635.69
512.049	614.69
512.265	618.69
512.481	612.69
512.698	602.69
512.914	614.69
513.13	602.69
513.346	616.69
513.562	584.69
513.778	602.69
513.994	604.69
514.21	630.69
514.426	662.69
514.642	674.69
514.858	727.69
515.074	775.69
515.29	937.69
515.506	1404.69
515.721	1133.69
515.937	764.69
516.153	683.69
516.369	629.69
516.585	621.69
516.801	628.69
517.016	622.69
517.232	609.69
517.448	624.69
517.664	608.69
517.879	615.69
518.095	562.69
518.311	611.69
518.527	612.69
518.742	587.69
518.958	602.69
519.173	594.69
519.389	614.69
519.605	597.69
519.82	608.69
520.036	616.69
520.251	642.69
520.467	676.69
520.682	678.69
520.898	668.69
521.113	694.69
521.329	757.69
521.544	840.69
521.76	1114.69
521.975	1828.69
522.19	1755.69
522.406	956.69
522.621	686.69
522.836	625.69
523.052	616.69
523.267	572.69
523.482	568.69
523.698	556.69
523.913	563.69
524.128	557.69
524.343	528.69
524.559	524.69
524.774	539.69
524.989	543.69
525.204	516.69
525.419	524.69
525.634	509.69
525.849	517.69
526.064	515.69
526.28	503.69
526.495	504.69
526.71	478.69
526.925	524.69
527.14	493.69
527.355	488.69
527.57	484.69
527.785	478.69
527.999	470.69
528.214	474.69
528.429	494.69
528.644	480.69
528.859	496.69
529.074	496.69
529.289	496.69
529.503	603.69
529.718	579.69
529.933	540.69
530.148	522.69
530.363	500.69
530.577	484.69
530.792	491.69
531.007	461.69
531.221	497.69
531.436	482.69
531.651	461.69
531.865	465.69
532.08	473.69
532.295	472.69
532.509	464.69
532.724	452.69
532.938	464.69
533.153	463.69
533.367	469.69
533.582	462.69
533.796	448.69
534.011	454.69
534.225	476.69
534.44	463.69
534.654	453.69
534.868	471.69
535.083	461.69
535.297	472.69
535.511	465.69
535.726	462.69
535.94	470.69
536.154	459.69
536.369	463.69
536.583	457.69
536.797	435.69
537.011	427.69
537.225	420.69
537.44	422.69
537.654	446.69
537.868	434.69
538.082	452.69
538.296	462.69
538.51	440.69
538.724	428.69
538.938	435.69
539.153	459.69
539.367	461.69
539.581	451.69
539.795	453.69
540.009	451.69
540.222	425.69
540.436	466.69
540.65	439.69
540.864	448.69
541.078	449.69
541.292	470.69
541.506	458.69
541.72	443.69
541.934	446.69
542.147	414.69
542.361	442.69
542.575	412.69
542.789	428.69
543.002	453.69
543.216	424.69
543.43	438.69
543.644	449.69
543.857	439.69
544.071	444.69
544.285	443.69
544.498	451.69
544.712	427.69
544.925	430.69
545.139	434.69
545.352	419.69
545.566	434.69
545.779	419.69
545.993	427.69
546.206	410.69
546.42	426.69
546.633	423.69
546.847	419.69
547.06	399.69
547.274	412.69
547.487	422.69
547.7	421.69
547.914	408.69
548.127	404.69
548.34	397.69
548.554	413.69
548.767	420.69
548.98	413.69
549.193	399.69
549.407	416.69
549.62	403.69
549.833	418.69
550.046	408.69
550.259	424.69
550.473	420.69
550.686	411.69
550.899	401.69
551.112	394.69
551.325	393.69
551.538	400.69
551.751	385.69
551.964	396.69
552.177	411.69
552.39	390.69
552.603	394.69
552.816	397.69
553.029	387.69
553.242	411.69
553.455	428.69
553.667	436.69
553.88	427.69
554.093	432.69
554.306	423.69
554.519	425.69
554.732	403.69
554.944	396.69
555.157	410.69
555.37	405.69
555.583	384.69
555.795	391.69
556.008	393.69
556.221	383.69
556.433	375.69
556.646	381.69
556.859	376.69
557.071	386.69
557.284	386.69
557.496	377.69
557.709	370.69
557.921	374.69
558.134	349.69
558.346	370.69
558.559	378.69
558.771	380.69
558.984	370.69
559.196	359.69
559.409	358.69
559.621	359.69
559.833	370.69
560.046	378.69
560.258	381.69
560.47	360.69
560.683	357.69
560.895	360.69
561.107	369.69
561.32	357.69
561.532	375.69
561.744	363.69
561.956	380.69
562.168	376.69
562.381	355.69
562.593	367.69
562.805	354.69
563.017	376.69
563.229	361.69
563.441	368.69
563.653	368.69
563.865	375.69
564.077	379.69
564.289	368.69
564.501	396.69
564.713	395.69
564.925	386.69
565.137	381.69
565.349	372.69
565.561	389.69
565.773	409.69
565.985	394.69
566.197	410.69
566.408	411.69
566.62	416.69
566.832	423.69
567.044	409.69
567.255	430.69
567.467	416.69
567.679	428.69
567.891	430.69
568.102	440.69
568.314	424.69
568.526	420.69
568.737	408.69
568.949	397.69
569.161	373.69
569.372	387.69
569.584	380.69
569.795	376.69
570.007	398.69
570.218	416.69
570.43	384.69
570.641	357.69
570.853	361.69
571.064	363.69
571.276	362.69
571.487	361.69
571.698	338.69
571.91	349.69
572.121	339.69
572.333	324.69
572.544	335.69
572.755	333.69
572.966	331.69
573.178	330.69
573.389	341.69
573.6	326.69
573.811	305.69
574.023	315.69
574.234	318.69
574.445	317.69
574.656	314.69
574.867	331.69
575.078	319.69
575.289	327.69
575.501	308.69
575.712	324.69
575.923	297.69
576.134	308.69
576.345	314.69
576.556	308.69
576.767	316.69
576.978	322.69
577.188	315.69
577.399	317.69
577.61	301.69
577.821	314.69
578.032	319.69
578.243	367.69
578.454	580.69
578.665	428.69
578.875	328.69
579.086	284.69
579.297	309.69
579.508	299.69
579.718	295.69
579.929	289.69
580.14	315.69
580.35	277.69
580.561	294.69
580.772	296.69
580.982	288.69
581.193	291.69
581.403	297.69
581.614	290.69
581.825	296.69
582.035	290.69
582.246	307.69
582.456	290.69
582.667	296.69
582.877	311.69
583.087	281.69
583.298	301.69
583.508	287.69
583.719	286.69
583.929	294.69
584.139	286.69
584.35	274.69
584.56	308.69
584.77	272.69
584.981	289.69
585.191	283.69
585.401	293.69
585.611	280.69
585.821	270.69
586.032	267.69
586.242	282.69
586.452	304.69
586.662	280.69
586.872	280.69
587.082	292.69
587.292	282.69
587.502	272.69
587.713	268.69
587.923	282.69
588.133	264.69
588.343	278.69
588.553	263.69
588.762	274.69
588.972	278.69
589.182	284.69
589.392	281.69
589.602	299.69
589.812	279.69
590.022	276.69
590.232	269.69
590.441	269.69
590.651	276.69
590.861	281.69
591.071	291.69
591.281	258.69
591.49	252.69
591.7	282.69
591.91	270.69
592.119	282.69
592.329	294.69
592.539	300.69
592.748	288.69
592.958	290.69
593.167	283.69
593.377	277.69
593.587	306.69
593.796	299.69
594.006	277.69
594.215	297.69
594.424	285.69
594.634	285.69
594.843	265.69
595.053	291.69
595.262	277.69
595.472	274.69
595.681	283.69
595.89	268.69
596.1	281.69
596.309	260.69
596.518	269.69
596.727	265.69
596.937	264.69
597.146	255.69
597.355	247.69
597.564	276.69
597.774	261.69
597.983	240.69
598.192	259.69
598.401	251.69
598.61	245.69
598.819	258.69
599.028	264.69
599.237	260.69
599.446	266.69
599.655	266.69
599.864	262.69
600.073	240.69
600.282	261.69
600.491	253.69
600.7	253.69
600.909	248.69
601.118	253.69
601.327	264.69
601.536	234.69
601.745	243.69
601.953	246.69
602.162	257.69
602.371	234.69
602.58	236.69
602.789	220.69
602.997	240.69
603.206	247.69
603.415	264.69
603.623	250.69
603.832	248.69
604.041	234.69
604.249	258.69
604.458	232.69
604.666	229.69
604.875	235.69
605.084	233.69
605.292	228.69
605.501	256.69
605.709	240.69
605.918	228.69
606.126	219.69
606.334	257.69
606.543	232.69
606.751	224.69
606.96	244.69
607.168	229.69
607.376	226.69
607.585	227.69
607.793	230.69
608.001	233.69
608.21	227.69
608.418	227.69
608.626	227.69
608.834	222.69
609.043	222.69
609.251	240.69
609.459	225.69
609.667	244.69
609.875	222.69
610.083	218.69
610.291	232.69
610.499	235.69
610.707	226.69
610.916	223.69
611.124	232.69
611.332	230.69
611.54	265.69
611.748	232.69
611.955	232.69
612.163	226.69
612.371	220.69
612.579	229.69
612.787	227.69
612.995	228.69
613.203	219.69
613.411	227.69
613.618	233.69
613.826	232.69
614.034	225.69
614.242	227.69
614.449	213.69
614.657	217.69
614.865	231.69
615.072	219.69
615.28	208.69
615.488	231.69
615.695	235.69
615.903	221.69
616.111	233.69
616.318	221.69
616.526	219.69
616.733	219.69
616.941	208.69
617.148	218.69
617.356	223.69
617.563	232.69
617.771	204.69
617.978	213.69
618.185	227.69
618.393	206.69
618.6	225.69
618.807	221.69
619.015	201.69
619.222	213.69
619.429	222.69
619.637	218.69
619.844	222.69
620.051	212.69
620.258	207.69
620.466	223.69
620.673	211.69
620.88	211.69
621.087	224.69
621.294	217.69
621.501	215.69
621.708	217.69
621.915	217.69
622.122	209.69
622.329	218.69
622.536	204.69
622.743	226.69
622.95	218.69
623.157	191.69
623.364	199.69
623.571	195.69
623.778	192.69
623.985	192.69
624.192	198.69
624.399	211.69
624.606	206.69
624.812	212.69
625.019	197.69
625.226	211.69
625.433	198.69
625.639	189.69
625.846	196.69
626.053	194.69
626.259	202.69
626.466	214.69
626.673	212.69
626.879	193.69
627.086	192.69
627.293	191.69
627.499	207.69
627.706	190.69
627.912	201.69
628.119	201.69
628.325	202.69
628.532	194.69
628.738	192.69
628.945	186.69
629.151	200.69
629.357	187.69
629.564	196.69
629.77	201.69
629.976	209.69
630.183	172.69
630.389	186.69
630.595	187.69
630.802	193.69
631.008	183.69
631.214	189.69
631.42	187.69
631.627	196.69
631.833	178.69
632.039	191.69
632.245	182.69
632.451	193.69
632.657	175.69
632.863	174.69
633.069	184.69
633.275	177.69
633.481	188.69
633.688	182.69
633.893	196.69
634.099	184.69
634.305	182.69
634.511	188.69
634.717	177.69
634.923	164.69
635.129	173.69
635.335	174.69
635.541	177.69
635.747	170.69
635.952	159.69
636.158	180.69
636.364	191.69
636.57	185.69
636.775	185.69
636.981	174.69
637.187	177.69
637.392	163.69
637.598	173.69
637.804	170.69
638.009	170.69
638.215	178.69
638.421	172.69
638.626	179.69
638.832	168.69
639.037	140.69
639.243	166.69
639.448	172.69
639.654	163.69
639.859	178.69
640.065	169.69
640.27	165.69
640.475	173.69
640.681	156.69
640.886	173.69
641.091	160.69
641.297	165.69
641.502	165.69
641.707	170.69
641.913	161.69
642.118	167.69
642.323	153.69
642.528	173.69
642.733	166.69
642.939	166.69
643.144	158.69
643.349	161.69
643.554	154.69
643.759	144.69
643.964	162.69
644.169	150.69
644.374	158.69
644.579	172.69
644.784	164.69
644.989	159.69
645.194	176.69
645.399	156.69
645.604	154.69
645.809	150.69
646.014	147.69
646.219	146.69
646.423	167.69
646.628	160.69
646.833	148.69
647.038	168.69
647.243	172.69
647.447	159.69
647.652	163.69
647.857	168.69
648.062	165.69
648.266	156.69
648.471	160.69
648.676	173.69
648.88	176.69
649.085	166.69
649.289	162.69
649.494	190.69
649.698	196.69
649.903	204.69
650.107	167.69
650.312	162.69
650.516	152.69
650.721	150.69
650.925	154.69
651.13	137.69
651.334	146.69
651.539	133.69
651.743	147.69
651.947	148.69
652.152	140.69
652.356	142.69
652.56	144.69
652.764	130.69
652.969	129.69
653.173	141.69
653.377	141.69
653.581	152.69
653.785	143.69
653.99	130.69
654.194	133.69
654.398	142.69
654.602	126.69
654.806	139.69
655.01	149.69
655.214	144.69
655.418	137.69
655.622	138.69
655.826	134.69
656.03	108.69
656.234	131.69
656.438	128.69
656.642	142.69
656.846	115.69
657.049	124.69
657.253	120.69
657.457	122.69
657.661	110.69
657.865	100.69
658.068	115.69
658.272	103.69
658.476	97.69
658.68	123.69
658.883	106.69
659.087	94.69
659.291	114.69
659.494	94.69
659.698	93.69
659.901	96.69
660.105	88.69
660.309	105.69
660.512	100.69
660.716	80.69
660.919	92.69
661.123	106.69
661.326	103.69
661.53	110.69
661.733	91.69
661.936	74.69
662.14	95.69
662.343	78.69
662.546	84.69
662.75	95.69
662.953	88.69
663.156	81.69
663.36	85.69
663.563	69.69
663.766	93.69
663.969	100.69
664.173	89.69
664.376	90.69
664.579	85.69
664.782	91.69
664.985	84.69
665.188	77.69
665.391	84.69
665.594	84.69
665.797	89.69
666	86.69
666.203	83.69
666.406	91.69
666.609	91.69
666.812	84.69
667.015	91.69
667.218	77.69
667.421	83.69
667.624	92.69
667.827	83.69
668.03	85.69
668.232	74.69
668.435	89.69
668.638	80.69
668.841	91.69
669.043	79.69
669.246	91.69
669.449	80.69
669.651	60.69
669.854	77.69
670.057	78.69
670.259	82.69
670.462	84.69
670.665	77.69
670.867	97.69
671.07	73.69
671.272	84.69
671.475	73.69
671.677	76.69
671.88	72.69
672.082	101.69
672.284	88.69
672.487	91.69
672.689	88.69
672.892	84.69
