Data from 1989.PennyLincolnUp.Lamp.En5.5.200Scan.071819.P2_HRD10591_17-23-34-975.txt Node
Date: Thu Jul 18 17:23:34 EDT 2019
User: cochatt
Spectrometer: HR+D1059
Trigger mode: 1
Integration Time (sec): 1.000000E-1
Scans to average: 1
Electric dark correction enabled: true
Nonlinearity correction enabled: false
Boxcar width: 0
XAxis mode: Wavelengths
Number of Pixels in Spectrum: 2048
>>>>>Begin Spectral Data<<<<<
223.165	-21.25
223.4	-21.25
223.635	-21.25
223.869	-21.25
224.104	-21.25
224.338	-8.25
224.573	-21.25
224.808	-14.25
225.042	1.75
225.277	3.75
225.511	-7.25
225.746	3.75
225.98	-1.25
226.215	6.75
226.449	28.75
226.683	15.75
226.918	19.75
227.152	35.75
227.387	34.75
227.621	41.75
227.856	43.75
228.09	41.75
228.324	54.75
228.559	54.75
228.793	65.75
229.027	100.75
229.262	120.75
229.496	103.75
229.73	118.75
229.964	146.75
230.199	132.75
230.433	116.75
230.667	115.75
230.901	115.75
231.136	103.75
231.37	114.75
231.604	116.75
231.838	107.75
232.072	126.75
232.306	123.75
232.541	102.75
232.775	109.75
233.009	117.75
233.243	122.75
233.477	111.75
233.711	118.75
233.945	120.75
234.179	118.75
234.413	121.75
234.647	128.75
234.881	122.75
235.115	116.75
235.349	113.75
235.583	126.75
235.817	125.75
236.051	135.75
236.285	140.75
236.519	127.75
236.753	144.75
236.987	148.75
237.221	182.75
237.455	223.75
237.689	184.75
237.922	148.75
238.156	132.75
238.39	126.75
238.624	134.75
238.858	127.75
239.091	145.75
239.325	127.75
239.559	123.75
239.793	119.75
240.027	129.75
240.26	152.75
240.494	144.75
240.728	138.75
240.961	136.75
241.195	136.75
241.429	135.75
241.662	143.75
241.896	147.75
242.13	139.75
242.363	135.75
242.597	148.75
242.83	132.75
243.064	126.75
243.298	158.75
243.531	134.75
243.765	139.75
243.998	142.75
244.232	142.75
244.465	145.75
244.699	149.75
244.932	148.75
245.166	142.75
245.399	145.75
245.633	151.75
245.866	155.75
246.099	143.75
246.333	152.75
246.566	142.75
246.8	145.75
247.033	168.75
247.266	166.75
247.5	159.75
247.733	168.75
247.966	176.75
248.2	173.75
248.433	169.75
248.666	181.75
248.899	190.75
249.133	211.75
249.366	232.75
249.599	210.75
249.832	204.75
250.066	192.75
250.299	191.75
250.532	198.75
250.765	197.75
250.998	220.75
251.231	233.75
251.465	224.75
251.698	222.75
251.931	195.75
252.164	187.75
252.397	202.75
252.63	212.75
252.863	204.75
253.096	231.75
253.329	242.75
253.562	239.75
253.795	226.75
254.028	230.75
254.261	223.75
254.494	239.75
254.727	270.75
254.96	299.75
255.193	267.75
255.426	256.75
255.659	254.75
255.892	222.75
256.124	231.75
256.357	218.75
256.59	222.75
256.823	212.75
257.056	213.75
257.289	214.75
257.521	226.75
257.754	218.75
257.987	213.75
258.22	223.75
258.452	201.75
258.685	206.75
258.918	210.75
259.151	217.75
259.383	234.75
259.616	236.75
259.849	239.75
260.081	258.75
260.314	262.75
260.547	281.75
260.779	262.75
261.012	236.75
261.244	233.75
261.477	229.75
261.71	231.75
261.942	226.75
262.175	241.75
262.407	224.75
262.64	227.75
262.872	230.75
263.105	222.75
263.337	229.75
263.57	243.75
263.802	214.75
264.035	228.75
264.267	222.75
264.499	224.75
264.732	217.75
264.964	220.75
265.197	221.75
265.429	225.75
265.661	232.75
265.894	231.75
266.126	234.75
266.358	233.75
266.591	236.75
266.823	225.75
267.055	233.75
267.287	245.75
267.52	236.75
267.752	238.75
267.984	227.75
268.216	228.75
268.448	262.75
268.681	247.75
268.913	251.75
269.145	298.75
269.377	302.75
269.609	271.75
269.841	257.75
270.073	295.75
270.306	306.75
270.538	320.75
270.77	335.75
271.002	308.75
271.234	328.75
271.466	299.75
271.698	307.75
271.93	320.75
272.162	325.75
272.394	336.75
272.626	293.75
272.858	298.75
273.09	285.75
273.322	278.75
273.553	288.75
273.785	268.75
274.017	273.75
274.249	264.75
274.481	292.75
274.713	283.75
274.945	269.75
275.176	264.75
275.408	280.75
275.64	264.75
275.872	278.75
276.104	289.75
276.335	278.75
276.567	277.75
276.799	301.75
277.031	323.75
277.262	320.75
277.494	312.75
277.726	313.75
277.957	290.75
278.189	298.75
278.421	297.75
278.652	290.75
278.884	284.75
279.115	270.75
279.347	288.75
279.579	278.75
279.81	290.75
280.042	278.75
280.273	286.75
280.505	265.75
280.736	264.75
280.968	302.75
281.199	279.75
281.431	282.75
281.662	266.75
281.894	284.75
282.125	289.75
282.356	298.75
282.588	314.75
282.819	308.75
283.051	286.75
283.282	280.75
283.513	296.75
283.745	294.75
283.976	291.75
284.207	278.75
284.439	291.75
284.67	289.75
284.901	263.75
285.132	298.75
285.364	313.75
285.595	292.75
285.826	281.75
286.057	320.75
286.288	289.75
286.52	273.75
286.751	278.75
286.982	276.75
287.213	283.75
287.444	297.75
287.675	288.75
287.906	308.75
288.138	310.75
288.369	322.75
288.6	286.75
288.831	310.75
289.062	308.75
289.293	309.75
289.524	274.75
289.755	295.75
289.986	298.75
290.217	303.75
290.448	304.75
290.679	312.75
290.91	290.75
291.141	301.75
291.371	310.75
291.602	303.75
291.833	310.75
292.064	287.75
292.295	316.75
292.526	300.75
292.757	289.75
292.987	296.75
293.218	309.75
293.449	317.75
293.68	295.75
293.91	287.75
294.141	292.75
294.372	313.75
294.603	309.75
294.833	306.75
295.064	310.75
295.295	287.75
295.525	292.75
295.756	315.75
295.987	320.75
296.217	332.75
296.448	331.75
296.679	307.75
296.909	307.75
297.14	307.75
297.37	307.75
297.601	311.75
297.831	304.75
298.062	299.75
298.292	314.75
298.523	319.75
298.753	295.75
298.984	314.75
299.214	296.75
299.445	306.75
299.675	312.75
299.905	313.75
300.136	294.75
300.366	322.75
300.597	330.75
300.827	315.75
301.057	315.75
301.288	322.75
301.518	324.75
301.748	328.75
301.979	347.75
302.209	338.75
302.439	320.75
302.669	335.75
302.9	316.75
303.13	328.75
303.36	314.75
303.59	329.75
303.82	346.75
304.051	328.75
304.281	347.75
304.511	338.75
304.741	334.75
304.971	343.75
305.201	335.75
305.431	326.75
305.661	342.75
305.891	322.75
306.121	342.75
306.352	329.75
306.582	343.75
306.812	340.75
307.042	329.75
307.272	340.75
307.502	338.75
307.731	350.75
307.961	341.75
308.191	320.75
308.421	342.75
308.651	335.75
308.881	336.75
309.111	350.75
309.341	366.75
309.571	363.75
309.8	372.75
310.03	358.75
310.26	380.75
310.49	376.75
310.72	385.75
310.949	396.75
311.179	401.75
311.409	389.75
311.639	366.75
311.868	371.75
312.098	390.75
312.328	397.75
312.557	374.75
312.787	420.75
313.017	413.75
313.246	394.75
313.476	389.75
313.706	382.75
313.935	392.75
314.165	398.75
314.394	399.75
314.624	402.75
314.853	378.75
315.083	384.75
315.312	396.75
315.542	371.75
315.771	385.75
316.001	359.75
316.23	368.75
316.46	377.75
316.689	382.75
316.919	389.75
317.148	400.75
317.377	398.75
317.607	395.75
317.836	392.75
318.065	384.75
318.295	384.75
318.524	380.75
318.753	390.75
318.983	362.75
319.212	373.75
319.441	384.75
319.67	412.75
319.9	398.75
320.129	398.75
320.358	382.75
320.587	398.75
320.816	400.75
321.046	410.75
321.275	404.75
321.504	412.75
321.733	412.75
321.962	414.75
322.191	434.75
322.42	439.75
322.649	424.75
322.878	461.75
323.108	479.75
323.337	480.75
323.566	521.75
323.795	522.75
324.024	546.75
324.253	674.75
324.482	984.75
324.71	1486.75
324.939	2141.75
325.168	1861.75
325.397	966.75
325.626	649.75
325.855	549.75
326.084	500.75
326.313	514.75
326.542	499.75
326.77	544.75
326.999	659.75
327.228	869.75
327.457	1295.75
327.686	1579.75
327.914	1052.75
328.143	699.75
328.372	602.75
328.6	572.75
328.829	546.75
329.058	570.75
329.287	599.75
329.515	541.75
329.744	514.75
329.972	484.75
330.201	482.75
330.43	506.75
330.658	540.75
330.887	610.75
331.115	571.75
331.344	526.75
331.572	489.75
331.801	466.75
332.03	451.75
332.258	458.75
332.486	449.75
332.715	452.75
332.943	459.75
333.172	434.75
333.4	451.75
333.629	448.75
333.857	473.75
334.085	460.75
334.314	456.75
334.542	459.75
334.771	458.75
334.999	454.75
335.227	439.75
335.455	459.75
335.684	408.75
335.912	445.75
336.14	418.75
336.369	426.75
336.597	444.75
336.825	454.75
337.053	442.75
337.281	437.75
337.51	435.75
337.738	419.75
337.966	425.75
338.194	445.75
338.422	431.75
338.65	442.75
338.878	406.75
339.106	437.75
339.334	423.75
339.562	423.75
339.79	420.75
340.018	406.75
340.246	439.75
340.474	442.75
340.702	415.75
340.93	420.75
341.158	415.75
341.386	435.75
341.614	420.75
341.842	425.75
342.07	445.75
342.298	425.75
342.526	424.75
342.754	410.75
342.981	399.75
343.209	414.75
343.437	423.75
343.665	415.75
343.893	426.75
344.12	428.75
344.348	430.75
344.576	413.75
344.804	426.75
345.031	429.75
345.259	446.75
345.487	415.75
345.714	407.75
345.942	424.75
346.17	418.75
346.397	399.75
346.625	403.75
346.853	395.75
347.08	393.75
347.308	438.75
347.535	406.75
347.763	419.75
347.99	425.75
348.218	412.75
348.445	428.75
348.673	424.75
348.9	421.75
349.128	413.75
349.355	400.75
349.583	418.75
349.81	375.75
350.037	390.75
350.265	406.75
350.492	398.75
350.72	364.75
350.947	393.75
351.174	414.75
351.402	410.75
351.629	421.75
351.856	410.75
352.083	417.75
352.311	423.75
352.538	432.75
352.765	407.75
352.992	408.75
353.22	418.75
353.447	418.75
353.674	398.75
353.901	393.75
354.128	376.75
354.355	387.75
354.583	407.75
354.81	389.75
355.037	380.75
355.264	379.75
355.491	390.75
355.718	363.75
355.945	390.75
356.172	378.75
356.399	372.75
356.626	368.75
356.853	367.75
357.08	394.75
357.307	373.75
357.534	364.75
357.761	375.75
357.988	384.75
358.215	389.75
358.441	376.75
358.668	403.75
358.895	391.75
359.122	414.75
359.349	391.75
359.576	410.75
359.802	426.75
360.029	440.75
360.256	450.75
360.483	425.75
360.709	405.75
360.936	421.75
361.163	401.75
361.39	399.75
361.616	415.75
361.843	405.75
362.07	393.75
362.296	394.75
362.523	401.75
362.749	406.75
362.976	400.75
363.203	405.75
363.429	386.75
363.656	374.75
363.882	393.75
364.109	375.75
364.335	378.75
364.562	383.75
364.788	388.75
365.015	391.75
365.241	379.75
365.468	404.75
365.694	384.75
365.92	394.75
366.147	391.75
366.373	374.75
366.599	378.75
366.826	382.75
367.052	376.75
367.278	387.75
367.505	398.75
367.731	384.75
367.957	384.75
368.184	380.75
368.41	381.75
368.636	393.75
368.862	408.75
369.089	392.75
369.315	385.75
369.541	371.75
369.767	367.75
369.993	390.75
370.219	376.75
370.445	381.75
370.672	378.75
370.898	379.75
371.124	388.75
371.35	374.75
371.576	375.75
371.802	398.75
372.028	380.75
372.254	392.75
372.48	384.75
372.706	375.75
372.932	397.75
373.158	378.75
373.384	372.75
373.61	379.75
373.835	382.75
374.061	387.75
374.287	389.75
374.513	398.75
374.739	370.75
374.965	380.75
375.191	382.75
375.416	376.75
375.642	372.75
375.868	392.75
376.094	373.75
376.319	370.75
376.545	372.75
376.771	386.75
376.997	355.75
377.222	392.75
377.448	366.75
377.674	386.75
377.899	382.75
378.125	374.75
378.35	371.75
378.576	361.75
378.802	362.75
379.027	360.75
379.253	368.75
379.478	354.75
379.704	381.75
379.929	382.75
380.155	378.75
380.38	373.75
380.606	399.75
380.831	372.75
381.057	384.75
381.282	376.75
381.507	369.75
381.733	399.75
381.958	364.75
382.184	372.75
382.409	374.75
382.634	377.75
382.86	381.75
383.085	385.75
383.31	391.75
383.535	387.75
383.761	395.75
383.986	379.75
384.211	380.75
384.436	386.75
384.662	392.75
384.887	384.75
385.112	400.75
385.337	396.75
385.562	390.75
385.787	384.75
386.013	414.75
386.238	412.75
386.463	393.75
386.688	393.75
386.913	386.75
387.138	410.75
387.363	374.75
387.588	389.75
387.813	419.75
388.038	392.75
388.263	397.75
388.488	388.75
388.713	406.75
388.938	408.75
389.163	390.75
389.387	389.75
389.612	387.75
389.837	393.75
390.062	392.75
390.287	401.75
390.512	400.75
390.736	400.75
390.961	382.75
391.186	390.75
391.411	384.75
391.636	405.75
391.86	394.75
392.085	414.75
392.31	406.75
392.534	406.75
392.759	406.75
392.984	378.75
393.208	388.75
393.433	397.75
393.658	383.75
393.882	398.75
394.107	406.75
394.331	390.75
394.556	383.75
394.78	406.75
395.005	395.75
395.229	396.75
395.454	390.75
395.678	416.75
395.903	412.75
396.127	436.75
396.352	420.75
396.576	434.75
396.801	426.75
397.025	421.75
397.249	406.75
397.474	431.75
397.698	430.75
397.922	428.75
398.147	478.75
398.371	437.75
398.595	434.75
398.82	440.75
399.044	444.75
399.268	464.75
399.492	514.75
399.717	516.75
399.941	500.75
400.165	547.75
400.389	546.75
400.613	530.75
400.837	483.75
401.062	468.75
401.286	458.75
401.51	463.75
401.734	448.75
401.958	426.75
402.182	438.75
402.406	456.75
402.63	469.75
402.854	461.75
403.078	457.75
403.302	463.75
403.526	462.75
403.75	469.75
403.974	463.75
404.198	463.75
404.422	460.75
404.645	445.75
404.869	461.75
405.093	506.75
405.317	502.75
405.541	535.75
405.765	487.75
405.988	475.75
406.212	487.75
406.436	522.75
406.66	518.75
406.883	510.75
407.107	523.75
407.331	544.75
407.555	639.75
407.778	619.75
408.002	583.75
408.226	520.75
408.449	483.75
408.673	527.75
408.896	519.75
409.12	596.75
409.344	547.75
409.567	483.75
409.791	489.75
410.014	459.75
410.238	470.75
410.461	466.75
410.685	469.75
410.908	482.75
411.132	500.75
411.355	566.75
411.578	524.75
411.802	472.75
412.025	477.75
412.249	440.75
412.472	465.75
412.695	457.75
412.919	461.75
413.142	455.75
413.365	447.75
413.589	417.75
413.812	438.75
414.035	419.75
414.258	438.75
414.482	442.75
414.705	425.75
414.928	423.75
415.151	456.75
415.374	428.75
415.597	436.75
415.821	440.75
416.044	426.75
416.267	430.75
416.49	438.75
416.713	430.75
416.936	436.75
417.159	431.75
417.382	412.75
417.605	438.75
417.828	454.75
418.051	457.75
418.274	454.75
418.497	434.75
418.72	439.75
418.943	435.75
419.166	439.75
419.389	458.75
419.611	466.75
419.834	432.75
420.057	454.75
420.28	441.75
420.503	414.75
420.726	443.75
420.948	482.75
421.171	491.75
421.394	537.75
421.617	452.75
421.839	454.75
422.062	458.75
422.285	479.75
422.507	526.75
422.73	573.75
422.953	600.75
423.175	484.75
423.398	490.75
423.621	493.75
423.843	487.75
424.066	481.75
424.288	485.75
424.511	521.75
424.733	555.75
424.956	637.75
425.178	618.75
425.401	627.75
425.623	630.75
425.846	572.75
426.068	522.75
426.291	519.75
426.513	509.75
426.735	519.75
426.958	567.75
427.18	629.75
427.402	759.75
427.625	829.75
427.847	718.75
428.069	601.75
428.292	523.75
428.514	504.75
428.736	497.75
428.958	476.75
429.181	470.75
429.403	467.75
429.625	468.75
429.847	504.75
430.069	564.75
430.292	565.75
430.514	481.75
430.736	478.75
430.958	451.75
431.18	458.75
431.402	446.75
431.624	425.75
431.846	428.75
432.068	413.75
432.29	434.75
432.512	426.75
432.734	442.75
432.956	452.75
433.178	450.75
433.4	458.75
433.622	445.75
433.844	422.75
434.066	422.75
434.287	446.75
434.509	436.75
434.731	446.75
434.953	455.75
435.175	448.75
435.397	463.75
435.618	474.75
435.84	552.75
436.062	652.75
436.284	693.75
436.505	589.75
436.727	513.75
436.949	503.75
437.17	479.75
437.392	488.75
437.614	474.75
437.835	533.75
438.057	589.75
438.278	699.75
438.5	696.75
438.721	770.75
438.943	735.75
439.165	598.75
439.386	534.75
439.608	500.75
439.829	517.75
440.05	559.75
440.272	573.75
440.493	548.75
440.715	503.75
440.936	477.75
441.158	459.75
441.379	458.75
441.6	465.75
441.822	492.75
442.043	532.75
442.264	610.75
442.486	642.75
442.707	568.75
442.928	524.75
443.149	543.75
443.371	522.75
443.592	579.75
443.813	674.75
444.034	714.75
444.255	601.75
444.476	527.75
444.698	492.75
444.919	506.75
445.14	610.75
445.361	530.75
445.582	530.75
445.803	590.75
446.024	719.75
446.245	714.75
446.466	648.75
446.687	551.75
446.908	514.75
447.129	492.75
447.35	454.75
447.571	458.75
447.792	463.75
448.013	480.75
448.234	473.75
448.455	519.75
448.675	636.75
448.896	746.75
449.117	638.75
449.338	608.75
449.559	700.75
449.779	819.75
450	644.75
450.221	556.75
450.442	485.75
450.662	462.75
450.883	477.75
451.104	457.75
451.324	457.75
451.545	449.75
451.766	441.75
451.986	411.75
452.207	423.75
452.428	402.75
452.648	416.75
452.869	408.75
453.089	430.75
453.31	440.75
453.53	425.75
453.751	418.75
453.971	416.75
454.192	430.75
454.412	415.75
454.633	422.75
454.853	403.75
455.073	429.75
455.294	446.75
455.514	502.75
455.734	483.75
455.955	417.75
456.175	392.75
456.395	395.75
456.616	382.75
456.836	380.75
457.056	387.75
457.276	373.75
457.497	404.75
457.717	394.75
457.937	417.75
458.157	372.75
458.377	388.75
458.598	421.75
458.818	471.75
459.038	547.75
459.258	559.75
459.478	490.75
459.698	436.75
459.918	424.75
460.138	445.75
460.358	446.75
460.578	414.75
460.798	443.75
461.018	442.75
461.238	399.75
461.458	422.75
461.678	426.75
461.898	437.75
462.118	414.75
462.338	444.75
462.558	442.75
462.777	454.75
462.997	439.75
463.217	444.75
463.437	456.75
463.657	435.75
463.876	438.75
464.096	454.75
464.316	432.75
464.536	476.75
464.755	471.75
464.975	460.75
465.195	510.75
465.414	569.75
465.634	512.75
465.854	466.75
466.073	458.75
466.293	446.75
466.512	421.75
466.732	426.75
466.951	419.75
467.171	408.75
467.391	421.75
467.61	416.75
467.829	422.75
468.049	429.75
468.268	409.75
468.488	418.75
468.707	407.75
468.927	397.75
469.146	412.75
469.365	404.75
469.585	408.75
469.804	415.75
470.023	436.75
470.243	434.75
470.462	432.75
470.681	426.75
470.901	429.75
471.12	431.75
471.339	437.75
471.558	436.75
471.777	434.75
471.997	420.75
472.216	404.75
472.435	408.75
472.654	399.75
472.873	401.75
473.092	415.75
473.311	400.75
473.53	418.75
473.749	426.75
473.968	489.75
474.187	579.75
474.406	612.75
474.625	483.75
474.844	448.75
475.063	442.75
475.282	451.75
475.501	426.75
475.72	406.75
475.939	458.75
476.158	442.75
476.377	440.75
476.596	437.75
476.814	452.75
477.033	455.75
477.252	444.75
477.471	461.75
477.69	453.75
477.908	461.75
478.127	457.75
478.346	452.75
478.564	466.75
478.783	456.75
479.002	462.75
479.22	464.75
479.439	487.75
479.658	494.75
479.876	501.75
480.095	509.75
480.313	499.75
480.532	533.75
480.751	505.75
480.969	492.75
481.188	506.75
481.406	529.75
481.624	491.75
481.843	478.75
482.061	511.75
482.28	482.75
482.498	500.75
482.717	482.75
482.935	491.75
483.153	491.75
483.372	485.75
483.59	498.75
483.808	505.75
484.027	523.75
484.245	502.75
484.463	488.75
484.681	516.75
484.9	520.75
485.118	496.75
485.336	516.75
485.554	503.75
485.772	531.75
485.99	515.75
486.209	512.75
486.427	507.75
486.645	521.75
486.863	552.75
487.081	539.75
487.299	519.75
487.517	525.75
487.735	526.75
487.953	537.75
488.171	535.75
488.389	530.75
488.607	548.75
488.825	533.75
489.043	545.75
489.261	539.75
489.479	545.75
489.696	538.75
489.914	547.75
490.132	566.75
490.35	551.75
490.568	552.75
490.786	560.75
491.003	575.75
491.221	556.75
491.439	575.75
491.657	586.75
491.874	606.75
492.092	588.75
492.31	591.75
492.527	604.75
492.745	588.75
492.963	610.75
493.18	609.75
493.398	612.75
493.615	602.75
493.833	622.75
494.05	622.75
494.268	610.75
494.485	619.75
494.703	601.75
494.92	610.75
495.138	616.75
495.355	620.75
495.573	646.75
495.79	608.75
496.008	640.75
496.225	641.75
496.442	640.75
496.66	628.75
496.877	626.75
497.094	627.75
497.312	645.75
497.529	634.75
497.746	642.75
497.963	666.75
498.181	674.75
498.398	672.75
498.615	705.75
498.832	701.75
499.049	714.75
499.267	723.75
499.484	738.75
499.701	762.75
499.918	755.75
500.135	793.75
500.352	834.75
500.569	845.75
500.786	842.75
501.003	814.75
501.22	772.75
501.437	778.75
501.654	779.75
501.871	777.75
502.088	740.75
502.305	708.75
502.522	714.75
502.739	671.75
502.956	657.75
503.172	644.75
503.389	657.75
503.606	667.75
503.823	675.75
504.04	638.75
504.256	611.75
504.473	598.75
504.69	630.75
504.907	621.75
505.123	621.75
505.34	626.75
505.557	596.75
505.773	588.75
505.99	619.75
506.207	591.75
506.423	606.75
506.64	615.75
506.856	599.75
507.073	604.75
507.289	583.75
507.506	607.75
507.722	600.75
507.939	635.75
508.155	587.75
508.372	572.75
508.588	580.75
508.805	586.75
509.021	612.75
509.238	600.75
509.454	617.75
509.67	596.75
509.887	582.75
510.103	565.75
510.319	580.75
510.536	654.75
510.752	1051.75
510.968	889.75
511.184	605.75
511.401	566.75
511.617	563.75
511.833	535.75
512.049	531.75
512.265	546.75
512.481	553.75
512.698	500.75
512.914	544.75
513.13	541.75
513.346	564.75
513.562	544.75
513.778	538.75
513.994	564.75
514.21	562.75
514.426	587.75
514.642	626.75
514.858	640.75
515.074	678.75
515.29	820.75
515.506	1133.75
515.721	938.75
515.937	665.75
516.153	582.75
516.369	578.75
516.585	571.75
516.801	535.75
517.016	548.75
517.232	549.75
517.448	546.75
517.664	566.75
517.879	563.75
518.095	543.75
518.311	549.75
518.527	562.75
518.742	560.75
518.958	546.75
519.173	543.75
519.389	521.75
519.605	528.75
519.82	558.75
520.036	576.75
520.251	568.75
520.467	600.75
520.682	583.75
520.898	613.75
521.113	598.75
521.329	637.75
521.544	722.75
521.76	900.75
521.975	1485.75
522.19	1457.75
522.406	798.75
522.621	646.75
522.836	569.75
523.052	553.75
523.267	518.75
523.482	520.75
523.698	518.75
523.913	502.75
524.128	495.75
524.343	476.75
524.559	481.75
524.774	477.75
524.989	493.75
525.204	480.75
525.419	498.75
525.634	477.75
525.849	471.75
526.064	460.75
526.28	448.75
526.495	460.75
526.71	461.75
526.925	447.75
527.14	452.75
527.355	468.75
527.57	464.75
527.785	459.75
527.999	444.75
528.214	458.75
528.429	455.75
528.644	451.75
528.859	462.75
529.074	453.75
529.289	484.75
529.503	523.75
529.718	542.75
529.933	468.75
530.148	461.75
530.363	453.75
530.577	446.75
530.792	454.75
531.007	450.75
531.221	436.75
531.436	437.75
531.651	454.75
531.865	419.75
532.08	412.75
532.295	437.75
532.509	431.75
532.724	422.75
532.938	443.75
533.153	423.75
533.367	444.75
533.582	446.75
533.796	433.75
534.011	408.75
534.225	423.75
534.44	437.75
534.654	423.75
534.868	412.75
535.083	431.75
535.297	422.75
535.511	422.75
535.726	446.75
535.94	426.75
536.154	425.75
536.369	409.75
536.583	422.75
536.797	412.75
537.011	420.75
537.225	412.75
537.44	405.75
537.654	430.75
537.868	409.75
538.082	414.75
538.296	412.75
538.51	395.75
538.724	423.75
538.938	405.75
539.153	412.75
539.367	438.75
539.581	428.75
539.795	412.75
540.009	421.75
540.222	420.75
540.436	409.75
540.65	428.75
540.864	426.75
541.078	415.75
541.292	419.75
541.506	424.75
541.72	407.75
541.934	413.75
542.147	409.75
542.361	405.75
542.575	410.75
542.789	403.75
543.002	399.75
543.216	404.75
543.43	410.75
543.644	422.75
543.857	428.75
544.071	426.75
544.285	400.75
544.498	416.75
544.712	399.75
544.925	408.75
545.139	407.75
545.352	398.75
545.566	398.75
545.779	388.75
545.993	409.75
546.206	407.75
546.42	386.75
546.633	401.75
546.847	392.75
547.06	386.75
547.274	390.75
547.487	382.75
547.7	388.75
547.914	385.75
548.127	406.75
548.34	399.75
548.554	390.75
548.767	382.75
548.98	393.75
549.193	403.75
549.407	382.75
549.62	397.75
549.833	404.75
550.046	398.75
550.259	392.75
550.473	362.75
550.686	378.75
550.899	380.75
551.112	375.75
551.325	348.75
551.538	384.75
551.751	381.75
551.964	361.75
552.177	394.75
552.39	382.75
552.603	376.75
552.816	418.75
553.029	389.75
553.242	381.75
553.455	391.75
553.667	396.75
553.88	416.75
554.093	404.75
554.306	372.75
554.519	382.75
554.732	384.75
554.944	384.75
555.157	367.75
555.37	366.75
555.583	374.75
555.795	368.75
556.008	364.75
556.221	377.75
556.433	348.75
556.646	380.75
556.859	358.75
557.071	351.75
557.284	371.75
557.496	333.75
557.709	374.75
557.921	352.75
558.134	357.75
558.346	372.75
558.559	351.75
558.771	357.75
558.984	362.75
559.196	334.75
559.409	343.75
559.621	348.75
559.833	333.75
560.046	347.75
560.258	340.75
560.47	356.75
560.683	344.75
560.895	341.75
561.107	349.75
561.32	342.75
561.532	347.75
561.744	344.75
561.956	340.75
562.168	344.75
562.381	358.75
562.593	349.75
562.805	350.75
563.017	361.75
563.229	354.75
563.441	363.75
563.653	323.75
563.865	359.75
564.077	370.75
564.289	378.75
564.501	355.75
564.713	364.75
564.925	352.75
565.137	367.75
565.349	364.75
565.561	370.75
565.773	370.75
565.985	371.75
566.197	370.75
566.408	377.75
566.62	390.75
566.832	394.75
567.044	425.75
567.255	410.75
567.467	407.75
567.679	429.75
567.891	427.75
568.102	412.75
568.314	396.75
568.526	390.75
568.737	382.75
568.949	392.75
569.161	375.75
569.372	364.75
569.584	362.75
569.795	358.75
570.007	333.75
570.218	356.75
570.43	385.75
570.641	349.75
570.853	357.75
571.064	348.75
571.276	334.75
571.487	340.75
571.698	302.75
571.91	327.75
572.121	299.75
572.333	314.75
572.544	324.75
572.755	329.75
572.966	315.75
573.178	334.75
573.389	315.75
573.6	300.75
573.811	317.75
574.023	310.75
574.234	303.75
574.445	286.75
574.656	308.75
574.867	314.75
575.078	299.75
575.289	302.75
575.501	290.75
575.712	302.75
575.923	302.75
576.134	300.75
576.345	316.75
576.556	291.75
576.767	296.75
576.978	285.75
577.188	301.75
577.399	302.75
577.61	279.75
577.821	292.75
578.032	280.75
578.243	316.75
578.454	518.75
578.665	378.75
578.875	301.75
579.086	294.75
579.297	274.75
579.508	282.75
579.718	300.75
579.929	278.75
580.14	291.75
580.35	288.75
580.561	294.75
580.772	287.75
580.982	279.75
581.193	295.75
581.403	293.75
581.614	273.75
581.825	270.75
582.035	266.75
582.246	256.75
582.456	294.75
582.667	284.75
582.877	286.75
583.087	284.75
583.298	264.75
583.508	287.75
583.719	300.75
583.929	283.75
584.139	268.75
584.35	270.75
584.56	281.75
584.77	258.75
584.981	265.75
585.191	261.75
585.401	263.75
585.611	248.75
585.821	260.75
586.032	246.75
586.242	261.75
586.452	263.75
586.662	266.75
586.872	260.75
587.082	270.75
587.292	254.75
587.502	256.75
587.713	260.75
587.923	269.75
588.133	273.75
588.343	259.75
588.553	261.75
588.762	270.75
588.972	264.75
589.182	272.75
589.392	264.75
589.602	264.75
589.812	270.75
590.022	266.75
590.232	278.75
590.441	254.75
590.651	249.75
590.861	262.75
591.071	273.75
591.281	273.75
591.49	272.75
591.7	257.75
591.91	269.75
592.119	271.75
592.329	298.75
592.539	269.75
592.748	270.75
592.958	260.75
593.167	264.75
593.377	268.75
593.587	264.75
593.796	292.75
594.006	266.75
594.215	254.75
594.424	255.75
594.634	253.75
594.843	278.75
595.053	260.75
595.262	293.75
595.472	259.75
595.681	264.75
595.89	246.75
596.1	271.75
596.309	251.75
596.518	246.75
596.727	262.75
596.937	262.75
597.146	252.75
597.355	245.75
597.564	245.75
597.774	239.75
597.983	242.75
598.192	242.75
598.401	229.75
598.61	246.75
598.819	230.75
599.028	249.75
599.237	243.75
599.446	241.75
599.655	253.75
599.864	224.75
600.073	232.75
600.282	247.75
600.491	238.75
600.7	224.75
600.909	259.75
601.118	237.75
601.327	238.75
601.536	243.75
601.745	222.75
601.953	242.75
602.162	217.75
602.371	234.75
602.58	213.75
602.789	234.75
602.997	239.75
603.206	221.75
603.415	233.75
603.623	225.75
603.832	227.75
604.041	220.75
604.249	234.75
604.458	233.75
604.666	226.75
604.875	224.75
605.084	222.75
605.292	228.75
605.501	232.75
605.709	229.75
605.918	212.75
606.126	226.75
606.334	246.75
606.543	220.75
606.751	226.75
606.96	202.75
607.168	228.75
607.376	223.75
607.585	236.75
607.793	233.75
608.001	221.75
608.21	246.75
608.418	224.75
608.626	210.75
608.834	209.75
609.043	219.75
609.251	207.75
609.459	208.75
609.667	227.75
609.875	219.75
610.083	225.75
610.291	243.75
610.499	212.75
610.707	207.75
610.916	231.75
611.124	222.75
611.332	235.75
611.54	226.75
611.748	229.75
611.955	224.75
612.163	231.75
612.371	237.75
612.579	196.75
612.787	221.75
612.995	207.75
613.203	224.75
613.411	223.75
613.618	204.75
613.826	205.75
614.034	190.75
614.242	224.75
614.449	209.75
614.657	226.75
614.865	216.75
615.072	221.75
615.28	221.75
615.488	224.75
615.695	226.75
615.903	207.75
616.111	212.75
616.318	230.75
616.526	221.75
616.733	214.75
616.941	207.75
617.148	225.75
617.356	213.75
617.563	204.75
617.771	223.75
617.978	216.75
618.185	212.75
618.393	194.75
618.6	207.75
618.807	212.75
619.015	214.75
619.222	215.75
619.429	201.75
619.637	230.75
619.844	210.75
620.051	197.75
620.258	203.75
620.466	203.75
620.673	207.75
620.88	207.75
621.087	191.75
621.294	187.75
621.501	196.75
621.708	204.75
621.915	204.75
622.122	205.75
622.329	221.75
622.536	213.75
622.743	202.75
622.95	194.75
623.157	205.75
623.364	194.75
623.571	198.75
623.778	189.75
623.985	219.75
624.192	166.75
624.399	213.75
624.606	199.75
624.812	194.75
625.019	211.75
625.226	192.75
625.433	192.75
625.639	204.75
625.846	203.75
626.053	192.75
626.259	184.75
626.466	190.75
626.673	194.75
626.879	197.75
627.086	211.75
627.293	196.75
627.499	206.75
627.706	196.75
627.912	181.75
628.119	190.75
628.325	199.75
628.532	176.75
628.738	185.75
628.945	186.75
629.151	187.75
629.357	189.75
629.564	194.75
629.77	181.75
629.976	181.75
630.183	195.75
630.389	168.75
630.595	181.75
630.802	180.75
631.008	186.75
631.214	181.75
631.42	180.75
631.627	159.75
631.833	173.75
632.039	183.75
632.245	169.75
632.451	190.75
632.657	164.75
632.863	189.75
633.069	180.75
633.275	176.75
633.481	166.75
633.688	170.75
633.893	173.75
634.099	173.75
634.305	175.75
634.511	169.75
634.717	164.75
634.923	151.75
635.129	173.75
635.335	173.75
635.541	156.75
635.747	174.75
635.952	159.75
636.158	179.75
636.364	169.75
636.57	163.75
636.775	171.75
636.981	162.75
637.187	174.75
637.392	168.75
637.598	168.75
637.804	179.75
638.009	164.75
638.215	169.75
638.421	171.75
638.626	175.75
638.832	150.75
639.037	160.75
639.243	160.75
639.448	154.75
639.654	140.75
639.859	169.75
640.065	168.75
640.27	164.75
640.475	178.75
640.681	162.75
640.886	175.75
641.091	152.75
641.297	162.75
641.502	155.75
641.707	166.75
641.913	162.75
642.118	159.75
642.323	160.75
642.528	162.75
642.733	154.75
642.939	160.75
643.144	176.75
643.349	165.75
643.554	157.75
643.759	168.75
643.964	155.75
644.169	154.75
644.374	176.75
644.579	148.75
644.784	138.75
644.989	164.75
645.194	154.75
645.399	145.75
645.604	146.75
645.809	159.75
646.014	146.75
646.219	144.75
646.423	165.75
646.628	157.75
646.833	146.75
647.038	162.75
647.243	171.75
647.447	164.75
647.652	174.75
647.857	150.75
648.062	144.75
648.266	167.75
648.471	166.75
648.676	164.75
648.88	162.75
649.085	165.75
649.289	163.75
649.494	163.75
649.698	174.75
649.903	163.75
650.107	162.75
650.312	156.75
650.516	162.75
650.721	142.75
650.925	153.75
651.13	150.75
651.334	143.75
651.539	128.75
651.743	137.75
651.947	147.75
652.152	152.75
652.356	125.75
652.56	134.75
652.764	140.75
652.969	151.75
653.173	134.75
653.377	124.75
653.581	137.75
653.785	139.75
653.99	121.75
654.194	135.75
654.398	113.75
654.602	133.75
654.806	144.75
655.01	159.75
655.214	133.75
655.418	125.75
655.622	131.75
655.826	151.75
656.03	130.75
656.234	127.75
656.438	137.75
656.642	115.75
656.846	142.75
657.049	134.75
657.253	136.75
657.457	135.75
657.661	141.75
657.865	125.75
658.068	116.75
658.272	120.75
658.476	119.75
658.68	102.75
658.883	111.75
659.087	106.75
659.291	101.75
659.494	103.75
659.698	109.75
659.901	87.75
660.105	88.75
660.309	80.75
660.512	95.75
660.716	87.75
660.919	101.75
661.123	87.75
661.326	88.75
661.53	89.75
661.733	86.75
661.936	93.75
662.14	92.75
662.343	93.75
662.546	78.75
662.75	91.75
662.953	87.75
663.156	82.75
663.36	76.75
663.563	77.75
663.766	72.75
663.969	80.75
664.173	91.75
664.376	74.75
664.579	92.75
664.782	86.75
664.985	82.75
665.188	88.75
665.391	90.75
665.594	93.75
665.797	84.75
666	94.75
666.203	83.75
666.406	83.75
666.609	80.75
666.812	83.75
667.015	88.75
667.218	68.75
667.421	89.75
667.624	83.75
667.827	76.75
668.03	83.75
668.232	86.75
668.435	84.75
668.638	79.75
668.841	89.75
669.043	73.75
669.246	89.75
669.449	90.75
669.651	73.75
669.854	87.75
670.057	75.75
670.259	80.75
670.462	66.75
670.665	80.75
670.867	84.75
671.07	87.75
671.272	91.75
671.475	84.75
671.677	86.75
671.88	87.75
672.082	88.75
672.284	96.75
672.487	93.75
672.689	88.75
672.892	103.75
