Data from 1989.PennyLincolnUp.Lamp.En5.5.200Scan.071819.P2_HRD10591_17-23-50-972.txt Node
Date: Thu Jul 18 17:23:50 EDT 2019
User: cochatt
Spectrometer: HR+D1059
Trigger mode: 1
Integration Time (sec): 1.000000E-1
Scans to average: 1
Electric dark correction enabled: true
Nonlinearity correction enabled: false
Boxcar width: 0
XAxis mode: Wavelengths
Number of Pixels in Spectrum: 2048
>>>>>Begin Spectral Data<<<<<
223.165	-11.94
223.4	-11.94
223.635	-11.94
223.869	-11.94
224.104	-21.94
224.338	-38.94
224.573	-12.94
224.808	-7.94
225.042	-10.94
225.277	2.06
225.511	-3.94
225.746	9.06
225.98	7.06
226.215	4.06
226.449	22.06
226.683	23.06
226.918	22.06
227.152	31.06
227.387	37.06
227.621	40.06
227.856	34.06
228.09	39.06
228.324	44.06
228.559	58.06
228.793	62.06
229.027	84.06
229.262	110.06
229.496	110.06
229.73	123.06
229.964	160.06
230.199	126.06
230.433	124.06
230.667	114.06
230.901	108.06
231.136	127.06
231.37	113.06
231.604	119.06
231.838	118.06
232.072	118.06
232.306	117.06
232.541	112.06
232.775	124.06
233.009	127.06
233.243	123.06
233.477	100.06
233.711	114.06
233.945	127.06
234.179	104.06
234.413	132.06
234.647	124.06
234.881	108.06
235.115	125.06
235.349	120.06
235.583	115.06
235.817	118.06
236.051	126.06
236.285	131.06
236.519	134.06
236.753	142.06
236.987	145.06
237.221	194.06
237.455	243.06
237.689	183.06
237.922	150.06
238.156	128.06
238.39	135.06
238.624	126.06
238.858	125.06
239.091	129.06
239.325	125.06
239.559	131.06
239.793	121.06
240.027	155.06
240.26	145.06
240.494	167.06
240.728	160.06
240.961	153.06
241.195	168.06
241.429	144.06
241.662	139.06
241.896	142.06
242.13	137.06
242.363	138.06
242.597	134.06
242.83	155.06
243.064	154.06
243.298	149.06
243.531	147.06
243.765	131.06
243.998	139.06
244.232	157.06
244.465	157.06
244.699	155.06
244.932	152.06
245.166	149.06
245.399	148.06
245.633	155.06
245.866	155.06
246.099	142.06
246.333	157.06
246.566	159.06
246.8	169.06
247.033	160.06
247.266	165.06
247.5	171.06
247.733	152.06
247.966	169.06
248.2	181.06
248.433	180.06
248.666	180.06
248.899	208.06
249.133	205.06
249.366	224.06
249.599	217.06
249.832	211.06
250.066	207.06
250.299	196.06
250.532	208.06
250.765	192.06
250.998	228.06
251.231	239.06
251.465	218.06
251.698	231.06
251.931	215.06
252.164	206.06
252.397	214.06
252.63	214.06
252.863	219.06
253.096	240.06
253.329	246.06
253.562	227.06
253.795	230.06
254.028	231.06
254.261	248.06
254.494	233.06
254.727	270.06
254.96	286.06
255.193	282.06
255.426	269.06
255.659	253.06
255.892	231.06
256.124	248.06
256.357	240.06
256.59	221.06
256.823	226.06
257.056	218.06
257.289	233.06
257.521	213.06
257.754	216.06
257.987	217.06
258.22	230.06
258.452	219.06
258.685	226.06
258.918	239.06
259.151	230.06
259.383	242.06
259.616	244.06
259.849	230.06
260.081	248.06
260.314	269.06
260.547	276.06
260.779	244.06
261.012	277.06
261.244	246.06
261.477	250.06
261.71	235.06
261.942	246.06
262.175	244.06
262.407	252.06
262.64	215.06
262.872	224.06
263.105	252.06
263.337	232.06
263.57	224.06
263.802	223.06
264.035	216.06
264.267	219.06
264.499	230.06
264.732	231.06
264.964	229.06
265.197	219.06
265.429	227.06
265.661	233.06
265.894	243.06
266.126	234.06
266.358	222.06
266.591	220.06
266.823	242.06
267.055	244.06
267.287	250.06
267.52	258.06
267.752	239.06
267.984	238.06
268.216	257.06
268.448	250.06
268.681	264.06
268.913	265.06
269.145	278.06
269.377	287.06
269.609	288.06
269.841	289.06
270.073	293.06
270.306	316.06
270.538	329.06
270.77	330.06
271.002	339.06
271.234	301.06
271.466	320.06
271.698	336.06
271.93	330.06
272.162	331.06
272.394	355.06
272.626	335.06
272.858	308.06
273.09	305.06
273.322	292.06
273.553	277.06
273.785	286.06
274.017	278.06
274.249	289.06
274.481	292.06
274.713	288.06
274.945	288.06
275.176	280.06
275.408	259.06
275.64	285.06
275.872	292.06
276.104	276.06
276.335	282.06
276.567	283.06
276.799	294.06
277.031	333.06
277.262	349.06
277.494	324.06
277.726	324.06
277.957	318.06
278.189	293.06
278.421	273.06
278.652	291.06
278.884	286.06
279.115	294.06
279.347	281.06
279.579	260.06
279.81	267.06
280.042	262.06
280.273	276.06
280.505	280.06
280.736	274.06
280.968	276.06
281.199	285.06
281.431	287.06
281.662	300.06
281.894	288.06
282.125	293.06
282.356	309.06
282.588	330.06
282.819	320.06
283.051	310.06
283.282	290.06
283.513	286.06
283.745	285.06
283.976	290.06
284.207	302.06
284.439	299.06
284.67	286.06
284.901	299.06
285.132	304.06
285.364	291.06
285.595	303.06
285.826	287.06
286.057	280.06
286.288	292.06
286.52	301.06
286.751	299.06
286.982	274.06
287.213	268.06
287.444	300.06
287.675	288.06
287.906	302.06
288.138	335.06
288.369	335.06
288.6	323.06
288.831	308.06
289.062	304.06
289.293	298.06
289.524	295.06
289.755	313.06
289.986	315.06
290.217	294.06
290.448	312.06
290.679	285.06
290.91	291.06
291.141	308.06
291.371	313.06
291.602	316.06
291.833	298.06
292.064	318.06
292.295	291.06
292.526	301.06
292.757	308.06
292.987	306.06
293.218	296.06
293.449	313.06
293.68	294.06
293.91	286.06
294.141	302.06
294.372	304.06
294.603	308.06
294.833	294.06
295.064	301.06
295.295	302.06
295.525	299.06
295.756	300.06
295.987	307.06
296.217	343.06
296.448	333.06
296.679	331.06
296.909	319.06
297.14	314.06
297.37	335.06
297.601	313.06
297.831	320.06
298.062	304.06
298.292	315.06
298.523	323.06
298.753	317.06
298.984	315.06
299.214	326.06
299.445	333.06
299.675	326.06
299.905	333.06
300.136	325.06
300.366	323.06
300.597	332.06
300.827	314.06
301.057	308.06
301.288	345.06
301.518	332.06
301.748	333.06
301.979	345.06
302.209	342.06
302.439	346.06
302.669	372.06
302.9	339.06
303.13	333.06
303.36	326.06
303.59	332.06
303.82	337.06
304.051	335.06
304.281	347.06
304.511	340.06
304.741	343.06
304.971	351.06
305.201	338.06
305.431	339.06
305.661	325.06
305.891	336.06
306.121	334.06
306.352	335.06
306.582	354.06
306.812	338.06
307.042	351.06
307.272	343.06
307.502	334.06
307.731	341.06
307.961	355.06
308.191	351.06
308.421	325.06
308.651	348.06
308.881	354.06
309.111	350.06
309.341	359.06
309.571	362.06
309.8	378.06
310.03	379.06
310.26	391.06
310.49	374.06
310.72	399.06
310.949	406.06
311.179	398.06
311.409	398.06
311.639	380.06
311.868	408.06
312.098	394.06
312.328	401.06
312.557	415.06
312.787	421.06
313.017	412.06
313.246	402.06
313.476	374.06
313.706	390.06
313.935	393.06
314.165	415.06
314.394	408.06
314.624	404.06
314.853	395.06
315.083	414.06
315.312	389.06
315.542	383.06
315.771	383.06
316.001	383.06
316.23	384.06
316.46	380.06
316.689	385.06
316.919	389.06
317.148	417.06
317.377	399.06
317.607	395.06
317.836	395.06
318.065	390.06
318.295	387.06
318.524	392.06
318.753	375.06
318.983	387.06
319.212	406.06
319.441	414.06
319.67	419.06
319.9	410.06
320.129	402.06
320.358	397.06
320.587	381.06
320.816	403.06
321.046	402.06
321.275	406.06
321.504	431.06
321.733	434.06
321.962	406.06
322.191	440.06
322.42	440.06
322.649	456.06
322.878	469.06
323.108	468.06
323.337	501.06
323.566	507.06
323.795	554.06
324.024	618.06
324.253	700.06
324.482	1032.06
324.71	1543.06
324.939	2221.06
325.168	1932.06
325.397	1026.06
325.626	689.06
325.855	558.06
326.084	513.06
326.313	519.06
326.542	523.06
326.77	584.06
326.999	695.06
327.228	909.06
327.457	1388.06
327.686	1668.06
327.914	1130.06
328.143	721.06
328.372	621.06
328.6	610.06
328.829	591.06
329.058	614.06
329.287	593.06
329.515	557.06
329.744	504.06
329.972	502.06
330.201	515.06
330.43	525.06
330.658	553.06
330.887	578.06
331.115	587.06
331.344	553.06
331.572	506.06
331.801	504.06
332.03	483.06
332.258	470.06
332.486	456.06
332.715	448.06
332.943	452.06
333.172	458.06
333.4	467.06
333.629	462.06
333.857	470.06
334.085	470.06
334.314	467.06
334.542	472.06
334.771	475.06
334.999	456.06
335.227	460.06
335.455	465.06
335.684	444.06
335.912	418.06
336.14	447.06
336.369	420.06
336.597	437.06
336.825	440.06
337.053	448.06
337.281	423.06
337.51	435.06
337.738	433.06
337.966	430.06
338.194	445.06
338.422	439.06
338.65	457.06
338.878	446.06
339.106	437.06
339.334	435.06
339.562	422.06
339.79	447.06
340.018	422.06
340.246	444.06
340.474	447.06
340.702	432.06
340.93	453.06
341.158	428.06
341.386	424.06
341.614	452.06
341.842	422.06
342.07	428.06
342.298	421.06
342.526	424.06
342.754	420.06
342.981	427.06
343.209	397.06
343.437	415.06
343.665	424.06
343.893	430.06
344.12	459.06
344.348	439.06
344.576	442.06
344.804	456.06
345.031	444.06
345.259	432.06
345.487	447.06
345.714	432.06
345.942	420.06
346.17	434.06
346.397	407.06
346.625	419.06
346.853	438.06
347.08	423.06
347.308	439.06
347.535	434.06
347.763	440.06
347.99	445.06
348.218	427.06
348.445	460.06
348.673	436.06
348.9	417.06
349.128	395.06
349.355	408.06
349.583	401.06
349.81	400.06
350.037	396.06
350.265	404.06
350.492	393.06
350.72	404.06
350.947	415.06
351.174	422.06
351.402	436.06
351.629	436.06
351.856	421.06
352.083	418.06
352.311	426.06
352.538	455.06
352.765	436.06
352.992	443.06
353.22	441.06
353.447	410.06
353.674	408.06
353.901	394.06
354.128	399.06
354.355	382.06
354.583	380.06
354.81	395.06
355.037	397.06
355.264	392.06
355.491	364.06
355.718	384.06
355.945	378.06
356.172	371.06
356.399	363.06
356.626	382.06
356.853	382.06
357.08	390.06
357.307	385.06
357.534	391.06
357.761	396.06
357.988	389.06
358.215	399.06
358.441	397.06
358.668	398.06
358.895	389.06
359.122	384.06
359.349	408.06
359.576	418.06
359.802	459.06
360.029	464.06
360.256	465.06
360.483	429.06
360.709	416.06
360.936	421.06
361.163	423.06
361.39	411.06
361.616	420.06
361.843	397.06
362.07	419.06
362.296	421.06
362.523	422.06
362.749	415.06
362.976	419.06
363.203	396.06
363.429	383.06
363.656	415.06
363.882	405.06
364.109	399.06
364.335	407.06
364.562	390.06
364.788	405.06
365.015	386.06
365.241	391.06
365.468	410.06
365.694	396.06
365.92	381.06
366.147	402.06
366.373	412.06
366.599	380.06
366.826	381.06
367.052	394.06
367.278	393.06
367.505	403.06
367.731	385.06
367.957	371.06
368.184	394.06
368.41	389.06
368.636	423.06
368.862	415.06
369.089	407.06
369.315	365.06
369.541	387.06
369.767	394.06
369.993	393.06
370.219	392.06
370.445	394.06
370.672	372.06
370.898	398.06
371.124	387.06
371.35	381.06
371.576	386.06
371.802	394.06
372.028	377.06
372.254	382.06
372.48	399.06
372.706	384.06
372.932	389.06
373.158	384.06
373.384	394.06
373.61	396.06
373.835	389.06
374.061	411.06
374.287	399.06
374.513	396.06
374.739	394.06
374.965	401.06
375.191	389.06
375.416	394.06
375.642	380.06
375.868	390.06
376.094	378.06
376.319	392.06
376.545	389.06
376.771	396.06
376.997	382.06
377.222	391.06
377.448	380.06
377.674	391.06
377.899	404.06
378.125	355.06
378.35	386.06
378.576	400.06
378.802	378.06
379.027	386.06
379.253	383.06
379.478	380.06
379.704	371.06
379.929	382.06
380.155	392.06
380.38	380.06
380.606	393.06
380.831	392.06
381.057	376.06
381.282	389.06
381.507	383.06
381.733	376.06
381.958	398.06
382.184	365.06
382.409	384.06
382.634	385.06
382.86	397.06
383.085	405.06
383.31	418.06
383.535	411.06
383.761	398.06
383.986	399.06
384.211	395.06
384.436	398.06
384.662	382.06
384.887	397.06
385.112	411.06
385.337	409.06
385.562	410.06
385.787	397.06
386.013	413.06
386.238	422.06
386.463	412.06
386.688	403.06
386.913	399.06
387.138	426.06
387.363	430.06
387.588	426.06
387.813	420.06
388.038	413.06
388.263	420.06
388.488	394.06
388.713	404.06
388.938	400.06
389.163	415.06
389.387	426.06
389.612	407.06
389.837	421.06
390.062	410.06
390.287	398.06
390.512	411.06
390.736	424.06
390.961	396.06
391.186	412.06
391.411	422.06
391.636	406.06
391.86	417.06
392.085	408.06
392.31	439.06
392.534	398.06
392.759	417.06
392.984	420.06
393.208	388.06
393.433	407.06
393.658	406.06
393.882	429.06
394.107	409.06
394.331	401.06
394.556	410.06
394.78	410.06
395.005	411.06
395.229	411.06
395.454	396.06
395.678	416.06
395.903	442.06
396.127	453.06
396.352	454.06
396.576	403.06
396.801	422.06
397.025	442.06
397.249	412.06
397.474	431.06
397.698	446.06
397.922	434.06
398.147	452.06
398.371	462.06
398.595	452.06
398.82	440.06
399.044	452.06
399.268	451.06
399.492	482.06
399.717	542.06
399.941	536.06
400.165	577.06
400.389	534.06
400.613	513.06
400.837	505.06
401.062	481.06
401.286	465.06
401.51	441.06
401.734	466.06
401.958	465.06
402.182	447.06
402.406	490.06
402.63	460.06
402.854	461.06
403.078	468.06
403.302	464.06
403.526	484.06
403.75	471.06
403.974	442.06
404.198	470.06
404.422	464.06
404.645	488.06
404.869	472.06
405.093	499.06
405.317	524.06
405.541	509.06
405.765	512.06
405.988	492.06
406.212	487.06
406.436	539.06
406.66	525.06
406.883	509.06
407.107	522.06
407.331	559.06
407.555	624.06
407.778	627.06
408.002	584.06
408.226	528.06
408.449	534.06
408.673	504.06
408.896	552.06
409.12	590.06
409.344	546.06
409.567	543.06
409.791	514.06
410.014	468.06
410.238	470.06
410.461	489.06
410.685	479.06
410.908	480.06
411.132	531.06
411.355	556.06
411.578	540.06
411.802	482.06
412.025	472.06
412.249	465.06
412.472	455.06
412.695	488.06
412.919	494.06
413.142	462.06
413.365	442.06
413.589	451.06
413.812	458.06
414.035	453.06
414.258	443.06
414.482	442.06
414.705	438.06
414.928	452.06
415.151	421.06
415.374	440.06
415.597	432.06
415.821	423.06
416.044	428.06
416.267	439.06
416.49	420.06
416.713	439.06
416.936	430.06
417.159	453.06
417.382	455.06
417.605	460.06
417.828	450.06
418.051	463.06
418.274	477.06
418.497	439.06
418.72	457.06
418.943	457.06
419.166	470.06
419.389	460.06
419.611	463.06
419.834	472.06
420.057	463.06
420.28	460.06
420.503	459.06
420.726	479.06
420.948	495.06
421.171	540.06
421.394	548.06
421.617	484.06
421.839	470.06
422.062	475.06
422.285	484.06
422.507	536.06
422.73	640.06
422.953	575.06
423.175	520.06
423.398	491.06
423.621	500.06
423.843	498.06
424.066	500.06
424.288	526.06
424.511	545.06
424.733	596.06
424.956	646.06
425.178	626.06
425.401	643.06
425.623	633.06
425.846	566.06
426.068	520.06
426.291	514.06
426.513	511.06
426.735	528.06
426.958	563.06
427.18	638.06
427.402	775.06
427.625	848.06
427.847	748.06
428.069	629.06
428.292	570.06
428.514	494.06
428.736	489.06
428.958	482.06
429.181	476.06
429.403	472.06
429.625	469.06
429.847	526.06
430.069	596.06
430.292	598.06
430.514	505.06
430.736	480.06
430.958	446.06
431.18	436.06
431.402	428.06
431.624	453.06
431.846	437.06
432.068	427.06
432.29	440.06
432.512	447.06
432.734	459.06
432.956	451.06
433.178	474.06
433.4	474.06
433.622	461.06
433.844	430.06
434.066	430.06
434.287	431.06
434.509	466.06
434.731	455.06
434.953	469.06
435.175	466.06
435.397	487.06
435.618	530.06
435.84	570.06
436.062	662.06
436.284	706.06
436.505	614.06
436.727	522.06
436.949	490.06
437.17	486.06
437.392	476.06
437.614	475.06
437.835	511.06
438.057	637.06
438.278	711.06
438.5	684.06
438.721	766.06
438.943	742.06
439.165	602.06
439.386	555.06
439.608	535.06
439.829	532.06
440.05	559.06
440.272	605.06
440.493	556.06
440.715	520.06
440.936	478.06
441.158	472.06
441.379	456.06
441.6	480.06
441.822	523.06
442.043	544.06
442.264	629.06
442.486	662.06
442.707	590.06
442.928	543.06
443.149	539.06
443.371	558.06
443.592	574.06
443.813	695.06
444.034	731.06
444.255	597.06
444.476	555.06
444.698	554.06
444.919	518.06
445.14	594.06
445.361	551.06
445.582	560.06
445.803	612.06
446.024	713.06
446.245	722.06
446.466	642.06
446.687	569.06
446.908	532.06
447.129	498.06
447.35	472.06
447.571	457.06
447.792	464.06
448.013	481.06
448.234	512.06
448.455	551.06
448.675	638.06
448.896	766.06
449.117	663.06
449.338	605.06
449.559	711.06
449.779	797.06
450	646.06
450.221	543.06
450.442	495.06
450.662	474.06
450.883	456.06
451.104	519.06
451.324	480.06
451.545	454.06
451.766	440.06
451.986	415.06
452.207	412.06
452.428	429.06
452.648	420.06
452.869	453.06
453.089	434.06
453.31	442.06
453.53	440.06
453.751	423.06
453.971	451.06
454.192	460.06
454.412	421.06
454.633	429.06
454.853	398.06
455.073	398.06
455.294	447.06
455.514	519.06
455.734	518.06
455.955	439.06
456.175	417.06
456.395	399.06
456.616	403.06
456.836	382.06
457.056	406.06
457.276	389.06
457.497	394.06
457.717	404.06
457.937	405.06
458.157	415.06
458.377	412.06
458.598	436.06
458.818	487.06
459.038	563.06
459.258	568.06
459.478	475.06
459.698	482.06
459.918	436.06
460.138	427.06
460.358	420.06
460.578	439.06
460.798	461.06
461.018	438.06
461.238	423.06
461.458	455.06
461.678	424.06
461.898	446.06
462.118	441.06
462.338	453.06
462.558	435.06
462.777	446.06
462.997	456.06
463.217	474.06
463.437	481.06
463.657	480.06
463.876	472.06
464.096	462.06
464.316	466.06
464.536	464.06
464.755	471.06
464.975	503.06
465.195	515.06
465.414	583.06
465.634	518.06
465.854	465.06
466.073	447.06
466.293	420.06
466.512	430.06
466.732	419.06
466.951	438.06
467.171	420.06
467.391	420.06
467.61	429.06
467.829	434.06
468.049	438.06
468.268	422.06
468.488	422.06
468.707	396.06
468.927	415.06
469.146	434.06
469.365	418.06
469.585	422.06
469.804	420.06
470.023	445.06
470.243	438.06
470.462	432.06
470.681	452.06
470.901	456.06
471.12	439.06
471.339	435.06
471.558	462.06
471.777	454.06
471.997	438.06
472.216	428.06
472.435	429.06
472.654	438.06
472.873	432.06
473.092	423.06
473.311	416.06
473.53	435.06
473.749	448.06
473.968	496.06
474.187	575.06
474.406	622.06
474.625	495.06
474.844	464.06
475.063	427.06
475.282	417.06
475.501	454.06
475.72	428.06
475.939	446.06
476.158	435.06
476.377	438.06
476.596	438.06
476.814	461.06
477.033	455.06
477.252	462.06
477.471	459.06
477.69	472.06
477.908	464.06
478.127	481.06
478.346	485.06
478.564	481.06
478.783	487.06
479.002	475.06
479.22	489.06
479.439	487.06
479.658	511.06
479.876	518.06
480.095	524.06
480.313	538.06
480.532	549.06
480.751	499.06
480.969	532.06
481.188	538.06
481.406	548.06
481.624	546.06
481.843	495.06
482.061	529.06
482.28	509.06
482.498	498.06
482.717	471.06
482.935	512.06
483.153	496.06
483.372	501.06
483.59	502.06
483.808	493.06
484.027	506.06
484.245	506.06
484.463	524.06
484.681	535.06
484.9	528.06
485.118	511.06
485.336	524.06
485.554	522.06
485.772	521.06
485.99	534.06
486.209	523.06
486.427	540.06
486.645	558.06
486.863	573.06
487.081	542.06
487.299	547.06
487.517	549.06
487.735	541.06
487.953	512.06
488.171	564.06
488.389	550.06
488.607	552.06
488.825	552.06
489.043	544.06
489.261	560.06
489.479	555.06
489.696	553.06
489.914	567.06
490.132	567.06
490.35	582.06
490.568	589.06
490.786	584.06
491.003	595.06
491.221	578.06
491.439	626.06
491.657	607.06
491.874	606.06
492.092	609.06
492.31	604.06
492.527	607.06
492.745	612.06
492.963	616.06
493.18	614.06
493.398	633.06
493.615	648.06
493.833	626.06
494.05	628.06
494.268	643.06
494.485	627.06
494.703	645.06
494.92	642.06
495.138	630.06
495.355	642.06
495.573	656.06
495.79	654.06
496.008	657.06
496.225	642.06
496.442	645.06
496.66	665.06
496.877	643.06
497.094	664.06
497.312	652.06
497.529	650.06
497.746	649.06
497.963	693.06
498.181	695.06
498.398	700.06
498.615	676.06
498.832	719.06
499.049	720.06
499.267	724.06
499.484	755.06
499.701	751.06
499.918	766.06
500.135	790.06
500.352	814.06
500.569	842.06
500.786	845.06
501.003	820.06
501.22	819.06
501.437	802.06
501.654	806.06
501.871	789.06
502.088	775.06
502.305	731.06
502.522	710.06
502.739	718.06
502.956	691.06
503.172	684.06
503.389	657.06
503.606	674.06
503.823	684.06
504.04	678.06
504.256	648.06
504.473	640.06
504.69	658.06
504.907	663.06
505.123	655.06
505.34	655.06
505.557	639.06
505.773	637.06
505.99	635.06
506.207	623.06
506.423	637.06
506.64	641.06
506.856	606.06
507.073	610.06
507.289	601.06
507.506	604.06
507.722	601.06
507.939	629.06
508.155	637.06
508.372	623.06
508.588	607.06
508.805	598.06
509.021	566.06
509.238	631.06
509.454	615.06
509.67	627.06
509.887	622.06
510.103	626.06
510.319	591.06
510.536	668.06
510.752	1173.06
510.968	941.06
511.184	609.06
511.401	579.06
511.617	567.06
511.833	580.06
512.049	573.06
512.265	571.06
512.481	571.06
512.698	542.06
512.914	545.06
513.13	568.06
513.346	559.06
513.562	568.06
513.778	580.06
513.994	566.06
514.21	591.06
514.426	616.06
514.642	648.06
514.858	634.06
515.074	706.06
515.29	837.06
515.506	1220.06
515.721	1017.06
515.937	706.06
516.153	630.06
516.369	602.06
516.585	570.06
516.801	572.06
517.016	559.06
517.232	566.06
517.448	576.06
517.664	572.06
517.879	576.06
518.095	586.06
518.311	567.06
518.527	590.06
518.742	564.06
518.958	555.06
519.173	562.06
519.389	570.06
519.605	555.06
519.82	591.06
520.036	582.06
520.251	589.06
520.467	619.06
520.682	643.06
520.898	628.06
521.113	636.06
521.329	714.06
521.544	753.06
521.76	950.06
521.975	1609.06
522.19	1564.06
522.406	868.06
522.621	652.06
522.836	577.06
523.052	556.06
523.267	536.06
523.482	537.06
523.698	506.06
523.913	535.06
524.128	510.06
524.343	508.06
524.559	503.06
524.774	515.06
524.989	493.06
525.204	507.06
525.419	495.06
525.634	489.06
525.849	483.06
526.064	478.06
526.28	465.06
526.495	461.06
526.71	466.06
526.925	463.06
527.14	476.06
527.355	452.06
527.57	479.06
527.785	451.06
527.999	455.06
528.214	456.06
528.429	454.06
528.644	466.06
528.859	465.06
529.074	464.06
529.289	518.06
529.503	558.06
529.718	545.06
529.933	486.06
530.148	469.06
530.363	458.06
530.577	459.06
530.792	461.06
531.007	446.06
531.221	432.06
531.436	434.06
531.651	458.06
531.865	433.06
532.08	448.06
532.295	434.06
532.509	421.06
532.724	454.06
532.938	461.06
533.153	442.06
533.367	429.06
533.582	452.06
533.796	428.06
534.011	437.06
534.225	442.06
534.44	424.06
534.654	451.06
534.868	431.06
535.083	432.06
535.297	408.06
535.511	438.06
535.726	451.06
535.94	440.06
536.154	427.06
536.369	442.06
536.583	442.06
536.797	422.06
537.011	431.06
537.225	411.06
537.44	424.06
537.654	411.06
537.868	422.06
538.082	413.06
538.296	426.06
538.51	419.06
538.724	429.06
538.938	412.06
539.153	433.06
539.367	452.06
539.581	449.06
539.795	424.06
540.009	436.06
540.222	412.06
540.436	434.06
540.65	429.06
540.864	412.06
541.078	429.06
541.292	437.06
541.506	414.06
541.72	420.06
541.934	404.06
542.147	430.06
542.361	439.06
542.575	419.06
542.789	411.06
543.002	422.06
543.216	431.06
543.43	421.06
543.644	421.06
543.857	393.06
544.071	430.06
544.285	430.06
544.498	417.06
544.712	396.06
544.925	404.06
545.139	411.06
545.352	394.06
545.566	437.06
545.779	408.06
545.993	420.06
546.206	417.06
546.42	406.06
546.633	401.06
546.847	391.06
547.06	404.06
547.274	407.06
547.487	407.06
547.7	398.06
547.914	408.06
548.127	419.06
548.34	392.06
548.554	410.06
548.767	388.06
548.98	383.06
549.193	392.06
549.407	394.06
549.62	398.06
549.833	390.06
550.046	384.06
550.259	395.06
550.473	392.06
550.686	388.06
550.899	386.06
551.112	382.06
551.325	376.06
551.538	400.06
551.751	394.06
551.964	400.06
552.177	390.06
552.39	378.06
552.603	421.06
552.816	407.06
553.029	386.06
553.242	397.06
553.455	397.06
553.667	417.06
553.88	422.06
554.093	399.06
554.306	399.06
554.519	393.06
554.732	384.06
554.944	390.06
555.157	394.06
555.37	382.06
555.583	381.06
555.795	363.06
556.008	376.06
556.221	380.06
556.433	380.06
556.646	386.06
556.859	371.06
557.071	389.06
557.284	378.06
557.496	358.06
557.709	365.06
557.921	366.06
558.134	372.06
558.346	358.06
558.559	355.06
558.771	357.06
558.984	346.06
559.196	361.06
559.409	352.06
559.621	350.06
559.833	368.06
560.046	358.06
560.258	372.06
560.47	379.06
560.683	355.06
560.895	355.06
561.107	346.06
561.32	364.06
561.532	368.06
561.744	344.06
561.956	357.06
562.168	341.06
562.381	357.06
562.593	344.06
562.805	371.06
563.017	339.06
563.229	351.06
563.441	360.06
563.653	374.06
563.865	349.06
564.077	353.06
564.289	345.06
564.501	356.06
564.713	391.06
564.925	387.06
565.137	379.06
565.349	392.06
565.561	372.06
565.773	369.06
565.985	371.06
566.197	387.06
566.408	403.06
566.62	407.06
566.832	399.06
567.044	409.06
567.255	400.06
567.467	415.06
567.679	438.06
567.891	432.06
568.102	419.06
568.314	400.06
568.526	393.06
568.737	397.06
568.949	389.06
569.161	353.06
569.372	360.06
569.584	372.06
569.795	359.06
570.007	366.06
570.218	391.06
570.43	382.06
570.641	375.06
570.853	347.06
571.064	336.06
571.276	316.06
571.487	344.06
571.698	336.06
571.91	336.06
572.121	331.06
572.333	316.06
572.544	304.06
572.755	327.06
572.966	335.06
573.178	311.06
573.389	330.06
573.6	310.06
573.811	319.06
574.023	313.06
574.234	320.06
574.445	295.06
574.656	299.06
574.867	311.06
575.078	311.06
575.289	315.06
575.501	286.06
575.712	285.06
575.923	278.06
576.134	295.06
576.345	327.06
576.556	282.06
576.767	286.06
576.978	281.06
577.188	296.06
577.399	312.06
577.61	289.06
577.821	300.06
578.032	286.06
578.243	324.06
578.454	542.06
578.665	423.06
578.875	301.06
579.086	292.06
579.297	299.06
579.508	310.06
579.718	284.06
579.929	289.06
580.14	297.06
580.35	290.06
580.561	285.06
580.772	278.06
580.982	289.06
581.193	301.06
581.403	270.06
581.614	281.06
581.825	284.06
582.035	281.06
582.246	286.06
582.456	281.06
582.667	283.06
582.877	291.06
583.087	290.06
583.298	267.06
583.508	266.06
583.719	278.06
583.929	283.06
584.139	290.06
584.35	278.06
584.56	282.06
584.77	267.06
584.981	273.06
585.191	262.06
585.401	280.06
585.611	279.06
585.821	276.06
586.032	267.06
586.242	250.06
586.452	264.06
586.662	271.06
586.872	262.06
587.082	285.06
587.292	265.06
587.502	274.06
587.713	268.06
587.923	272.06
588.133	277.06
588.343	272.06
588.553	257.06
588.762	280.06
588.972	264.06
589.182	313.06
589.392	267.06
589.602	254.06
589.812	266.06
590.022	292.06
590.232	255.06
590.441	282.06
590.651	259.06
590.861	267.06
591.071	282.06
591.281	274.06
591.49	275.06
591.7	307.06
591.91	269.06
592.119	263.06
592.329	271.06
592.539	290.06
592.748	266.06
592.958	263.06
593.167	262.06
593.377	263.06
593.587	267.06
593.796	278.06
594.006	290.06
594.215	274.06
594.424	282.06
594.634	281.06
594.843	272.06
595.053	268.06
595.262	270.06
595.472	262.06
595.681	261.06
595.89	260.06
596.1	252.06
596.309	260.06
596.518	254.06
596.727	270.06
596.937	255.06
597.146	254.06
597.355	267.06
597.564	244.06
597.774	257.06
597.983	246.06
598.192	244.06
598.401	236.06
598.61	236.06
598.819	243.06
599.028	244.06
599.237	246.06
599.446	246.06
599.655	236.06
599.864	237.06
600.073	237.06
600.282	243.06
600.491	244.06
600.7	245.06
600.909	252.06
601.118	251.06
601.327	247.06
601.536	233.06
601.745	226.06
601.953	235.06
602.162	246.06
602.371	229.06
602.58	239.06
602.789	227.06
602.997	247.06
603.206	228.06
603.415	244.06
603.623	222.06
603.832	236.06
604.041	218.06
604.249	230.06
604.458	227.06
604.666	216.06
604.875	219.06
605.084	219.06
605.292	227.06
605.501	219.06
605.709	227.06
605.918	223.06
606.126	227.06
606.334	221.06
606.543	235.06
606.751	224.06
606.96	214.06
607.168	236.06
607.376	222.06
607.585	238.06
607.793	220.06
608.001	214.06
608.21	216.06
608.418	207.06
608.626	242.06
608.834	220.06
609.043	242.06
609.251	232.06
609.459	223.06
609.667	197.06
609.875	234.06
610.083	224.06
610.291	217.06
610.499	233.06
610.707	219.06
610.916	229.06
611.124	232.06
611.332	231.06
611.54	222.06
611.748	222.06
611.955	214.06
612.163	216.06
612.371	204.06
612.579	216.06
612.787	212.06
612.995	226.06
613.203	215.06
613.411	219.06
613.618	219.06
613.826	239.06
614.034	229.06
614.242	228.06
614.449	197.06
614.657	206.06
614.865	202.06
615.072	226.06
615.28	221.06
615.488	225.06
615.695	230.06
615.903	208.06
616.111	202.06
616.318	210.06
616.526	216.06
616.733	227.06
616.941	226.06
617.148	216.06
617.356	221.06
617.563	216.06
617.771	232.06
617.978	193.06
618.185	220.06
618.393	235.06
618.6	219.06
618.807	198.06
619.015	218.06
619.222	206.06
619.429	202.06
619.637	214.06
619.844	200.06
620.051	208.06
620.258	208.06
620.466	214.06
620.673	194.06
620.88	213.06
621.087	215.06
621.294	203.06
621.501	207.06
621.708	219.06
621.915	206.06
622.122	201.06
622.329	198.06
622.536	213.06
622.743	191.06
622.95	212.06
623.157	204.06
623.364	189.06
623.571	218.06
623.778	221.06
623.985	204.06
624.192	198.06
624.399	201.06
624.606	186.06
624.812	209.06
625.019	212.06
625.226	196.06
625.433	197.06
625.639	197.06
625.846	197.06
626.053	193.06
626.259	195.06
626.466	189.06
626.673	206.06
626.879	184.06
627.086	196.06
627.293	182.06
627.499	189.06
627.706	197.06
627.912	200.06
628.119	189.06
628.325	203.06
628.532	198.06
628.738	195.06
628.945	199.06
629.151	185.06
629.357	181.06
629.564	182.06
629.77	183.06
629.976	191.06
630.183	190.06
630.389	168.06
630.595	185.06
630.802	175.06
631.008	197.06
631.214	189.06
631.42	180.06
631.627	173.06
631.833	180.06
632.039	180.06
632.245	189.06
632.451	182.06
632.657	183.06
632.863	184.06
633.069	183.06
633.275	178.06
633.481	186.06
633.688	175.06
633.893	168.06
634.099	174.06
634.305	166.06
634.511	175.06
634.717	183.06
634.923	165.06
635.129	179.06
635.335	168.06
635.541	163.06
635.747	161.06
635.952	162.06
636.158	164.06
636.364	166.06
636.57	187.06
636.775	167.06
636.981	164.06
637.187	178.06
637.392	162.06
637.598	178.06
637.804	160.06
638.009	170.06
638.215	176.06
638.421	176.06
638.626	158.06
638.832	167.06
639.037	162.06
639.243	171.06
639.448	183.06
639.654	193.06
639.859	168.06
640.065	169.06
640.27	167.06
640.475	176.06
640.681	171.06
640.886	170.06
641.091	159.06
641.297	156.06
641.502	154.06
641.707	169.06
641.913	162.06
642.118	166.06
642.323	159.06
642.528	165.06
642.733	160.06
642.939	173.06
643.144	171.06
643.349	167.06
643.554	174.06
643.759	158.06
643.964	150.06
644.169	153.06
644.374	157.06
644.579	162.06
644.784	152.06
644.989	160.06
645.194	169.06
645.399	163.06
645.604	164.06
645.809	151.06
646.014	143.06
646.219	153.06
646.423	161.06
646.628	184.06
646.833	166.06
647.038	156.06
647.243	155.06
647.447	148.06
647.652	151.06
647.857	156.06
648.062	160.06
648.266	152.06
648.471	166.06
648.676	179.06
648.88	154.06
649.085	155.06
649.289	157.06
649.494	168.06
649.698	188.06
649.903	168.06
650.107	158.06
650.312	164.06
650.516	147.06
650.721	165.06
650.925	142.06
651.13	141.06
651.334	158.06
651.539	159.06
651.743	125.06
651.947	143.06
652.152	138.06
652.356	140.06
652.56	142.06
652.764	130.06
652.969	141.06
653.173	134.06
653.377	128.06
653.581	131.06
653.785	124.06
653.99	131.06
654.194	131.06
654.398	127.06
654.602	154.06
654.806	122.06
655.01	132.06
655.214	126.06
655.418	135.06
655.622	128.06
655.826	133.06
656.03	135.06
656.234	138.06
656.438	128.06
656.642	122.06
656.846	120.06
657.049	120.06
657.253	121.06
657.457	107.06
657.661	120.06
657.865	133.06
658.068	104.06
658.272	123.06
658.476	104.06
658.68	106.06
658.883	101.06
659.087	93.06
659.291	99.06
659.494	102.06
659.698	91.06
659.901	92.06
660.105	98.06
660.309	98.06
660.512	105.06
660.716	97.06
660.919	97.06
661.123	113.06
661.326	92.06
661.53	104.06
661.733	92.06
661.936	101.06
662.14	97.06
662.343	93.06
662.546	89.06
662.75	78.06
662.953	90.06
663.156	82.06
663.36	96.06
663.563	90.06
663.766	86.06
663.969	85.06
664.173	92.06
664.376	95.06
664.579	89.06
664.782	77.06
664.985	98.06
665.188	91.06
665.391	86.06
665.594	84.06
665.797	82.06
666	75.06
666.203	75.06
666.406	80.06
666.609	88.06
666.812	60.06
667.015	94.06
667.218	87.06
667.421	88.06
667.624	78.06
667.827	75.06
668.03	87.06
668.232	76.06
668.435	85.06
668.638	89.06
668.841	84.06
669.043	85.06
669.246	98.06
669.449	73.06
669.651	91.06
669.854	87.06
670.057	107.06
670.259	86.06
670.462	98.06
670.665	87.06
670.867	81.06
671.07	87.06
671.272	90.06
671.475	84.06
671.677	71.06
671.88	95.06
672.082	66.06
672.284	78.06
672.487	93.06
672.689	94.06
672.892	87.06
