Data from 1989.PennyLincolnUp.Lamp.En5.5.200Scan.071819.P2_HRD10591_17-24-54-973.txt Node
Date: Thu Jul 18 17:24:54 EDT 2019
User: cochatt
Spectrometer: HR+D1059
Trigger mode: 1
Integration Time (sec): 1.000000E-1
Scans to average: 1
Electric dark correction enabled: true
Nonlinearity correction enabled: false
Boxcar width: 0
XAxis mode: Wavelengths
Number of Pixels in Spectrum: 2048
>>>>>Begin Spectral Data<<<<<
223.165	-16.44
223.4	-16.44
223.635	-16.44
223.869	-14.44
224.104	-23.44
224.338	-15.44
224.573	-15.44
224.808	-18.44
225.042	-7.44
225.277	-5.44
225.511	0.56
225.746	3.56
225.98	19.56
226.215	17.56
226.449	13.56
226.683	2.56
226.918	21.56
227.152	37.56
227.387	30.56
227.621	41.56
227.856	28.56
228.09	52.56
228.324	39.56
228.559	59.56
228.793	83.56
229.027	104.56
229.262	111.56
229.496	119.56
229.73	128.56
229.964	181.56
230.199	140.56
230.433	118.56
230.667	120.56
230.901	116.56
231.136	113.56
231.37	104.56
231.604	118.56
231.838	102.56
232.072	106.56
232.306	112.56
232.541	111.56
232.775	116.56
233.009	111.56
233.243	117.56
233.477	119.56
233.711	115.56
233.945	99.56
234.179	119.56
234.413	125.56
234.647	119.56
234.881	94.56
235.115	107.56
235.349	122.56
235.583	124.56
235.817	128.56
236.051	117.56
236.285	130.56
236.519	130.56
236.753	128.56
236.987	149.56
237.221	185.56
237.455	239.56
237.689	192.56
237.922	143.56
238.156	147.56
238.39	134.56
238.624	129.56
238.858	127.56
239.091	127.56
239.325	113.56
239.559	146.56
239.793	132.56
240.027	152.56
240.26	131.56
240.494	149.56
240.728	164.56
240.961	155.56
241.195	153.56
241.429	169.56
241.662	150.56
241.896	138.56
242.13	136.56
242.363	130.56
242.597	136.56
242.83	138.56
243.064	145.56
243.298	150.56
243.531	138.56
243.765	155.56
243.998	141.56
244.232	145.56
244.465	160.56
244.699	147.56
244.932	145.56
245.166	158.56
245.399	152.56
245.633	139.56
245.866	155.56
246.099	144.56
246.333	147.56
246.566	166.56
246.8	157.56
247.033	162.56
247.266	156.56
247.5	161.56
247.733	186.56
247.966	170.56
248.2	184.56
248.433	168.56
248.666	184.56
248.899	193.56
249.133	219.56
249.366	202.56
249.599	198.56
249.832	202.56
250.066	178.56
250.299	193.56
250.532	212.56
250.765	222.56
250.998	243.56
251.231	212.56
251.465	236.56
251.698	216.56
251.931	209.56
252.164	219.56
252.397	214.56
252.63	239.56
252.863	227.56
253.096	240.56
253.329	246.56
253.562	248.56
253.795	217.56
254.028	243.56
254.261	218.56
254.494	253.56
254.727	279.56
254.96	304.56
255.193	305.56
255.426	278.56
255.659	247.56
255.892	258.56
256.124	237.56
256.357	239.56
256.59	234.56
256.823	242.56
257.056	229.56
257.289	221.56
257.521	246.56
257.754	227.56
257.987	228.56
258.22	224.56
258.452	216.56
258.685	204.56
258.918	219.56
259.151	234.56
259.383	259.56
259.616	234.56
259.849	249.56
260.081	253.56
260.314	273.56
260.547	279.56
260.779	271.56
261.012	252.56
261.244	247.56
261.477	240.56
261.71	245.56
261.942	259.56
262.175	241.56
262.407	257.56
262.64	241.56
262.872	237.56
263.105	240.56
263.337	225.56
263.57	233.56
263.802	220.56
264.035	241.56
264.267	214.56
264.499	229.56
264.732	223.56
264.964	228.56
265.197	226.56
265.429	236.56
265.661	240.56
265.894	212.56
266.126	229.56
266.358	251.56
266.591	236.56
266.823	232.56
267.055	243.56
267.287	243.56
267.52	255.56
267.752	247.56
267.984	254.56
268.216	249.56
268.448	258.56
268.681	263.56
268.913	249.56
269.145	280.56
269.377	305.56
269.609	315.56
269.841	288.56
270.073	295.56
270.306	312.56
270.538	315.56
270.77	362.56
271.002	344.56
271.234	333.56
271.466	331.56
271.698	348.56
271.93	341.56
272.162	352.56
272.394	354.56
272.626	340.56
272.858	305.56
273.09	306.56
273.322	294.56
273.553	297.56
273.785	299.56
274.017	274.56
274.249	284.56
274.481	286.56
274.713	299.56
274.945	288.56
275.176	288.56
275.408	275.56
275.64	281.56
275.872	282.56
276.104	289.56
276.335	294.56
276.567	291.56
276.799	335.56
277.031	337.56
277.262	340.56
277.494	331.56
277.726	328.56
277.957	299.56
278.189	318.56
278.421	296.56
278.652	315.56
278.884	293.56
279.115	291.56
279.347	281.56
279.579	283.56
279.81	292.56
280.042	289.56
280.273	292.56
280.505	294.56
280.736	284.56
280.968	304.56
281.199	287.56
281.431	282.56
281.662	270.56
281.894	290.56
282.125	275.56
282.356	297.56
282.588	348.56
282.819	335.56
283.051	301.56
283.282	290.56
283.513	289.56
283.745	278.56
283.976	307.56
284.207	313.56
284.439	301.56
284.67	298.56
284.901	288.56
285.132	311.56
285.364	325.56
285.595	305.56
285.826	304.56
286.057	303.56
286.288	275.56
286.52	277.56
286.751	300.56
286.982	307.56
287.213	298.56
287.444	308.56
287.675	316.56
287.906	303.56
288.138	341.56
288.369	309.56
288.6	325.56
288.831	323.56
289.062	318.56
289.293	327.56
289.524	312.56
289.755	312.56
289.986	296.56
290.217	306.56
290.448	293.56
290.679	297.56
290.91	311.56
291.141	295.56
291.371	301.56
291.602	310.56
291.833	294.56
292.064	298.56
292.295	312.56
292.526	307.56
292.757	298.56
292.987	315.56
293.218	292.56
293.449	308.56
293.68	288.56
293.91	299.56
294.141	299.56
294.372	308.56
294.603	306.56
294.833	303.56
295.064	310.56
295.295	300.56
295.525	305.56
295.756	307.56
295.987	333.56
296.217	345.56
296.448	335.56
296.679	314.56
296.909	311.56
297.14	312.56
297.37	317.56
297.601	330.56
297.831	300.56
298.062	327.56
298.292	333.56
298.523	317.56
298.753	318.56
298.984	329.56
299.214	327.56
299.445	320.56
299.675	325.56
299.905	324.56
300.136	344.56
300.366	317.56
300.597	326.56
300.827	328.56
301.057	338.56
301.288	354.56
301.518	348.56
301.748	333.56
301.979	337.56
302.209	341.56
302.439	351.56
302.669	359.56
302.9	341.56
303.13	348.56
303.36	363.56
303.59	358.56
303.82	347.56
304.051	353.56
304.281	349.56
304.511	340.56
304.741	352.56
304.971	359.56
305.201	350.56
305.431	335.56
305.661	319.56
305.891	336.56
306.121	353.56
306.352	350.56
306.582	349.56
306.812	356.56
307.042	353.56
307.272	367.56
307.502	348.56
307.731	376.56
307.961	364.56
308.191	344.56
308.421	353.56
308.651	372.56
308.881	351.56
309.111	364.56
309.341	376.56
309.571	367.56
309.8	360.56
310.03	379.56
310.26	397.56
310.49	388.56
310.72	417.56
310.949	415.56
311.179	410.56
311.409	422.56
311.639	385.56
311.868	411.56
312.098	407.56
312.328	404.56
312.557	424.56
312.787	433.56
313.017	443.56
313.246	396.56
313.476	420.56
313.706	412.56
313.935	406.56
314.165	423.56
314.394	431.56
314.624	407.56
314.853	408.56
315.083	408.56
315.312	408.56
315.542	395.56
315.771	396.56
316.001	388.56
316.23	404.56
316.46	396.56
316.689	430.56
316.919	418.56
317.148	418.56
317.377	413.56
317.607	416.56
317.836	392.56
318.065	411.56
318.295	407.56
318.524	420.56
318.753	383.56
318.983	412.56
319.212	423.56
319.441	408.56
319.67	409.56
319.9	420.56
320.129	405.56
320.358	405.56
320.587	421.56
320.816	410.56
321.046	427.56
321.275	425.56
321.504	410.56
321.733	432.56
321.962	423.56
322.191	447.56
322.42	472.56
322.649	495.56
322.878	483.56
323.108	489.56
323.337	527.56
323.566	555.56
323.795	600.56
324.024	647.56
324.253	803.56
324.482	1118.56
324.71	1703.56
324.939	2453.56
325.168	2156.56
325.397	1120.56
325.626	791.56
325.855	618.56
326.084	565.56
326.313	554.56
326.542	570.56
326.77	600.56
326.999	729.56
327.228	999.56
327.457	1504.56
327.686	1822.56
327.914	1264.56
328.143	817.56
328.372	683.56
328.6	625.56
328.829	611.56
329.058	623.56
329.287	653.56
329.515	609.56
329.744	567.56
329.972	537.56
330.201	565.56
330.43	583.56
330.658	615.56
330.887	672.56
331.115	643.56
331.344	562.56
331.572	549.56
331.801	523.56
332.03	519.56
332.258	509.56
332.486	489.56
332.715	497.56
332.943	480.56
333.172	488.56
333.4	481.56
333.629	493.56
333.857	474.56
334.085	479.56
334.314	491.56
334.542	499.56
334.771	534.56
334.999	513.56
335.227	462.56
335.455	484.56
335.684	473.56
335.912	462.56
336.14	462.56
336.369	443.56
336.597	471.56
336.825	480.56
337.053	463.56
337.281	452.56
337.51	445.56
337.738	463.56
337.966	459.56
338.194	453.56
338.422	467.56
338.65	447.56
338.878	450.56
339.106	439.56
339.334	454.56
339.562	437.56
339.79	440.56
340.018	439.56
340.246	459.56
340.474	450.56
340.702	441.56
340.93	458.56
341.158	445.56
341.386	448.56
341.614	448.56
341.842	436.56
342.07	450.56
342.298	440.56
342.526	406.56
342.754	429.56
342.981	424.56
343.209	421.56
343.437	445.56
343.665	440.56
343.893	442.56
344.12	437.56
344.348	443.56
344.576	452.56
344.804	482.56
345.031	472.56
345.259	476.56
345.487	451.56
345.714	449.56
345.942	430.56
346.17	443.56
346.397	437.56
346.625	419.56
346.853	435.56
347.08	443.56
347.308	421.56
347.535	466.56
347.763	441.56
347.99	439.56
348.218	450.56
348.445	465.56
348.673	447.56
348.9	420.56
349.128	412.56
349.355	416.56
349.583	412.56
349.81	431.56
350.037	396.56
350.265	410.56
350.492	420.56
350.72	407.56
350.947	437.56
351.174	424.56
351.402	446.56
351.629	418.56
351.856	423.56
352.083	444.56
352.311	444.56
352.538	434.56
352.765	458.56
352.992	437.56
353.22	429.56
353.447	407.56
353.674	433.56
353.901	400.56
354.128	402.56
354.355	398.56
354.583	397.56
354.81	378.56
355.037	391.56
355.264	406.56
355.491	372.56
355.718	383.56
355.945	391.56
356.172	400.56
356.399	387.56
356.626	382.56
356.853	388.56
357.08	369.56
357.307	385.56
357.534	396.56
357.761	379.56
357.988	383.56
358.215	394.56
358.441	402.56
358.668	378.56
358.895	391.56
359.122	408.56
359.349	437.56
359.576	427.56
359.802	450.56
360.029	462.56
360.256	490.56
360.483	480.56
360.709	435.56
360.936	414.56
361.163	432.56
361.39	418.56
361.616	423.56
361.843	439.56
362.07	447.56
362.296	432.56
362.523	411.56
362.749	418.56
362.976	401.56
363.203	394.56
363.429	371.56
363.656	409.56
363.882	408.56
364.109	406.56
364.335	398.56
364.562	378.56
364.788	406.56
365.015	382.56
365.241	400.56
365.468	398.56
365.694	414.56
365.92	417.56
366.147	413.56
366.373	393.56
366.599	402.56
366.826	390.56
367.052	393.56
367.278	390.56
367.505	392.56
367.731	381.56
367.957	394.56
368.184	383.56
368.41	409.56
368.636	389.56
368.862	417.56
369.089	406.56
369.315	390.56
369.541	408.56
369.767	405.56
369.993	389.56
370.219	397.56
370.445	373.56
370.672	396.56
370.898	401.56
371.124	387.56
371.35	410.56
371.576	375.56
371.802	385.56
372.028	370.56
372.254	393.56
372.48	394.56
372.706	385.56
372.932	382.56
373.158	398.56
373.384	389.56
373.61	392.56
373.835	391.56
374.061	393.56
374.287	404.56
374.513	398.56
374.739	392.56
374.965	377.56
375.191	395.56
375.416	402.56
375.642	385.56
375.868	409.56
376.094	395.56
376.319	384.56
376.545	375.56
376.771	374.56
376.997	376.56
377.222	394.56
377.448	375.56
377.674	380.56
377.899	385.56
378.125	403.56
378.35	373.56
378.576	392.56
378.802	355.56
379.027	356.56
379.253	380.56
379.478	383.56
379.704	376.56
379.929	406.56
380.155	386.56
380.38	384.56
380.606	381.56
380.831	384.56
381.057	390.56
381.282	407.56
381.507	389.56
381.733	381.56
381.958	361.56
382.184	385.56
382.409	388.56
382.634	400.56
382.86	404.56
383.085	385.56
383.31	397.56
383.535	392.56
383.761	387.56
383.986	397.56
384.211	388.56
384.436	406.56
384.662	401.56
384.887	415.56
385.112	384.56
385.337	398.56
385.562	388.56
385.787	421.56
386.013	434.56
386.238	410.56
386.463	388.56
386.688	421.56
386.913	403.56
387.138	388.56
387.363	395.56
387.588	411.56
387.813	412.56
388.038	389.56
388.263	408.56
388.488	403.56
388.713	418.56
388.938	411.56
389.163	418.56
389.387	418.56
389.612	404.56
389.837	397.56
390.062	425.56
390.287	412.56
390.512	410.56
390.736	403.56
390.961	421.56
391.186	421.56
391.411	402.56
391.636	419.56
391.86	404.56
392.085	412.56
392.31	410.56
392.534	402.56
392.759	420.56
392.984	404.56
393.208	389.56
393.433	404.56
393.658	415.56
393.882	407.56
394.107	393.56
394.331	398.56
394.556	386.56
394.78	418.56
395.005	397.56
395.229	409.56
395.454	415.56
395.678	404.56
395.903	433.56
396.127	426.56
396.352	447.56
396.576	446.56
396.801	423.56
397.025	419.56
397.249	397.56
397.474	430.56
397.698	431.56
397.922	431.56
398.147	454.56
398.371	471.56
398.595	450.56
398.82	455.56
399.044	451.56
399.268	471.56
399.492	482.56
399.717	526.56
399.941	524.56
400.165	557.56
400.389	561.56
400.613	546.56
400.837	480.56
401.062	498.56
401.286	462.56
401.51	469.56
401.734	476.56
401.958	465.56
402.182	475.56
402.406	485.56
402.63	497.56
402.854	471.56
403.078	448.56
403.302	501.56
403.526	449.56
403.75	471.56
403.974	480.56
404.198	481.56
404.422	481.56
404.645	479.56
404.869	477.56
405.093	493.56
405.317	549.56
405.541	568.56
405.765	515.56
405.988	484.56
406.212	529.56
406.436	534.56
406.66	537.56
406.883	505.56
407.107	528.56
407.331	570.56
407.555	655.56
407.778	648.56
408.002	602.56
408.226	539.56
408.449	523.56
408.673	510.56
408.896	556.56
409.12	579.56
409.344	570.56
409.567	523.56
409.791	489.56
410.014	471.56
410.238	464.56
410.461	471.56
410.685	470.56
410.908	503.56
411.132	525.56
411.355	582.56
411.578	529.56
411.802	486.56
412.025	477.56
412.249	474.56
412.472	492.56
412.695	502.56
412.919	488.56
413.142	495.56
413.365	471.56
413.589	450.56
413.812	471.56
414.035	455.56
414.258	440.56
414.482	449.56
414.705	448.56
414.928	417.56
415.151	450.56
415.374	427.56
415.597	441.56
415.821	449.56
416.044	442.56
416.267	449.56
416.49	437.56
416.713	442.56
416.936	458.56
417.159	450.56
417.382	457.56
417.605	447.56
417.828	469.56
418.051	496.56
418.274	469.56
418.497	465.56
418.72	451.56
418.943	463.56
419.166	474.56
419.389	487.56
419.611	484.56
419.834	455.56
420.057	483.56
420.28	472.56
420.503	486.56
420.726	470.56
420.948	489.56
421.171	529.56
421.394	565.56
421.617	484.56
421.839	474.56
422.062	499.56
422.285	507.56
422.507	544.56
422.73	606.56
422.953	607.56
423.175	512.56
423.398	484.56
423.621	504.56
423.843	507.56
424.066	503.56
424.288	516.56
424.511	527.56
424.733	592.56
424.956	665.56
425.178	659.56
425.401	645.56
425.623	654.56
425.846	561.56
426.068	536.56
426.291	529.56
426.513	501.56
426.735	535.56
426.958	564.56
427.18	655.56
427.402	777.56
427.625	863.56
427.847	764.56
428.069	675.56
428.292	575.56
428.514	497.56
428.736	517.56
428.958	484.56
429.181	501.56
429.403	480.56
429.625	467.56
429.847	496.56
430.069	589.56
430.292	585.56
430.514	516.56
430.736	488.56
430.958	476.56
431.18	450.56
431.402	445.56
431.624	441.56
431.846	436.56
432.068	427.56
432.29	441.56
432.512	447.56
432.734	442.56
432.956	467.56
433.178	460.56
433.4	469.56
433.622	463.56
433.844	439.56
434.066	433.56
434.287	445.56
434.509	442.56
434.731	441.56
434.953	459.56
435.175	469.56
435.397	496.56
435.618	511.56
435.84	579.56
436.062	646.56
436.284	733.56
436.505	612.56
436.727	535.56
436.949	492.56
437.17	490.56
437.392	485.56
437.614	502.56
437.835	524.56
438.057	644.56
438.278	730.56
438.5	723.56
438.721	795.56
438.943	752.56
439.165	616.56
439.386	556.56
439.608	545.56
439.829	541.56
440.05	567.56
440.272	611.56
440.493	567.56
440.715	515.56
440.936	510.56
441.158	477.56
441.379	487.56
441.6	479.56
441.822	521.56
442.043	569.56
442.264	642.56
442.486	671.56
442.707	581.56
442.928	554.56
443.149	554.56
443.371	554.56
443.592	597.56
443.813	693.56
444.034	763.56
444.255	618.56
444.476	563.56
444.698	512.56
444.919	534.56
445.14	625.56
445.361	575.56
445.582	553.56
445.803	647.56
446.024	730.56
446.245	746.56
446.466	697.56
446.687	562.56
446.908	545.56
447.129	513.56
447.35	512.56
447.571	488.56
447.792	462.56
448.013	468.56
448.234	504.56
448.455	553.56
448.675	681.56
448.896	782.56
449.117	681.56
449.338	642.56
449.559	711.56
449.779	824.56
450	666.56
450.221	533.56
450.442	507.56
450.662	486.56
450.883	485.56
451.104	491.56
451.324	487.56
451.545	469.56
451.766	455.56
451.986	419.56
452.207	427.56
452.428	422.56
452.648	418.56
452.869	428.56
453.089	440.56
453.31	448.56
453.53	440.56
453.751	440.56
453.971	429.56
454.192	464.56
454.412	444.56
454.633	425.56
454.853	417.56
455.073	432.56
455.294	462.56
455.514	545.56
455.734	529.56
455.955	458.56
456.175	409.56
456.395	428.56
456.616	416.56
456.836	389.56
457.056	379.56
457.276	411.56
457.497	405.56
457.717	388.56
457.937	387.56
458.157	425.56
458.377	415.56
458.598	434.56
458.818	520.56
459.038	597.56
459.258	604.56
459.478	493.56
459.698	457.56
459.918	444.56
460.138	441.56
460.358	446.56
460.578	416.56
460.798	434.56
461.018	424.56
461.238	427.56
461.458	432.56
461.678	426.56
461.898	445.56
462.118	427.56
462.338	440.56
462.558	451.56
462.777	457.56
462.997	435.56
463.217	467.56
463.437	474.56
463.657	479.56
463.876	455.56
464.096	483.56
464.316	457.56
464.536	455.56
464.755	458.56
464.975	477.56
465.195	537.56
465.414	594.56
465.634	536.56
465.854	489.56
466.073	460.56
466.293	443.56
466.512	444.56
466.732	446.56
466.951	418.56
467.171	425.56
467.391	409.56
467.61	415.56
467.829	455.56
468.049	450.56
468.268	435.56
468.488	433.56
468.707	413.56
468.927	431.56
469.146	419.56
469.365	429.56
469.585	409.56
469.804	438.56
470.023	444.56
470.243	452.56
470.462	433.56
470.681	443.56
470.901	443.56
471.12	435.56
471.339	444.56
471.558	454.56
471.777	449.56
471.997	435.56
472.216	423.56
472.435	447.56
472.654	449.56
472.873	425.56
473.092	455.56
473.311	435.56
473.53	448.56
473.749	460.56
473.968	483.56
474.187	620.56
474.406	617.56
474.625	504.56
474.844	472.56
475.063	460.56
475.282	457.56
475.501	441.56
475.72	433.56
475.939	445.56
476.158	449.56
476.377	474.56
476.596	431.56
476.814	455.56
477.033	476.56
477.252	489.56
477.471	467.56
477.69	468.56
477.908	483.56
478.127	478.56
478.346	441.56
478.564	465.56
478.783	483.56
479.002	482.56
479.22	485.56
479.439	531.56
479.658	511.56
479.876	564.56
480.095	549.56
480.313	562.56
480.532	547.56
480.751	530.56
480.969	532.56
481.188	568.56
481.406	579.56
481.624	548.56
481.843	523.56
482.061	511.56
482.28	511.56
482.498	481.56
482.717	519.56
482.935	515.56
483.153	519.56
483.372	491.56
483.59	521.56
483.808	515.56
484.027	520.56
484.245	511.56
484.463	509.56
484.681	529.56
484.9	495.56
485.118	514.56
485.336	513.56
485.554	547.56
485.772	528.56
485.99	529.56
486.209	532.56
486.427	540.56
486.645	544.56
486.863	553.56
487.081	564.56
487.299	546.56
487.517	543.56
487.735	550.56
487.953	536.56
488.171	552.56
488.389	544.56
488.607	559.56
488.825	567.56
489.043	550.56
489.261	548.56
489.479	566.56
489.696	558.56
489.914	549.56
490.132	575.56
490.35	554.56
490.568	581.56
490.786	588.56
491.003	573.56
491.221	598.56
491.439	611.56
491.657	596.56
491.874	623.56
492.092	625.56
492.31	633.56
492.527	635.56
492.745	634.56
492.963	642.56
493.18	640.56
493.398	658.56
493.615	649.56
493.833	653.56
494.05	648.56
494.268	649.56
494.485	666.56
494.703	653.56
494.92	646.56
495.138	654.56
495.355	657.56
495.573	657.56
495.79	674.56
496.008	643.56
496.225	649.56
496.442	682.56
496.66	648.56
496.877	663.56
497.094	683.56
497.312	681.56
497.529	661.56
497.746	672.56
497.963	679.56
498.181	727.56
498.398	717.56
498.615	732.56
498.832	747.56
499.049	733.56
499.267	732.56
499.484	757.56
499.701	776.56
499.918	817.56
500.135	848.56
500.352	869.56
500.569	861.56
500.786	876.56
501.003	857.56
501.22	833.56
501.437	825.56
501.654	796.56
501.871	822.56
502.088	783.56
502.305	747.56
502.522	740.56
502.739	723.56
502.956	683.56
503.172	668.56
503.389	689.56
503.606	690.56
503.823	695.56
504.04	666.56
504.256	654.56
504.473	646.56
504.69	647.56
504.907	646.56
505.123	626.56
505.34	629.56
505.557	641.56
505.773	647.56
505.99	626.56
506.207	649.56
506.423	609.56
506.64	627.56
506.856	616.56
507.073	630.56
507.289	625.56
507.506	630.56
507.722	641.56
507.939	654.56
508.155	618.56
508.372	613.56
508.588	599.56
508.805	612.56
509.021	628.56
509.238	607.56
509.454	633.56
509.67	627.56
509.887	589.56
510.103	610.56
510.319	629.56
510.536	726.56
510.752	1233.56
510.968	1008.56
511.184	650.56
511.401	584.56
511.617	606.56
511.833	577.56
512.049	592.56
512.265	581.56
512.481	582.56
512.698	552.56
512.914	584.56
513.13	572.56
513.346	571.56
513.562	599.56
513.778	588.56
513.994	590.56
514.21	597.56
514.426	601.56
514.642	643.56
514.858	685.56
515.074	737.56
515.29	917.56
515.506	1353.56
515.721	1075.56
515.937	714.56
516.153	640.56
516.369	623.56
516.585	632.56
516.801	588.56
517.016	581.56
517.232	578.56
517.448	578.56
517.664	603.56
517.879	586.56
518.095	589.56
518.311	553.56
518.527	555.56
518.742	580.56
518.958	584.56
519.173	597.56
519.389	580.56
519.605	579.56
519.82	575.56
520.036	579.56
520.251	622.56
520.467	623.56
520.682	669.56
520.898	652.56
521.113	675.56
521.329	726.56
521.544	809.56
521.76	1077.56
521.975	1826.56
522.19	1747.56
522.406	945.56
522.621	687.56
522.836	630.56
523.052	608.56
523.267	539.56
523.482	521.56
523.698	551.56
523.913	524.56
524.128	543.56
524.343	507.56
524.559	500.56
524.774	502.56
524.989	510.56
525.204	518.56
525.419	532.56
525.634	493.56
525.849	483.56
526.064	476.56
526.28	474.56
526.495	489.56
526.71	475.56
526.925	473.56
527.14	463.56
527.355	468.56
527.57	464.56
527.785	472.56
527.999	469.56
528.214	466.56
528.429	458.56
528.644	468.56
528.859	453.56
529.074	453.56
529.289	488.56
529.503	580.56
529.718	563.56
529.933	489.56
530.148	473.56
530.363	479.56
530.577	459.56
530.792	471.56
531.007	457.56
531.221	444.56
531.436	451.56
531.651	450.56
531.865	419.56
532.08	433.56
532.295	458.56
532.509	447.56
532.724	438.56
532.938	432.56
533.153	444.56
533.367	445.56
533.582	435.56
533.796	425.56
534.011	427.56
534.225	449.56
534.44	444.56
534.654	429.56
534.868	413.56
535.083	426.56
535.297	460.56
535.511	434.56
535.726	439.56
535.94	438.56
536.154	419.56
536.369	456.56
536.583	433.56
536.797	423.56
537.011	421.56
537.225	431.56
537.44	435.56
537.654	451.56
537.868	442.56
538.082	422.56
538.296	427.56
538.51	434.56
538.724	438.56
538.938	454.56
539.153	428.56
539.367	457.56
539.581	443.56
539.795	411.56
540.009	427.56
540.222	437.56
540.436	427.56
540.65	419.56
540.864	440.56
541.078	429.56
541.292	450.56
541.506	452.56
541.72	436.56
541.934	430.56
542.147	436.56
542.361	392.56
542.575	419.56
542.789	413.56
543.002	406.56
543.216	437.56
543.43	427.56
543.644	435.56
543.857	437.56
544.071	435.56
544.285	411.56
544.498	419.56
544.712	403.56
544.925	411.56
545.139	418.56
545.352	416.56
545.566	424.56
545.779	418.56
545.993	418.56
546.206	410.56
546.42	418.56
546.633	409.56
546.847	399.56
547.06	422.56
547.274	401.56
547.487	413.56
547.7	398.56
547.914	395.56
548.127	404.56
548.34	397.56
548.554	376.56
548.767	397.56
548.98	398.56
549.193	393.56
549.407	401.56
549.62	394.56
549.833	391.56
550.046	398.56
550.259	392.56
550.473	389.56
550.686	389.56
550.899	381.56
551.112	378.56
551.325	399.56
551.538	402.56
551.751	392.56
551.964	371.56
552.177	362.56
552.39	378.56
552.603	387.56
552.816	378.56
553.029	369.56
553.242	394.56
553.455	399.56
553.667	403.56
553.88	419.56
554.093	403.56
554.306	406.56
554.519	413.56
554.732	393.56
554.944	375.56
555.157	363.56
555.37	370.56
555.583	397.56
555.795	389.56
556.008	370.56
556.221	384.56
556.433	363.56
556.646	371.56
556.859	381.56
557.071	372.56
557.284	360.56
557.496	356.56
557.709	342.56
557.921	330.56
558.134	359.56
558.346	339.56
558.559	343.56
558.771	340.56
558.984	361.56
559.196	353.56
559.409	349.56
559.621	344.56
559.833	347.56
560.046	360.56
560.258	342.56
560.47	345.56
560.683	337.56
560.895	344.56
561.107	348.56
561.32	346.56
561.532	346.56
561.744	340.56
561.956	373.56
562.168	359.56
562.381	369.56
562.593	333.56
562.805	356.56
563.017	372.56
563.229	347.56
563.441	352.56
563.653	356.56
563.865	364.56
564.077	365.56
564.289	359.56
564.501	363.56
564.713	359.56
564.925	340.56
565.137	378.56
565.349	373.56
565.561	376.56
565.773	396.56
565.985	382.56
566.197	383.56
566.408	391.56
566.62	394.56
566.832	406.56
567.044	392.56
567.255	418.56
567.467	426.56
567.679	439.56
567.891	422.56
568.102	427.56
568.314	413.56
568.526	405.56
568.737	385.56
568.949	387.56
569.161	378.56
569.372	354.56
569.584	349.56
569.795	359.56
570.007	348.56
570.218	399.56
570.43	396.56
570.641	342.56
570.853	345.56
571.064	340.56
571.276	337.56
571.487	331.56
571.698	327.56
571.91	329.56
572.121	323.56
572.333	327.56
572.544	320.56
572.755	323.56
572.966	319.56
573.178	300.56
573.389	309.56
573.6	322.56
573.811	290.56
574.023	336.56
574.234	313.56
574.445	317.56
574.656	332.56
574.867	301.56
575.078	300.56
575.289	320.56
575.501	315.56
575.712	300.56
575.923	334.56
576.134	291.56
576.345	313.56
576.556	308.56
576.767	296.56
576.978	310.56
577.188	307.56
577.399	312.56
577.61	273.56
577.821	292.56
578.032	306.56
578.243	338.56
578.454	585.56
578.665	427.56
578.875	323.56
579.086	283.56
579.297	281.56
579.508	291.56
579.718	293.56
579.929	291.56
580.14	277.56
580.35	290.56
580.561	282.56
580.772	296.56
580.982	276.56
581.193	277.56
581.403	278.56
581.614	267.56
581.825	280.56
582.035	277.56
582.246	267.56
582.456	285.56
582.667	275.56
582.877	281.56
583.087	282.56
583.298	266.56
583.508	285.56
583.719	273.56
583.929	284.56
584.139	268.56
584.35	271.56
584.56	270.56
584.77	273.56
584.981	287.56
585.191	269.56
585.401	280.56
585.611	272.56
585.821	267.56
586.032	257.56
586.242	280.56
586.452	248.56
586.662	283.56
586.872	261.56
587.082	265.56
587.292	246.56
587.502	281.56
587.713	261.56
587.923	259.56
588.133	267.56
588.343	279.56
588.553	267.56
588.762	279.56
588.972	272.56
589.182	262.56
589.392	260.56
589.602	268.56
589.812	269.56
590.022	275.56
590.232	281.56
590.441	279.56
590.651	265.56
590.861	248.56
591.071	256.56
591.281	255.56
591.49	263.56
591.7	275.56
591.91	252.56
592.119	277.56
592.329	271.56
592.539	277.56
592.748	279.56
592.958	276.56
593.167	268.56
593.377	269.56
593.587	277.56
593.796	290.56
594.006	264.56
594.215	267.56
594.424	263.56
594.634	266.56
594.843	257.56
595.053	261.56
595.262	274.56
595.472	281.56
595.681	267.56
595.89	259.56
596.1	259.56
596.309	244.56
596.518	251.56
596.727	264.56
596.937	244.56
597.146	250.56
597.355	249.56
597.564	247.56
597.774	256.56
597.983	233.56
598.192	236.56
598.401	242.56
598.61	246.56
598.819	243.56
599.028	224.56
599.237	223.56
599.446	252.56
599.655	253.56
599.864	252.56
600.073	236.56
600.282	247.56
600.491	239.56
600.7	233.56
600.909	250.56
601.118	239.56
601.327	226.56
601.536	240.56
601.745	251.56
601.953	231.56
602.162	234.56
602.371	247.56
602.58	232.56
602.789	230.56
602.997	228.56
603.206	234.56
603.415	242.56
603.623	230.56
603.832	246.56
604.041	246.56
604.249	223.56
604.458	223.56
604.666	226.56
604.875	213.56
605.084	208.56
605.292	209.56
605.501	218.56
605.709	225.56
605.918	224.56
606.126	226.56
606.334	232.56
606.543	233.56
606.751	217.56
606.96	229.56
607.168	219.56
607.376	211.56
607.585	232.56
607.793	222.56
608.001	214.56
608.21	218.56
608.418	214.56
608.626	201.56
608.834	217.56
609.043	222.56
609.251	234.56
609.459	210.56
609.667	218.56
609.875	221.56
610.083	219.56
610.291	215.56
610.499	227.56
610.707	214.56
610.916	226.56
611.124	226.56
611.332	242.56
611.54	246.56
611.748	226.56
611.955	233.56
612.163	222.56
612.371	224.56
612.579	229.56
612.787	224.56
612.995	224.56
613.203	214.56
613.411	200.56
613.618	218.56
613.826	206.56
614.034	209.56
614.242	217.56
614.449	225.56
614.657	209.56
614.865	211.56
615.072	229.56
615.28	208.56
615.488	208.56
615.695	206.56
615.903	215.56
616.111	211.56
616.318	221.56
616.526	220.56
616.733	228.56
616.941	205.56
617.148	210.56
617.356	215.56
617.563	211.56
617.771	208.56
617.978	215.56
618.185	205.56
618.393	212.56
618.6	221.56
618.807	209.56
619.015	206.56
619.222	199.56
619.429	191.56
619.637	218.56
619.844	204.56
620.051	212.56
620.258	229.56
620.466	196.56
620.673	209.56
620.88	207.56
621.087	199.56
621.294	198.56
621.501	208.56
621.708	205.56
621.915	221.56
622.122	213.56
622.329	214.56
622.536	199.56
622.743	203.56
622.95	209.56
623.157	199.56
623.364	174.56
623.571	203.56
623.778	197.56
623.985	220.56
624.192	183.56
624.399	193.56
624.606	209.56
624.812	209.56
625.019	166.56
625.226	175.56
625.433	196.56
625.639	197.56
625.846	193.56
626.053	202.56
626.259	186.56
626.466	192.56
626.673	191.56
626.879	205.56
627.086	202.56
627.293	209.56
627.499	179.56
627.706	191.56
627.912	183.56
628.119	187.56
628.325	179.56
628.532	181.56
628.738	180.56
628.945	195.56
629.151	197.56
629.357	177.56
629.564	183.56
629.77	196.56
629.976	185.56
630.183	162.56
630.389	182.56
630.595	185.56
630.802	172.56
631.008	187.56
631.214	182.56
631.42	174.56
631.627	176.56
631.833	169.56
632.039	178.56
632.245	181.56
632.451	149.56
632.657	165.56
632.863	182.56
633.069	182.56
633.275	186.56
633.481	180.56
633.688	177.56
633.893	174.56
634.099	170.56
634.305	170.56
634.511	151.56
634.717	181.56
634.923	179.56
635.129	171.56
635.335	168.56
635.541	178.56
635.747	172.56
635.952	181.56
636.158	166.56
636.364	180.56
636.57	168.56
636.775	162.56
636.981	164.56
637.187	177.56
637.392	163.56
637.598	169.56
637.804	155.56
638.009	165.56
638.215	178.56
638.421	165.56
638.626	153.56
638.832	175.56
639.037	163.56
639.243	146.56
639.448	163.56
639.654	160.56
639.859	170.56
640.065	170.56
640.27	177.56
640.475	168.56
640.681	161.56
640.886	162.56
641.091	161.56
641.297	169.56
641.502	169.56
641.707	155.56
641.913	152.56
642.118	154.56
642.323	166.56
642.528	165.56
642.733	154.56
642.939	153.56
643.144	149.56
643.349	158.56
643.554	168.56
643.759	146.56
643.964	153.56
644.169	161.56
644.374	160.56
644.579	147.56
644.784	150.56
644.989	152.56
645.194	162.56
645.399	161.56
645.604	147.56
645.809	151.56
646.014	152.56
646.219	131.56
646.423	153.56
646.628	179.56
646.833	171.56
647.038	165.56
647.243	152.56
647.447	154.56
647.652	148.56
647.857	160.56
648.062	157.56
648.266	167.56
648.471	169.56
648.676	168.56
648.88	153.56
649.085	154.56
649.289	162.56
649.494	161.56
649.698	162.56
649.903	173.56
650.107	172.56
650.312	140.56
650.516	164.56
650.721	139.56
650.925	145.56
651.13	135.56
651.334	133.56
651.539	142.56
651.743	143.56
651.947	139.56
652.152	147.56
652.356	140.56
652.56	134.56
652.764	141.56
652.969	137.56
653.173	146.56
653.377	123.56
653.581	136.56
653.785	123.56
653.99	137.56
654.194	129.56
654.398	128.56
654.602	125.56
654.806	121.56
655.01	144.56
655.214	127.56
655.418	132.56
655.622	125.56
655.826	127.56
656.03	126.56
656.234	123.56
656.438	147.56
656.642	134.56
656.846	116.56
657.049	111.56
657.253	110.56
657.457	107.56
657.661	118.56
657.865	112.56
658.068	117.56
658.272	106.56
658.476	111.56
658.68	102.56
658.883	96.56
659.087	104.56
659.291	89.56
659.494	87.56
659.698	111.56
659.901	99.56
660.105	97.56
660.309	82.56
660.512	81.56
660.716	87.56
660.919	84.56
661.123	92.56
661.326	100.56
661.53	80.56
661.733	92.56
661.936	95.56
662.14	80.56
662.343	100.56
662.546	96.56
662.75	88.56
662.953	85.56
663.156	75.56
663.36	78.56
663.563	80.56
663.766	91.56
663.969	75.56
664.173	84.56
664.376	66.56
664.579	80.56
664.782	83.56
664.985	77.56
665.188	87.56
665.391	83.56
665.594	96.56
665.797	86.56
666	85.56
666.203	77.56
666.406	92.56
666.609	82.56
666.812	85.56
667.015	83.56
667.218	82.56
667.421	70.56
667.624	73.56
667.827	99.56
668.03	84.56
668.232	89.56
668.435	74.56
668.638	73.56
668.841	98.56
669.043	77.56
669.246	82.56
669.449	80.56
669.651	88.56
669.854	74.56
670.057	92.56
670.259	77.56
670.462	71.56
670.665	76.56
670.867	94.56
671.07	71.56
671.272	81.56
671.475	71.56
671.677	71.56
671.88	81.56
672.082	75.56
672.284	81.56
672.487	77.56
672.689	78.56
672.892	88.56
