Data from 1989.PennyLincolnUp.Lamp.En5.5.200Scan.071819.P2_HRD10591_17-24-04-974.txt Node
Date: Thu Jul 18 17:24:04 EDT 2019
User: cochatt
Spectrometer: HR+D1059
Trigger mode: 1
Integration Time (sec): 1.000000E-1
Scans to average: 1
Electric dark correction enabled: true
Nonlinearity correction enabled: false
Boxcar width: 0
XAxis mode: Wavelengths
Number of Pixels in Spectrum: 2048
>>>>>Begin Spectral Data<<<<<
223.165	-10.62
223.4	-10.62
223.635	-10.62
223.869	-16.62
224.104	-28.62
224.338	-11.62
224.573	-13.62
224.808	-16.62
225.042	-10.62
225.277	-4.62
225.511	-3.62
225.746	8.38
225.98	7.38
226.215	16.38
226.449	5.38
226.683	17.38
226.918	33.38
227.152	28.38
227.387	32.38
227.621	27.38
227.856	38.38
228.09	49.38
228.324	62.38
228.559	71.38
228.793	70.38
229.027	95.38
229.262	123.38
229.496	126.38
229.73	137.38
229.964	147.38
230.199	137.38
230.433	117.38
230.667	114.38
230.901	103.38
231.136	110.38
231.37	107.38
231.604	115.38
231.838	114.38
232.072	120.38
232.306	122.38
232.541	119.38
232.775	110.38
233.009	117.38
233.243	107.38
233.477	117.38
233.711	133.38
233.945	116.38
234.179	121.38
234.413	118.38
234.647	130.38
234.881	124.38
235.115	139.38
235.349	126.38
235.583	121.38
235.817	117.38
236.051	141.38
236.285	117.38
236.519	115.38
236.753	141.38
236.987	142.38
237.221	178.38
237.455	234.38
237.689	199.38
237.922	168.38
238.156	129.38
238.39	140.38
238.624	126.38
238.858	115.38
239.091	121.38
239.325	126.38
239.559	120.38
239.793	131.38
240.027	144.38
240.26	145.38
240.494	158.38
240.728	152.38
240.961	162.38
241.195	155.38
241.429	134.38
241.662	152.38
241.896	123.38
242.13	143.38
242.363	153.38
242.597	141.38
242.83	130.38
243.064	141.38
243.298	130.38
243.531	142.38
243.765	151.38
243.998	129.38
244.232	152.38
244.465	146.38
244.699	162.38
244.932	150.38
245.166	150.38
245.399	148.38
245.633	155.38
245.866	154.38
246.099	168.38
246.333	165.38
246.566	142.38
246.8	143.38
247.033	157.38
247.266	180.38
247.5	191.38
247.733	186.38
247.966	162.38
248.2	185.38
248.433	174.38
248.666	201.38
248.899	200.38
249.133	216.38
249.366	207.38
249.599	206.38
249.832	201.38
250.066	194.38
250.299	190.38
250.532	194.38
250.765	219.38
250.998	223.38
251.231	248.38
251.465	228.38
251.698	223.38
251.931	207.38
252.164	204.38
252.397	211.38
252.63	197.38
252.863	211.38
253.096	246.38
253.329	238.38
253.562	255.38
253.795	245.38
254.028	235.38
254.261	227.38
254.494	242.38
254.727	266.38
254.96	296.38
255.193	284.38
255.426	251.38
255.659	247.38
255.892	243.38
256.124	228.38
256.357	226.38
256.59	222.38
256.823	217.38
257.056	229.38
257.289	229.38
257.521	216.38
257.754	242.38
257.987	218.38
258.22	226.38
258.452	212.38
258.685	218.38
258.918	232.38
259.151	253.38
259.383	230.38
259.616	241.38
259.849	245.38
260.081	251.38
260.314	265.38
260.547	278.38
260.779	264.38
261.012	266.38
261.244	253.38
261.477	243.38
261.71	249.38
261.942	230.38
262.175	247.38
262.407	254.38
262.64	220.38
262.872	234.38
263.105	235.38
263.337	247.38
263.57	212.38
263.802	227.38
264.035	202.38
264.267	244.38
264.499	219.38
264.732	220.38
264.964	245.38
265.197	226.38
265.429	230.38
265.661	237.38
265.894	226.38
266.126	232.38
266.358	241.38
266.591	229.38
266.823	249.38
267.055	244.38
267.287	245.38
267.52	243.38
267.752	233.38
267.984	244.38
268.216	232.38
268.448	257.38
268.681	273.38
268.913	257.38
269.145	262.38
269.377	321.38
269.609	299.38
269.841	307.38
270.073	298.38
270.306	305.38
270.538	328.38
270.77	337.38
271.002	330.38
271.234	317.38
271.466	329.38
271.698	348.38
271.93	356.38
272.162	340.38
272.394	341.38
272.626	339.38
272.858	322.38
273.09	299.38
273.322	298.38
273.553	285.38
273.785	289.38
274.017	280.38
274.249	277.38
274.481	272.38
274.713	270.38
274.945	295.38
275.176	285.38
275.408	287.38
275.64	290.38
275.872	285.38
276.104	295.38
276.335	275.38
276.567	282.38
276.799	319.38
277.031	329.38
277.262	340.38
277.494	349.38
277.726	331.38
277.957	300.38
278.189	287.38
278.421	306.38
278.652	272.38
278.884	294.38
279.115	281.38
279.347	271.38
279.579	290.38
279.81	282.38
280.042	286.38
280.273	284.38
280.505	276.38
280.736	277.38
280.968	281.38
281.199	278.38
281.431	296.38
281.662	281.38
281.894	283.38
282.125	299.38
282.356	319.38
282.588	331.38
282.819	334.38
283.051	302.38
283.282	302.38
283.513	293.38
283.745	294.38
283.976	291.38
284.207	316.38
284.439	301.38
284.67	288.38
284.901	302.38
285.132	297.38
285.364	299.38
285.595	277.38
285.826	299.38
286.057	314.38
286.288	290.38
286.52	300.38
286.751	313.38
286.982	282.38
287.213	300.38
287.444	312.38
287.675	313.38
287.906	315.38
288.138	322.38
288.369	329.38
288.6	330.38
288.831	318.38
289.062	322.38
289.293	316.38
289.524	309.38
289.755	316.38
289.986	306.38
290.217	314.38
290.448	309.38
290.679	305.38
290.91	296.38
291.141	309.38
291.371	313.38
291.602	314.38
291.833	290.38
292.064	307.38
292.295	311.38
292.526	319.38
292.757	308.38
292.987	299.38
293.218	300.38
293.449	307.38
293.68	297.38
293.91	299.38
294.141	302.38
294.372	318.38
294.603	317.38
294.833	308.38
295.064	307.38
295.295	317.38
295.525	306.38
295.756	314.38
295.987	327.38
296.217	330.38
296.448	364.38
296.679	329.38
296.909	320.38
297.14	323.38
297.37	310.38
297.601	301.38
297.831	335.38
298.062	325.38
298.292	328.38
298.523	312.38
298.753	296.38
298.984	341.38
299.214	319.38
299.445	332.38
299.675	341.38
299.905	308.38
300.136	315.38
300.366	320.38
300.597	329.38
300.827	318.38
301.057	332.38
301.288	343.38
301.518	353.38
301.748	334.38
301.979	346.38
302.209	344.38
302.439	356.38
302.669	351.38
302.9	341.38
303.13	354.38
303.36	344.38
303.59	354.38
303.82	357.38
304.051	357.38
304.281	357.38
304.511	354.38
304.741	357.38
304.971	348.38
305.201	341.38
305.431	339.38
305.661	353.38
305.891	345.38
306.121	339.38
306.352	345.38
306.582	337.38
306.812	331.38
307.042	349.38
307.272	357.38
307.502	348.38
307.731	355.38
307.961	356.38
308.191	351.38
308.421	345.38
308.651	352.38
308.881	353.38
309.111	366.38
309.341	377.38
309.571	383.38
309.8	367.38
310.03	377.38
310.26	396.38
310.49	386.38
310.72	397.38
310.949	417.38
311.179	431.38
311.409	396.38
311.639	393.38
311.868	391.38
312.098	394.38
312.328	414.38
312.557	436.38
312.787	429.38
313.017	438.38
313.246	411.38
313.476	399.38
313.706	400.38
313.935	402.38
314.165	415.38
314.394	409.38
314.624	434.38
314.853	424.38
315.083	406.38
315.312	412.38
315.542	404.38
315.771	403.38
316.001	400.38
316.23	383.38
316.46	401.38
316.689	397.38
316.919	391.38
317.148	433.38
317.377	405.38
317.607	382.38
317.836	406.38
318.065	402.38
318.295	420.38
318.524	387.38
318.753	404.38
318.983	391.38
319.212	407.38
319.441	406.38
319.67	419.38
319.9	402.38
320.129	427.38
320.358	419.38
320.587	408.38
320.816	417.38
321.046	423.38
321.275	419.38
321.504	440.38
321.733	411.38
321.962	419.38
322.191	451.38
322.42	434.38
322.649	483.38
322.878	483.38
323.108	508.38
323.337	526.38
323.566	536.38
323.795	585.38
324.024	638.38
324.253	776.38
324.482	1104.38
324.71	1667.38
324.939	2367.38
325.168	2069.38
325.397	1098.38
325.626	707.38
325.855	610.38
326.084	546.38
326.313	557.38
326.542	558.38
326.77	601.38
326.999	698.38
327.228	977.38
327.457	1460.38
327.686	1815.38
327.914	1179.38
328.143	781.38
328.372	683.38
328.6	622.38
328.829	606.38
329.058	632.38
329.287	612.38
329.515	569.38
329.744	547.38
329.972	519.38
330.201	527.38
330.43	557.38
330.658	603.38
330.887	636.38
331.115	621.38
331.344	556.38
331.572	526.38
331.801	502.38
332.03	486.38
332.258	491.38
332.486	471.38
332.715	466.38
332.943	453.38
333.172	459.38
333.4	453.38
333.629	470.38
333.857	474.38
334.085	484.38
334.314	469.38
334.542	479.38
334.771	472.38
334.999	480.38
335.227	468.38
335.455	477.38
335.684	458.38
335.912	454.38
336.14	479.38
336.369	464.38
336.597	474.38
336.825	486.38
337.053	469.38
337.281	441.38
337.51	438.38
337.738	452.38
337.966	446.38
338.194	447.38
338.422	457.38
338.65	453.38
338.878	453.38
339.106	426.38
339.334	437.38
339.562	445.38
339.79	434.38
340.018	454.38
340.246	437.38
340.474	457.38
340.702	445.38
340.93	442.38
341.158	455.38
341.386	454.38
341.614	457.38
341.842	453.38
342.07	421.38
342.298	442.38
342.526	459.38
342.754	430.38
342.981	444.38
343.209	428.38
343.437	431.38
343.665	447.38
343.893	461.38
344.12	441.38
344.348	447.38
344.576	431.38
344.804	449.38
345.031	439.38
345.259	447.38
345.487	465.38
345.714	453.38
345.942	441.38
346.17	442.38
346.397	428.38
346.625	433.38
346.853	409.38
347.08	413.38
347.308	439.38
347.535	433.38
347.763	441.38
347.99	453.38
348.218	445.38
348.445	438.38
348.673	448.38
348.9	434.38
349.128	416.38
349.355	434.38
349.583	412.38
349.81	403.38
350.037	428.38
350.265	421.38
350.492	410.38
350.72	421.38
350.947	427.38
351.174	425.38
351.402	459.38
351.629	444.38
351.856	454.38
352.083	457.38
352.311	446.38
352.538	452.38
352.765	439.38
352.992	442.38
353.22	429.38
353.447	406.38
353.674	429.38
353.901	406.38
354.128	407.38
354.355	413.38
354.583	403.38
354.81	408.38
355.037	419.38
355.264	395.38
355.491	392.38
355.718	398.38
355.945	391.38
356.172	382.38
356.399	400.38
356.626	399.38
356.853	405.38
357.08	384.38
357.307	390.38
357.534	392.38
357.761	378.38
357.988	396.38
358.215	374.38
358.441	381.38
358.668	385.38
358.895	398.38
359.122	397.38
359.349	410.38
359.576	421.38
359.802	446.38
360.029	477.38
360.256	475.38
360.483	466.38
360.709	440.38
360.936	429.38
361.163	407.38
361.39	428.38
361.616	415.38
361.843	416.38
362.07	426.38
362.296	420.38
362.523	419.38
362.749	403.38
362.976	405.38
363.203	396.38
363.429	405.38
363.656	405.38
363.882	425.38
364.109	414.38
364.335	412.38
364.562	397.38
364.788	396.38
365.015	408.38
365.241	408.38
365.468	412.38
365.694	428.38
365.92	401.38
366.147	395.38
366.373	382.38
366.599	388.38
366.826	403.38
367.052	405.38
367.278	381.38
367.505	410.38
367.731	397.38
367.957	395.38
368.184	398.38
368.41	414.38
368.636	410.38
368.862	439.38
369.089	429.38
369.315	389.38
369.541	384.38
369.767	371.38
369.993	414.38
370.219	395.38
370.445	395.38
370.672	389.38
370.898	381.38
371.124	388.38
371.35	392.38
371.576	373.38
371.802	393.38
372.028	383.38
372.254	391.38
372.48	392.38
372.706	369.38
372.932	391.38
373.158	407.38
373.384	395.38
373.61	377.38
373.835	394.38
374.061	390.38
374.287	402.38
374.513	375.38
374.739	392.38
374.965	406.38
375.191	407.38
375.416	386.38
375.642	411.38
375.868	387.38
376.094	399.38
376.319	391.38
376.545	390.38
376.771	383.38
376.997	390.38
377.222	380.38
377.448	400.38
377.674	390.38
377.899	404.38
378.125	381.38
378.35	406.38
378.576	369.38
378.802	365.38
379.027	385.38
379.253	409.38
379.478	389.38
379.704	367.38
379.929	400.38
380.155	387.38
380.38	401.38
380.606	391.38
380.831	380.38
381.057	390.38
381.282	385.38
381.507	378.38
381.733	379.38
381.958	371.38
382.184	395.38
382.409	426.38
382.634	423.38
382.86	400.38
383.085	401.38
383.31	400.38
383.535	379.38
383.761	400.38
383.986	393.38
384.211	395.38
384.436	413.38
384.662	397.38
384.887	400.38
385.112	421.38
385.337	411.38
385.562	407.38
385.787	413.38
386.013	428.38
386.238	420.38
386.463	421.38
386.688	392.38
386.913	413.38
387.138	401.38
387.363	413.38
387.588	428.38
387.813	396.38
388.038	420.38
388.263	406.38
388.488	391.38
388.713	423.38
388.938	403.38
389.163	415.38
389.387	417.38
389.612	413.38
389.837	418.38
390.062	409.38
390.287	420.38
390.512	396.38
390.736	405.38
390.961	395.38
391.186	443.38
391.411	408.38
391.636	400.38
391.86	400.38
392.085	404.38
392.31	409.38
392.534	421.38
392.759	413.38
392.984	422.38
393.208	417.38
393.433	411.38
393.658	390.38
393.882	403.38
394.107	411.38
394.331	400.38
394.556	410.38
394.78	413.38
395.005	437.38
395.229	394.38
395.454	411.38
395.678	425.38
395.903	430.38
396.127	434.38
396.352	462.38
396.576	421.38
396.801	411.38
397.025	434.38
397.249	437.38
397.474	430.38
397.698	437.38
397.922	459.38
398.147	476.38
398.371	464.38
398.595	449.38
398.82	461.38
399.044	473.38
399.268	484.38
399.492	534.38
399.717	521.38
399.941	540.38
400.165	570.38
400.389	580.38
400.613	525.38
400.837	494.38
401.062	499.38
401.286	481.38
401.51	471.38
401.734	467.38
401.958	470.38
402.182	482.38
402.406	466.38
402.63	474.38
402.854	473.38
403.078	485.38
403.302	467.38
403.526	483.38
403.75	484.38
403.974	476.38
404.198	464.38
404.422	464.38
404.645	476.38
404.869	521.38
405.093	498.38
405.317	506.38
405.541	544.38
405.765	517.38
405.988	475.38
406.212	493.38
406.436	528.38
406.66	565.38
406.883	538.38
407.107	536.38
407.331	593.38
407.555	639.38
407.778	635.38
408.002	581.38
408.226	521.38
408.449	512.38
408.673	537.38
408.896	563.38
409.12	586.38
409.344	564.38
409.567	505.38
409.791	489.38
410.014	483.38
410.238	487.38
410.461	472.38
410.685	457.38
410.908	506.38
411.132	525.38
411.355	542.38
411.578	541.38
411.802	485.38
412.025	472.38
412.249	470.38
412.472	457.38
412.695	484.38
412.919	492.38
413.142	476.38
413.365	462.38
413.589	464.38
413.812	466.38
414.035	455.38
414.258	455.38
414.482	460.38
414.705	462.38
414.928	459.38
415.151	439.38
415.374	453.38
415.597	449.38
415.821	457.38
416.044	453.38
416.267	447.38
416.49	449.38
416.713	438.38
416.936	446.38
417.159	449.38
417.382	454.38
417.605	443.38
417.828	473.38
418.051	477.38
418.274	459.38
418.497	456.38
418.72	460.38
418.943	450.38
419.166	453.38
419.389	471.38
419.611	481.38
419.834	486.38
420.057	472.38
420.28	475.38
420.503	474.38
420.726	477.38
420.948	484.38
421.171	526.38
421.394	568.38
421.617	503.38
421.839	492.38
422.062	460.38
422.285	478.38
422.507	561.38
422.73	614.38
422.953	607.38
423.175	531.38
423.398	519.38
423.621	516.38
423.843	504.38
424.066	523.38
424.288	520.38
424.511	537.38
424.733	585.38
424.956	657.38
425.178	635.38
425.401	652.38
425.623	677.38
425.846	542.38
426.068	498.38
426.291	517.38
426.513	513.38
426.735	535.38
426.958	555.38
427.18	646.38
427.402	803.38
427.625	882.38
427.847	753.38
428.069	621.38
428.292	541.38
428.514	503.38
428.736	492.38
428.958	503.38
429.181	481.38
429.403	467.38
429.625	484.38
429.847	534.38
430.069	597.38
430.292	606.38
430.514	518.38
430.736	492.38
430.958	467.38
431.18	466.38
431.402	465.38
431.624	465.38
431.846	451.38
432.068	442.38
432.29	455.38
432.512	451.38
432.734	474.38
432.956	462.38
433.178	464.38
433.4	489.38
433.622	457.38
433.844	436.38
434.066	442.38
434.287	433.38
434.509	471.38
434.731	445.38
434.953	455.38
435.175	457.38
435.397	506.38
435.618	493.38
435.84	554.38
436.062	647.38
436.284	734.38
436.505	606.38
436.727	528.38
436.949	510.38
437.17	463.38
437.392	474.38
437.614	502.38
437.835	539.38
438.057	619.38
438.278	773.38
438.5	717.38
438.721	794.38
438.943	753.38
439.165	603.38
439.386	546.38
439.608	534.38
439.829	549.38
440.05	567.38
440.272	625.38
440.493	561.38
440.715	513.38
440.936	513.38
441.158	479.38
441.379	471.38
441.6	510.38
441.822	515.38
442.043	538.38
442.264	622.38
442.486	670.38
442.707	567.38
442.928	533.38
443.149	567.38
443.371	581.38
443.592	600.38
443.813	693.38
444.034	741.38
444.255	628.38
444.476	527.38
444.698	518.38
444.919	511.38
445.14	629.38
445.361	567.38
445.582	552.38
445.803	620.38
446.024	716.38
446.245	743.38
446.466	676.38
446.687	555.38
446.908	533.38
447.129	508.38
447.35	515.38
447.571	485.38
447.792	484.38
448.013	490.38
448.234	513.38
448.455	561.38
448.675	654.38
448.896	772.38
449.117	659.38
449.338	635.38
449.559	733.38
449.779	823.38
450	671.38
450.221	578.38
450.442	499.38
450.662	505.38
450.883	466.38
451.104	515.38
451.324	481.38
451.545	460.38
451.766	444.38
451.986	430.38
452.207	439.38
452.428	431.38
452.648	418.38
452.869	438.38
453.089	436.38
453.31	444.38
453.53	445.38
453.751	447.38
453.971	433.38
454.192	445.38
454.412	438.38
454.633	430.38
454.853	415.38
455.073	424.38
455.294	465.38
455.514	519.38
455.734	520.38
455.955	446.38
456.175	420.38
456.395	398.38
456.616	425.38
456.836	410.38
457.056	402.38
457.276	371.38
457.497	394.38
457.717	404.38
457.937	403.38
458.157	409.38
458.377	431.38
458.598	451.38
458.818	492.38
459.038	570.38
459.258	589.38
459.478	489.38
459.698	446.38
459.918	449.38
460.138	433.38
460.358	456.38
460.578	445.38
460.798	446.38
461.018	458.38
461.238	431.38
461.458	462.38
461.678	433.38
461.898	418.38
462.118	453.38
462.338	462.38
462.558	466.38
462.777	476.38
462.997	467.38
463.217	475.38
463.437	478.38
463.657	473.38
463.876	462.38
464.096	457.38
464.316	443.38
464.536	476.38
464.755	483.38
464.975	471.38
465.195	526.38
465.414	615.38
465.634	557.38
465.854	492.38
466.073	483.38
466.293	454.38
466.512	431.38
466.732	433.38
466.951	437.38
467.171	420.38
467.391	435.38
467.61	451.38
467.829	457.38
468.049	434.38
468.268	438.38
468.488	419.38
468.707	411.38
468.927	413.38
469.146	401.38
469.365	430.38
469.585	414.38
469.804	427.38
470.023	433.38
470.243	444.38
470.462	462.38
470.681	464.38
470.901	460.38
471.12	458.38
471.339	442.38
471.558	426.38
471.777	445.38
471.997	435.38
472.216	418.38
472.435	428.38
472.654	437.38
472.873	441.38
473.092	437.38
473.311	424.38
473.53	450.38
473.749	445.38
473.968	490.38
474.187	602.38
474.406	622.38
474.625	491.38
474.844	461.38
475.063	434.38
475.282	462.38
475.501	440.38
475.72	442.38
475.939	455.38
476.158	458.38
476.377	452.38
476.596	444.38
476.814	452.38
477.033	456.38
477.252	466.38
477.471	464.38
477.69	469.38
477.908	476.38
478.127	472.38
478.346	458.38
478.564	479.38
478.783	485.38
479.002	499.38
479.22	497.38
479.439	530.38
479.658	539.38
479.876	511.38
480.095	522.38
480.313	579.38
480.532	563.38
480.751	548.38
480.969	529.38
481.188	546.38
481.406	542.38
481.624	541.38
481.843	523.38
482.061	523.38
482.28	513.38
482.498	479.38
482.717	490.38
482.935	509.38
483.153	511.38
483.372	498.38
483.59	525.38
483.808	536.38
484.027	497.38
484.245	524.38
484.463	522.38
484.681	522.38
484.9	510.38
485.118	520.38
485.336	505.38
485.554	540.38
485.772	526.38
485.99	539.38
486.209	541.38
486.427	557.38
486.645	561.38
486.863	561.38
487.081	573.38
487.299	553.38
487.517	556.38
487.735	544.38
487.953	562.38
488.171	533.38
488.389	556.38
488.607	565.38
488.825	570.38
489.043	546.38
489.261	549.38
489.479	577.38
489.696	566.38
489.914	577.38
490.132	542.38
490.35	598.38
490.568	573.38
490.786	576.38
491.003	609.38
491.221	599.38
491.439	597.38
491.657	584.38
491.874	602.38
492.092	621.38
492.31	631.38
492.527	621.38
492.745	625.38
492.963	643.38
493.18	652.38
493.398	651.38
493.615	653.38
493.833	643.38
494.05	631.38
494.268	628.38
494.485	646.38
494.703	653.38
494.92	640.38
495.138	675.38
495.355	647.38
495.573	665.38
495.79	642.38
496.008	653.38
496.225	660.38
496.442	672.38
496.66	647.38
496.877	650.38
497.094	682.38
497.312	679.38
497.529	658.38
497.746	676.38
497.963	681.38
498.181	704.38
498.398	698.38
498.615	713.38
498.832	735.38
499.049	717.38
499.267	738.38
499.484	761.38
499.701	766.38
499.918	801.38
500.135	821.38
500.352	852.38
500.569	859.38
500.786	860.38
501.003	873.38
501.22	814.38
501.437	854.38
501.654	815.38
501.871	813.38
502.088	787.38
502.305	759.38
502.522	727.38
502.739	742.38
502.956	677.38
503.172	670.38
503.389	667.38
503.606	676.38
503.823	705.38
504.04	694.38
504.256	685.38
504.473	687.38
504.69	678.38
504.907	693.38
505.123	663.38
505.34	643.38
505.557	645.38
505.773	644.38
505.99	647.38
506.207	644.38
506.423	619.38
506.64	653.38
506.856	628.38
507.073	633.38
507.289	630.38
507.506	610.38
507.722	598.38
507.939	648.38
508.155	641.38
508.372	616.38
508.588	611.38
508.805	589.38
509.021	597.38
509.238	614.38
509.454	625.38
509.67	633.38
509.887	614.38
510.103	603.38
510.319	618.38
510.536	731.38
510.752	1254.38
510.968	985.38
511.184	641.38
511.401	585.38
511.617	584.38
511.833	599.38
512.049	579.38
512.265	568.38
512.481	551.38
512.698	576.38
512.914	578.38
513.13	562.38
513.346	570.38
513.562	603.38
513.778	575.38
513.994	601.38
514.21	579.38
514.426	635.38
514.642	652.38
514.858	695.38
515.074	710.38
515.29	863.38
515.506	1340.38
515.721	1087.38
515.937	728.38
516.153	666.38
516.369	625.38
516.585	599.38
516.801	592.38
517.016	593.38
517.232	590.38
517.448	610.38
517.664	585.38
517.879	584.38
518.095	581.38
518.311	587.38
518.527	598.38
518.742	573.38
518.958	573.38
519.173	571.38
519.389	562.38
519.605	576.38
519.82	576.38
520.036	599.38
520.251	610.38
520.467	638.38
520.682	645.38
520.898	669.38
521.113	670.38
521.329	730.38
521.544	837.38
521.76	1090.38
521.975	1819.38
522.19	1741.38
522.406	935.38
522.621	678.38
522.836	633.38
523.052	573.38
523.267	564.38
523.482	562.38
523.698	537.38
523.913	519.38
524.128	534.38
524.343	521.38
524.559	513.38
524.774	500.38
524.989	521.38
525.204	494.38
525.419	521.38
525.634	505.38
525.849	493.38
526.064	467.38
526.28	494.38
526.495	497.38
526.71	478.38
526.925	485.38
527.14	475.38
527.355	479.38
527.57	472.38
527.785	475.38
527.999	472.38
528.214	478.38
528.429	469.38
528.644	467.38
528.859	475.38
529.074	475.38
529.289	486.38
529.503	600.38
529.718	578.38
529.933	521.38
530.148	471.38
530.363	463.38
530.577	480.38
530.792	463.38
531.007	462.38
531.221	451.38
531.436	451.38
531.651	444.38
531.865	465.38
532.08	458.38
532.295	449.38
532.509	448.38
532.724	429.38
532.938	470.38
533.153	428.38
533.367	441.38
533.582	439.38
533.796	435.38
534.011	435.38
534.225	443.38
534.44	445.38
534.654	433.38
534.868	433.38
535.083	435.38
535.297	447.38
535.511	456.38
535.726	471.38
535.94	465.38
536.154	446.38
536.369	464.38
536.583	449.38
536.797	437.38
537.011	450.38
537.225	441.38
537.44	426.38
537.654	406.38
537.868	431.38
538.082	418.38
538.296	426.38
538.51	419.38
538.724	428.38
538.938	445.38
539.153	434.38
539.367	449.38
539.581	435.38
539.795	430.38
540.009	422.38
540.222	428.38
540.436	441.38
540.65	430.38
540.864	428.38
541.078	453.38
541.292	437.38
541.506	442.38
541.72	425.38
541.934	435.38
542.147	445.38
542.361	437.38
542.575	419.38
542.789	443.38
543.002	423.38
543.216	442.38
543.43	422.38
543.644	422.38
543.857	425.38
544.071	417.38
544.285	430.38
544.498	430.38
544.712	397.38
544.925	405.38
545.139	429.38
545.352	423.38
545.566	404.38
545.779	404.38
545.993	422.38
546.206	426.38
546.42	433.38
546.633	391.38
546.847	402.38
547.06	394.38
547.274	413.38
547.487	402.38
547.7	386.38
547.914	395.38
548.127	419.38
548.34	389.38
548.554	415.38
548.767	393.38
548.98	422.38
549.193	396.38
549.407	403.38
549.62	389.38
549.833	399.38
550.046	397.38
550.259	395.38
550.473	406.38
550.686	408.38
550.899	397.38
551.112	394.38
551.325	389.38
551.538	395.38
551.751	397.38
551.964	387.38
552.177	412.38
552.39	403.38
552.603	408.38
552.816	413.38
553.029	411.38
553.242	395.38
553.455	397.38
553.667	385.38
553.88	434.38
554.093	426.38
554.306	408.38
554.519	411.38
554.732	410.38
554.944	398.38
555.157	387.38
555.37	374.38
555.583	381.38
555.795	390.38
556.008	371.38
556.221	386.38
556.433	362.38
556.646	387.38
556.859	362.38
557.071	359.38
557.284	376.38
557.496	366.38
557.709	353.38
557.921	363.38
558.134	341.38
558.346	359.38
558.559	350.38
558.771	381.38
558.984	370.38
559.196	368.38
559.409	377.38
559.621	352.38
559.833	356.38
560.046	347.38
560.258	353.38
560.47	347.38
560.683	334.38
560.895	351.38
561.107	374.38
561.32	339.38
561.532	344.38
561.744	349.38
561.956	364.38
562.168	359.38
562.381	362.38
562.593	340.38
562.805	366.38
563.017	380.38
563.229	377.38
563.441	357.38
563.653	365.38
563.865	349.38
564.077	364.38
564.289	366.38
564.501	354.38
564.713	360.38
564.925	376.38
565.137	382.38
565.349	356.38
565.561	391.38
565.773	397.38
565.985	388.38
566.197	395.38
566.408	385.38
566.62	400.38
566.832	415.38
567.044	405.38
567.255	438.38
567.467	423.38
567.679	435.38
567.891	441.38
568.102	428.38
568.314	397.38
568.526	390.38
568.737	396.38
568.949	392.38
569.161	391.38
569.372	392.38
569.584	366.38
569.795	362.38
570.007	372.38
570.218	408.38
570.43	403.38
570.641	341.38
570.853	365.38
571.064	345.38
571.276	355.38
571.487	349.38
571.698	338.38
571.91	336.38
572.121	325.38
572.333	342.38
572.544	355.38
572.755	348.38
572.966	325.38
573.178	320.38
573.389	332.38
573.6	321.38
573.811	319.38
574.023	302.38
574.234	311.38
574.445	314.38
574.656	307.38
574.867	314.38
575.078	322.38
575.289	319.38
575.501	302.38
575.712	307.38
575.923	315.38
576.134	316.38
576.345	291.38
576.556	297.38
576.767	311.38
576.978	293.38
577.188	297.38
577.399	299.38
577.61	306.38
577.821	307.38
578.032	310.38
578.243	351.38
578.454	588.38
578.665	427.38
578.875	310.38
579.086	311.38
579.297	321.38
579.508	276.38
579.718	292.38
579.929	285.38
580.14	290.38
580.35	293.38
580.561	300.38
580.772	293.38
580.982	296.38
581.193	275.38
581.403	283.38
581.614	271.38
581.825	286.38
582.035	293.38
582.246	298.38
582.456	279.38
582.667	286.38
582.877	283.38
583.087	287.38
583.298	292.38
583.508	289.38
583.719	290.38
583.929	292.38
584.139	293.38
584.35	281.38
584.56	282.38
584.77	294.38
584.981	292.38
585.191	283.38
585.401	270.38
585.611	273.38
585.821	291.38
586.032	289.38
586.242	279.38
586.452	263.38
586.662	250.38
586.872	269.38
587.082	268.38
587.292	277.38
587.502	267.38
587.713	277.38
587.923	294.38
588.133	276.38
588.343	277.38
588.553	268.38
588.762	267.38
588.972	280.38
589.182	258.38
589.392	267.38
589.602	278.38
589.812	281.38
590.022	294.38
590.232	293.38
590.441	262.38
590.651	274.38
590.861	274.38
591.071	272.38
591.281	254.38
591.49	278.38
591.7	278.38
591.91	263.38
592.119	280.38
592.329	279.38
592.539	277.38
592.748	293.38
592.958	281.38
593.167	286.38
593.377	271.38
593.587	291.38
593.796	287.38
594.006	272.38
594.215	289.38
594.424	271.38
594.634	257.38
594.843	260.38
595.053	268.38
595.262	287.38
595.472	277.38
595.681	260.38
595.89	269.38
596.1	246.38
596.309	271.38
596.518	266.38
596.727	253.38
596.937	279.38
597.146	244.38
597.355	260.38
597.564	253.38
597.774	244.38
597.983	255.38
598.192	258.38
598.401	256.38
598.61	262.38
598.819	250.38
599.028	234.38
599.237	228.38
599.446	231.38
599.655	254.38
599.864	265.38
600.073	260.38
600.282	251.38
600.491	245.38
600.7	244.38
600.909	257.38
601.118	249.38
601.327	238.38
601.536	222.38
601.745	227.38
601.953	250.38
602.162	219.38
602.371	228.38
602.58	236.38
602.789	223.38
602.997	232.38
603.206	234.38
603.415	223.38
603.623	207.38
603.832	239.38
604.041	236.38
604.249	225.38
604.458	231.38
604.666	225.38
604.875	247.38
605.084	230.38
605.292	244.38
605.501	236.38
605.709	238.38
605.918	227.38
606.126	233.38
606.334	229.38
606.543	228.38
606.751	231.38
606.96	229.38
607.168	244.38
607.376	231.38
607.585	247.38
607.793	228.38
608.001	212.38
608.21	228.38
608.418	218.38
608.626	223.38
608.834	238.38
609.043	228.38
609.251	228.38
609.459	241.38
609.667	225.38
609.875	234.38
610.083	232.38
610.291	207.38
610.499	215.38
610.707	230.38
610.916	220.38
611.124	219.38
611.332	215.38
611.54	208.38
611.748	235.38
611.955	233.38
612.163	221.38
612.371	212.38
612.579	215.38
612.787	221.38
612.995	219.38
613.203	230.38
613.411	223.38
613.618	214.38
613.826	205.38
614.034	226.38
614.242	213.38
614.449	217.38
614.657	237.38
614.865	236.38
615.072	218.38
615.28	217.38
615.488	212.38
615.695	212.38
615.903	232.38
616.111	210.38
616.318	227.38
616.526	236.38
616.733	232.38
616.941	208.38
617.148	230.38
617.356	217.38
617.563	214.38
617.771	215.38
617.978	214.38
618.185	225.38
618.393	187.38
618.6	253.38
618.807	218.38
619.015	231.38
619.222	211.38
619.429	210.38
619.637	212.38
619.844	211.38
620.051	213.38
620.258	215.38
620.466	207.38
620.673	205.38
620.88	196.38
621.087	208.38
621.294	228.38
621.501	236.38
621.708	214.38
621.915	212.38
622.122	220.38
622.329	219.38
622.536	206.38
622.743	203.38
622.95	201.38
623.157	192.38
623.364	209.38
623.571	193.38
623.778	174.38
623.985	205.38
624.192	193.38
624.399	202.38
624.606	206.38
624.812	200.38
625.019	206.38
625.226	207.38
625.433	196.38
625.639	201.38
625.846	199.38
626.053	202.38
626.259	192.38
626.466	210.38
626.673	199.38
626.879	187.38
627.086	182.38
627.293	191.38
627.499	199.38
627.706	203.38
627.912	210.38
628.119	206.38
628.325	196.38
628.532	191.38
628.738	199.38
628.945	190.38
629.151	187.38
629.357	185.38
629.564	187.38
629.77	202.38
629.976	186.38
630.183	195.38
630.389	179.38
630.595	188.38
630.802	187.38
631.008	191.38
631.214	185.38
631.42	189.38
631.627	185.38
631.833	165.38
632.039	185.38
632.245	172.38
632.451	193.38
632.657	175.38
632.863	181.38
633.069	188.38
633.275	166.38
633.481	165.38
633.688	177.38
633.893	163.38
634.099	166.38
634.305	181.38
634.511	167.38
634.717	167.38
634.923	172.38
635.129	170.38
635.335	174.38
635.541	178.38
635.747	173.38
635.952	173.38
636.158	166.38
636.364	165.38
636.57	172.38
636.775	167.38
636.981	162.38
637.187	174.38
637.392	159.38
637.598	187.38
637.804	165.38
638.009	200.38
638.215	161.38
638.421	174.38
638.626	174.38
638.832	162.38
639.037	183.38
639.243	179.38
639.448	160.38
639.654	179.38
639.859	167.38
640.065	159.38
640.27	172.38
640.475	167.38
640.681	154.38
640.886	153.38
641.091	157.38
641.297	158.38
641.502	164.38
641.707	167.38
641.913	171.38
642.118	171.38
642.323	143.38
642.528	171.38
642.733	158.38
642.939	145.38
643.144	170.38
643.349	170.38
643.554	164.38
643.759	153.38
643.964	157.38
644.169	142.38
644.374	156.38
644.579	166.38
644.784	163.38
644.989	164.38
645.194	147.38
645.399	161.38
645.604	155.38
645.809	158.38
646.014	153.38
646.219	161.38
646.423	138.38
646.628	176.38
646.833	155.38
647.038	147.38
647.243	163.38
647.447	155.38
647.652	155.38
647.857	152.38
648.062	157.38
648.266	151.38
648.471	172.38
648.676	155.38
648.88	161.38
649.085	164.38
649.289	174.38
649.494	157.38
649.698	183.38
649.903	189.38
650.107	164.38
650.312	159.38
650.516	141.38
650.721	150.38
650.925	154.38
651.13	139.38
651.334	148.38
651.539	141.38
651.743	150.38
651.947	143.38
652.152	137.38
652.356	142.38
652.56	138.38
652.764	143.38
652.969	150.38
653.173	145.38
653.377	152.38
653.581	142.38
653.785	126.38
653.99	138.38
654.194	125.38
654.398	123.38
654.602	146.38
654.806	137.38
655.01	135.38
655.214	141.38
655.418	126.38
655.622	129.38
655.826	124.38
656.03	137.38
656.234	133.38
656.438	118.38
656.642	114.38
656.846	121.38
657.049	127.38
657.253	139.38
657.457	118.38
657.661	127.38
657.865	102.38
658.068	95.38
658.272	121.38
658.476	110.38
658.68	109.38
658.883	91.38
659.087	101.38
659.291	109.38
659.494	101.38
659.698	107.38
659.901	96.38
660.105	99.38
660.309	96.38
660.512	85.38
660.716	110.38
660.919	84.38
661.123	95.38
661.326	88.38
661.53	100.38
661.733	86.38
661.936	101.38
662.14	89.38
662.343	91.38
662.546	93.38
662.75	98.38
662.953	93.38
663.156	99.38
663.36	91.38
663.563	95.38
663.766	84.38
663.969	98.38
664.173	80.38
664.376	86.38
664.579	72.38
664.782	75.38
664.985	68.38
665.188	82.38
665.391	88.38
665.594	91.38
665.797	77.38
666	86.38
666.203	89.38
666.406	82.38
666.609	94.38
666.812	73.38
667.015	84.38
667.218	75.38
667.421	84.38
667.624	79.38
667.827	84.38
668.03	85.38
668.232	97.38
668.435	86.38
668.638	83.38
668.841	97.38
669.043	66.38
669.246	85.38
669.449	84.38
669.651	84.38
669.854	99.38
670.057	78.38
670.259	101.38
670.462	91.38
670.665	82.38
670.867	74.38
671.07	81.38
671.272	75.38
671.475	90.38
671.677	85.38
671.88	75.38
672.082	86.38
672.284	81.38
672.487	69.38
672.689	75.38
672.892	84.38
