Data from 1989.PennyLincolnUp.Lamp.En5.5.200Scan.071819.P2_HRD10591_17-24-14-972.txt Node
Date: Thu Jul 18 17:24:14 EDT 2019
User: cochatt
Spectrometer: HR+D1059
Trigger mode: 1
Integration Time (sec): 1.000000E-1
Scans to average: 1
Electric dark correction enabled: true
Nonlinearity correction enabled: false
Boxcar width: 0
XAxis mode: Wavelengths
Number of Pixels in Spectrum: 2048
>>>>>Begin Spectral Data<<<<<
223.165	-14.31
223.4	-14.31
223.635	-14.31
223.869	-18.31
224.104	-10.31
224.338	-23.31
224.573	-18.31
224.808	-20.31
225.042	-23.31
225.277	13.69
225.511	-4.31
225.746	-0.31
225.98	9.69
226.215	15.69
226.449	15.69
226.683	18.69
226.918	38.69
227.152	20.69
227.387	25.69
227.621	46.69
227.856	36.69
228.09	36.69
228.324	49.69
228.559	55.69
228.793	70.69
229.027	81.69
229.262	98.69
229.496	109.69
229.73	120.69
229.964	168.69
230.199	128.69
230.433	115.69
230.667	125.69
230.901	110.69
231.136	93.69
231.37	105.69
231.604	131.69
231.838	99.69
232.072	122.69
232.306	119.69
232.541	117.69
232.775	104.69
233.009	109.69
233.243	117.69
233.477	113.69
233.711	113.69
233.945	116.69
234.179	109.69
234.413	129.69
234.647	127.69
234.881	127.69
235.115	130.69
235.349	131.69
235.583	135.69
235.817	120.69
236.051	120.69
236.285	118.69
236.519	122.69
236.753	137.69
236.987	162.69
237.221	189.69
237.455	256.69
237.689	180.69
237.922	150.69
238.156	145.69
238.39	122.69
238.624	130.69
238.858	118.69
239.091	124.69
239.325	123.69
239.559	134.69
239.793	123.69
240.027	138.69
240.26	131.69
240.494	163.69
240.728	164.69
240.961	149.69
241.195	149.69
241.429	140.69
241.662	129.69
241.896	135.69
242.13	139.69
242.363	135.69
242.597	132.69
242.83	147.69
243.064	136.69
243.298	144.69
243.531	137.69
243.765	134.69
243.998	148.69
244.232	141.69
244.465	146.69
244.699	163.69
244.932	143.69
245.166	136.69
245.399	138.69
245.633	153.69
245.866	138.69
246.099	153.69
246.333	142.69
246.566	136.69
246.8	146.69
247.033	140.69
247.266	159.69
247.5	162.69
247.733	159.69
247.966	165.69
248.2	187.69
248.433	174.69
248.666	193.69
248.899	191.69
249.133	185.69
249.366	219.69
249.599	220.69
249.832	202.69
250.066	183.69
250.299	192.69
250.532	187.69
250.765	190.69
250.998	220.69
251.231	234.69
251.465	232.69
251.698	227.69
251.931	196.69
252.164	203.69
252.397	204.69
252.63	215.69
252.863	216.69
253.096	226.69
253.329	227.69
253.562	231.69
253.795	232.69
254.028	221.69
254.261	219.69
254.494	233.69
254.727	275.69
254.96	299.69
255.193	283.69
255.426	262.69
255.659	265.69
255.892	231.69
256.124	235.69
256.357	233.69
256.59	219.69
256.823	223.69
257.056	219.69
257.289	234.69
257.521	220.69
257.754	232.69
257.987	216.69
258.22	232.69
258.452	214.69
258.685	219.69
258.918	231.69
259.151	212.69
259.383	231.69
259.616	234.69
259.849	228.69
260.081	263.69
260.314	251.69
260.547	261.69
260.779	271.69
261.012	236.69
261.244	251.69
261.477	250.69
261.71	237.69
261.942	232.69
262.175	233.69
262.407	247.69
262.64	229.69
262.872	215.69
263.105	208.69
263.337	214.69
263.57	229.69
263.802	242.69
264.035	224.69
264.267	215.69
264.499	225.69
264.732	225.69
264.964	228.69
265.197	224.69
265.429	232.69
265.661	229.69
265.894	225.69
266.126	225.69
266.358	247.69
266.591	227.69
266.823	211.69
267.055	236.69
267.287	227.69
267.52	251.69
267.752	220.69
267.984	235.69
268.216	229.69
268.448	241.69
268.681	256.69
268.913	245.69
269.145	272.69
269.377	299.69
269.609	305.69
269.841	294.69
270.073	282.69
270.306	282.69
270.538	327.69
270.77	342.69
271.002	331.69
271.234	305.69
271.466	333.69
271.698	333.69
271.93	326.69
272.162	335.69
272.394	330.69
272.626	313.69
272.858	304.69
273.09	297.69
273.322	288.69
273.553	283.69
273.785	290.69
274.017	273.69
274.249	280.69
274.481	277.69
274.713	277.69
274.945	296.69
275.176	266.69
275.408	278.69
275.64	280.69
275.872	278.69
276.104	287.69
276.335	272.69
276.567	277.69
276.799	290.69
277.031	306.69
277.262	318.69
277.494	337.69
277.726	318.69
277.957	313.69
278.189	283.69
278.421	278.69
278.652	277.69
278.884	289.69
279.115	288.69
279.347	271.69
279.579	279.69
279.81	277.69
280.042	275.69
280.273	269.69
280.505	280.69
280.736	287.69
280.968	277.69
281.199	290.69
281.431	299.69
281.662	271.69
281.894	282.69
282.125	275.69
282.356	290.69
282.588	318.69
282.819	316.69
283.051	293.69
283.282	277.69
283.513	281.69
283.745	257.69
283.976	274.69
284.207	280.69
284.439	284.69
284.67	283.69
284.901	291.69
285.132	273.69
285.364	283.69
285.595	286.69
285.826	274.69
286.057	279.69
286.288	296.69
286.52	304.69
286.751	294.69
286.982	305.69
287.213	279.69
287.444	299.69
287.675	327.69
287.906	306.69
288.138	308.69
288.369	318.69
288.6	324.69
288.831	313.69
289.062	316.69
289.293	308.69
289.524	315.69
289.755	293.69
289.986	316.69
290.217	327.69
290.448	299.69
290.679	310.69
290.91	300.69
291.141	313.69
291.371	309.69
291.602	310.69
291.833	287.69
292.064	298.69
292.295	302.69
292.526	293.69
292.757	308.69
292.987	296.69
293.218	296.69
293.449	302.69
293.68	308.69
293.91	296.69
294.141	291.69
294.372	311.69
294.603	310.69
294.833	313.69
295.064	312.69
295.295	316.69
295.525	287.69
295.756	301.69
295.987	315.69
296.217	332.69
296.448	358.69
296.679	317.69
296.909	291.69
297.14	295.69
297.37	307.69
297.601	313.69
297.831	293.69
298.062	306.69
298.292	306.69
298.523	312.69
298.753	321.69
298.984	305.69
299.214	307.69
299.445	310.69
299.675	309.69
299.905	313.69
300.136	311.69
300.366	335.69
300.597	324.69
300.827	334.69
301.057	333.69
301.288	335.69
301.518	336.69
301.748	350.69
301.979	342.69
302.209	339.69
302.439	340.69
302.669	328.69
302.9	328.69
303.13	334.69
303.36	344.69
303.59	334.69
303.82	323.69
304.051	345.69
304.281	356.69
304.511	335.69
304.741	327.69
304.971	323.69
305.201	330.69
305.431	321.69
305.661	334.69
305.891	314.69
306.121	328.69
306.352	355.69
306.582	349.69
306.812	338.69
307.042	332.69
307.272	354.69
307.502	325.69
307.731	336.69
307.961	318.69
308.191	324.69
308.421	324.69
308.651	363.69
308.881	352.69
309.111	356.69
309.341	365.69
309.571	351.69
309.8	364.69
310.03	379.69
310.26	389.69
310.49	386.69
310.72	423.69
310.949	408.69
311.179	413.69
311.409	393.69
311.639	397.69
311.868	404.69
312.098	401.69
312.328	400.69
312.557	421.69
312.787	431.69
313.017	437.69
313.246	405.69
313.476	390.69
313.706	385.69
313.935	396.69
314.165	400.69
314.394	418.69
314.624	399.69
314.853	399.69
315.083	419.69
315.312	405.69
315.542	384.69
315.771	372.69
316.001	376.69
316.23	384.69
316.46	371.69
316.689	405.69
316.919	392.69
317.148	376.69
317.377	397.69
317.607	417.69
317.836	390.69
318.065	391.69
318.295	408.69
318.524	393.69
318.753	396.69
318.983	400.69
319.212	405.69
319.441	408.69
319.67	397.69
319.9	386.69
320.129	422.69
320.358	391.69
320.587	391.69
320.816	397.69
321.046	431.69
321.275	405.69
321.504	408.69
321.733	412.69
321.962	432.69
322.191	447.69
322.42	429.69
322.649	466.69
322.878	468.69
323.108	488.69
323.337	530.69
323.566	533.69
323.795	583.69
324.024	627.69
324.253	773.69
324.482	1055.69
324.71	1618.69
324.939	2265.69
325.168	1937.69
325.397	1097.69
325.626	727.69
325.855	613.69
326.084	566.69
326.313	535.69
326.542	551.69
326.77	575.69
326.999	701.69
327.228	921.69
327.457	1441.69
327.686	1688.69
327.914	1166.69
328.143	772.69
328.372	644.69
328.6	643.69
328.829	608.69
329.058	600.69
329.287	627.69
329.515	567.69
329.744	534.69
329.972	526.69
330.201	510.69
330.43	543.69
330.658	574.69
330.887	615.69
331.115	606.69
331.344	548.69
331.572	512.69
331.801	522.69
332.03	504.69
332.258	480.69
332.486	457.69
332.715	442.69
332.943	461.69
333.172	433.69
333.4	456.69
333.629	454.69
333.857	462.69
334.085	475.69
334.314	475.69
334.542	478.69
334.771	475.69
334.999	461.69
335.227	460.69
335.455	464.69
335.684	457.69
335.912	449.69
336.14	467.69
336.369	444.69
336.597	456.69
336.825	467.69
337.053	454.69
337.281	429.69
337.51	449.69
337.738	444.69
337.966	440.69
338.194	451.69
338.422	443.69
338.65	447.69
338.878	444.69
339.106	446.69
339.334	450.69
339.562	423.69
339.79	436.69
340.018	451.69
340.246	437.69
340.474	432.69
340.702	446.69
340.93	451.69
341.158	442.69
341.386	411.69
341.614	431.69
341.842	443.69
342.07	440.69
342.298	425.69
342.526	435.69
342.754	422.69
342.981	409.69
343.209	417.69
343.437	416.69
343.665	420.69
343.893	434.69
344.12	415.69
344.348	437.69
344.576	442.69
344.804	458.69
345.031	434.69
345.259	469.69
345.487	439.69
345.714	420.69
345.942	451.69
346.17	413.69
346.397	433.69
346.625	420.69
346.853	426.69
347.08	424.69
347.308	438.69
347.535	448.69
347.763	431.69
347.99	431.69
348.218	436.69
348.445	436.69
348.673	413.69
348.9	429.69
349.128	407.69
349.355	410.69
349.583	411.69
349.81	416.69
350.037	408.69
350.265	414.69
350.492	408.69
350.72	404.69
350.947	399.69
351.174	417.69
351.402	458.69
351.629	427.69
351.856	409.69
352.083	418.69
352.311	430.69
352.538	419.69
352.765	448.69
352.992	439.69
353.22	427.69
353.447	425.69
353.674	387.69
353.901	396.69
354.128	402.69
354.355	392.69
354.583	400.69
354.81	407.69
355.037	366.69
355.264	379.69
355.491	381.69
355.718	380.69
355.945	379.69
356.172	373.69
356.399	365.69
356.626	377.69
356.853	390.69
357.08	386.69
357.307	375.69
357.534	392.69
357.761	372.69
357.988	389.69
358.215	382.69
358.441	380.69
358.668	388.69
358.895	367.69
359.122	401.69
359.349	402.69
359.576	421.69
359.802	441.69
360.029	446.69
360.256	465.69
360.483	469.69
360.709	427.69
360.936	407.69
361.163	424.69
361.39	428.69
361.616	419.69
361.843	402.69
362.07	417.69
362.296	420.69
362.523	419.69
362.749	424.69
362.976	396.69
363.203	396.69
363.429	401.69
363.656	402.69
363.882	398.69
364.109	398.69
364.335	380.69
364.562	407.69
364.788	391.69
365.015	381.69
365.241	403.69
365.468	402.69
365.694	395.69
365.92	399.69
366.147	421.69
366.373	404.69
366.599	386.69
366.826	380.69
367.052	393.69
367.278	380.69
367.505	397.69
367.731	377.69
367.957	391.69
368.184	379.69
368.41	384.69
368.636	383.69
368.862	395.69
369.089	403.69
369.315	375.69
369.541	373.69
369.767	369.69
369.993	383.69
370.219	392.69
370.445	390.69
370.672	375.69
370.898	381.69
371.124	375.69
371.35	382.69
371.576	377.69
371.802	381.69
372.028	373.69
372.254	379.69
372.48	385.69
372.706	382.69
372.932	374.69
373.158	385.69
373.384	368.69
373.61	392.69
373.835	386.69
374.061	394.69
374.287	375.69
374.513	364.69
374.739	384.69
374.965	389.69
375.191	382.69
375.416	391.69
375.642	377.69
375.868	373.69
376.094	382.69
376.319	379.69
376.545	381.69
376.771	382.69
376.997	375.69
377.222	360.69
377.448	366.69
377.674	383.69
377.899	375.69
378.125	369.69
378.35	383.69
378.576	375.69
378.802	365.69
379.027	386.69
379.253	379.69
379.478	387.69
379.704	369.69
379.929	366.69
380.155	390.69
380.38	385.69
380.606	377.69
380.831	391.69
381.057	373.69
381.282	392.69
381.507	379.69
381.733	367.69
381.958	387.69
382.184	402.69
382.409	380.69
382.634	367.69
382.86	384.69
383.085	372.69
383.31	379.69
383.535	387.69
383.761	399.69
383.986	386.69
384.211	393.69
384.436	385.69
384.662	365.69
384.887	391.69
385.112	394.69
385.337	394.69
385.562	403.69
385.787	399.69
386.013	418.69
386.238	413.69
386.463	403.69
386.688	402.69
386.913	380.69
387.138	428.69
387.363	402.69
387.588	403.69
387.813	390.69
388.038	425.69
388.263	403.69
388.488	412.69
388.713	420.69
388.938	415.69
389.163	408.69
389.387	399.69
389.612	392.69
389.837	407.69
390.062	420.69
390.287	393.69
390.512	399.69
390.736	410.69
390.961	411.69
391.186	403.69
391.411	411.69
391.636	392.69
391.86	407.69
392.085	410.69
392.31	389.69
392.534	425.69
392.759	391.69
392.984	409.69
393.208	405.69
393.433	389.69
393.658	384.69
393.882	390.69
394.107	386.69
394.331	400.69
394.556	407.69
394.78	395.69
395.005	400.69
395.229	409.69
395.454	402.69
395.678	408.69
395.903	427.69
396.127	447.69
396.352	437.69
396.576	425.69
396.801	415.69
397.025	413.69
397.249	409.69
397.474	411.69
397.698	441.69
397.922	439.69
398.147	465.69
398.371	434.69
398.595	435.69
398.82	446.69
399.044	433.69
399.268	454.69
399.492	483.69
399.717	510.69
399.941	527.69
400.165	564.69
400.389	573.69
400.613	526.69
400.837	478.69
401.062	463.69
401.286	465.69
401.51	446.69
401.734	460.69
401.958	454.69
402.182	455.69
402.406	466.69
402.63	465.69
402.854	459.69
403.078	449.69
403.302	461.69
403.526	462.69
403.75	480.69
403.974	449.69
404.198	479.69
404.422	471.69
404.645	466.69
404.869	471.69
405.093	491.69
405.317	524.69
405.541	531.69
405.765	515.69
405.988	503.69
406.212	511.69
406.436	524.69
406.66	526.69
406.883	501.69
407.107	547.69
407.331	589.69
407.555	637.69
407.778	613.69
408.002	561.69
408.226	542.69
408.449	539.69
408.673	539.69
408.896	547.69
409.12	577.69
409.344	551.69
409.567	507.69
409.791	495.69
410.014	475.69
410.238	462.69
410.461	461.69
410.685	478.69
410.908	487.69
411.132	522.69
411.355	535.69
411.578	524.69
411.802	488.69
412.025	453.69
412.249	457.69
412.472	489.69
412.695	472.69
412.919	478.69
413.142	449.69
413.365	435.69
413.589	436.69
413.812	425.69
414.035	433.69
414.258	439.69
414.482	439.69
414.705	429.69
414.928	443.69
415.151	446.69
415.374	413.69
415.597	431.69
415.821	439.69
416.044	430.69
416.267	446.69
416.49	437.69
416.713	445.69
416.936	438.69
417.159	441.69
417.382	454.69
417.605	435.69
417.828	448.69
418.051	470.69
418.274	451.69
418.497	449.69
418.72	439.69
418.943	451.69
419.166	466.69
419.389	484.69
419.611	478.69
419.834	448.69
420.057	472.69
420.28	460.69
420.503	447.69
420.726	455.69
420.948	468.69
421.171	499.69
421.394	545.69
421.617	469.69
421.839	451.69
422.062	462.69
422.285	472.69
422.507	529.69
422.73	601.69
422.953	587.69
423.175	500.69
423.398	493.69
423.621	473.69
423.843	498.69
424.066	522.69
424.288	529.69
424.511	524.69
424.733	575.69
424.956	641.69
425.178	619.69
425.401	623.69
425.623	646.69
425.846	573.69
426.068	528.69
426.291	512.69
426.513	475.69
426.735	517.69
426.958	572.69
427.18	629.69
427.402	750.69
427.625	859.69
427.847	766.69
428.069	630.69
428.292	560.69
428.514	527.69
428.736	476.69
428.958	492.69
429.181	462.69
429.403	463.69
429.625	507.69
429.847	509.69
430.069	571.69
430.292	580.69
430.514	494.69
430.736	485.69
430.958	455.69
431.18	427.69
431.402	446.69
431.624	437.69
431.846	426.69
432.068	432.69
432.29	412.69
432.512	431.69
432.734	441.69
432.956	454.69
433.178	436.69
433.4	457.69
433.622	430.69
433.844	433.69
434.066	432.69
434.287	443.69
434.509	455.69
434.731	439.69
434.953	451.69
435.175	460.69
435.397	492.69
435.618	504.69
435.84	566.69
436.062	658.69
436.284	675.69
436.505	600.69
436.727	517.69
436.949	481.69
437.17	477.69
437.392	456.69
437.614	496.69
437.835	546.69
438.057	624.69
438.278	741.69
438.5	706.69
438.721	776.69
438.943	709.69
439.165	607.69
439.386	548.69
439.608	527.69
439.829	525.69
440.05	544.69
440.272	601.69
440.493	574.69
440.715	513.69
440.936	481.69
441.158	468.69
441.379	472.69
441.6	502.69
441.822	500.69
442.043	542.69
442.264	655.69
442.486	674.69
442.707	577.69
442.928	509.69
443.149	521.69
443.371	556.69
443.592	589.69
443.813	681.69
444.034	725.69
444.255	635.69
444.476	555.69
444.698	500.69
444.919	512.69
445.14	591.69
445.361	543.69
445.582	539.69
445.803	598.69
446.024	693.69
446.245	711.69
446.466	657.69
446.687	574.69
446.908	506.69
447.129	486.69
447.35	471.69
447.571	478.69
447.792	472.69
448.013	478.69
448.234	488.69
448.455	574.69
448.675	642.69
448.896	753.69
449.117	659.69
449.338	600.69
449.559	707.69
449.779	805.69
450	639.69
450.221	533.69
450.442	480.69
450.662	470.69
450.883	489.69
451.104	505.69
451.324	491.69
451.545	465.69
451.766	441.69
451.986	430.69
452.207	428.69
452.428	415.69
452.648	418.69
452.869	428.69
453.089	441.69
453.31	455.69
453.53	432.69
453.751	429.69
453.971	415.69
454.192	447.69
454.412	448.69
454.633	403.69
454.853	411.69
455.073	416.69
455.294	443.69
455.514	485.69
455.734	484.69
455.955	415.69
456.175	381.69
456.395	412.69
456.616	403.69
456.836	383.69
457.056	406.69
457.276	389.69
457.497	383.69
457.717	402.69
457.937	407.69
458.157	400.69
458.377	420.69
458.598	424.69
458.818	492.69
459.038	570.69
459.258	581.69
459.478	488.69
459.698	455.69
459.918	434.69
460.138	433.69
460.358	436.69
460.578	449.69
460.798	423.69
461.018	432.69
461.238	450.69
461.458	438.69
461.678	435.69
461.898	433.69
462.118	451.69
462.338	441.69
462.558	427.69
462.777	437.69
462.997	471.69
463.217	455.69
463.437	462.69
463.657	456.69
463.876	460.69
464.096	463.69
464.316	468.69
464.536	449.69
464.755	444.69
464.975	465.69
465.195	525.69
465.414	607.69
465.634	520.69
465.854	486.69
466.073	466.69
466.293	430.69
466.512	436.69
466.732	433.69
466.951	421.69
467.171	407.69
467.391	427.69
467.61	422.69
467.829	452.69
468.049	423.69
468.268	425.69
468.488	435.69
468.707	411.69
468.927	416.69
469.146	413.69
469.365	404.69
469.585	413.69
469.804	430.69
470.023	436.69
470.243	418.69
470.462	439.69
470.681	471.69
470.901	450.69
471.12	416.69
471.339	418.69
471.558	423.69
471.777	408.69
471.997	406.69
472.216	431.69
472.435	399.69
472.654	435.69
472.873	412.69
473.092	420.69
473.311	421.69
473.53	438.69
473.749	421.69
473.968	468.69
474.187	587.69
474.406	634.69
474.625	487.69
474.844	438.69
475.063	458.69
475.282	424.69
475.501	447.69
475.72	439.69
475.939	441.69
476.158	435.69
476.377	463.69
476.596	445.69
476.814	455.69
477.033	463.69
477.252	463.69
477.471	440.69
477.69	448.69
477.908	467.69
478.127	443.69
478.346	462.69
478.564	463.69
478.783	466.69
479.002	461.69
479.22	471.69
479.439	503.69
479.658	529.69
479.876	509.69
480.095	541.69
480.313	555.69
480.532	510.69
480.751	504.69
480.969	532.69
481.188	518.69
481.406	535.69
481.624	525.69
481.843	525.69
482.061	503.69
482.28	488.69
482.498	517.69
482.717	496.69
482.935	488.69
483.153	492.69
483.372	515.69
483.59	495.69
483.808	510.69
484.027	510.69
484.245	504.69
484.463	503.69
484.681	520.69
484.9	529.69
485.118	515.69
485.336	513.69
485.554	513.69
485.772	503.69
485.99	507.69
486.209	514.69
486.427	518.69
486.645	525.69
486.863	561.69
487.081	564.69
487.299	531.69
487.517	547.69
487.735	533.69
487.953	537.69
488.171	529.69
488.389	524.69
488.607	547.69
488.825	541.69
489.043	522.69
489.261	535.69
489.479	541.69
489.696	559.69
489.914	556.69
490.132	549.69
490.35	541.69
490.568	556.69
490.786	586.69
491.003	565.69
491.221	570.69
491.439	590.69
491.657	607.69
491.874	604.69
492.092	621.69
492.31	610.69
492.527	623.69
492.745	620.69
492.963	616.69
493.18	623.69
493.398	635.69
493.615	619.69
493.833	656.69
494.05	654.69
494.268	625.69
494.485	641.69
494.703	661.69
494.92	633.69
495.138	629.69
495.355	645.69
495.573	634.69
495.79	659.69
496.008	646.69
496.225	650.69
496.442	645.69
496.66	657.69
496.877	628.69
497.094	636.69
497.312	635.69
497.529	638.69
497.746	654.69
497.963	655.69
498.181	686.69
498.398	687.69
498.615	711.69
498.832	723.69
499.049	718.69
499.267	736.69
499.484	752.69
499.701	779.69
499.918	804.69
500.135	819.69
500.352	835.69
500.569	840.69
500.786	828.69
501.003	820.69
501.22	793.69
501.437	786.69
501.654	794.69
501.871	779.69
502.088	787.69
502.305	756.69
502.522	719.69
502.739	701.69
502.956	685.69
503.172	664.69
503.389	666.69
503.606	696.69
503.823	673.69
504.04	658.69
504.256	659.69
504.473	663.69
504.69	639.69
504.907	639.69
505.123	623.69
505.34	625.69
505.557	625.69
505.773	642.69
505.99	627.69
506.207	650.69
506.423	651.69
506.64	604.69
506.856	625.69
507.073	615.69
507.289	615.69
507.506	574.69
507.722	623.69
507.939	634.69
508.155	639.69
508.372	612.69
508.588	573.69
508.805	607.69
509.021	591.69
509.238	609.69
509.454	614.69
509.67	601.69
509.887	607.69
510.103	603.69
510.319	619.69
510.536	709.69
510.752	1250.69
510.968	995.69
511.184	632.69
511.401	610.69
511.617	587.69
511.833	556.69
512.049	549.69
512.265	552.69
512.481	568.69
512.698	552.69
512.914	572.69
513.13	581.69
513.346	553.69
513.562	574.69
513.778	556.69
513.994	584.69
514.21	593.69
514.426	627.69
514.642	672.69
514.858	683.69
515.074	745.69
515.29	914.69
515.506	1385.69
515.721	1083.69
515.937	715.69
516.153	644.69
516.369	633.69
516.585	600.69
516.801	566.69
517.016	585.69
517.232	582.69
517.448	585.69
517.664	578.69
517.879	577.69
518.095	569.69
518.311	590.69
518.527	569.69
518.742	533.69
518.958	577.69
519.173	547.69
519.389	573.69
519.605	571.69
519.82	580.69
520.036	588.69
520.251	632.69
520.467	624.69
520.682	624.69
520.898	627.69
521.113	669.69
521.329	710.69
521.544	829.69
521.76	1073.69
521.975	1827.69
522.19	1735.69
522.406	935.69
522.621	672.69
522.836	582.69
523.052	573.69
523.267	553.69
523.482	543.69
523.698	540.69
523.913	536.69
524.128	518.69
524.343	491.69
524.559	481.69
524.774	488.69
524.989	509.69
525.204	495.69
525.419	527.69
525.634	499.69
525.849	503.69
526.064	490.69
526.28	477.69
526.495	461.69
526.71	469.69
526.925	447.69
527.14	463.69
527.355	456.69
527.57	464.69
527.785	453.69
527.999	455.69
528.214	442.69
528.429	465.69
528.644	476.69
528.859	437.69
529.074	472.69
529.289	502.69
529.503	593.69
529.718	552.69
529.933	494.69
530.148	488.69
530.363	452.69
530.577	448.69
530.792	453.69
531.007	440.69
531.221	441.69
531.436	441.69
531.651	463.69
531.865	434.69
532.08	442.69
532.295	439.69
532.509	429.69
532.724	422.69
532.938	456.69
533.153	448.69
533.367	444.69
533.582	432.69
533.796	422.69
534.011	449.69
534.225	432.69
534.44	411.69
534.654	395.69
534.868	427.69
535.083	419.69
535.297	421.69
535.511	440.69
535.726	443.69
535.94	473.69
536.154	449.69
536.369	428.69
536.583	418.69
536.797	435.69
537.011	412.69
537.225	410.69
537.44	393.69
537.654	380.69
537.868	420.69
538.082	420.69
538.296	420.69
538.51	419.69
538.724	414.69
538.938	411.69
539.153	429.69
539.367	451.69
539.581	454.69
539.795	421.69
540.009	420.69
540.222	404.69
540.436	429.69
540.65	432.69
540.864	429.69
541.078	431.69
541.292	436.69
541.506	422.69
541.72	409.69
541.934	409.69
542.147	409.69
542.361	418.69
542.575	412.69
542.789	403.69
543.002	399.69
543.216	404.69
543.43	416.69
543.644	405.69
543.857	412.69
544.071	406.69
544.285	435.69
544.498	442.69
544.712	421.69
544.925	420.69
545.139	421.69
545.352	403.69
545.566	403.69
545.779	379.69
545.993	403.69
546.206	409.69
546.42	393.69
546.633	409.69
546.847	413.69
547.06	395.69
547.274	407.69
547.487	398.69
547.7	406.69
547.914	385.69
548.127	405.69
548.34	391.69
548.554	400.69
548.767	385.69
548.98	387.69
549.193	394.69
549.407	384.69
549.62	398.69
549.833	395.69
550.046	372.69
550.259	386.69
550.473	370.69
550.686	384.69
550.899	384.69
551.112	384.69
551.325	388.69
551.538	405.69
551.751	373.69
551.964	376.69
552.177	376.69
552.39	391.69
552.603	386.69
552.816	390.69
553.029	391.69
553.242	394.69
553.455	400.69
553.667	388.69
553.88	427.69
554.093	404.69
554.306	408.69
554.519	407.69
554.732	387.69
554.944	375.69
555.157	383.69
555.37	366.69
555.583	380.69
555.795	369.69
556.008	345.69
556.221	364.69
556.433	351.69
556.646	374.69
556.859	371.69
557.071	368.69
557.284	353.69
557.496	365.69
557.709	372.69
557.921	345.69
558.134	374.69
558.346	357.69
558.559	348.69
558.771	340.69
558.984	344.69
559.196	353.69
559.409	346.69
559.621	341.69
559.833	337.69
560.046	343.69
560.258	350.69
560.47	360.69
560.683	332.69
560.895	345.69
561.107	354.69
561.32	349.69
561.532	353.69
561.744	328.69
561.956	352.69
562.168	347.69
562.381	347.69
562.593	357.69
562.805	339.69
563.017	338.69
563.229	336.69
563.441	351.69
563.653	365.69
563.865	331.69
564.077	352.69
564.289	349.69
564.501	360.69
564.713	374.69
564.925	371.69
565.137	380.69
565.349	371.69
565.561	374.69
565.773	372.69
565.985	378.69
566.197	365.69
566.408	386.69
566.62	407.69
566.832	389.69
567.044	406.69
567.255	408.69
567.467	396.69
567.679	433.69
567.891	411.69
568.102	424.69
568.314	417.69
568.526	407.69
568.737	381.69
568.949	384.69
569.161	361.69
569.372	345.69
569.584	360.69
569.795	346.69
570.007	356.69
570.218	382.69
570.43	383.69
570.641	358.69
570.853	361.69
571.064	341.69
571.276	338.69
571.487	350.69
571.698	327.69
571.91	344.69
572.121	327.69
572.333	323.69
572.544	322.69
572.755	320.69
572.966	313.69
573.178	318.69
573.389	318.69
573.6	297.69
573.811	302.69
574.023	306.69
574.234	295.69
574.445	311.69
574.656	326.69
574.867	304.69
575.078	302.69
575.289	281.69
575.501	289.69
575.712	283.69
575.923	311.69
576.134	302.69
576.345	296.69
576.556	296.69
576.767	268.69
576.978	295.69
577.188	296.69
577.399	285.69
577.61	291.69
577.821	288.69
578.032	294.69
578.243	324.69
578.454	582.69
578.665	411.69
578.875	307.69
579.086	285.69
579.297	289.69
579.508	292.69
579.718	295.69
579.929	276.69
580.14	298.69
580.35	295.69
580.561	288.69
580.772	286.69
580.982	275.69
581.193	286.69
581.403	284.69
581.614	294.69
581.825	284.69
582.035	270.69
582.246	275.69
582.456	279.69
582.667	270.69
582.877	272.69
583.087	263.69
583.298	273.69
583.508	283.69
583.719	276.69
583.929	270.69
584.139	260.69
584.35	266.69
584.56	276.69
584.77	279.69
584.981	258.69
585.191	268.69
585.401	291.69
585.611	254.69
585.821	272.69
586.032	288.69
586.242	267.69
586.452	274.69
586.662	269.69
586.872	271.69
587.082	269.69
587.292	280.69
587.502	269.69
587.713	267.69
587.923	268.69
588.133	264.69
588.343	261.69
588.553	240.69
588.762	251.69
588.972	272.69
589.182	246.69
589.392	252.69
589.602	277.69
589.812	267.69
590.022	258.69
590.232	276.69
590.441	272.69
590.651	261.69
590.861	244.69
591.071	265.69
591.281	266.69
591.49	259.69
591.7	262.69
591.91	265.69
592.119	276.69
592.329	262.69
592.539	287.69
592.748	292.69
592.958	265.69
593.167	274.69
593.377	288.69
593.587	268.69
593.796	272.69
594.006	285.69
594.215	265.69
594.424	262.69
594.634	263.69
594.843	270.69
595.053	257.69
595.262	255.69
595.472	259.69
595.681	266.69
595.89	252.69
596.1	236.69
596.309	254.69
596.518	255.69
596.727	261.69
596.937	247.69
597.146	254.69
597.355	245.69
597.564	249.69
597.774	242.69
597.983	240.69
598.192	247.69
598.401	233.69
598.61	235.69
598.819	237.69
599.028	220.69
599.237	240.69
599.446	238.69
599.655	232.69
599.864	227.69
600.073	247.69
600.282	237.69
600.491	223.69
600.7	215.69
600.909	237.69
601.118	226.69
601.327	219.69
601.536	217.69
601.745	238.69
601.953	225.69
602.162	223.69
602.371	204.69
602.58	213.69
602.789	233.69
602.997	233.69
603.206	224.69
603.415	237.69
603.623	215.69
603.832	210.69
604.041	218.69
604.249	218.69
604.458	230.69
604.666	223.69
604.875	221.69
605.084	247.69
605.292	221.69
605.501	222.69
605.709	230.69
605.918	212.69
606.126	229.69
606.334	248.69
606.543	198.69
606.751	224.69
606.96	217.69
607.168	217.69
607.376	220.69
607.585	216.69
607.793	197.69
608.001	220.69
608.21	224.69
608.418	217.69
608.626	220.69
608.834	207.69
609.043	215.69
609.251	211.69
609.459	219.69
609.667	209.69
609.875	206.69
610.083	210.69
610.291	199.69
610.499	211.69
610.707	227.69
610.916	209.69
611.124	224.69
611.332	226.69
611.54	221.69
611.748	227.69
611.955	209.69
612.163	198.69
612.371	214.69
612.579	205.69
612.787	225.69
612.995	217.69
613.203	220.69
613.411	217.69
613.618	217.69
613.826	199.69
614.034	210.69
614.242	219.69
614.449	207.69
614.657	217.69
614.865	208.69
615.072	211.69
615.28	195.69
615.488	220.69
615.695	233.69
615.903	212.69
616.111	227.69
616.318	220.69
616.526	199.69
616.733	206.69
616.941	208.69
617.148	212.69
617.356	197.69
617.563	198.69
617.771	216.69
617.978	219.69
618.185	201.69
618.393	202.69
618.6	201.69
618.807	204.69
619.015	215.69
619.222	219.69
619.429	222.69
619.637	198.69
619.844	210.69
620.051	198.69
620.258	205.69
620.466	202.69
620.673	187.69
620.88	189.69
621.087	206.69
621.294	187.69
621.501	185.69
621.708	193.69
621.915	203.69
622.122	206.69
622.329	199.69
622.536	202.69
622.743	201.69
622.95	191.69
623.157	181.69
623.364	208.69
623.571	195.69
623.778	194.69
623.985	191.69
624.192	198.69
624.399	202.69
624.606	187.69
624.812	201.69
625.019	195.69
625.226	199.69
625.433	201.69
625.639	183.69
625.846	178.69
626.053	191.69
626.259	179.69
626.466	179.69
626.673	187.69
626.879	175.69
627.086	181.69
627.293	187.69
627.499	198.69
627.706	193.69
627.912	189.69
628.119	177.69
628.325	179.69
628.532	182.69
628.738	178.69
628.945	171.69
629.151	192.69
629.357	185.69
629.564	185.69
629.77	190.69
629.976	178.69
630.183	169.69
630.389	163.69
630.595	162.69
630.802	189.69
631.008	175.69
631.214	178.69
631.42	164.69
631.627	184.69
631.833	172.69
632.039	177.69
632.245	178.69
632.451	171.69
632.657	158.69
632.863	176.69
633.069	169.69
633.275	169.69
633.481	180.69
633.688	171.69
633.893	184.69
634.099	164.69
634.305	172.69
634.511	160.69
634.717	171.69
634.923	157.69
635.129	175.69
635.335	168.69
635.541	160.69
635.747	175.69
635.952	153.69
636.158	171.69
636.364	149.69
636.57	160.69
636.775	161.69
636.981	160.69
637.187	171.69
637.392	152.69
637.598	157.69
637.804	173.69
638.009	173.69
638.215	158.69
638.421	155.69
638.626	160.69
638.832	161.69
639.037	164.69
639.243	147.69
639.448	146.69
639.654	154.69
639.859	150.69
640.065	159.69
640.27	163.69
640.475	155.69
640.681	159.69
640.886	150.69
641.091	160.69
641.297	174.69
641.502	147.69
641.707	163.69
641.913	177.69
642.118	169.69
642.323	139.69
642.528	150.69
642.733	159.69
642.939	140.69
643.144	152.69
643.349	145.69
643.554	149.69
643.759	145.69
643.964	153.69
644.169	161.69
644.374	151.69
644.579	145.69
644.784	150.69
644.989	171.69
645.194	159.69
645.399	157.69
645.604	148.69
645.809	167.69
646.014	162.69
646.219	164.69
646.423	154.69
646.628	147.69
646.833	141.69
647.038	164.69
647.243	150.69
647.447	159.69
647.652	137.69
647.857	157.69
648.062	148.69
648.266	147.69
648.471	156.69
648.676	145.69
648.88	154.69
649.085	159.69
649.289	165.69
649.494	161.69
649.698	161.69
649.903	174.69
650.107	149.69
650.312	145.69
650.516	145.69
650.721	137.69
650.925	138.69
651.13	131.69
651.334	143.69
651.539	149.69
651.743	142.69
651.947	132.69
652.152	137.69
652.356	130.69
652.56	133.69
652.764	143.69
652.969	126.69
653.173	132.69
653.377	134.69
653.581	132.69
653.785	122.69
653.99	129.69
654.194	134.69
654.398	128.69
654.602	123.69
654.806	129.69
655.01	133.69
655.214	129.69
655.418	117.69
655.622	129.69
655.826	130.69
656.03	115.69
656.234	128.69
656.438	127.69
656.642	121.69
656.846	129.69
657.049	120.69
657.253	125.69
657.457	124.69
657.661	111.69
657.865	104.69
658.068	100.69
658.272	98.69
658.476	110.69
658.68	116.69
658.883	88.69
659.087	95.69
659.291	100.69
659.494	109.69
659.698	85.69
659.901	114.69
660.105	91.69
660.309	79.69
660.512	100.69
660.716	93.69
660.919	88.69
661.123	92.69
661.326	86.69
661.53	89.69
661.733	82.69
661.936	91.69
662.14	81.69
662.343	74.69
662.546	84.69
662.75	87.69
662.953	83.69
663.156	97.69
663.36	92.69
663.563	70.69
663.766	80.69
663.969	71.69
664.173	62.69
664.376	86.69
664.579	78.69
664.782	71.69
664.985	83.69
665.188	76.69
665.391	73.69
665.594	82.69
665.797	79.69
666	78.69
666.203	67.69
666.406	70.69
666.609	85.69
666.812	77.69
667.015	77.69
667.218	77.69
667.421	77.69
667.624	81.69
667.827	80.69
668.03	85.69
668.232	76.69
668.435	65.69
668.638	79.69
668.841	74.69
669.043	77.69
669.246	81.69
669.449	78.69
669.651	74.69
669.854	76.69
670.057	82.69
670.259	68.69
670.462	91.69
670.665	65.69
670.867	85.69
671.07	71.69
671.272	76.69
671.475	86.69
671.677	65.69
671.88	81.69
672.082	66.69
672.284	89.69
672.487	83.69
672.689	76.69
672.892	60.69
