Data from 1989.PennyLincolnUp.Lamp.En5.5.200Scan.071819.P2_HRD10591_17-24-13-973.txt Node
Date: Thu Jul 18 17:24:13 EDT 2019
User: cochatt
Spectrometer: HR+D1059
Trigger mode: 1
Integration Time (sec): 1.000000E-1
Scans to average: 1
Electric dark correction enabled: true
Nonlinearity correction enabled: false
Boxcar width: 0
XAxis mode: Wavelengths
Number of Pixels in Spectrum: 2048
>>>>>Begin Spectral Data<<<<<
223.165	-12.12
223.4	-12.12
223.635	-12.12
223.869	-14.12
224.104	-15.12
224.338	-7.12
224.573	-26.12
224.808	-19.12
225.042	-8.12
225.277	-10.12
225.511	-6.12
225.746	8.88
225.98	7.88
226.215	9.88
226.449	23.88
226.683	18.88
226.918	16.88
227.152	31.88
227.387	39.88
227.621	41.88
227.856	29.88
228.09	55.88
228.324	52.88
228.559	58.88
228.793	78.88
229.027	108.88
229.262	106.88
229.496	122.88
229.73	139.88
229.964	169.88
230.199	119.88
230.433	106.88
230.667	117.88
230.901	119.88
231.136	104.88
231.37	120.88
231.604	115.88
231.838	119.88
232.072	135.88
232.306	105.88
232.541	100.88
232.775	104.88
233.009	113.88
233.243	111.88
233.477	101.88
233.711	127.88
233.945	131.88
234.179	118.88
234.413	121.88
234.647	110.88
234.881	116.88
235.115	125.88
235.349	109.88
235.583	125.88
235.817	120.88
236.051	121.88
236.285	139.88
236.519	127.88
236.753	142.88
236.987	154.88
237.221	179.88
237.455	225.88
237.689	196.88
237.922	150.88
238.156	137.88
238.39	133.88
238.624	127.88
238.858	136.88
239.091	119.88
239.325	147.88
239.559	133.88
239.793	140.88
240.027	144.88
240.26	129.88
240.494	168.88
240.728	149.88
240.961	161.88
241.195	141.88
241.429	136.88
241.662	123.88
241.896	139.88
242.13	127.88
242.363	143.88
242.597	140.88
242.83	137.88
243.064	144.88
243.298	149.88
243.531	145.88
243.765	144.88
243.998	133.88
244.232	135.88
244.465	141.88
244.699	154.88
244.932	161.88
245.166	157.88
245.399	150.88
245.633	141.88
245.866	153.88
246.099	155.88
246.333	165.88
246.566	161.88
246.8	157.88
247.033	161.88
247.266	167.88
247.5	173.88
247.733	192.88
247.966	187.88
248.2	193.88
248.433	185.88
248.666	182.88
248.899	197.88
249.133	218.88
249.366	209.88
249.599	211.88
249.832	196.88
250.066	197.88
250.299	200.88
250.532	200.88
250.765	198.88
250.998	257.88
251.231	247.88
251.465	230.88
251.698	210.88
251.931	218.88
252.164	204.88
252.397	222.88
252.63	225.88
252.863	221.88
253.096	246.88
253.329	242.88
253.562	252.88
253.795	265.88
254.028	238.88
254.261	253.88
254.494	244.88
254.727	278.88
254.96	295.88
255.193	291.88
255.426	265.88
255.659	236.88
255.892	249.88
256.124	237.88
256.357	234.88
256.59	247.88
256.823	218.88
257.056	241.88
257.289	217.88
257.521	221.88
257.754	230.88
257.987	222.88
258.22	238.88
258.452	214.88
258.685	220.88
258.918	229.88
259.151	231.88
259.383	233.88
259.616	244.88
259.849	243.88
260.081	253.88
260.314	262.88
260.547	265.88
260.779	287.88
261.012	247.88
261.244	266.88
261.477	262.88
261.71	255.88
261.942	243.88
262.175	269.88
262.407	268.88
262.64	245.88
262.872	233.88
263.105	222.88
263.337	245.88
263.57	225.88
263.802	243.88
264.035	237.88
264.267	234.88
264.499	229.88
264.732	237.88
264.964	216.88
265.197	226.88
265.429	238.88
265.661	231.88
265.894	241.88
266.126	237.88
266.358	237.88
266.591	239.88
266.823	238.88
267.055	239.88
267.287	244.88
267.52	242.88
267.752	229.88
267.984	240.88
268.216	239.88
268.448	252.88
268.681	265.88
268.913	269.88
269.145	287.88
269.377	286.88
269.609	289.88
269.841	289.88
270.073	307.88
270.306	331.88
270.538	345.88
270.77	340.88
271.002	326.88
271.234	334.88
271.466	329.88
271.698	349.88
271.93	343.88
272.162	342.88
272.394	362.88
272.626	345.88
272.858	329.88
273.09	296.88
273.322	310.88
273.553	305.88
273.785	291.88
274.017	275.88
274.249	283.88
274.481	291.88
274.713	276.88
274.945	294.88
275.176	301.88
275.408	286.88
275.64	274.88
275.872	284.88
276.104	287.88
276.335	287.88
276.567	291.88
276.799	320.88
277.031	309.88
277.262	342.88
277.494	344.88
277.726	348.88
277.957	322.88
278.189	307.88
278.421	284.88
278.652	307.88
278.884	301.88
279.115	282.88
279.347	287.88
279.579	308.88
279.81	293.88
280.042	280.88
280.273	292.88
280.505	296.88
280.736	294.88
280.968	273.88
281.199	289.88
281.431	286.88
281.662	290.88
281.894	292.88
282.125	281.88
282.356	317.88
282.588	332.88
282.819	349.88
283.051	302.88
283.282	287.88
283.513	300.88
283.745	307.88
283.976	313.88
284.207	305.88
284.439	306.88
284.67	316.88
284.901	306.88
285.132	282.88
285.364	284.88
285.595	302.88
285.826	297.88
286.057	300.88
286.288	306.88
286.52	316.88
286.751	295.88
286.982	300.88
287.213	307.88
287.444	304.88
287.675	322.88
287.906	309.88
288.138	328.88
288.369	329.88
288.6	330.88
288.831	311.88
289.062	323.88
289.293	321.88
289.524	309.88
289.755	325.88
289.986	306.88
290.217	311.88
290.448	316.88
290.679	327.88
290.91	312.88
291.141	305.88
291.371	300.88
291.602	324.88
291.833	313.88
292.064	317.88
292.295	310.88
292.526	293.88
292.757	300.88
292.987	297.88
293.218	305.88
293.449	309.88
293.68	312.88
293.91	311.88
294.141	296.88
294.372	321.88
294.603	299.88
294.833	320.88
295.064	321.88
295.295	315.88
295.525	313.88
295.756	316.88
295.987	324.88
296.217	347.88
296.448	366.88
296.679	335.88
296.909	320.88
297.14	322.88
297.37	321.88
297.601	305.88
297.831	315.88
298.062	331.88
298.292	318.88
298.523	317.88
298.753	340.88
298.984	313.88
299.214	334.88
299.445	314.88
299.675	329.88
299.905	326.88
300.136	329.88
300.366	325.88
300.597	327.88
300.827	349.88
301.057	329.88
301.288	339.88
301.518	339.88
301.748	350.88
301.979	339.88
302.209	344.88
302.439	350.88
302.669	337.88
302.9	345.88
303.13	352.88
303.36	358.88
303.59	356.88
303.82	358.88
304.051	370.88
304.281	339.88
304.511	334.88
304.741	359.88
304.971	342.88
305.201	342.88
305.431	354.88
305.661	350.88
305.891	361.88
306.121	357.88
306.352	360.88
306.582	343.88
306.812	344.88
307.042	358.88
307.272	369.88
307.502	348.88
307.731	340.88
307.961	349.88
308.191	354.88
308.421	356.88
308.651	380.88
308.881	366.88
309.111	371.88
309.341	375.88
309.571	359.88
309.8	385.88
310.03	405.88
310.26	399.88
310.49	397.88
310.72	419.88
310.949	409.88
311.179	435.88
311.409	417.88
311.639	410.88
311.868	408.88
312.098	422.88
312.328	413.88
312.557	422.88
312.787	450.88
313.017	434.88
313.246	411.88
313.476	409.88
313.706	391.88
313.935	417.88
314.165	425.88
314.394	439.88
314.624	404.88
314.853	409.88
315.083	400.88
315.312	403.88
315.542	412.88
315.771	386.88
316.001	397.88
316.23	428.88
316.46	400.88
316.689	403.88
316.919	396.88
317.148	423.88
317.377	407.88
317.607	415.88
317.836	420.88
318.065	409.88
318.295	411.88
318.524	390.88
318.753	400.88
318.983	391.88
319.212	413.88
319.441	418.88
319.67	424.88
319.9	418.88
320.129	399.88
320.358	407.88
320.587	421.88
320.816	440.88
321.046	433.88
321.275	431.88
321.504	417.88
321.733	423.88
321.962	453.88
322.191	462.88
322.42	475.88
322.649	487.88
322.878	498.88
323.108	519.88
323.337	517.88
323.566	557.88
323.795	590.88
324.024	645.88
324.253	765.88
324.482	1114.88
324.71	1689.88
324.939	2438.88
325.168	2177.88
325.397	1105.88
325.626	761.88
325.855	614.88
326.084	569.88
326.313	535.88
326.542	575.88
326.77	617.88
326.999	723.88
327.228	976.88
327.457	1521.88
327.686	1866.88
327.914	1210.88
328.143	819.88
328.372	699.88
328.6	657.88
328.829	619.88
329.058	602.88
329.287	626.88
329.515	589.88
329.744	546.88
329.972	521.88
330.201	548.88
330.43	582.88
330.658	615.88
330.887	668.88
331.115	647.88
331.344	567.88
331.572	526.88
331.801	518.88
332.03	492.88
332.258	501.88
332.486	478.88
332.715	473.88
332.943	476.88
333.172	482.88
333.4	477.88
333.629	488.88
333.857	485.88
334.085	478.88
334.314	485.88
334.542	474.88
334.771	481.88
334.999	455.88
335.227	451.88
335.455	455.88
335.684	444.88
335.912	468.88
336.14	446.88
336.369	460.88
336.597	475.88
336.825	479.88
337.053	457.88
337.281	466.88
337.51	452.88
337.738	460.88
337.966	453.88
338.194	453.88
338.422	456.88
338.65	440.88
338.878	448.88
339.106	441.88
339.334	410.88
339.562	435.88
339.79	460.88
340.018	441.88
340.246	465.88
340.474	446.88
340.702	450.88
340.93	444.88
341.158	460.88
341.386	447.88
341.614	468.88
341.842	435.88
342.07	447.88
342.298	442.88
342.526	425.88
342.754	428.88
342.981	416.88
343.209	435.88
343.437	436.88
343.665	444.88
343.893	447.88
344.12	453.88
344.348	442.88
344.576	479.88
344.804	446.88
345.031	471.88
345.259	455.88
345.487	476.88
345.714	459.88
345.942	434.88
346.17	437.88
346.397	437.88
346.625	447.88
346.853	428.88
347.08	435.88
347.308	445.88
347.535	448.88
347.763	463.88
347.99	440.88
348.218	439.88
348.445	444.88
348.673	443.88
348.9	439.88
349.128	412.88
349.355	415.88
349.583	425.88
349.81	415.88
350.037	409.88
350.265	426.88
350.492	449.88
350.72	423.88
350.947	414.88
351.174	423.88
351.402	439.88
351.629	447.88
351.856	451.88
352.083	454.88
352.311	450.88
352.538	437.88
352.765	437.88
352.992	440.88
353.22	433.88
353.447	424.88
353.674	419.88
353.901	414.88
354.128	410.88
354.355	417.88
354.583	425.88
354.81	418.88
355.037	405.88
355.264	397.88
355.491	396.88
355.718	372.88
355.945	384.88
356.172	367.88
356.399	401.88
356.626	391.88
356.853	388.88
357.08	393.88
357.307	398.88
357.534	421.88
357.761	407.88
357.988	400.88
358.215	388.88
358.441	401.88
358.668	397.88
358.895	380.88
359.122	397.88
359.349	419.88
359.576	414.88
359.802	438.88
360.029	492.88
360.256	499.88
360.483	466.88
360.709	433.88
360.936	418.88
361.163	441.88
361.39	413.88
361.616	431.88
361.843	448.88
362.07	427.88
362.296	429.88
362.523	416.88
362.749	414.88
362.976	404.88
363.203	421.88
363.429	420.88
363.656	403.88
363.882	410.88
364.109	395.88
364.335	373.88
364.562	391.88
364.788	389.88
365.015	397.88
365.241	393.88
365.468	411.88
365.694	407.88
365.92	428.88
366.147	379.88
366.373	403.88
366.599	409.88
366.826	403.88
367.052	399.88
367.278	403.88
367.505	407.88
367.731	391.88
367.957	412.88
368.184	397.88
368.41	407.88
368.636	440.88
368.862	423.88
369.089	412.88
369.315	397.88
369.541	401.88
369.767	402.88
369.993	400.88
370.219	427.88
370.445	390.88
370.672	378.88
370.898	375.88
371.124	408.88
371.35	377.88
371.576	392.88
371.802	397.88
372.028	371.88
372.254	405.88
372.48	401.88
372.706	398.88
372.932	417.88
373.158	411.88
373.384	393.88
373.61	391.88
373.835	394.88
374.061	396.88
374.287	390.88
374.513	397.88
374.739	411.88
374.965	411.88
375.191	384.88
375.416	395.88
375.642	401.88
375.868	398.88
376.094	383.88
376.319	394.88
376.545	391.88
376.771	371.88
376.997	374.88
377.222	372.88
377.448	406.88
377.674	397.88
377.899	374.88
378.125	391.88
378.35	394.88
378.576	393.88
378.802	359.88
379.027	379.88
379.253	378.88
379.478	381.88
379.704	376.88
379.929	379.88
380.155	379.88
380.38	383.88
380.606	377.88
380.831	393.88
381.057	403.88
381.282	422.88
381.507	391.88
381.733	393.88
381.958	412.88
382.184	411.88
382.409	393.88
382.634	376.88
382.86	403.88
383.085	411.88
383.31	389.88
383.535	389.88
383.761	402.88
383.986	383.88
384.211	397.88
384.436	410.88
384.662	420.88
384.887	403.88
385.112	401.88
385.337	412.88
385.562	407.88
385.787	415.88
386.013	420.88
386.238	441.88
386.463	414.88
386.688	425.88
386.913	396.88
387.138	414.88
387.363	418.88
387.588	415.88
387.813	425.88
388.038	390.88
388.263	407.88
388.488	441.88
388.713	414.88
388.938	406.88
389.163	421.88
389.387	415.88
389.612	395.88
389.837	414.88
390.062	397.88
390.287	400.88
390.512	413.88
390.736	397.88
390.961	381.88
391.186	418.88
391.411	416.88
391.636	404.88
391.86	413.88
392.085	415.88
392.31	422.88
392.534	413.88
392.759	419.88
392.984	421.88
393.208	414.88
393.433	419.88
393.658	410.88
393.882	411.88
394.107	420.88
394.331	391.88
394.556	415.88
394.78	424.88
395.005	425.88
395.229	417.88
395.454	419.88
395.678	440.88
395.903	427.88
396.127	461.88
396.352	476.88
396.576	420.88
396.801	415.88
397.025	422.88
397.249	433.88
397.474	455.88
397.698	433.88
397.922	444.88
398.147	467.88
398.371	468.88
398.595	465.88
398.82	465.88
399.044	476.88
399.268	449.88
399.492	497.88
399.717	520.88
399.941	540.88
400.165	561.88
400.389	556.88
400.613	526.88
400.837	502.88
401.062	492.88
401.286	491.88
401.51	465.88
401.734	456.88
401.958	457.88
402.182	467.88
402.406	483.88
402.63	476.88
402.854	479.88
403.078	487.88
403.302	472.88
403.526	479.88
403.75	462.88
403.974	469.88
404.198	457.88
404.422	483.88
404.645	489.88
404.869	502.88
405.093	497.88
405.317	544.88
405.541	554.88
405.765	483.88
405.988	506.88
406.212	507.88
406.436	526.88
406.66	537.88
406.883	527.88
407.107	533.88
407.331	586.88
407.555	641.88
407.778	664.88
408.002	579.88
408.226	557.88
408.449	534.88
408.673	547.88
408.896	563.88
409.12	593.88
409.344	586.88
409.567	515.88
409.791	491.88
410.014	505.88
410.238	480.88
410.461	480.88
410.685	489.88
410.908	503.88
411.132	511.88
411.355	575.88
411.578	541.88
411.802	499.88
412.025	463.88
412.249	472.88
412.472	465.88
412.695	481.88
412.919	502.88
413.142	483.88
413.365	476.88
413.589	472.88
413.812	462.88
414.035	466.88
414.258	438.88
414.482	444.88
414.705	433.88
414.928	454.88
415.151	443.88
415.374	463.88
415.597	450.88
415.821	449.88
416.044	487.88
416.267	462.88
416.49	442.88
416.713	446.88
416.936	451.88
417.159	451.88
417.382	466.88
417.605	463.88
417.828	469.88
418.051	484.88
418.274	481.88
418.497	461.88
418.72	445.88
418.943	450.88
419.166	439.88
419.389	469.88
419.611	483.88
419.834	469.88
420.057	465.88
420.28	446.88
420.503	456.88
420.726	464.88
420.948	483.88
421.171	526.88
421.394	551.88
421.617	502.88
421.839	469.88
422.062	477.88
422.285	469.88
422.507	577.88
422.73	632.88
422.953	607.88
423.175	528.88
423.398	506.88
423.621	523.88
423.843	542.88
424.066	523.88
424.288	509.88
424.511	547.88
424.733	581.88
424.956	658.88
425.178	663.88
425.401	636.88
425.623	657.88
425.846	571.88
426.068	555.88
426.291	546.88
426.513	519.88
426.735	541.88
426.958	568.88
427.18	661.88
427.402	780.88
427.625	838.88
427.847	736.88
428.069	637.88
428.292	581.88
428.514	517.88
428.736	525.88
428.958	498.88
429.181	487.88
429.403	485.88
429.625	481.88
429.847	523.88
430.069	582.88
430.292	610.88
430.514	505.88
430.736	509.88
430.958	478.88
431.18	457.88
431.402	458.88
431.624	442.88
431.846	463.88
432.068	457.88
432.29	453.88
432.512	463.88
432.734	445.88
432.956	474.88
433.178	463.88
433.4	477.88
433.622	446.88
433.844	460.88
434.066	462.88
434.287	455.88
434.509	467.88
434.731	474.88
434.953	474.88
435.175	490.88
435.397	517.88
435.618	500.88
435.84	570.88
436.062	657.88
436.284	735.88
436.505	597.88
436.727	563.88
436.949	518.88
437.17	513.88
437.392	532.88
437.614	481.88
437.835	546.88
438.057	632.88
438.278	735.88
438.5	730.88
438.721	807.88
438.943	755.88
439.165	610.88
439.386	557.88
439.608	566.88
439.829	559.88
440.05	547.88
440.272	599.88
440.493	567.88
440.715	527.88
440.936	493.88
441.158	491.88
441.379	481.88
441.6	523.88
441.822	543.88
442.043	554.88
442.264	651.88
442.486	709.88
442.707	591.88
442.928	551.88
443.149	554.88
443.371	572.88
443.592	597.88
443.813	714.88
444.034	731.88
444.255	635.88
444.476	573.88
444.698	523.88
444.919	521.88
445.14	609.88
445.361	585.88
445.582	559.88
445.803	635.88
446.024	740.88
446.245	771.88
446.466	679.88
446.687	573.88
446.908	546.88
447.129	516.88
447.35	472.88
447.571	501.88
447.792	473.88
448.013	492.88
448.234	518.88
448.455	545.88
448.675	686.88
448.896	813.88
449.117	663.88
449.338	641.88
449.559	733.88
449.779	827.88
450	663.88
450.221	571.88
450.442	500.88
450.662	498.88
450.883	497.88
451.104	519.88
451.324	492.88
451.545	453.88
451.766	443.88
451.986	445.88
452.207	427.88
452.428	435.88
452.648	445.88
452.869	435.88
453.089	440.88
453.31	474.88
453.53	452.88
453.751	423.88
453.971	455.88
454.192	444.88
454.412	469.88
454.633	428.88
454.853	429.88
455.073	438.88
455.294	483.88
455.514	526.88
455.734	502.88
455.955	442.88
456.175	418.88
456.395	426.88
456.616	397.88
456.836	418.88
457.056	397.88
457.276	388.88
457.497	392.88
457.717	405.88
457.937	409.88
458.157	389.88
458.377	415.88
458.598	443.88
458.818	505.88
459.038	614.88
459.258	600.88
459.478	509.88
459.698	459.88
459.918	458.88
460.138	439.88
460.358	439.88
460.578	431.88
460.798	451.88
461.018	452.88
461.238	465.88
461.458	440.88
461.678	421.88
461.898	438.88
462.118	457.88
462.338	446.88
462.558	439.88
462.777	439.88
462.997	474.88
463.217	493.88
463.437	472.88
463.657	479.88
463.876	460.88
464.096	477.88
464.316	464.88
464.536	469.88
464.755	470.88
464.975	466.88
465.195	518.88
465.414	606.88
465.634	547.88
465.854	497.88
466.073	450.88
466.293	457.88
466.512	442.88
466.732	415.88
466.951	444.88
467.171	447.88
467.391	425.88
467.61	419.88
467.829	456.88
468.049	441.88
468.268	435.88
468.488	409.88
468.707	429.88
468.927	420.88
469.146	418.88
469.365	433.88
469.585	420.88
469.804	423.88
470.023	440.88
470.243	451.88
470.462	438.88
470.681	459.88
470.901	459.88
471.12	426.88
471.339	441.88
471.558	449.88
471.777	424.88
471.997	417.88
472.216	424.88
472.435	435.88
472.654	427.88
472.873	449.88
473.092	427.88
473.311	445.88
473.53	433.88
473.749	444.88
473.968	484.88
474.187	631.88
474.406	622.88
474.625	501.88
474.844	458.88
475.063	422.88
475.282	425.88
475.501	457.88
475.72	461.88
475.939	476.88
476.158	460.88
476.377	459.88
476.596	441.88
476.814	445.88
477.033	468.88
477.252	470.88
477.471	475.88
477.69	467.88
477.908	477.88
478.127	474.88
478.346	476.88
478.564	486.88
478.783	479.88
479.002	499.88
479.22	485.88
479.439	505.88
479.658	513.88
479.876	532.88
480.095	527.88
480.313	566.88
480.532	559.88
480.751	546.88
480.969	548.88
481.188	547.88
481.406	567.88
481.624	531.88
481.843	517.88
482.061	525.88
482.28	538.88
482.498	519.88
482.717	507.88
482.935	500.88
483.153	517.88
483.372	510.88
483.59	507.88
483.808	514.88
484.027	513.88
484.245	527.88
484.463	518.88
484.681	506.88
484.9	515.88
485.118	528.88
485.336	515.88
485.554	537.88
485.772	541.88
485.99	542.88
486.209	541.88
486.427	558.88
486.645	536.88
486.863	559.88
487.081	563.88
487.299	545.88
487.517	553.88
487.735	550.88
487.953	574.88
488.171	533.88
488.389	554.88
488.607	586.88
488.825	546.88
489.043	558.88
489.261	569.88
489.479	574.88
489.696	555.88
489.914	552.88
490.132	565.88
490.35	583.88
490.568	586.88
490.786	581.88
491.003	580.88
491.221	605.88
491.439	606.88
491.657	628.88
491.874	619.88
492.092	625.88
492.31	642.88
492.527	641.88
492.745	610.88
492.963	646.88
493.18	645.88
493.398	645.88
493.615	667.88
493.833	638.88
494.05	678.88
494.268	656.88
494.485	638.88
494.703	645.88
494.92	664.88
495.138	663.88
495.355	653.88
495.573	680.88
495.79	643.88
496.008	648.88
496.225	659.88
496.442	664.88
496.66	670.88
496.877	659.88
497.094	661.88
497.312	667.88
497.529	669.88
497.746	697.88
497.963	691.88
498.181	698.88
498.398	706.88
498.615	702.88
498.832	717.88
499.049	720.88
499.267	769.88
499.484	782.88
499.701	772.88
499.918	789.88
500.135	804.88
500.352	859.88
500.569	858.88
500.786	865.88
501.003	862.88
501.22	834.88
501.437	839.88
501.654	829.88
501.871	812.88
502.088	795.88
502.305	737.88
502.522	740.88
502.739	727.88
502.956	720.88
503.172	696.88
503.389	717.88
503.606	690.88
503.823	681.88
504.04	685.88
504.256	670.88
504.473	658.88
504.69	657.88
504.907	645.88
505.123	669.88
505.34	647.88
505.557	663.88
505.773	635.88
505.99	645.88
506.207	630.88
506.423	673.88
506.64	629.88
506.856	629.88
507.073	622.88
507.289	641.88
507.506	636.88
507.722	634.88
507.939	661.88
508.155	640.88
508.372	607.88
508.588	615.88
508.805	609.88
509.021	622.88
509.238	618.88
509.454	642.88
509.67	618.88
509.887	635.88
510.103	625.88
510.319	635.88
510.536	762.88
510.752	1283.88
510.968	1017.88
511.184	645.88
511.401	608.88
511.617	599.88
511.833	609.88
512.049	584.88
512.265	589.88
512.481	564.88
512.698	573.88
512.914	571.88
513.13	590.88
513.346	574.88
513.562	576.88
513.778	583.88
513.994	588.88
514.21	599.88
514.426	614.88
514.642	668.88
514.858	696.88
515.074	734.88
515.29	915.88
515.506	1386.88
515.721	1103.88
515.937	738.88
516.153	661.88
516.369	626.88
516.585	603.88
516.801	598.88
517.016	614.88
517.232	598.88
517.448	601.88
517.664	616.88
517.879	577.88
518.095	610.88
518.311	600.88
518.527	592.88
518.742	590.88
518.958	576.88
519.173	577.88
519.389	586.88
519.605	565.88
519.82	583.88
520.036	593.88
520.251	639.88
520.467	656.88
520.682	659.88
520.898	665.88
521.113	656.88
521.329	753.88
521.544	851.88
521.76	1058.88
521.975	1817.88
522.19	1774.88
522.406	974.88
522.621	714.88
522.836	636.88
523.052	595.88
523.267	591.88
523.482	536.88
523.698	543.88
523.913	527.88
524.128	544.88
524.343	515.88
524.559	508.88
524.774	503.88
524.989	510.88
525.204	497.88
525.419	531.88
525.634	509.88
525.849	479.88
526.064	498.88
526.28	497.88
526.495	480.88
526.71	485.88
526.925	469.88
527.14	468.88
527.355	481.88
527.57	469.88
527.785	460.88
527.999	467.88
528.214	446.88
528.429	451.88
528.644	469.88
528.859	483.88
529.074	471.88
529.289	503.88
529.503	588.88
529.718	563.88
529.933	511.88
530.148	476.88
530.363	460.88
530.577	476.88
530.792	472.88
531.007	470.88
531.221	465.88
531.436	465.88
531.651	455.88
531.865	460.88
532.08	451.88
532.295	447.88
532.509	439.88
532.724	460.88
532.938	437.88
533.153	450.88
533.367	440.88
533.582	462.88
533.796	450.88
534.011	443.88
534.225	450.88
534.44	444.88
534.654	433.88
534.868	434.88
535.083	456.88
535.297	442.88
535.511	437.88
535.726	485.88
535.94	460.88
536.154	453.88
536.369	419.88
536.583	431.88
536.797	437.88
537.011	435.88
537.225	430.88
537.44	418.88
537.654	426.88
537.868	407.88
538.082	424.88
538.296	431.88
538.51	434.88
538.724	428.88
538.938	421.88
539.153	438.88
539.367	438.88
539.581	423.88
539.795	430.88
540.009	411.88
540.222	435.88
540.436	425.88
540.65	433.88
540.864	409.88
541.078	441.88
541.292	441.88
541.506	433.88
541.72	424.88
541.934	449.88
542.147	441.88
542.361	429.88
542.575	417.88
542.789	418.88
543.002	430.88
543.216	434.88
543.43	435.88
543.644	424.88
543.857	425.88
544.071	429.88
544.285	439.88
544.498	427.88
544.712	428.88
544.925	426.88
545.139	409.88
545.352	433.88
545.566	389.88
545.779	400.88
545.993	414.88
546.206	415.88
546.42	422.88
546.633	411.88
546.847	395.88
547.06	421.88
547.274	410.88
547.487	399.88
547.7	401.88
547.914	411.88
548.127	394.88
548.34	401.88
548.554	402.88
548.767	409.88
548.98	410.88
549.193	410.88
549.407	384.88
549.62	413.88
549.833	411.88
550.046	391.88
550.259	408.88
550.473	419.88
550.686	422.88
550.899	400.88
551.112	407.88
551.325	375.88
551.538	407.88
551.751	399.88
551.964	389.88
552.177	389.88
552.39	403.88
552.603	410.88
552.816	387.88
553.029	415.88
553.242	417.88
553.455	419.88
553.667	408.88
553.88	417.88
554.093	399.88
554.306	411.88
554.519	413.88
554.732	400.88
554.944	393.88
555.157	399.88
555.37	400.88
555.583	391.88
555.795	405.88
556.008	374.88
556.221	382.88
556.433	372.88
556.646	378.88
556.859	365.88
557.071	361.88
557.284	363.88
557.496	381.88
557.709	377.88
557.921	370.88
558.134	341.88
558.346	341.88
558.559	356.88
558.771	349.88
558.984	374.88
559.196	377.88
559.409	357.88
559.621	350.88
559.833	338.88
560.046	370.88
560.258	349.88
560.47	357.88
560.683	357.88
560.895	354.88
561.107	363.88
561.32	350.88
561.532	355.88
561.744	337.88
561.956	359.88
562.168	347.88
562.381	347.88
562.593	354.88
562.805	381.88
563.017	377.88
563.229	359.88
563.441	355.88
563.653	358.88
563.865	372.88
564.077	359.88
564.289	344.88
564.501	378.88
564.713	381.88
564.925	397.88
565.137	395.88
565.349	379.88
565.561	373.88
565.773	411.88
565.985	381.88
566.197	393.88
566.408	389.88
566.62	421.88
566.832	410.88
567.044	414.88
567.255	405.88
567.467	416.88
567.679	443.88
567.891	427.88
568.102	433.88
568.314	389.88
568.526	418.88
568.737	386.88
568.949	394.88
569.161	388.88
569.372	366.88
569.584	373.88
569.795	359.88
570.007	381.88
570.218	415.88
570.43	408.88
570.641	371.88
570.853	351.88
571.064	359.88
571.276	350.88
571.487	357.88
571.698	337.88
571.91	342.88
572.121	335.88
572.333	331.88
572.544	326.88
572.755	321.88
572.966	313.88
573.178	317.88
573.389	324.88
573.6	331.88
573.811	332.88
574.023	316.88
574.234	303.88
574.445	301.88
574.656	298.88
574.867	333.88
575.078	290.88
575.289	306.88
575.501	331.88
575.712	312.88
575.923	305.88
576.134	315.88
576.345	307.88
576.556	304.88
576.767	294.88
576.978	322.88
577.188	328.88
577.399	300.88
577.61	307.88
577.821	283.88
578.032	309.88
578.243	346.88
578.454	611.88
578.665	426.88
578.875	309.88
579.086	295.88
579.297	313.88
579.508	284.88
579.718	286.88
579.929	287.88
580.14	288.88
580.35	283.88
580.561	284.88
580.772	300.88
580.982	291.88
581.193	306.88
581.403	309.88
581.614	303.88
581.825	286.88
582.035	273.88
582.246	283.88
582.456	302.88
582.667	285.88
582.877	273.88
583.087	281.88
583.298	279.88
583.508	265.88
583.719	285.88
583.929	286.88
584.139	275.88
584.35	285.88
584.56	286.88
584.77	299.88
584.981	267.88
585.191	279.88
585.401	265.88
585.611	290.88
585.821	293.88
586.032	294.88
586.242	270.88
586.452	274.88
586.662	269.88
586.872	295.88
587.082	267.88
587.292	273.88
587.502	293.88
587.713	277.88
587.923	286.88
588.133	271.88
588.343	275.88
588.553	273.88
588.762	277.88
588.972	262.88
589.182	271.88
589.392	258.88
589.602	266.88
589.812	277.88
590.022	297.88
590.232	272.88
590.441	264.88
590.651	245.88
590.861	264.88
591.071	266.88
591.281	280.88
591.49	273.88
591.7	281.88
591.91	274.88
592.119	262.88
592.329	258.88
592.539	291.88
592.748	281.88
592.958	281.88
593.167	283.88
593.377	286.88
593.587	273.88
593.796	283.88
594.006	280.88
594.215	290.88
594.424	293.88
594.634	273.88
594.843	260.88
595.053	266.88
595.262	267.88
595.472	273.88
595.681	263.88
595.89	271.88
596.1	263.88
596.309	260.88
596.518	256.88
596.727	259.88
596.937	274.88
597.146	269.88
597.355	254.88
597.564	268.88
597.774	265.88
597.983	239.88
598.192	237.88
598.401	258.88
598.61	238.88
598.819	280.88
599.028	261.88
599.237	259.88
599.446	241.88
599.655	250.88
599.864	246.88
600.073	243.88
600.282	254.88
600.491	232.88
600.7	233.88
600.909	231.88
601.118	240.88
601.327	251.88
601.536	230.88
601.745	252.88
601.953	231.88
602.162	238.88
602.371	251.88
602.58	239.88
602.789	254.88
602.997	253.88
603.206	236.88
603.415	238.88
603.623	225.88
603.832	229.88
604.041	233.88
604.249	233.88
604.458	212.88
604.666	236.88
604.875	215.88
605.084	251.88
605.292	239.88
605.501	253.88
605.709	230.88
605.918	226.88
606.126	230.88
606.334	229.88
606.543	235.88
606.751	230.88
606.96	237.88
607.168	237.88
607.376	212.88
607.585	231.88
607.793	220.88
608.001	226.88
608.21	229.88
608.418	240.88
608.626	236.88
608.834	230.88
609.043	221.88
609.251	218.88
609.459	231.88
609.667	240.88
609.875	226.88
610.083	215.88
610.291	227.88
610.499	207.88
610.707	237.88
610.916	230.88
611.124	213.88
611.332	235.88
611.54	218.88
611.748	226.88
611.955	214.88
612.163	231.88
612.371	232.88
612.579	229.88
612.787	228.88
612.995	230.88
613.203	222.88
613.411	233.88
613.618	225.88
613.826	220.88
614.034	214.88
614.242	207.88
614.449	201.88
614.657	221.88
614.865	229.88
615.072	232.88
615.28	212.88
615.488	214.88
615.695	232.88
615.903	216.88
616.111	212.88
616.318	222.88
616.526	211.88
616.733	240.88
616.941	228.88
617.148	197.88
617.356	238.88
617.563	215.88
617.771	212.88
617.978	211.88
618.185	201.88
618.393	216.88
618.6	203.88
618.807	227.88
619.015	205.88
619.222	217.88
619.429	234.88
619.637	231.88
619.844	213.88
620.051	204.88
620.258	209.88
620.466	209.88
620.673	210.88
620.88	200.88
621.087	223.88
621.294	206.88
621.501	202.88
621.708	209.88
621.915	213.88
622.122	214.88
622.329	191.88
622.536	211.88
622.743	212.88
622.95	192.88
623.157	215.88
623.364	216.88
623.571	210.88
623.778	214.88
623.985	208.88
624.192	189.88
624.399	200.88
624.606	210.88
624.812	200.88
625.019	188.88
625.226	206.88
625.433	214.88
625.639	210.88
625.846	202.88
626.053	173.88
626.259	193.88
626.466	202.88
626.673	202.88
626.879	186.88
627.086	201.88
627.293	180.88
627.499	195.88
627.706	188.88
627.912	193.88
628.119	195.88
628.325	202.88
628.532	206.88
628.738	175.88
628.945	192.88
629.151	199.88
629.357	190.88
629.564	178.88
629.77	171.88
629.976	190.88
630.183	183.88
630.389	199.88
630.595	186.88
630.802	190.88
631.008	190.88
631.214	182.88
631.42	174.88
631.627	192.88
631.833	187.88
632.039	185.88
632.245	189.88
632.451	178.88
632.657	169.88
632.863	179.88
633.069	174.88
633.275	183.88
633.481	192.88
633.688	194.88
633.893	187.88
634.099	178.88
634.305	165.88
634.511	174.88
634.717	184.88
634.923	189.88
635.129	168.88
635.335	181.88
635.541	167.88
635.747	162.88
635.952	168.88
636.158	158.88
636.364	177.88
636.57	186.88
636.775	165.88
636.981	188.88
637.187	174.88
637.392	179.88
637.598	167.88
637.804	166.88
638.009	167.88
638.215	157.88
638.421	178.88
638.626	177.88
638.832	164.88
639.037	173.88
639.243	177.88
639.448	169.88
639.654	169.88
639.859	175.88
640.065	158.88
640.27	173.88
640.475	170.88
640.681	175.88
640.886	165.88
641.091	155.88
641.297	153.88
641.502	161.88
641.707	166.88
641.913	164.88
642.118	171.88
642.323	172.88
642.528	146.88
642.733	163.88
642.939	165.88
643.144	166.88
643.349	168.88
643.554	145.88
643.759	168.88
643.964	165.88
644.169	149.88
644.374	157.88
644.579	150.88
644.784	167.88
644.989	158.88
645.194	161.88
645.399	173.88
645.604	174.88
645.809	157.88
646.014	157.88
646.219	155.88
646.423	171.88
646.628	170.88
646.833	163.88
647.038	158.88
647.243	161.88
647.447	166.88
647.652	171.88
647.857	160.88
648.062	154.88
648.266	153.88
648.471	157.88
648.676	150.88
648.88	143.88
649.085	152.88
649.289	161.88
649.494	177.88
649.698	168.88
649.903	182.88
650.107	146.88
650.312	148.88
650.516	143.88
650.721	153.88
650.925	147.88
651.13	153.88
651.334	141.88
651.539	142.88
651.743	142.88
651.947	152.88
652.152	132.88
652.356	140.88
652.56	135.88
652.764	133.88
652.969	142.88
653.173	134.88
653.377	151.88
653.581	132.88
653.785	151.88
653.99	133.88
654.194	141.88
654.398	133.88
654.602	125.88
654.806	139.88
655.01	142.88
655.214	132.88
655.418	143.88
655.622	128.88
655.826	132.88
656.03	128.88
656.234	138.88
656.438	133.88
656.642	131.88
656.846	142.88
657.049	122.88
657.253	127.88
657.457	105.88
657.661	121.88
657.865	103.88
658.068	119.88
658.272	111.88
658.476	117.88
658.68	99.88
658.883	107.88
659.087	116.88
659.291	99.88
659.494	89.88
659.698	100.88
659.901	115.88
660.105	110.88
660.309	91.88
660.512	107.88
660.716	90.88
660.919	88.88
661.123	110.88
661.326	90.88
661.53	89.88
661.733	104.88
661.936	91.88
662.14	94.88
662.343	80.88
662.546	78.88
662.75	90.88
662.953	81.88
663.156	85.88
663.36	88.88
663.563	79.88
663.766	87.88
663.969	83.88
664.173	77.88
664.376	77.88
664.579	87.88
664.782	72.88
664.985	84.88
665.188	77.88
665.391	75.88
665.594	82.88
665.797	70.88
666	75.88
666.203	92.88
666.406	85.88
666.609	83.88
666.812	77.88
667.015	91.88
667.218	75.88
667.421	84.88
667.624	82.88
667.827	80.88
668.03	84.88
668.232	82.88
668.435	85.88
668.638	76.88
668.841	91.88
669.043	90.88
669.246	86.88
669.449	82.88
669.651	74.88
669.854	90.88
670.057	87.88
670.259	77.88
670.462	81.88
670.665	61.88
670.867	83.88
671.07	83.88
671.272	76.88
671.475	97.88
671.677	94.88
671.88	77.88
672.082	84.88
672.284	101.88
672.487	75.88
672.689	80.88
672.892	94.88
